channel11,channel12,channel13,channel14,channel15
-0.0016631247595697357,-0.007785746191232941,-0.008104571871507787,0.011981950837208929,0.01619642629580811
-0.00167447189583046,-0.00778052939341816,-0.008097792438402864,0.01196351174078525,0.016213831648886002
-0.0016694955034449305,-0.007781226569162992,-0.008101085992783624,0.011963896389472052,0.01621291810825484
-0.0016671154896953295,-0.007779615852787,-0.008129718279407614,0.011967935200683498,0.016195128106490146
-0.0016682453952128167,-0.007776995433608145,-0.008151186484239875,0.011961203848664424,0.016195681038977425
-0.0016762028149210787,-0.007781154447534216,-0.008117938413374234,0.01196360790295695,0.016220995730677732
-0.0016913723975069204,-0.007775048149631199,-0.008098730019576948,0.011978945769343271,0.016225875960891558
-0.0017063015746635087,-0.007774519257686844,-0.00809156593778522,0.011984595296930705,0.016210610216134017
-0.001705412074575274,-0.007773605717055684,-0.008070338138382212,0.011977335052967277,0.01620647524275087
-0.0016905790595903867,-0.007777476244466652,-0.008059784340038022,0.011974498268902095,0.016227943447583132
-0.0016870210592374475,-0.007780649596132786,-0.008059063123750262,0.01196649276810798,0.016236814407922552
-0.0016859632753487355,-0.007778630190527064,-0.008063991435049944,0.011971204714521334,0.016223279582255633
-0.0016843044778868926,-0.00777728392012325,-0.008070602584354391,0.011981157499292391,0.016215634689605397
-0.0016799771801603452,-0.007776105933519911,-0.008075723219997472,0.0119863021754784,0.016222173717281067
-0.001672572692939364,-0.0077770194741510704,-0.008079136977092859,0.011983393269784441,0.016229914772103
-0.0016723082469671862,-0.007778918677042167,-0.00808699823462942,0.011969569957602415,0.016218615716928127
-0.0016827658831396757,-0.0077794956500723735,-0.008092719883845632,0.011961155767578571,0.016211115067535448
-0.0016903146136182086,-0.007781563136763946,-0.008094859492165981,0.011963535781328177,0.016215490446347843
-0.0016814917343646366,-0.007781178488077142,-0.008098080924917966,0.01197675807993707,0.016232751556168185
-0.0016752892742899188,-0.007783534461283818,-0.008099186789892528,0.01197634939070734,0.01621885612235738
-0.0016747603823455634,-0.007785337502003212,-0.008102768830788394,0.011972623106553924,0.016202628755882832
-0.0016572107860101206,-0.00778682801566458,-0.008094018073163595,0.011976469593421966,0.01620996112147503
-0.001654446123573715,-0.007781058285362515,-0.008090820680954536,0.011964160835444231,0.016223616149856582
-0.0016834630588845087,-0.007779519690615299,-0.008109548263893316,0.011958944037629449,0.01621219689196708
-0.0016918291678225002,-0.007780649596132786,-0.008118875994548318,0.011969377633259014,0.01619286829545517
-0.0016850016536317251,-0.007782476677395106,-0.008090027343038002,0.011963896389472052,0.016201162282764386
-0.001680770518076879,-0.007785024974945184,-0.008087575207659627,0.011957958375369514,0.01621289406771191
-0.001688247126926636,-0.00778153909622102,-0.008088608951005412,0.011958343024056316,0.016217990662812067
-0.0016870931808662234,-0.007780505352875234,-0.00808243053147362,0.011957405442882232,0.01619464729563164
-0.0016874778295530276,-0.007785145177659809,-0.008075002003709713,0.011956275537364744,0.01619770044458315
-0.0016716591523082038,-0.007782957488253611,-0.008063462543105587,0.011957838172654887,0.01621058617559109
-0.0016650960840896073,-0.007780577474504009,-0.008064760732423551,0.01195771796994026,0.016207725350982985
-0.0016703369224473144,-0.007779928379845028,-0.00806831873277649,0.011949568225888595,0.016192243241339114
-0.0016750729094035914,-0.007778894636499242,-0.008073920179278077,0.011941274238579382,0.01618717068678189
-0.0016766836257795842,-0.007780938082647889,-0.008078848490577755,0.011943077279298777,0.016199743890731796
-0.0016861315591492124,-0.007782909407167761,-0.008081084261069805,0.011955001388589707,0.016206547364379646
-0.0016954112087183644,-0.007782620920652658,-0.008079209098721634,0.011945914063363957,0.016188204430127667
-0.0016974306143240866,-0.00778682801566458,-0.008079329301436261,0.011926705669566672,0.016174741726089518
-0.0016961083844631972,-0.007784544164086678,-0.008082719017988724,0.011933340859414044,0.016186473511037053
-0.0016935841274560446,-0.007781635258392722,-0.008103874695762955,0.01196122788920735,0.01619440689020239
-0.0016871893430379244,-0.007780457271789385,-0.008107408655572971,0.011961612537894156,0.01618921413293053
-0.0016761306932923034,-0.007777043514693997,-0.00809389787044897,0.011947933468969678,0.016180751861820837
-0.001673654517371001,-0.007774927946916574,-0.008090892802583313,0.011946034266078584,0.016199094796072816
-0.001681251328935384,-0.007773148946740102,-0.008098561735776472,0.011967238024938666,0.0162046962425744
-0.001681419612735861,-0.007778389785097811,-0.008106422993313033,0.011974161701301141,0.016193036579255648
-0.0016747603823455634,-0.007780505352875234,-0.008090123505209703,0.011976734039394143,0.01618760341655454
-0.001656441488636512,-0.0077786061499841375,-0.008085002869566623,0.011979065972057895,0.016208302324013192
-0.0016530036909981993,-0.007782548799023881,-0.008092816046017333,0.011970651782034051,0.016226597177179315
-0.001653797028914733,-0.007780817879933262,-0.00809207078918665,0.011966877416794787,0.01622702990695197
-0.00167218804425256,-0.0077793994879006715,-0.008084930747937848,0.011965915795077777,0.016218014703355
-0.0016855545861190065,-0.007779135041928494,-0.008085651964225605,0.0119636559840428,0.016218086824983772
-0.0016763230176357054,-0.0077837748667130705,-0.008074785638823386,0.01196392043001498,0.016226861623151494
-0.0016801695045037474,-0.0077837748667130705,-0.008059255448093666,0.011971252795607184,0.016212389216310484
-0.0016875259106388784,-0.007783510420740892,-0.00806269324573198,0.011974450187816245,0.01619438284965946
-0.0016944015059155036,-0.007779615852787,-0.008068559138205743,0.011971589363208137,0.016182867429598263
-0.0016921897759663792,-0.00777586552809066,-0.008072982598103991,0.011968343889913228,0.016197291755353418
-0.0016862277213209136,-0.007778173420211485,-0.008061803745643744,0.0119633674975277,0.01619195475482401
-0.0016823331533670212,-0.007777884933696381,-0.00806735711105948,0.01195990565934646,0.01617673709115232
-0.0016686781249854715,-0.007776250176777463,-0.00809389787044897,0.011961203848664424,0.016168178657870926
-0.0016596148403026467,-0.007782789204453134,-0.008099066587177902,0.01196853621425663,0.01618926221401638
-0.001660191813332853,-0.007793222800082699,-0.008072790273760589,0.011959881618803537,0.016193252944141975
-0.0016706975305911937,-0.007792309259451539,-0.008074136544164405,0.011954184010130249,0.016177145780382048
-0.0016662740706929453,-0.007792044813479361,-0.008075050084795563,0.011945673657934705,0.016173275252971082
-0.0016611774755927891,-0.007798487678983331,-0.00807735797691639,0.011942380103553944,0.01619373375500048
-0.0016630285973980347,-0.007796059584147878,-0.008086108734541185,0.011952429050496705,0.016208831215957547
-0.0016732217875983465,-0.007788775299641525,-0.008073775936020525,0.011969257430544387,0.016206210796778694
-0.001672476530767663,-0.007793150678453924,-0.008060289191439453,0.011980556485719263,0.01620039298539078
-0.0016448058658606846,-0.007793270881168548,-0.008057380285745496,0.011981133458749469,0.016206715648180124
-0.0016408632168209414,-0.007791443799906229,-0.00805735624520257,0.011974137660758215,0.016233352569741316
-0.001677308679895641,-0.007788582975298123,-0.008060024745467274,0.011975267566275705,0.016222558365967872
-0.0016896655189592266,-0.007789159948328329,-0.00806319809713341,0.011976253228535641,0.01621169204056565
-0.0016855786266619314,-0.007791347637734528,-0.008065866597398113,0.011970219052261396,0.016212485378482185
-0.0016832947750840314,-0.0077903619754745934,-0.008069015908521323,0.01196360790295695,0.01623378529951397
-0.0016967574791221793,-0.007788967623984926,-0.008082767099074573,0.01194980863131785,0.016219336933215887
-0.0016966853574934034,-0.007791275516105751,-0.00809365746501972,0.01195538603727651,0.01620195562068092
-0.0016852660996039034,-0.007792237137822762,-0.008087142477886972,0.011983249026526891,0.01619399820097266
-0.0016930311949687636,-0.007792669867595419,-0.008071395922270923,0.011991086243520526,0.01621296618934069
-0.0016865402483789422,-0.0077887512590985985,-0.008056009974798755,0.011981494066893349,0.01620592231026359
-0.0016776692880395199,-0.007786395285891924,-0.00808892147806344,0.011973753012071412,0.016188324632842296
-0.0016667789220943755,-0.007791708245878407,-0.008101470641470428,0.01196913722782976,0.01618810826795597
-0.0016737747200856272,-0.007792717948681269,-0.008052932785304322,0.011973272201212906,0.016198638025757234
-0.0016695435845307807,-0.0077938478541987564,-0.008029156688351236,0.01196807944394105,0.016203157647827184
-0.0016563934075506613,-0.007796083624690805,-0.00803656117557222,0.01195812665916999,0.01617887669947267
-0.0016472820417819864,-0.0077933189622544,-0.008061082529355987,0.01195584280759209,0.01617385222600129
-0.0016413680682223716,-0.007793246840625623,-0.008064904975681103,0.011952020361266974,0.016186713916466304
-0.0016618986918805472,-0.007789352272671731,-0.008047908311832944,0.011946587198565863,0.01619902267444404
-0.0016630045568551096,-0.007785938515576344,-0.008037811283804331,0.011955506239991136,0.016186209065064874
-0.0016590619078153655,-0.007787140542722606,-0.008039037351493519,0.01198452317530193,0.016185127240633236
-0.0016563693670077365,-0.0077887512590985985,-0.008044542635823404,0.011998106082054705,0.016195705079520353
-0.0016581243266412804,-0.007791708245878407,-0.008047235176631034,0.011987143594480784,0.01621029768907599
-0.001675120990489442,-0.007787597313038188,-0.00805050469046887,0.011982864377840087,0.016195584876805728
-0.0016800012207032705,-0.007791011070133575,-0.008054206934079359,0.011982864377840087,0.0161956569984345
-0.0016718274361086811,-0.007791443799906229,-0.008056851393801141,0.011988682189228002,0.0162091677835585
-0.0016732458281412716,-0.007791107232305277,-0.00805913524537904,0.011982431648067431,0.01622977052884545
-0.0016778375718399967,-0.007788727218555673,-0.008064544367537223,0.011975892620391759,0.01622880890712844
-0.0016649278002891304,-0.0077896407591868345,-0.008075554936196995,0.011974137660758215,0.016217702176296967
-0.0016572588670959712,-0.007790554299817994,-0.008079834152837691,0.011974498268902095,0.016241478273250055
-0.0016722601658813356,-0.0077954104894888965,-0.008078151314832922,0.011975267566275705,0.01626729781635179
-0.0016747123012597126,-0.007791852489135958,-0.008079954355552317,0.011973921295871888,0.01626592750540505
-0.0016527392450260215,-0.0077896407591868345,-0.008098153046546742,0.011964088713815456,0.016257489274838284
-0.0016414401898511475,-0.007790938948504799,-0.00809846557360477,0.011957453523968084,0.016265086086402668
-0.0016501669069330185,-0.007787308826523084,-0.008069328435579351,0.011967238024938666,0.016268908532727784
-0.001647137798524435,-0.007781875663821974,-0.008049759433638186,0.011973536647185085,0.0162519839905084
-0.0016532440964274519,-0.00778610679937682,-0.008059231407550741,0.011972166336238344,0.016224048879629242
-0.0016610332323352373,-0.007789881164616086,-0.0080372102702312,0.011970146930632622,0.016209864959303332
-0.0016531238937128256,-0.007785698110147093,-0.008025959296142176,0.011959713335003059,0.016211427594593476
-0.0016562491642931098,-0.007785145177659809,-0.00802201664710243,0.011957693929397335,0.01620866293215707
-0.0016543980424878644,-0.007792405421623238,-0.008032354080560297,0.011961564456808304,0.016182218334939283
-0.0016557683534346047,-0.007787909840096216,-0.00803547935114058,0.011968199646655676,0.016180102767161857
-0.0016527632855689468,-0.007794448867771887,-0.00804310020324789,0.011969690160317042,0.016184574308145957
-0.0016476426499258655,-0.007789135907785405,-0.008042018378816252,0.011966420646479207,0.016180823983449614
-0.0016538451100005837,-0.007786659731864102,-0.008038965229864744,0.01197324816066998,0.016170775036506855
-0.0016589417051007394,-0.007792333299994463,-0.008041104838185095,0.011975532012247882,0.01616115881933675
-0.0016530036909981993,-0.007792910273024671,-0.008044157987136601,0.011968800660228807,0.0161680584551563
-0.0016580522050125045,-0.007788030042810842,-0.008046153352199397,0.011966180241049954,0.01617577546943531
-0.0016825495182533484,-0.007788582975298123,-0.008049038217350429,0.011967238024938666,0.01615824991364279
-0.001680506072104701,-0.007786731853492878,-0.00805964009678047,0.011970026727917995,0.016149691480361397
-0.0016676203410967599,-0.007783582542369669,-0.00807466543610876,0.011970627741491128,0.016166736225295412
-0.0016639180974862696,-0.007785024974945184,-0.008077309895830541,0.011958799794371896,0.016176929415495717
-0.0016640623407438212,-0.0077859144750334185,-0.00806694842182975,0.011949928834032477,0.01616678430638126
-0.001656345326464811,-0.00778610679937682,-0.008057981299318628,0.011949496104259822,0.01616012507599096
-0.0016611774755927891,-0.007786178921005597,-0.00805552916394025,0.011959016159258226,0.016167241076696842
-0.0016674039762104324,-0.007785024974945184,-0.00806512134056743,0.01196649276810798,0.016176713050609394
-0.001649589933902812,-0.0077841835559428,-0.008061202732070612,0.011966733173537235,0.01615267250768413
-0.0016441327306587774,-0.007786082758833896,-0.008039013310950595,0.011961324051379051,0.016134281492346306
-0.001644661622603133,-0.00779149188099208,-0.008028747999121507,0.011952621374840105,0.016135002708634064
-0.001639565027502977,-0.007785794272318792,-0.00802329079587747,0.011946995887795594,0.016147936520727855
-0.0016537249072859572,-0.007790746624161396,-0.008030310634411649,0.011967189943852815,0.01613985889830496
-0.001668894489871799,-0.007795001800259169,-0.008050624893183497,0.01197423382292992,0.016121443842424213
-0.001666370232864646,-0.0077956028138323,-0.00808065153129715,0.011954184010130249,0.01612110727482326
-0.0016615861648225185,-0.007794905638087467,-0.008075603017282844,0.011951299144979216,0.01613211784348303
-0.0016632209217414366,-0.007789881164616086,-0.008036849662087321,0.011977383134053127,0.016128896410731047
-0.0016674760978392085,-0.007794569070486514,-0.00801821824132024,0.011989571689316235,0.01611480865257684
-0.0016508640826778508,-0.00779829535463993,-0.008012881240790833,0.011985917526791595,0.016115866436465554
-0.0016471858796102854,-0.007799281016899866,-0.008012568713732803,0.011984643378016557,0.016131108140680167
-0.0016506717583344489,-0.007799737787215445,-0.008021992606559506,0.011976950404280472,0.01612480951843375
-0.0016462482984362006,-0.0078010600170763346,-0.00803954220289495,0.011968151565569823,0.016115169260720718
-0.0016467050687517806,-0.007802286084765523,-0.008033844594221663,0.011971084511806708,0.016111274692766832
-0.001677765450211221,-0.0077948575570016155,-0.008023170593162845,0.011967887119597648,0.016125146086034704
-0.0016954833303471405,-0.007793294921711475,-0.008025526566369522,0.011963848308386205,0.016129064694531518
-0.001675481598633321,-0.0077930304757392954,-0.008032618526532474,0.011961612537894156,0.016114880774205618
-0.0016598071646460489,-0.007797381814008769,-0.008038845027150118,0.011947356495939471,0.01610831770598702
-0.0016689666115005744,-0.00779254966488079,-0.008042931919447412,0.011960554754005441,0.016108798516845525
-0.0016671395302382546,-0.007793126637910997,-0.008053798244849631,0.011961756781151705,0.016115289463435347
-0.0016618986918805472,-0.007795170084059645,-0.008054639663852016,0.011961083645949798,0.01609853320501644
-0.001659278272701693,-0.007794737354286991,-0.008055865731541203,0.011973584728270936,0.01609148932593934
-0.0016591340294441414,-0.0077961317057766545,-0.008057668772260598,0.011972863511983177,0.016092042258426618
-0.0016529315693694234,-0.007798535760069181,-0.008056490785657261,0.0119589921187153,0.01609456651543377
-0.0016372090542963011,-0.007797502016723396,-0.008059880502209724,0.011952981982983984,0.0160744205404624
-0.0016374735002684794,-0.00779824727355408,-0.00804639375762865,0.011953486834385414,0.016058794187560982
-0.0016382187570991625,-0.007799930111558847,-0.00803579187819861,0.0119428128333266,0.0160629051204012
-0.00165396531271521,-0.007800459003503203,-0.00803132033721451,0.011924205453102443,0.01607694479746955
-0.001676948071751762,-0.007802622652366476,-0.008032233877845671,0.011922258169125498,0.016072280932142052
-0.0016710340981921472,-0.007797694341066798,-0.008027017080030887,0.011948438320371109,0.01605889034973268
-0.0016619227324234725,-0.007798054949210677,-0.008016222876257443,0.011964761849017362,0.016064131188090386
-0.0016488446770721286,-0.007802863057795729,-0.008029925985724844,0.011980460323547559,0.016092210542227096
-0.001631607607794715,-0.0078019254766216435,-0.008039878770495903,0.011991759378722436,0.016108990841188928
-0.0016407670546492402,-0.007796444232834684,-0.008029084566722461,0.011979378499115923,0.016099615029448074
-0.0016777414096682958,-0.00779610766523373,-0.008019251984666027,0.01196214142983851,0.016111587219824856
-0.0016814676938217115,-0.007797165449122442,-0.008018699052178745,0.011948702766343288,0.016136348979037873
-0.001669856111588809,-0.007794256543428485,-0.008020694417241543,0.011943125360384627,0.016145556506978253
-0.00165396531271521,-0.0077938478541987564,-0.00802802678283375,0.01195634765899352,0.016135243114063315
-0.0016354060135769064,-0.007796155746319582,-0.0080328348914188,0.011961107686492724,0.016138344344100674
-0.001638723608500593,-0.007794809475915766,-0.008031031850699408,0.011960867281063471,0.016156663237809725
-0.0016447097036889837,-0.007794088259628008,-0.008038027648690658,0.011958174740255841,0.016168899874158683
-0.001624996458490267,-0.007794208462342634,-0.008064688610794776,0.011960410510747891,0.016150076129048202
-0.001649133163587232,-0.007794665232658216,-0.008048004474004642,0.01195995374043231,0.016131228343394796
-0.001681611937079263,-0.007795554732746448,-0.00802283402556189,0.011965819632906077,0.01612161212622469
-0.0016607447458201342,-0.007798631922240883,-0.00802446878248081,0.011958318983513393,0.01608995073119212
-0.0016426181764544856,-0.00779601150306203,-0.00801386690305077,0.011957838172654887,0.01605004342993618
-0.0016524988395967687,-0.007794496948857738,-0.008024877471710537,0.011949616306974449,0.016034200712148432
-0.0016602158538757785,-0.007794376746143111,-0.008054615623309091,0.011938245130170798,0.016042110050770844
-0.001658725340214412,-0.007798920408755986,-0.008041297162528495,0.011950193280004654,0.01605182243011265
-0.001646849312009332,-0.007797093327493666,-0.008016270957343294,0.01195995374043231,0.016043937132033163
-0.0016562491642931098,-0.0077954104894888965,-0.008009467483695444,0.011958559388942646,0.016036099915039532
-0.001654518245202491,-0.007795795138175701,-0.00800949152423837,0.01196899298457221,0.016050932930024416
-0.0016499505420466908,-0.007794208462342634,-0.008005140185968897,0.011978032228712108,0.01607756985158561
-0.001661970813509323,-0.007792237137822762,-0.008006582618544414,0.01197110855234963,0.016079853703163508
-0.0016661538679783189,-0.00779661251663516,-0.008012761038076206,0.011953414712756641,0.016077954500272412
-0.0016716110712223535,-0.0077935834082265764,-0.008018578849464119,0.011951178942264587,0.01609122487996716
-0.0016706013684194925,-0.0077988242465842844,-0.008027906580119122,0.011960122024232788,0.016109880341277163
-0.001658725340214412,-0.0077993771790715654,-0.008054567542223239,0.011957140996910054,0.016115409666149973
-0.0016321124591961453,-0.007790001367330712,-0.008062452840302726,0.01193661037325188,0.016098821691531543
-0.0016229049312557694,-0.007790097529502414,-0.008034084999650916,0.011941226157493531,0.01609730713732725
-0.0016268716208384382,-0.007792285218908614,-0.008011246483871914,0.011947981550055529,0.01611007266562056
-0.0016299488103328715,-0.007792309259451539,-0.008015117011282881,0.011953294510042014,0.016113318138915474
-0.0016226404852835914,-0.0077954345300318235,-0.008037811283804331,0.011959593132288431,0.016096658042668268
-0.0016123992139974292,-0.00779661251663516,-0.008038244013576987,0.011952068442352824,0.016086561014639657
-0.0016255013098916981,-0.007796540395006385,-0.008020742498327394,0.0119521405639816,0.01610507223269211
-0.0016393246220737245,-0.007793439164969026,-0.008006462415829786,0.011957621807768559,0.01611182762525411
-0.0016430989873129909,-0.0077941603812567845,-0.00800446705076699,0.011958895956543598,0.016106154057123748
-0.0016557923939775298,-0.007794929678630392,-0.008011078200071438,0.011971445119950588,0.016115265422892426
-0.0016531238937128256,-0.007796708678806863,-0.008009251118809117,0.01196762267362547,0.016127333775440903
-0.001637545621897255,-0.00779976182775837,-0.008021656038958555,0.011943654252328982,0.016134281492346306
-0.0016473782039536874,-0.007795386448945972,-0.008035527432226429,0.011936442089451405,0.016129401262132474
-0.0016608889890776858,-0.007793631489312428,-0.008027401728717692,0.011951106820635814,0.016130459046021187
-0.0016504313529051961,-0.007791515921535004,-0.008011246483871914,0.011970844106377457,0.016145652669149954
-0.001661201516135714,-0.007796203827405431,-0.008001630266701809,0.011974137660758215,0.016161447305851853
-0.0016637257731428672,-0.0077956028138323,-0.007995980739114372,0.011972983714697804,0.016160365481420216
-0.0016423056493964571,-0.007796997165321965,-0.007994610428167633,0.01197579645822006,0.016159524062417833
-0.0016484359878423992,-0.0078002666791598015,-0.007997375090604037,0.011971974011894941,0.01617120776627951
-0.0016559366372350815,-0.007801661030649465,-0.008005669077913254,0.011967814997968873,0.01619616184983593
-0.0016465848660371539,-0.007801276381962662,-0.008025935255599251,0.011957597767225634,0.016187290889496508
-0.0016343241891452695,-0.00779976182775837,-0.008028146985548375,0.011945096684904498,0.016171568374423392
-0.0016279294047271493,-0.007798103030296526,-0.008000836928785275,0.011945914063363957,0.016169332603931337
-0.0016255493909775485,-0.0077954104894888965,-0.008000043590868741,0.011958919997086523,0.0161908008087636
-0.001633627013400437,-0.007797021205864891,-0.008029829823553145,0.011964809930103213,0.016193204863056126
-0.0016407670546492402,-0.007797838584324348,-0.008047139014459333,0.011963704065128651,0.016179501753588725
-0.0016376177435260307,-0.007798848287127211,-0.008041777973387,0.011950145198918804,0.01618390117294405
-0.0016348050000037748,-0.007792693908138344,-0.008019612592809906,0.011939158670801956,0.016189743024874886
-0.0016383389598137886,-0.0077949537191733176,-0.007995451847170017,0.01197437806618747,0.016174693645003672
-0.0016408632168209414,-0.007793631489312428,-0.00798569138674236,0.01197493099867475,0.01614618156109431
-0.0016385793652430414,-0.007791828448593033,-0.007983022886477655,0.011967454389824992,0.016150629061535485
-0.0016412478655077455,-0.00779098702959065,-0.007982421872904523,0.01196420891653008,0.0161656784414067
-0.0016252368639195199,-0.007792333299994463,-0.00799802418526302,0.0119633674975277,0.016153393723971888
-0.001611365470651643,-0.007788102164439619,-0.008002591888418821,0.011960242226947412,0.01614009930373422
-0.0016281938506993276,-0.007782669001738509,-0.008000235915212144,0.011955241794018958,0.016134113208545832
-0.001654902893889295,-0.007786275083177299,-0.00798619623814379,0.01195026540163343,0.016135243114063315
-0.0016624035432819778,-0.007792766029767119,-0.007974151926138233,0.011950169239461728,0.01613115622176602
-0.0016441327306587774,-0.007794232502885558,-0.007974608696453812,0.011926176777622316,0.016087955366129322
-0.0016389399733869206,-0.00779336704334025,-0.007978310940064303,0.011917113492939491,0.016072761743000555
-0.0016473301228678372,-0.007784664366801305,-0.007982830562134254,0.011936345927279702,0.016073074270058583
-0.0016550952182326972,-0.007788030042810842,-0.00798646068411597,0.011946515076937088,0.016076680351497372
-0.0016543740019449393,-0.007791828448593033,-0.007989177265466522,0.011967454389824992,0.016071006783367012
-0.0016429787845983644,-0.007794977759716244,-0.007991581319759048,0.01196168465952293,0.016062063701398815
-0.001643291311656393,-0.007791347637734528,-0.007994995076854436,0.011966180241049954,0.01607155971585429
-0.0016492052852160074,-0.007791756326964256,-0.008011126281157289,0.011981349823635795,0.016088003447215175
-0.0016459117308352464,-0.007792189056736913,-0.00803963836506665,0.011978777485542793,0.016088436176987832
-0.001642017162881354,-0.007792741989224194,-0.008021343511900527,0.011980316080290009,0.01608031047347909
-0.0016343001486023444,-0.007794232502885558,-0.00800391411827971,0.011966709132994307,0.01610338939468734
-0.0016328336754839034,-0.0077930304757392954,-0.008018867335979223,0.01196351174078525,0.016116515531124538
-0.0016304777022772274,-0.007793246840625623,-0.008014347713909274,0.011960747078348844,0.016121131315366185
-0.0016274726344115695,-0.007790914907961874,-0.008023050390448221,0.011949784590774924,0.016097811988728682
-0.0016154283224060124,-0.007788895502356151,-0.007998288631235197,0.0119475728608258,0.01611471249040514
-0.0016238905935157053,-0.007787092461636756,-0.007962564384448256,0.011950577928691456,0.016130050356791457
-0.00163300195928438,-0.007789087826699554,-0.007949534410182764,0.011959400807945029,0.016144330439289062
-0.0016300449725045727,-0.007795049881345019,-0.007942971341964167,0.011988369662169972,0.016121347680252508
-0.0016286506210149074,-0.007794737354286991,-0.007944822463769412,0.01201416516472878,0.016132189965111808
-0.0016185055119004462,-0.007793078556825147,-0.007951097045472906,0.012041114613348,0.016138248181928973
-0.001620741282392496,-0.007792020772936435,-0.007954198275510265,0.012056813087878196,0.01615050885882086
-0.0016378581489552835,-0.007789496515929283,-0.007954029991709789,0.01205760642579473,0.016137478884555363
-0.0016296603238177686,-0.0077906023809038456,-0.007960833465357638,0.0120389269239418,0.016133512194972697
-0.001634083783716017,-0.007790890867418948,-0.007967853303891815,0.01200173620403642,0.016151951291396374
-0.0016532681369703774,-0.007791636124249632,-0.007973695155822653,0.011987023391766155,0.016158850927215924
-0.0016585810969568606,-0.007797958787038974,-0.007977830129205799,0.011967839038511795,0.016140291628077622
-0.0016480513391555949,-0.007799569503414969,-0.007986725130088145,0.011944904360561096,0.016134185330174602
-0.0016361272298646642,-0.00779843959789748,-0.007996052860743149,0.011952020361266974,0.01615286483202753
-0.0016344924729457466,-0.00779300643519637,-0.007987951197777335,0.011961949105495109,0.016153826453744545
-0.0016416084736516243,-0.007798872327670136,-0.007979537007753492,0.01194788538788383,0.016151734926510047
-0.0016453347578050403,-0.007798559800612106,-0.007982133386389421,0.011959184443058702,0.016127694383584783
-0.0016418007979950267,-0.007795723016546926,-0.007989730197953803,0.011963631943499876,0.016146470047609413
-0.0016484600283853245,-0.007792429462166166,-0.007986725130088145,0.011951419347693842,0.016177121739839127
-0.001650960244849552,-0.007792501583794941,-0.007979585088839343,0.011942163738667615,0.01619705134992417
-0.0016462482984362006,-0.0077950979624308685,-0.007991533238673198,0.011933845710815473,0.0162047924047461
-0.0016486523527287267,-0.007798030908667751,-0.007990619698042038,0.01193889422482978,0.01625364278797024
-0.0016474022444966131,-0.007801204260333886,-0.007989922522297205,0.011948967212315463,0.016302757617166555
-0.0016530036909981993,-0.00780396892277029,-0.008003385226335353,0.011963343456984772,0.016372042461877158
-0.0016615380837366675,-0.007802406287480149,-0.007976171331743956,0.011960242226947412,0.016472363647504287
-0.0016501909474759436,-0.007798175151925303,-0.00797857538603648,0.011958343024056316,0.016644445853763325
-0.0016522103530816653,-0.007801492746848989,-0.007990691819670815,0.011962213551467286,0.016901896027949972
-0.0016717793550228306,-0.007807502882580305,-0.00798208530530357,0.011958150699712915,0.01718360310994821
-0.001666802962637301,-0.007805387314802881,-0.007989682116867953,0.011956588064422772,0.017289621904248622
-0.0016661538679783189,-0.007803728517341039,-0.007974368291024561,0.01195569856433454,0.0173218602723114
-0.0016573069481818216,-0.007804666098515123,-0.007945880247658124,0.011950049036747104,0.01731825419087261
-0.0016345645945745222,-0.007797381814008769,-0.007939413341611228,0.011943077279298777,0.01727745738952844
-0.001635646419006159,-0.007797381814008769,-0.007939124855096125,0.011940937670978428,0.017205768490525304
-0.0016299247697899462,-0.007799569503414969,-0.007944726301597711,0.011939807765460941,0.017137156781016603
-0.0016194671336174568,-0.007801324463048513,-0.007939629706497555,0.011944086982101636,0.01709220096574636
-0.001631246999650836,-0.007801564868477766,-0.007944245490739205,0.011944159103730412,0.01703584993312954
-0.001643844244143674,-0.0078025024496518516,-0.007954558883654143,0.011940024130347268,0.01695646806039032
-0.001658172407727131,-0.0077954104894888965,-0.007958573654322662,0.01194492840110402,0.016895284878645524
-0.0016567780562374654,-0.007799785868301294,-0.007961073870786891,0.011955145631847255,0.01685948851022981
-0.001651801663851936,-0.007807911571810034,-0.007963838533223295,0.011944159103730412,0.016814652897674188
-0.0016640623407438212,-0.0078056517607750595,-0.007968213912035694,0.011936634413794805,0.016759744297632887
-0.0016507919610490752,-0.007808777031355344,-0.007976339615544432,0.011943221522556328,0.016707648441113842
-0.0016255734315204734,-0.007805627720232134,-0.007980739034899756,0.01193574491370657,0.016676059167710047
-0.0016205970391349445,-0.00780396892277029,-0.007973863439623129,0.01192935012928845,0.016641344623725962
-0.0016482677040419226,-0.007807695206923706,-0.007969968871669238,0.011940000089804342,0.01660045166021009
-0.0016584368536993088,-0.007802382246937223,-0.00798660492737352,0.01194569769847763,0.01654773074957499
-0.001659735043017273,-0.007797622219438022,-0.007986244319229641,0.011941274238579382,0.0165283300314343
-0.0016570905832954939,-0.0077998579899300705,-0.007972901817906119,0.011932908129641387,0.01651147761084369
-0.0016524747990538436,-0.0078012283008768125,-0.007967709060634263,0.011929133764402123,0.0164641898629097
-0.001642834541340813,-0.007800915773818783,-0.007967492695747935,0.011932523480954586,0.01641570008782944
-0.0016460078930069476,-0.007803247706482533,-0.007954486762025368,0.0119361536029363,0.016391755707075878
-0.0016512968124505055,-0.007804377612000019,-0.007954150194424414,0.011941490603465707,0.01638012008430005
-0.001644397176630955,-0.007801204260333886,-0.007948091977607248,0.011941322319665229,0.016350790621931233
-0.0016584368536993088,-0.007803896801141515,-0.007944509936711383,0.011932475399868737,0.016328673322439986
-0.0016726928956539904,-0.007803247706482533,-0.00794645722068833,0.011929542453631852,0.016305642482317584
-0.0016717312739369802,-0.007800242638616875,-0.007959126586809943,0.011933629345929148,0.016304969347115682
-0.001665264367890084,-0.007801204260333886,-0.007968790885065899,0.011928460629200216,0.016283885790970218
-0.001664903759746205,-0.007801733152278242,-0.007979416805038865,0.011920575331120727,0.0162586432208987
-0.001660528380933807,-0.007803584274083487,-0.007971892115103258,0.01192497475047605,0.016258547058726994
-0.001654902893889295,-0.00780478630122975,-0.007960136289612804,0.011926946074995923,0.016264220626857357
-0.001630621945534779,-0.007804329530914171,-0.007958958303009467,0.01191432478996016,0.016269293181414592
-0.0016306459860777045,-0.00780625277434819,-0.007963477925079416,0.011916368236108808,0.016245372841203948
-0.001656898258952092,-0.00780533923371703,-0.007968286033664469,0.011939278873516585,0.01623104467762049
-0.0016458396092064711,-0.007801709111735318,-0.007977229115632667,0.011943173441470476,0.0162390501784146
-0.0016360551082358885,-0.0078052430715453295,-0.007997182766260635,0.011929830940146956,0.01622376039311414
-0.0016372811759250774,-0.007804209328199543,-0.007995596090427567,0.011928148102142188,0.016216379946436082
-0.001621967350081684,-0.007800362841331502,-0.007969776547325834,0.011941634846723259,0.016212990229883616
-0.001637257135382152,-0.0078039929633132174,-0.007950471991356848,0.011934302481131054,0.016214817311145942
-0.001665144165175458,-0.007806901869007173,-0.007957203343375923,0.011926200818165242,0.016206643526551347
-0.0016648316381174294,-0.007805219031002405,-0.00796477611439738,0.011943149400927552,0.016195584876805728
-0.001662066975681024,-0.007802526490194777,-0.007963718330508669,0.011955025429132632,0.01616962109044644
-0.001656441488636512,-0.007799281016899866,-0.007955183937770201,0.01195127510443629,0.016173539698943258
-0.0016536768262001068,-0.007798920408755986,-0.007976219412829806,0.011950337523262205,0.016183203997199216
-0.00165442208303079,-0.007799208895271089,-0.007984585521767798,0.011952116523438677,0.0161753908207485
-0.0016542778397732386,-0.007802021638793346,-0.007951241288730456,0.011947380536482395,0.01615728829192578
-0.001657715637411551,-0.007798343435725779,-0.007954751207997546,0.011941442522379858,0.016152239777911474
-0.001658340691527608,-0.007799040611470612,-0.007975113547855244,0.01191829147954283,0.016162961860056144
-0.0016626679892541554,-0.007802646692909402,-0.007952178869904543,0.011914805600818666,0.016156254548579996
-0.0016664183139504967,-0.0077993771790715654,-0.007932417543619976,0.011932908129641387,0.016140580114592722
-0.0016598312051889742,-0.007795290286774272,-0.007934148462710596,0.011942572427897345,0.01615127815619446
-0.001644926068575311,-0.007793823813655829,-0.007942851139249541,0.011943798495586534,0.01616894795524454
-0.0016436759603431974,-0.007798631922240883,-0.007942634774363213,0.011941514644008631,0.016176761131695246
-0.0016675001383821336,-0.007800771530561231,-0.007931311678645414,0.011935023697418813,0.016153946656459167
-0.0016668750842660767,-0.007800771530561231,-0.007930229854213777,0.011930768521321041,0.01616627945497983
-0.001647594568840015,-0.007805531558060435,-0.007940807693100894,0.011938870184286856,0.016194286687487763
-0.0016483638662136235,-0.007804377612000019,-0.007952347153705021,0.011937764319312292,0.016203542296513992
-0.0016441086901158519,-0.00780204567933627,-0.007955905154057958,0.0119155989387352,0.016202652796425753
-0.001637185013753376,-0.007803728517341039,-0.00795554454591408,0.011926849912824224,0.016195945484949605
-0.0016588695834719636,-0.007801564868477766,-0.007956794654146193,0.011951299144979216,0.016211139108078372
-0.0016723082469671862,-0.007799281016899866,-0.007960184370698654,0.011957213118538831,0.016220851487420182
-0.0016624275838249029,-0.007798680003326733,-0.007978551345493556,0.011951659753123095,0.016208085959126862
-0.0016501669069330185,-0.0078019254766216435,-0.008003240983077801,0.011948101752770156,0.01621236517576756
-0.0016511285286500287,-0.007802790936166953,-0.00799350456319307,0.01195437633447365,0.016233112164312058
-0.001646945474181033,-0.007802478409108925,-0.00797157958804523,0.011965915795077777,0.01623854532701317
-0.0016492533663018587,-0.007799833949387145,-0.00797254120976224,0.011962886686669193,0.016226188487949586
-0.0016491572041301573,-0.007799256976356941,-0.007968286033664469,0.011951251063893366,0.01620976879713163
-0.001647762852640492,-0.007802189922593822,-0.00794193759861838,0.0119431013198417,0.01622226987945277
-0.0016464406227796025,-0.007803680436255188,-0.007934364827596923,0.011945096684904498,0.01623753562421031
-0.001647306082324912,-0.007801901436078719,-0.007954558883654143,0.011932643683669213,0.01622226987945277
-0.0016394929058742016,-0.0078025505307377,-0.007959102546267019,0.011913988222359208,0.016199767931274717
-0.0016374013786397035,-0.00780514690937363,-0.007945976409829825,0.011925647885677959,0.016209384148444826
-0.0016373292570109276,-0.007806084490547716,-0.007914795825655758,0.011933100453984793,0.016226356771750064
-0.001642017162881354,-0.007803127503767908,-0.007905299811200278,0.01193711522465331,0.016218062784440847
-0.001640454527591212,-0.007804329530914171,-0.007910156000871181,0.011938749981572228,0.01619144990342258
-0.0016195152147033074,-0.007805315193174106,-0.007916935433976105,0.011933268737785269,0.016190223835733392
-0.0016129521464847106,-0.007805988328376014,-0.007923786988709805,0.01193574491370657,0.016207701310440057
-0.001627809202012523,-0.0078073345987798295,-0.00793001348932745,0.011940913630435502,0.016199743890731796
-0.0016416565547374752,-0.007815388180659792,-0.007932609867963378,0.011925143034276529,0.016175030212604625
-0.0016518497449377867,-0.007812455234422909,-0.007933186840993584,0.011914757519732816,0.016176232239750888
-0.0016642065840013725,-0.007805363274259956,-0.007939918193012659,0.011935720873163646,0.0161863292677795
-0.001652426717967993,-0.007807959652895885,-0.00794746692349119,0.011934374602759831,0.016185463808234192
-0.0016391082571873973,-0.007803944882227366,-0.007955833032429183,0.011937908562569844,0.01615957214350368
-0.0016299007292470214,-0.0078046901390580485,-0.007960737303185934,0.011954087847958546,0.016155028480890808
-0.0016193950119886814,-0.007807262477151053,-0.007962756708791659,0.01195377532090052,0.016173539698943258
-0.0016358147028066358,-0.007804906503944376,-0.00796376641159452,0.011943894657758237,0.016189166051844683
-0.0016382908787279382,-0.007806469139234519,-0.00799081202238544,0.011944303346987964,0.016170174022933723
-0.0016378821894982088,-0.0078096184503577285,-0.008022064728188283,0.011947596901368726,0.01616267337354104
-0.0016417767574521016,-0.00781118108564787,-0.007974296169395784,0.011943750414500685,0.01617808336155614
-0.0016411997844218954,-0.007806493179777444,-0.007940855774186744,0.011939831806003866,0.01619137778179381
-0.0016358147028066358,-0.007805435395888733,-0.007917608569178013,0.011934687129817859,0.016186954321895555
-0.0016283140534139534,-0.0078065172203203685,-0.007907968311464982,0.01193641804890848,0.016173371415142784
-0.0016205008769632429,-0.00780519499045948,-0.00791676715017563,0.011931826305209751,0.016182362578196833
-0.001618217025385343,-0.007806421058148669,-0.007930037529870374,0.01193670653542358,0.016195368511919397
-0.001643940406315375,-0.007807791369095408,-0.007925493867257499,0.011939591400574613,0.016191185457450404
-0.0016747123012597126,-0.007804209328199543,-0.007921767583104084,0.011939711603289237,0.01618536764606249
-0.0016690146925864252,-0.007805771963489686,-0.007922873448078646,0.011941250198036456,0.01619861398521431
-0.0016388678517581445,-0.0078074067204086045,-0.007922729204821094,0.011942163738667615,0.016216524189693632
-0.0016252368639195199,-0.0078054113553458065,-0.0079233061778513,0.0119384374545142,0.016214985594946413
-0.0016243473638312856,-0.007803848720055666,-0.0079346292735691,0.011931826305209751,0.016186088862350248
-0.001618745917329699,-0.0078055555986033575,-0.00794919784258181,0.011926609507394973,0.016176015874864558
-0.0016086969703869385,-0.00780533923371703,-0.007965930060457795,0.0119361536029363,0.016191882633195237
-0.0016023502670546694,-0.007801973557707494,-0.007953621302480058,0.011947861347340905,0.016182915510684112
-0.0016072064567255722,-0.007813657261569172,-0.007934076341081819,0.01192889335897287,0.016163971562859
-0.001623049174513321,-0.007816950815949934,-0.007928162367522204,0.011902568964469708,0.01616728915778269
-0.001624058877316182,-0.007807791369095408,-0.007926936299833017,0.011899587937146974,0.016195344471376473
-0.0016308383104211065,-0.00780625277434819,-0.007928739340552413,0.011910502343635044,0.016207148377952778
-0.001641560392565774,-0.007808079855610511,-0.007941841436446679,0.011921440790666041,0.01619003151138999
-0.001639084216644472,-0.007808368342125616,-0.007956698491974492,0.011936129562393377,0.01618793998415549
-0.0016377379462406572,-0.007808440463754391,-0.007945567720600096,0.01194351000907143,0.016195488714634027
-0.0016380985543845358,-0.0078054113553458065,-0.007929244191953842,0.011945457293048377,0.01621099486482082
-0.0016382908787279382,-0.007806012368918939,-0.007934340787053995,0.011950457725976832,0.016195152147033067
-0.0016314393239942376,-0.007807190355522277,-0.007949221883124736,0.011950145198918804,0.016189718984331962
-0.0016164620657517991,-0.007809137639499223,-0.007953404937593729,0.011943125360384627,0.01619705134992417
-0.0016235540259147516,-0.007813032207453116,-0.007980883278157306,0.01193560067044902,0.016208566769985368
-0.001636463797465618,-0.00781351301831162,-0.00798482592719705,0.011930864683492744,0.016196378214722258
-0.0016216307824807304,-0.007811782099221002,-0.007940374963328237,0.011931778224123902,0.016195104065947222
-0.0016180487415848662,-0.0078104839099030375,-0.007911646514532548,0.011934590967646158,0.01619645033635104
-0.0016215105797661039,-0.007812262910079506,-0.007905708500430006,0.011933629345929148,0.016192796173826397
-0.001627713039840822,-0.007812527356051684,-0.007908425081780562,0.011930528115891787,0.016166736225295412
-0.0016165341873805748,-0.007810267545016711,-0.00791046852792921,0.011926922034453,0.016129954194619756
-0.001616197619779621,-0.007808224098868062,-0.007913329352537316,0.011930455994263012,0.016124184464317695
-0.0016392765409878741,-0.007810219463930859,-0.007913040866022214,0.01193122529163662,0.016115746233750925
-0.001639997757275632,-0.007810147342302084,-0.007914315014797252,0.01192112826360801,0.016094085704575264
-0.0016300690130474976,-0.007812527356051684,-0.007920301109985642,0.011917954911941876,0.016064035025918685
-0.0016254532288058473,-0.007813801504826724,-0.00792604679974478,0.0119293982103743,0.016056582457611854
-0.001627160107353541,-0.007813585139940397,-0.007927537313406148,0.011929927102318657,0.016069059499390064
-0.0016280736479847011,-0.007814450599485706,-0.007925325583457023,0.011945409211962526,0.016072881945715184
-0.0016192267281882045,-0.007813440896682846,-0.007927080543090567,0.011961949105495109,0.016053216781602316
-0.0016213182554227024,-0.007817816275495243,-0.007934004219453044,0.011957020794195429,0.016043047631944928
-0.0016203325931627662,-0.007817191221379187,-0.007941817395903755,0.011947404577025323,0.016064083107004537
-0.0016006674290499007,-0.007812166747907807,-0.007960424776127906,0.011944351428073815,0.01605475537634954
-0.0016108606192502125,-0.00781488332925836,-0.007981243886301186,0.01194036069794822,0.016040162766793896
-0.0016146830655753295,-0.007810628153160589,-0.007963718330508669,0.011938269170713724,0.01602963300899263
-0.0016256455531492495,-0.0078095463287289535,-0.007951698059046037,0.011945216887619124,0.0160361720366683
-0.0016364878380085433,-0.007812551396594609,-0.007936432314288495,0.011946082347164436,0.016054130322233476
-0.0016231212961420971,-0.007813296653425294,-0.007915180474342559,0.011939759684375087,0.016037830834130146
-0.0016064852404378144,-0.007812551396594609,-0.007914843906741608,0.01193487945416126,0.016024704697692953
-0.0016012684426230325,-0.00781711909975041,-0.00792289748862157,0.011941731008894962,0.01604634118632569
-0.001612279011282803,-0.007817431626808438,-0.007926022759201855,0.011940432819576996,0.01606360229614603
-0.0016285544588432064,-0.007814474640028629,-0.007929797124441123,0.011935672792077795,0.016055572754808994
-0.0016406468519346142,-0.007812695639852162,-0.007926623772774987,0.011929927102318657,0.016065140890893247
-0.0016314152834513125,-0.007808055815067586,-0.007924267799568311,0.011920407047320251,0.01607978158153473
-0.0016195632957891578,-0.007804642057972199,-0.007921743542561158,0.011915286411677172,0.016092811555800227
-0.001617303484754183,-0.007806469139234519,-0.007920493434329044,0.011932691764755062,0.01608055087890834
-0.0016189142011301758,-0.007806348936519892,-0.007925734272686752,0.011946875685080969,0.016063265728545082
-0.0016303334590196759,-0.007804978625573151,-0.007930398138014254,0.011938028765284471,0.01607466094589165
-0.0016377379462406572,-0.007808512585383166,-0.007933379165336986,0.011936057440764598,0.016092619231456825
-0.0016351656081476538,-0.007804377612000019,-0.007937129490033328,0.011921560993380664,0.016100384326821683
-0.0016290112291587864,-0.007805796004032611,-0.007951962505018216,0.011930407913177165,0.0160905998258511
-0.0016311267969362096,-0.007808272179953914,-0.007964992479283707,0.011936297846193851,0.01609009497444967
-0.0016309344725928075,-0.007811157045104945,-0.007959943965269403,0.01195040964489098,0.01611459228769051
-0.0016194671336174568,-0.007808416423211465,-0.007953380897050806,0.011984258729329752,0.016111394895481454
-0.0016096345515610238,-0.007809233801670924,-0.007964655911682755,0.012018276097568998,0.016089854569020418
-0.0016070381729250956,-0.0078100992612162344,-0.007962011451960975,0.012045970803018904,0.0160906959880228
-0.0016221837149680116,-0.007809161680042149,-0.007927296907976895,0.012053591655126213,0.01611283732805697
-0.0016225202825689653,-0.007805387314802881,-0.007917223920491209,0.012044576451529235,0.016113366220001327
-0.0016054034160061775,-0.007804545895800498,-0.007918570190895024,0.01202974343654435,0.016095720461494184
-0.0016153081196913866,-0.007803488111911786,-0.007918377866551621,0.01200279398792513,0.01608004602750691
-0.00163208841865322,-0.00780062728730368,-0.0079187384746955,0.011960122024232788,0.016086921622783537
-0.0016207172418495706,-0.007800819611647082,-0.007909723271098526,0.011924854547761429,0.01610543284083599
-0.0016080478757279565,-0.0078001705169880985,-0.00790325636505163,0.011924445858531698,0.016096826326468746
-0.001605980389036384,-0.007802766895624028,-0.007898568459181205,0.011928460629200216,0.016076632270411523
-0.0016142743763456,-0.007800699408932456,-0.007899217553840187,0.011923844844958566,0.016084589690119784
-0.00161838530918582,-0.007804858422858526,-0.007906549919432392,0.011922763020526929,0.01611192378742581
-0.0016149955926333581,-0.007801973557707494,-0.007914002487739224,0.011924806466675576,0.01611247671991309
-0.001611221227394091,-0.007803800638969814,-0.0079187384746955,0.011917137533482416,0.016110890044080024
-0.0016099711191619776,-0.0078031755848537564,-0.007921503137131905,0.011931153170007845,0.016116659774382088
-0.001614923471004582,-0.007804137206570768,-0.007924099515767833,0.01194158676563741,0.01611699634198304
-0.0016217029041095065,-0.007803464071368861,-0.007929268232496766,0.011931994589010227,0.016087594757985442
-0.001617375606382959,-0.007801829314449944,-0.007943932963681177,0.011902785329356036,0.016058145092901994
-0.00159970580733289,-0.0078050267066590035,-0.007953957870081012,0.011885187651934742,0.016065477458494203
-0.001595955482636549,-0.007805747922946761,-0.007946745707203433,0.011924301615274146,0.01607418013503315
-0.001606365037723188,-0.007808320261039764,-0.007951217248187531,0.011952981982983984,0.016074901351320902
-0.001603528253658007,-0.007813633221026248,-0.007959559316582598,0.01194259646844027,0.016083195338630122
-0.0016083363622430595,-0.007813320693968218,-0.007938884449666872,0.01192632102087987,0.016114183598460785
-0.0016135772006007673,-0.007807671166380781,-0.007920998285730474,0.011950385604348057,0.01614384962843056
-0.0016094181866746966,-0.007804329530914171,-0.007924219718482459,0.011955265834561885,0.01617125584736536
-0.0015954265906921931,-0.007800819611647082,-0.007920132826185165,0.011934350562216905,0.01616601500900765
-0.0015990086315880573,-0.00780396892277029,-0.007922152231790887,0.011932379237697034,0.016182001970052953
-0.0016173275252971085,-0.0078115176532488236,-0.007913329352537316,0.011934663089274936,0.016210898702649117
-0.0016158129710928167,-0.0078060604500047905,-0.007910444487386285,0.011926369101965718,0.016206523323836722
-0.0016165582279235,-0.007805435395888733,-0.00794513499082744,0.01192189756098162,0.01618584845692099
-0.001619587336332083,-0.007809137639499223,-0.007948308342493575,0.011923123628670807,0.016171928982567266
-0.001621678863566581,-0.007802766895624028,-0.00789864058080998,0.011920238763519777,0.016182242375482204
-0.001624491607088837,-0.00779747797618047,-0.00787361437562478,0.011918604006600858,0.016191618187223058
-0.0016233617015713494,-0.0078009878954475595,-0.00787164305110491,0.011920935939264608,0.016187290889496508
-0.0016171352009537064,-0.007800362841331502,-0.00787758106520745,0.011908314654228844,0.016171015441936106
-0.0016117020382525964,-0.007800483044046128,-0.007885153836228908,0.011914348830503086,0.016163394589828798
-0.0016118943625959984,-0.0078065412608632955,-0.00789128417467485,0.011918483803886229,0.016163466711457575
-0.0015954746717780435,-0.00779980990884422,-0.00789686158063351,0.011914396911588935,0.016128151153900358
-0.0015962199286087269,-0.007798968489841836,-0.007901813932476114,0.011913122762813895,0.016105456881378915
-0.0015967488205530828,-0.00779843959789748,-0.00790544405445783,0.011910358100377492,0.01609574450203711
-0.001603239767142904,-0.00780113213870511,-0.007903064040708228,0.011885115530305966,0.016094037623489415
-0.0016072064567255722,-0.0078015408279348405,-0.007902679392021425,0.01188687048993951,0.01607785833810071
-0.001600330861448947,-0.00780021859807395,-0.007912776420050035,0.01191148800589498,0.016060621268823298
-0.001585377643749433,-0.0077999541521017735,-0.00791609401497372,0.011926705669566672,0.01606016449850772
-0.0015848247112621515,-0.007804593976886348,-0.007923594664366403,0.011931994589010227,0.016065092809807398
-0.0015923253606548342,-0.007807286517693978,-0.007936552517003122,0.011927234561511029,0.016063458052888478
-0.0015973498341262144,-0.007808007733981734,-0.00793174440841807,0.011922618777269377,0.016033912225633332
-0.001594513050061033,-0.007808151977239288,-0.007928402772951456,0.0119202628040627,0.016032349590343185
-0.001595498712320969,-0.007813224531796517,-0.007941360625588175,0.011912665992498316,0.016047206645871
-0.0016061967539227114,-0.0078092818827567734,-0.007967781182263038,0.011910382140920418,0.016030161900936986
-0.0015987441856158795,-0.007806397017605744,-0.00794568792331472,0.011913507411500702,0.016008285006874998
-0.0016044177537462418,-0.007805627720232134,-0.007904506473283744,0.011914925803533292,0.016005856912039547
-0.0016268716208384382,-0.007805170949916554,-0.007890106188071512,0.011911752451867158,0.016016530913098362
-0.0016212461337939265,-0.007809041477327522,-0.00788818294463749,0.011914781560275742,0.01601924749444892
-0.0016041773483169892,-0.007812743720938013,-0.007888711836581847,0.011916320155022956,0.016008861979905205
-0.0016096345515610238,-0.007807983693438809,-0.007888519512238444,0.01191033405983457,0.016022108319057024
-0.0016175919712692866,-0.007805868125661387,-0.007894120958740031,0.011903458464557941,0.016061895417598337
-0.001613336795171515,-0.007808993396241672,-0.007903136162337005,0.0119041796808457,0.016069732634591972
-0.001609105659616668,-0.007809185720585073,-0.007905756581515858,0.0119041796808457,0.016077185202898806
-0.00161244729508328,-0.007810940680218619,-0.00790539597337198,0.011906343329708972,0.0160973552184131
-0.0016153321602343114,-0.007812166747907807,-0.007906117189659738,0.011909300316488779,0.016114231679546634
-0.0016062929160944124,-0.0078113493694483465,-0.00790813659526546,0.011914541154846487,0.01614211870933994
-0.0015918926308821795,-0.007812118666821956,-0.007909266500782944,0.011910093654405316,0.016143416898657906
-0.0015798483188766222,-0.007808752990812419,-0.007909987717070705,0.011901246734608815,0.016155605453921012
-0.0015827331840276538,-0.00781204654519318,-0.0079209261641017,0.011900453396692285,0.016187218767867734
-0.0015872528060976033,-0.00781550838337442,-0.007935254327685158,0.011914204587245536,0.01620866293215707
-0.0016058361457788324,-0.007812190788450731,-0.007942129922961783,0.011929854980689882,0.016209360107901902
-0.0016137695249441694,-0.007806300855434043,-0.007940230720070688,0.011939326954602435,0.016208711013242918
-0.0016177121739839127,-0.007807550963666155,-0.007940254760613611,0.01193360530538622,0.016222702609225422
-0.0016109087003360627,-0.007815676667174894,-0.007912560055163708,0.011928388507571441,0.016243185151797748
-0.0015902097928774113,-0.0078113493694483465,-0.007891476499018252,0.011922378371840124,0.016236958651180106
-0.0015928782931421154,-0.007814210194056453,-0.00789549126968677,0.01191728177673997,0.016214937513860564
-0.0016010280371937795,-0.007812359072251208,-0.00790736729789185,0.011916031668507856,0.01622116401447821
-0.0015935273878010974,-0.007810027139587458,-0.007917776852978491,0.011908915667801976,0.01622145250099331
-0.0015975661990125418,-0.007810147342302084,-0.007898376134837803,0.0118901880848632,0.0162159231761205
-0.0016015569291381356,-0.00780514690937363,-0.00787955238972732,0.011902496842840931,0.016197435998610968
-0.0016038648212589608,-0.007799184854728164,-0.007879432187012694,0.011908386775857621,0.01619053636279142
-0.0016079757540991807,-0.0078004109224173515,-0.007894337323626358,0.01191240154652614,0.016199383282587916
-0.001615837011635742,-0.007804089125484919,-0.007908473162866412,0.011908675262372723,0.016192892335998098
-0.0016155485251206387,-0.007804089125484919,-0.007899650283612841,0.011907785762284491,0.016159932751647562
-0.0016000183343909185,-0.007808103896153437,-0.007890394674586614,0.011924686263960949,0.0161498838047048
-0.0015836467246588136,-0.007808103896153437,-0.007889481133955455,0.011932811967469691,0.01614899430461656
-0.0015841275355173194,-0.007801180219790961,-0.007896044202174051,0.011924854547761429,0.01613947424961816
-0.0016004991452494238,-0.007808464504297316,-0.00789621248597453,0.011903867153787672,0.016113822990316905
-0.001621101890536375,-0.007806613382492071,-0.007894096918197105,0.011899467734432349,0.016095480056064933
-0.0016101394029624544,-0.007803007301053281,-0.007901693729761489,0.01192346019627176,0.016101658475596727
-0.0016055716998066545,-0.007807767328552483,-0.007917031596147806,0.011923219790842508,0.016095624299322483
-0.0016074949432406751,-0.007806012368918939,-0.00792686417820424,0.011908218492057143,0.016075382162179408
-0.001594104360831304,-0.007805531558060435,-0.0079115984334467,0.01192112826360801,0.016063674417774808
-0.001586315224923518,-0.007807502882580305,-0.007898328053751952,0.011927186480425176,0.01608213755474141
-0.0015896087793042795,-0.007810580072074739,-0.0078981838104944,0.011918027033570651,0.016093532772087984
-0.001594585171689809,-0.007809161680042149,-0.007945062869198664,0.01191728177673997,0.01607165587802599
-0.0015930946580284427,-0.007803055382139132,-0.00796624258751582,0.011923219790842508,0.01606929990481932
-0.0015913877794807491,-0.007803295787568385,-0.007918594231437948,0.011926465264137421,0.016086032122695302
-0.0015929744553138164,-0.007802935179424504,-0.007903376567766258,0.011918652087686709,0.016109062962817704
-0.0015920609146826564,-0.0078019254766216435,-0.007889481133955455,0.011915743181992752,0.016108702354673824
-0.001599321158646086,-0.007806901869007173,-0.007879095619411742,0.011898626315429964,0.016110120746706414
-0.0016237944313440044,-0.0077994012196144925,-0.007881451592618417,0.01188783211165652,0.01613404108691705
-0.0016119664842247745,-0.007801685071192391,-0.007875585700144653,0.011903650788901344,0.016156158386408298
-0.0015805214540785294,-0.007806469139234519,-0.007876859848919691,0.011915911465793228,0.016159235575902733
-0.0015901136307057099,-0.0078006513278466045,-0.007880802497959435,0.011921272506865562,0.01616668814420956
-0.0016002587398201713,-0.007799569503414969,-0.007876234794803634,0.011920431087863177,0.01618745917329699
-0.0015965324556667553,-0.00780396892277029,-0.00788255745759298,0.01192432565581707,0.016195368511919397
-0.0015823725758837748,-0.007797766462695573,-0.007894842175027788,0.011922498574554751,0.016193421227942453
-0.001575545061693,-0.007801420625220212,-0.007902823635278977,0.011920767655464131,0.016189093930215906
-0.001591099292965646,-0.0078110368423903185,-0.00791114166313112,0.011921609074466516,0.016192050916995708
-0.0015979748882422712,-0.007805531558060435,-0.00790467475708422,0.01191747410108337,0.016208879297043396
-0.0015979027666134953,-0.007806613382492071,-0.007886283741746394,0.011916127830679557,0.016200296823219083
-0.001597133469239887,-0.007804666098515123,-0.00788279786302223,0.011917594303797996,0.016178371848071242
-0.0016034801725721564,-0.0078110368423903185,-0.007883879687453868,0.011909468600289257,0.016164572576432137
-0.0015999942938479932,-0.007805627720232134,-0.007889024363639875,0.011896534788195466,0.01616692854963881
-0.0015965805367526061,-0.007799208895271089,-0.007894721972313163,0.011896270342223288,0.01615846627852912
-0.001595306387977567,-0.007800939814361708,-0.007899025229496785,0.011901823707639023,0.016150869466964736
-0.0015934312256293964,-0.007804377612000019,-0.007896525013032556,0.01192372464224394,0.01613293522194249
-0.0015916762659958525,-0.007804666098515123,-0.007897318350949091,0.01192605657490769,0.01613764716835584
-0.001595402550149268,-0.007802478409108925,-0.007901573527046863,0.011916680763166836,0.016135940289808148
-0.0016030474427995015,-0.0078019254766216435,-0.007912968744393437,0.01191615187122248,0.016117885842071276
-0.001604610078089644,-0.007799617584500818,-0.00794362043662315,0.011937812400398142,0.016103533637944898
-0.0015996577262470395,-0.007798175151925303,-0.007961506600559545,0.011945962144449807,0.016105240516492588
-0.0016014848075093595,-0.007805170949916554,-0.007958958303009467,0.011931898426838528,0.01611101024679465
-0.0015888394819306712,-0.007808608747554867,-0.00793275411122093,0.011929903061775729,0.016104543340747755
-0.0015846564274616748,-0.007807454801494454,-0.007878061876065955,0.011928220223770963,0.016095047326292276
-0.0015699916962772645,-0.007806324895976967,-0.007856954279377574,0.011926922034453,0.016103461516316118
-0.0015689098718456274,-0.0078061325716335655,-0.007868854348125578,0.011921104223065086,0.016125025883320078
-0.001593142739114293,-0.007802406287480149,-0.007905540216629531,0.011918916533658886,0.016104687584005302
-0.0016025666319409964,-0.00779976182775837,-0.007887077079662928,0.011921488871751887,0.016083916554917883
-0.0015965564962096804,-0.007799425260157417,-0.007865680996459444,0.011920166641891,0.016090263258250147
-0.001595859320464848,-0.0078044497336287955,-0.007861089252760719,0.011917594303797996,0.016109062962817704
-0.0016026627941126974,-0.007806228733805266,-0.007855944576574712,0.011914829641361592,0.016113702787602283
-0.001602782996827324,-0.0077998579899300705,-0.007864935739628761,0.011913795898015805,0.016094782880320097
-0.0016001385371055448,-0.007796852922064413,-0.007879071578868815,0.01189641458548084,0.016069588391334422
-0.0016009559155650036,-0.007798800206041359,-0.007893423782995198,0.011890620814635851,0.016092715393628526
-0.0015938158743162008,-0.00780281497670988,-0.007893543985709824,0.01189783297751343,0.01609668208321119
-0.001591099292965646,-0.007801661030649465,-0.007889120525811576,0.011905213424191487,0.016074228216118997
-0.001592205157940208,-0.0078013004225055875,-0.00789087548544512,0.011909468600289257,0.01607593509466669
-0.0015889837251882226,-0.007806493179777444,-0.007892942972136692,0.011924926669390202,0.016097932191443308
-0.0015876614953273327,-0.007801853354992867,-0.007893592066795675,0.01192221008803965,0.016103173029801014
-0.00158148307579554,-0.007797838584324348,-0.007894721972313163,0.011920647452749506,0.016090936393452056
-0.00156823673664372,-0.00779829535463993,-0.00789813572940855,0.01192067149329243,0.01609336448828751
-0.0015512881538814092,-0.007801204260333886,-0.007915204514885487,0.011915863384707378,0.01610560112463646
-0.0015785260890157327,-0.0078025505307377,-0.007915493001400589,0.011911848614038859,0.01612187657219687
-0.0016076872675840775,-0.007804642057972199,-0.007907150933005523,0.011899804302033305,0.01611730886904107
-0.0016082882811572089,-0.0078037525578839645,-0.00791097337933064,0.011895957815165259,0.016109639935847908
-0.0016016771318527615,-0.007796925043693189,-0.007905948905859259,0.01190326614021454,0.016127934789014038
-0.0016057640241500565,-0.0077954345300318235,-0.007912367730820305,0.011914228627788459,0.016150028047962353
-0.0016125915383408314,-0.007792910273024671,-0.007893423782995198,0.011917810668684324,0.0161380798981285
-0.001614202254716824,-0.007796083624690805,-0.007874215389197912,0.011913555492586552,0.016126684680781926
-0.001604441794289167,-0.007801612949563614,-0.007865680996459444,0.01190773768119864,0.016109880341277163
-0.0015925898066270125,-0.007798415557354554,-0.007878374403123983,0.011908386775857621,0.016113630665973502
-0.0015890077657311481,-0.007795482611117673,-0.007880946741216987,0.011915911465793228,0.016103822124459998
-0.0015858103735220876,-0.0077947133137440654,-0.00786803696966612,0.011905429789077814,0.016091561447568112
-0.0015864835087239946,-0.007796925043693189,-0.007869287077898234,0.011900862085922014,0.016095239650635678
-0.0015860988600371905,-0.007801853354992867,-0.00786483957745706,0.011906535654052376,0.016106827192325653
-0.0015889356441023722,-0.007804161247113694,-0.007857867820008734,0.011911680330238384,0.01610043240790754
-0.0015905223199354395,-0.007796901003150264,-0.007857555292950706,0.011908723343458577,0.016086729298440138
-0.0015902578739632614,-0.007793487246054877,-0.007859190049869623,0.011911848614038859,0.016092523069285124
-0.0015885509954155679,-0.007793246840625623,-0.007871450726761505,0.011914973884619142,0.016106538705810552
-0.0015847285490904507,-0.007789857124073162,-0.007872412348478517,0.01192966265634648,0.016107620530242187
-0.0015888154413877462,-0.007791828448593033,-0.007871522848390284,0.011930648318606414,0.016091297001595933
-0.0016102115245912301,-0.007794088259628008,-0.007878013794980104,0.011923075547584957,0.016097980272529157
-0.0016142503358026747,-0.007798175151925303,-0.007878783092353714,0.011922065844782096,0.01611622704460943
-0.0015959074015506984,-0.007796636557178086,-0.00788178816021937,0.01191793087139895,0.016120890909936934
-0.0015704003855069935,-0.007790145610588266,-0.007902270702791694,0.011912786195212943,0.016109784179105458
-0.001564486411947379,-0.00779062642144677,-0.007905780622058784,0.011909083951602454,0.01610127382690992
-0.0015819158055681948,-0.007792766029767119,-0.007884961511885506,0.011890837179522178,0.016107836895128517
-0.0015754729400642242,-0.007793246840625623,-0.007860416117558812,0.011902544923926782,0.016110240949421043
-0.0015613371008241694,-0.007796203827405431,-0.007856257103632741,0.011912641951955393,0.0160899266906492
-0.0015804493324497538,-0.007796852922064413,-0.007853276076310008,0.011920599371663657,0.016076512067696898
-0.0016028070373702492,-0.007794617151572364,-0.007851352832875988,0.011917161574025342,0.016090936393452056
-0.0016025906724839215,-0.007797886665410199,-0.007855800333317162,0.011918002993027726,0.01609608106963806
-0.0015984316585578512,-0.0077985117195262564,-0.00787041698341572,0.011924061209844893,0.01608492625772074
-0.0015979268071564204,-0.00779601150306203,-0.007866594537090604,0.01192213796641087,0.01607466094589165
-0.0016052110916627755,-0.00779752605726632,-0.007855439725173281,0.01191290639792757,0.016084589690119784
-0.0016157889305498914,-0.0078013004225055875,-0.007844597440313987,0.011905501910706587,0.016100023718677806
-0.0016131925519139634,-0.007798752124955509,-0.00784411662945548,0.011912882357384646,0.016097235015698475
-0.001595763158293147,-0.007794809475915766,-0.007852025968077894,0.011916656722623913,0.01608283473048624
-0.00157965599453322,-0.007798776165498435,-0.007856521549604919,0.011918820371487185,0.016088484258073674
-0.0015861709816659664,-0.007804329530914171,-0.007860079549957858,0.011906030802650944,0.016101802718854273
-0.0016004751047064985,-0.007794593111029439,-0.007861762387962627,0.011886846449396584,0.016097739867099906
-0.0016039609834306618,-0.007790482178189219,-0.007869527483327487,0.011887351300798016,0.016089229514904362
-0.0016175198496405105,-0.007795530692203524,-0.007881667957504744,0.011901823707639023,0.016086392730839182
-0.0016043937132033165,-0.007797333732922919,-0.007882244930534951,0.011925936372193064,0.016091393163767634
-0.0015588849654457927,-0.0077962999895771325,-0.007871282442961031,0.011951034699007036,0.016092354785484646
-0.0015385707066739446,-0.007796324030120058,-0.007868926469754355,0.011976782120479994,0.016075983175752543
-0.001567058750040382,-0.007797045246407816,-0.007856954279377574,0.011994620203330541,0.016073891648518045
-0.0015922532390260586,-0.007799569503414969,-0.0078592621714984,0.012018588624627027,0.016086008082152378
-0.0015761460752661315,-0.007799088692556463,-0.00788178816021937,0.012010366758946588,0.016076295702810568
-0.0015889116035594471,-0.007795723016546926,-0.007897847242893444,0.012003226717697784,0.016056582457611854
-0.001604802402433046,-0.007792717948681269,-0.007857699536208258,0.012006928961308273,0.01604886544333284
-0.0016040571456023627,-0.007791107232305277,-0.007823201357110503,0.011992432513924341,0.016057856606386894
-0.0015914599011095248,-0.007797453935637545,-0.007822408019193969,0.011969425714344863,0.016066366958582438
-0.0015916762659958525,-0.0077948815975445425,-0.007821542559648658,0.01195615533465012,0.01605990005253554
-0.0015901617117915607,-0.007786659731864102,-0.007822287816479341,0.011949279739373491,0.01605552467372314
-0.0015916281849100015,-0.0077911553133911265,-0.007827384411579498,0.011932427318782884,0.0160790844057899
-0.0015880701845570628,-0.007793343002797325,-0.007831735749848972,0.011919830074290046,0.016092162461141243
-0.0015905944415642154,-0.00778651548860655,-0.007834716777171706,0.0119042758430174,0.016088916987846334
-0.0015821321704545222,-0.007787477110323561,-0.007834260006856126,0.011893145071643005,0.01607978158153473
-0.0015711937234235275,-0.007789063786156628,-0.00783332242568204,0.011894875990733623,0.016092042258426618
-0.0015648229795483324,-0.007788895502356151,-0.007846448562119234,0.011906944343282105,0.016109111043903553
-0.0015629478172001622,-0.00778839065095472,-0.007855848414403012,0.011914372871046009,0.016097090772440918
-0.0015589570870745686,-0.0077954345300318235,-0.007852218292421297,0.011913098722270973,0.016078627635474317
-0.0015555914110650312,-0.00779372765148413,-0.00784296268339507,0.011909156073231229,0.01608903719056096
-0.0015784539673869568,-0.00779464119211529,-0.007845390778230522,0.011899010964116769,0.01610122574582407
-0.0015912194956802725,-0.007791900570221809,-0.007868758185953877,0.01190321805912869,0.016091753771911514
-0.001576266277980758,-0.007790938948504799,-0.007881619876418893,0.011891390112009459,0.01607817086515874
-0.0015596061817335506,-0.007790746624161396,-0.007872700834993621,0.011886317557452229,0.0160790844057899
-0.001576362440152459,-0.007792573705423716,-0.007864478969313181,0.011905309586363188,0.016097980272529157
-0.0015873970493551547,-0.0077959153408903295,-0.007842361669821938,0.01190833869477177,0.0161018267593972
-0.0015896328198472048,-0.007796516354463459,-0.00783190403364945,0.011913723776387029,0.016086272528124553
-0.0015926138471699376,-0.007796997165321965,-0.007846184116147056,0.011911704370781307,0.016083579987316923
-0.0015970613476111114,-0.007795698976004002,-0.007873782659425258,0.011911151438294026,0.016096201272352686
-0.0015923013201119092,-0.007797381814008769,-0.007860464198644663,0.011907304951425984,0.01609668208321119
-0.0015980710504139722,-0.0078005070845890544,-0.007861642185248,0.01190098228863664,0.01608341170351645
-0.001598311455843225,-0.007798896368213061,-0.00785971894181398,0.011900092788548405,0.01608516666314999
-0.001599321158646086,-0.0077956749354610765,-0.007845078251172494,0.011896823274710571,0.016087378393099115
-0.0016042735104886902,-0.007790386016017519,-0.00783921235869873,0.011896991558511046,0.01608826789318735
-0.0015887433197589698,-0.0077908187457901715,-0.007821710843449136,0.011890236165949045,0.016073482959288315
-0.0015723957505697909,-0.00779930505744279,-0.0078055796391462845,0.01188427411130358,0.016063313809630927
-0.0015729967641429222,-0.007799882030472997,-0.007810772396418141,0.011886582003424408,0.01607372336471757
-0.0015714100883098547,-0.007796828881521487,-0.00781666232943483,0.011874369407618374,0.016080695122165894
-0.0015641979254322758,-0.007796564435549309,-0.007822672465166144,0.011856122635538095,0.016070646175223132
-0.0015704965476786947,-0.0077911312728482,-0.007829019168498418,0.0118633588389586,0.016063434012345553
-0.001586771995239098,-0.007794352705600186,-0.007837745885580288,0.011865835014879905,0.01607146355368259
-0.0015777087105562735,-0.007791419759363305,-0.007845438859316373,0.011878937110774174,0.016088315974273203
-0.0015733092912009509,-0.007792934313567595,-0.007849453629984892,0.011893962450102463,0.016084902217177816
-0.0015869402790395749,-0.007796804840978563,-0.007848900697497609,0.011880860354208194,0.016072112648341574
-0.0015881663467287638,-0.007797646259980947,-0.007853083751966606,0.01185600243282347,0.016081175933024397
-0.0015840794544314685,-0.0077951941246025705,-0.007861353698732898,0.011860498014350495,0.01609264327199975
-0.0015752325346349715,-0.007796997165321965,-0.007872436389021444,0.011890140003777349,0.016093051961229482
-0.0015842958193177958,-0.007794352705600186,-0.007883278673880736,0.011900814004836164,0.01608249816288529
-0.0016056438214354302,-0.007794088259628008,-0.00788407201179727,0.01188946686857544,0.016099807353791476
-0.0015819879271969707,-0.007791443799906229,-0.007867195550663736,0.011885668462793248,0.016120073531477475
-0.0015648229795483324,-0.007792910273024671,-0.00785245869785055,0.011890043841605646,0.016127790545756485
-0.0015774683051270214,-0.007793198759539773,-0.007827913303523854,0.011890620814635851,0.016114688449862215
-0.0015865315898098455,-0.00779418442179971,-0.007836591939519875,0.01188535593573522,0.016110986206251725
-0.0015773240618694696,-0.007791996732393509,-0.00784500612954372,0.011879273678375128,0.016124184464317695
-0.0015788386160737614,-0.007793799773112905,-0.007832456966136731,0.01187956216489023,0.016118318571843933
-0.0015921330363114325,-0.007797646259980947,-0.007805940247290162,0.011875018502277356,0.016091272961053008
-0.001578478007929882,-0.007798006868124827,-0.0077938478541987564,0.011868022704286104,0.01607684863529785
-0.0015561924246381626,-0.007788558934755199,-0.007799425260157417,0.011877711043084984,0.016082017352026783
-0.001567058750040382,-0.007790674502532621,-0.00780656530140622,0.011880091056834586,0.0160744205404624
-0.0015947534554902859,-0.0077898090429873125,-0.007810507950445963,0.011854415756990404,0.016054274565491033
-0.001595955482636549,-0.00779072258361847,-0.007816926775407008,0.011849872094377528,0.016048697159532367
-0.0015914599011095248,-0.007791515921535004,-0.007832336763422106,0.011874730015762251,0.016062784917686573
-0.0015923253606548342,-0.007786707812949952,-0.00784173661570588,0.011893145071643005,0.01607107890499579
-0.0015886231170443438,-0.007784472042457903,-0.007837962250466615,0.011894154774445866,0.016065621701751753
-0.0015849208734338527,-0.007786635691321177,-0.00785092010310333,0.011886269476366378,0.016060597228280373
-0.001583117832714458,-0.007787140542722606,-0.007850150805729723,0.01188199025972568,0.016080791284337596
-0.0015869883601254257,-0.0077847124478871545,-0.007851232630161359,0.011886533922338556,0.01608766687961422
-0.0016022060237971176,-0.007786779934578728,-0.007888351228437968,0.011878071651228865,0.016075622567608663
-0.0015808820622224087,-0.007783606582912593,-0.007866979185777409,0.011870522920750332,0.016071030823909937
-0.0015751604130061958,-0.007784760528973006,-0.007815340099573942,0.011873455866987213,0.016087282230927414
-0.0015862911843805927,-0.007790145610588266,-0.007807863490724184,0.011879970854119959,0.016103269191972715
-0.0015754729400642242,-0.007791732286421331,-0.007805771963489686,0.011883360570672422,0.016089157393275585
-0.00157234766948394,-0.0077895686375580595,-0.007825749654660579,0.011877999529600088,0.016073867607975117
-0.0015913396983948985,-0.007788198326611318,-0.007830052911844205,0.011890765057893405,0.016077185202898806
-0.0015955467934068196,-0.007785818312861717,-0.007812863923652639,0.011898458031629488,0.016087955366129322
-0.0015685733042446735,-0.0077858423534046435,-0.007808151977239288,0.011900910167007865,0.016084613730662712
-0.0015596061817335506,-0.007786395285891924,-0.007811613815420525,0.011897256004483223,0.016065717863923454
-0.00158559400863576,-0.00778336617748334,-0.007816397883462653,0.011888553327944279,0.01605473133580661
-0.0015971815503257375,-0.007785217299288586,-0.007822215694850566,0.011877085988968928,0.016063842701575282
-0.0015982633747573744,-0.007783630623455519,-0.007827408452122424,0.011888841814459384,0.016069780715677825
-0.0015913877794807491,-0.007782019907079526,-0.007826903600720992,0.011897400247740776,0.01606223198519929
-0.001581194589280437,-0.007785313461460288,-0.007827889262980928,0.011917113492939491,0.016072353053770826
-0.0015747036426906158,-0.007788102164439619,-0.007829524019899848,0.011911463965352054,0.01609564833986541
-0.0015782135619577045,-0.0077840152721423235,-0.007827865222438005,0.0118972319639403,0.01611247671991309
-0.0015834063192295608,-0.007787981961724991,-0.007839693169557235,0.011891726679610413,0.01611379894977398
-0.0015854497653782086,-0.00778610679937682,-0.007867003226320333,0.011892327693183543,0.01611786180152835
-0.0015983835774720009,-0.007782981528796536,-0.007863373104338621,0.011877542759284508,0.01613755100618414
-0.0016142984168885251,-0.0077841835559428,-0.007849525751613667,0.011858406487115995,0.016169092198502086
-0.0015991769153885346,-0.007788222367154244,-0.00785702640100635,0.011846193891309965,0.016163466711457575
-0.0015722755478551642,-0.00778911186724248,-0.007835990925946744,0.011870186353149377,0.016151374318366166
-0.0015441000315467553,-0.007789135907785405,-0.007794088259628008,0.011921801398809918,0.016160197197619738
-0.001542176788112734,-0.0077856740696041656,-0.007780385150160608,0.011932619643126287,0.016170005739133245
-0.0015736218182589793,-0.007786082758833896,-0.0077941603812567845,0.011923700601701014,0.016166616022580783
-0.0015874451304410055,-0.007789905205159013,-0.007818056680924496,0.011894034571731238,0.016152432102254883
-0.0016031916860570533,-0.007786419326434848,-0.007834644655542929,0.011883865422073852,0.01615678344052435
-0.0016020858210824911,-0.007782909407167761,-0.007822768627337847,0.011902280477954604,0.016164788941318464
-0.0015778048727279749,-0.007783053650425312,-0.007837241034178858,0.011920022398633448,0.01615541312957761
-0.0015659288445228948,-0.0077855298263466155,-0.007835510115088241,0.011923748682786865,0.01612755014032723
-0.0015684050204441966,-0.007783654663998444,-0.007804834382315601,0.01191651247936636,0.016124881640062528
-0.0015878538196707351,-0.007783510420740892,-0.0077844239613720535,0.011904876856590531,0.016126107707751716
-0.0015855218870069842,-0.007786419326434848,-0.00778230839359463,0.011901246734608815,0.016110264989963968
-0.0015815792379672412,-0.007786635691321177,-0.007787717515752812,0.011904347964646176,0.016084998379349517
-0.0015768672915538893,-0.007782933447710686,-0.007805868125661387,0.011902496842840931,0.01608283473048624
-0.0015786222511874335,-0.007781202528620067,-0.0078120705857361045,0.01190285745098481,0.016095215610092754
-0.0015812426703662875,-0.007782933447710686,-0.0077991608141852395,0.011894130733902941,0.01610274030002836
-0.001578646291730359,-0.007787909840096216,-0.007785169218202734,0.011871941312782922,0.01609096043399498
-0.0015740064669457832,-0.007792357340537389,-0.007783991231599397,0.011862036609097713,0.01609418186674696
-0.001587493211526856,-0.00778879934018445,-0.007788414691497645,0.011872277880383876,0.016115433706692897
-0.001591099292965646,-0.007790794705247247,-0.007793078556825147,0.011894851950190698,0.016122213139797822
-0.0015814109541667644,-0.007791059151219425,-0.007796780800435638,0.011905333626906113,0.01611985716659115
-0.0015567934382112946,-0.007786996299465054,-0.0077963721112059075,0.011908963748887828,0.016121131315366185
-0.0015504226943360998,-0.007786900137293355,-0.007798175151925303,0.011906703937852852,0.01613420937071753
-0.0015566491949537428,-0.007788919542899075,-0.007804089125484919,0.011892832544584977,0.01614038779024932
-0.0015728525208853707,-0.007792886232481745,-0.007808464504297316,0.011891077584951431,0.016120890909936934
-0.0015827331840276538,-0.007789664799729759,-0.007821494478562806,0.011902064113068277,0.01610560112463646
-0.0015840554138885432,-0.007783582542369669,-0.007837144872007156,0.011900765923750313,0.01610764457078511
-0.001583839049002216,-0.007790001367330712,-0.007817960518752795,0.011891678598524564,0.01611858301781611
-0.0015825168191413266,-0.007791756326964256,-0.00782584581683228,0.011896246301680362,0.016116876139268415
-0.001576362440152459,-0.007790001367330712,-0.007819402951328311,0.01189367396358736,0.016105961732780345
-0.0015843679409465715,-0.007789448434843431,-0.007803704476798114,0.011885596341164472,0.01610591365169449
-0.0015885509954155679,-0.007789183988871255,-0.007819138505356132,0.011891077584951431,0.016116443409495758
-0.001578766494444985,-0.007787933880639141,-0.007819619316214638,0.01189239981481232,0.016113414301087176
-0.0015910271713368699,-0.007784496083000829,-0.0077963961517488346,0.01189148627418116,0.016097451380584802
-0.0016045619970037931,-0.00778230839359463,-0.007786443366977773,0.011902256437411678,0.016098845732074468
-0.001586339265466443,-0.007785024974945184,-0.007799281016899866,0.011898554193801187,0.016107740732956816
-0.0015395082878480301,-0.007788174286068394,-0.007804906503944376,0.011908266573142994,0.016096297434524388
-0.0015172227045563106,-0.0077841835559428,-0.007791876529678885,0.011913795898015805,0.016083123217001345
-0.0015470329777836375,-0.0077887512590985985,-0.007798054949210677,0.011904420086274951,0.016081199973567325
-0.0015754008184354483,-0.007795218165145495,-0.00777711563632277,0.011889010098259859,0.016094350150547443
-0.001579103062045939,-0.007786275083177299,-0.007775240473974602,0.011891558395809935,0.01609391742077479
-0.0015818196433964938,-0.00778230839359463,-0.007790217732217041,0.011893361436529332,0.016075045594578456
-0.0015767711293821884,-0.007785722150690015,-0.0077729806629396265,0.011893625882501507,0.016067208377584817
-0.0015597023439052515,-0.0077806736366757105,-0.007770792973533428,0.011894250936617569,0.01608658505518258
-0.0015581156680721845,-0.007782332434137554,-0.00776860528412723,0.01189499619344825,0.01608259432505699
-0.0015836948057446642,-0.007782741123367283,-0.0077635567701129235,0.011901967950896576,0.01606478028274937
-0.0015893443333321016,-0.007782140109794152,-0.007765528094632795,0.011902424721212156,0.016057087309013285
-0.0015886471575872689,-0.0077818997043649,-0.007771057419505606,0.011893770125759059,0.01605953944439166
-0.0015807378189648571,-0.007781202528620067,-0.00777326914945473,0.011887591706227269,0.016058698025389274
-0.001579271345846416,-0.0077828132449960594,-0.00778610679937682,0.011875980123994366,0.01604259086162935
-0.0015822764137120738,-0.007783895069427697,-0.0078012283008768125,0.01186828715025828,0.016032662117401213
-0.0015764826428670852,-0.007782620920652658,-0.007819451032414161,0.011876581137567498,0.016039201145076887
-0.0015657124796365676,-0.007782861326081909,-0.007812960085824341,0.011893529720329808,0.016044802591578474
-0.0015678520879569158,-0.00778158717730687,-0.00778605871829097,0.01189235173372647,0.016038047199016473
-0.0015721793856834632,-0.0077818997043649,-0.007769783270730567,0.01187453769141885,0.01603975407756417
-0.0015711937234235275,-0.007781779501650273,-0.007770600649190026,0.011849824013291677,0.016049947267764483
-0.00156777996632814,-0.007782741123367283,-0.007783895069427697,0.011851194324238418,0.016056269930553826
-0.0015658326823511936,-0.0077849528533164075,-0.0078047382201439,0.011901967950896576,0.01606045298502282
-0.0015609764926802904,-0.007786635691321177,-0.007818994262098582,0.011922546655640602,0.016055789119695317
-0.0015615294251675716,-0.0077903619754745934,-0.007809378044928475,0.011914348830503086,0.016064804323292294
-0.0015805214540785294,-0.007790674502532621,-0.007776322298406238,0.011905429789077814,0.016087907285043473
-0.0015663856148384748,-0.007793871894741681,-0.007776658866007194,0.011892447895898172,0.016098485123930587
-0.0015655682363790158,-0.007789833083530238,-0.007776899271436446,0.011886101192565902,0.016092931758514853
-0.0015731890884863242,-0.007792405421623238,-0.007772788338596225,0.011882903800356842,0.016103774043374146
-0.0015715783721103314,-0.0077859144750334185,-0.007792140975651063,0.011885235733020591,0.016123487288572862
-0.001567683804156439,-0.007786034677748045,-0.007788030042810842,0.011886461800709779,0.016124929721148373
-0.0015735496966302032,-0.007782957488253611,-0.0077683167976121265,0.011882783597642216,0.016121227477537886
-0.001561192857566618,-0.00777930332572897,-0.007758940985871273,0.011874778096848105,0.016115650071579227
-0.0015567934382112946,-0.007780890001562039,-0.007759181391300526,0.01187261444798483,0.016129809951362206
-0.0015472974237558154,-0.007780337069074756,-0.0077623547429666595,0.011890885260608029,0.01613553160057842
-0.0015554712083504052,-0.007781971825993677,-0.007761441202335502,0.011889154341517409,0.016119135950303388
-0.0015663375337526242,-0.007783173853139939,-0.0077638692971709515,0.011873263542643812,0.01610956781421914
-0.001580136805391725,-0.007782140109794152,-0.0077727402575103735,0.011883961584245551,0.016117525233927395
-0.0015874691709839306,-0.007779928379845028,-0.007777933014782231,0.01189134203092361,0.01611639532840991
-0.001569510885418759,-0.007781491015135171,-0.007781082325905441,0.011889418787489588,0.016088195771558574
-0.001562923776657237,-0.007779928379845028,-0.0077949537191733176,0.01189677519362472,0.016081296135739026
-0.001572059182968837,-0.0077795677717011485,-0.007824812073486495,0.011905453829620738,0.01607771409484316
-0.0015709533179942747,-0.007777933014782231,-0.007811902301935628,0.011897039639596896,0.016077497729956834
-0.001566674101353578,-0.007781659298935647,-0.007789736921358536,0.01188199025972568,0.016047086443156368
-0.0015667221824394286,-0.007785073056031034,-0.007812791802023862,0.01188129308398085,0.016026363495154797
-0.001567587641984738,-0.007784207596485725,-0.007786082758833896,0.01189569336919308,0.016032445752514887
-0.0015640536821747242,-0.007779928379845028,-0.007749853660645524,0.011905357667449035,0.016034753644635708
-0.0015641498443464256,-0.007783005569339463,-0.0077471611198378955,0.011903843113244746,0.01602535379235193
-0.001569967655734339,-0.007781659298935647,-0.007750767201276684,0.011889250503689112,0.016020858210824912
-0.001577901034899676,-0.007784664366801305,-0.007748892038928514,0.011878263975572264,0.016024800859864654
-0.0015769874942685158,-0.007781827582736123,-0.0077511758905064124,0.011876965786254304,0.016034633441921086
-0.001564774898462482,-0.007776610784921342,-0.0077635567701129235,0.011878360137743968,0.016027926130444937
-0.0015621304387407034,-0.007779014839213868,-0.0077704804464754,0.011885067449220115,0.01602004083236545
-0.0015712898855952285,-0.007783173853139939,-0.00777423077117174,0.01190062168049276,0.016034585360835237
-0.0015678280474139903,-0.007782019907079526,-0.007776154014605762,0.011906343329708972,0.016042614902172275
-0.0015713379666810788,-0.007781611217849795,-0.007778894636499242,0.011886990692654135,0.016043840969861462
-0.0015779250754426012,-0.007780745758304487,-0.0077894724753863566,0.011862228933441113,0.01603884053693301
-0.0015904982793925144,-0.007779135041928494,-0.007802165882050896,0.011864056014703434,0.016048961605504543
-0.001578766494444985,-0.007780457271789385,-0.007808127936696363,0.011873600110244764,0.016064443715148414
-0.0015583560735014368,-0.007780890001562039,-0.007815123734687613,0.011882206624612007,0.016074108013404368
-0.0015592696141325966,-0.007780769798847413,-0.0078105560315318125,0.011890164044320271,0.016077161162355882
-0.0015716504937391075,-0.007783943150513547,-0.007764326067486531,0.01189093334169388,0.01607312235114444
-0.0015727803992565948,-0.007781370812420544,-0.007744877268259994,0.011913098722270973,0.016079469054476703
-0.0015656163174648664,-0.007781298690791769,-0.007760671904961892,0.011923267871928359,0.016089518001419466
-0.0015656163174648664,-0.007776755028178894,-0.007789520556472208,0.011943221522556328,0.01608454160903394
-0.0015620583171119273,-0.0077779810958680815,-0.0077843999208291265,0.01198233548589573,0.01607374740526049
-0.0015658086418082686,-0.007780144744731357,-0.007786611650778251,0.01200426046104357,0.016076992878555404
-0.0015627314523138348,-0.007783967191056472,-0.007783798907255995,0.011995677987219252,0.016080190270764464
-0.001566770263525279,-0.007785553866889541,-0.007758532296641544,0.011974474228359169,0.016064323512433788
-0.0015682126961007947,-0.007788582975298123,-0.007752377917652675,0.011949784590774924,0.016051606065226324
-0.0015773240618694696,-0.007785433664174914,-0.007738819051442828,0.01192555172350626,0.016057015187384508
-0.0015691262367319547,-0.007783606582912593,-0.007738626727099427,0.011886293516909304,0.0160721366888845
-0.0015534998838305336,-0.007782140109794152,-0.0077466562684364625,0.011874201123817896,0.016073771445803416
-0.0015362868550960447,-0.007776947352522295,-0.00775362802588479,0.011875210826620757,0.016063337850173852
-0.0015127271230292866,-0.0077742788522575925,-0.007753844390771119,0.011871412420838568,0.016078603594931396
-0.001554389383918768,-0.0077849528533164075,-0.0077574504722099065,0.01186518592022092,0.016095720461494184
-0.0015841996571460948,-0.0077825728395668065,-0.007762066256451558,0.011857925676257493,0.016083916554917883
-0.0015666981418965033,-0.007783270015311641,-0.007765263648660619,0.011867133204197869,0.01606163097162616
-0.0015643421686898273,-0.00778879934018445,-0.007767403256980966,0.011889514949661291,0.016066535242382912
-0.0015748719264910929,-0.0077889916645278515,-0.007769663068015939,0.011878889029688323,0.016079853703163508
-0.0015747757643193915,-0.0077834623396550425,-0.007771393987106559,0.011876845583539677,0.016073218513316136
-0.001567106831126233,-0.007778173420211485,-0.007770744892447576,0.011885476138449844,0.016052663849115037
-0.0015717706964537338,-0.007775937649719435,-0.007769086094985734,0.011874489610333,0.01604198984805622
-0.0015774442645840956,-0.007780409190703533,-0.007778365744554886,0.0118723980830985,0.01604903372713332
-0.001564847020091258,-0.007777740690438829,-0.007812142707364881,0.011872061515497549,0.016056582457611854
-0.0015593657763042976,-0.007775288555060452,-0.007814450599485706,0.011852179986498351,0.01604249469945765
-0.001572059182968837,-0.007778702312155838,-0.007784664366801305,0.011846001566966559,0.016037181739471166
-0.001586771995239098,-0.007782116069251227,-0.00779565089491815,0.011864849352619966,0.016052760011286738
-0.0015816032785101663,-0.007784375880286201,-0.007781803542193199,0.011887086854825837,0.0160475912945578
-0.0015586686005594653,-0.007784448001914978,-0.007753844390771119,0.011887231098083387,0.016026075008639694
-0.0015464800452963565,-0.007780216866360132,-0.007749228606529467,0.01188525977356352,0.01601975234585035
-0.0015497495591341925,-0.007776418460577941,-0.007737809348639968,0.0118814373272384,0.016029104117048276
-0.0015387630310173467,-0.007777884933696381,-0.007745309998032648,0.011877662961999134,0.016033070806630946
-0.001533546233202565,-0.007777500285009576,-0.007764061621514355,0.011858959419603278,0.016019367697163545
-0.0015392919229617024,-0.0077770194741510704,-0.0077629076754539405,0.011837875863457822,0.016014054737177062
-0.0015476339913567693,-0.007775913609176509,-0.007748291025355381,0.011847131472484049,0.01603042634690916
-0.001567130871669158,-0.007777620487724203,-0.0077401653218466425,0.01185944023046178,0.016049610700163527
-0.0015607601277939634,-0.0077733172305405815,-0.007743699281656656,0.011867710177228076,0.0160537697140896
-0.0015644623714044536,-0.007773100865654253,-0.007750695079647908,0.011874970421191506,0.01605583720078117
-0.0015823244947979244,-0.007771177622220233,-0.007751368214849816,0.011868767961116787,0.016061102079681804
-0.0015730688857716981,-0.007770432365389548,-0.007757714918182085,0.011867373609627122,0.016069323945362243
-0.0015647027768337064,-0.00777326914945473,-0.007769855392359344,0.011883120165243169,0.016061438647282756
-0.001561938114397301,-0.007775625122661407,-0.007776226136234537,0.011878095691771787,0.016039513672134915
-0.0015565049516961913,-0.0077727402575103735,-0.007769759230187643,0.011869393015232843,0.016032061103828082
-0.0015487398563313313,-0.00777317298728303,-0.007767956189468247,0.011858454568201848,0.016028815630533173
-0.0015406622339084427,-0.007774038446828339,-0.007751296093221041,0.011854103229932376,0.016020377399966406
-0.0015505909781365766,-0.00776682628395076,-0.0077413433084499795,0.011863118433529348,0.01600698681755703
-0.001572419791112716,-0.007767691743496069,-0.007749276687615317,0.011874633853590551,0.016003885587519674
-0.0015680203717573927,-0.007771369946563634,-0.007776586744378417,0.011875691637479265,0.01601672323744176
-0.0015718668586254347,-0.007771153581677306,-0.007754974296288604,0.011869753623376724,0.016024079643576897
-0.0015702080611635914,-0.007771970960136766,-0.007737737227011191,0.01186011336566369,0.01601528080486625
-0.0015710254396230506,-0.0077735576359698345,-0.00773946814610181,0.0118360487821955,0.016010064007051468
-0.00157919922421764,-0.007774038446828339,-0.007749541133587496,0.011825158416250358,0.016026724103298674
-0.0015691021961890294,-0.007775048149631199,-0.007762066256451558,0.011844511053305194,0.016032710198487066
-0.0015665058175531011,-0.007772644095338673,-0.007758820783156647,0.011876124367251918,0.01601318927763175
-0.0015638132767454714,-0.007771129541134381,-0.007761489283421351,0.011883048043614394,0.016008068641988667
-0.001557971424814633,-0.007775024109088273,-0.007756200363977794,0.011880643989321869,0.016024776819321733
-0.0015266946784688645,-0.007777644528267128,-0.007751921147337097,0.011875523353678788,0.016035306577122994
-0.0015001779596222984,-0.00777468754148732,-0.007755935918005615,0.011869248771975292,0.01602814249533126
-0.0015276803407288007,-0.007774086527914189,-0.007767667702953143,0.01186951321794747,0.016025570157238263
-0.0015722034262263885,-0.007774038446828339,-0.007778029176953931,0.011861724082039685,0.016045115118636502
-0.0015780693187001527,-0.007776346338949164,-0.0077665618379785814,0.011858406487115995,0.01605437072766273
-0.00156823673664372,-0.007774855825287799,-0.0077340349834007,0.01186148367661043,0.016042807226515673
-0.0015701359395348161,-0.007775649163204331,-0.00771723064389594,0.011858550730373549,0.01603283040120169
-0.0015694628043329086,-0.007772235406108944,-0.007724322604058894,0.011858118000600892,0.016045259361894052
-0.0015645344930332295,-0.0077744952171439185,-0.007730380820876061,0.011855978392280545,0.016056510335983078
-0.001550446734879025,-0.007775360676689228,-0.007733145483312466,0.011852179986498351,0.016047206645871
-0.0015603033574783831,-0.007779014839213868,-0.007736390956607377,0.011852179986498351,0.016034296874320134
-0.0015626833712279842,-0.007783221934225789,-0.007739997038046165,0.011862421257784516,0.016036460523183402
-0.0015612168981095432,-0.007782212231422928,-0.0077431944302552265,0.011855209094906937,0.01603492192843619
-0.0015675636014418127,-0.0077791590824714185,-0.007743939687085909,0.011859656595348109,0.01602528167072316
-0.00155864456001654,-0.007776202095691613,-0.007744420497944414,0.0118723980830985,0.016000832438568167
-0.0015515285593106615,-0.007774951987459498,-0.007748603552413409,0.011886509881795631,0.016009823601622213
-0.0015515045187677367,-0.0077773320012090984,-0.007757354310038206,0.011889394746946664,0.016014054737177062
-0.0015484273292733026,-0.007783342136940416,-0.0077683167976121265,0.011876364772681171,0.016011891088313787
-0.0015451337748925418,-0.0077733172305405815,-0.0077801207041884295,0.011871196055952238,0.015991384505198537
-0.0015356377604370626,-0.0077685572030413794,-0.007761417161792574,0.01186996998826305,0.015989725707736695
-0.0015268629622693414,-0.007775288555060452,-0.0077794235284435985,0.011868551596230459,0.015999702533050678
-0.001542898004400492,-0.0077797360555016265,-0.0077884387320405705,0.011860473973807571,0.016000688195310614
-0.0015808099405936328,-0.007777524325552502,-0.007743795443828356,0.01185929598720423,0.015984388707207288
-0.0015795357918185935,-0.0077773320012090984,-0.0077275680773538045,0.011869489177404545,0.015979532517536383
-0.001567106831126233,-0.0077791590824714185,-0.007717855698011997,0.011877807205256686,0.01599792353287421
-0.0015637171145737705,-0.00777769260935298,-0.007716870035752063,0.0118791534756605,0.016006337722898053
-0.0015679482501286168,-0.007776755028178894,-0.00772006742796112,0.01187280677232823,0.016005352060638117
-0.001572900601971221,-0.007783630623455519,-0.007726173725864137,0.011864969555334594,0.015998716870790745
-0.0015782616430435551,-0.007777091595779847,-0.007730476983047761,0.011865065717506295,0.016010953507139703
-0.0015715783721103314,-0.007776899271436446,-0.007740862497591475,0.011874273245446671,0.01601975234585035
-0.0015503265321643984,-0.007776442501120866,-0.007741078862477803,0.011872902934499932,0.01601994467019375
-0.0015318393546548711,-0.0077784619067265874,-0.0077414394706216815,0.011862902068643022,0.016022420846115052
-0.0015484754103591535,-0.007778894636499242,-0.0077420645247377375,0.011845713080451457,0.016032710198487066
-0.0015513362349672598,-0.007776682906550119,-0.0077379535918975185,0.011828283686830641,0.016052615768029185
-0.0015405660717367415,-0.00777540875777508,-0.007737448740496087,0.01184047224209375,0.016057688322586416
-0.0015419604232264068,-0.007777139676865699,-0.007739227740672558,0.011866147541937934,0.016057784484758118
-0.0015365993821540732,-0.007780288987988907,-0.007741319267907055,0.011876701340282124,0.01607324255385906
-0.0015218384887979615,-0.007783221934225789,-0.007741800078765561,0.011871075853237613,0.01609045558259355
-0.0015315268275968425,-0.007783029609882387,-0.0077428578626542715,0.011868792001659712,0.016090768109651578
-0.0015438115450316524,-0.007780914042104963,-0.007750454674218654,0.01187280677232823,0.01607954117610548
-0.0015544374650046187,-0.00777728392012325,-0.007763436567398299,0.011883192286871944,0.016086392730839182
-0.0015567693976683689,-0.007771273784391935,-0.00777783685261053,0.01188037954334969,0.016097114812983846
-0.0015528267486286259,-0.007767835986753619,-0.0077742788522575925,0.011888312922515026,0.016097451380584802
-0.0015621063981977779,-0.007775841487547733,-0.007752978931225808,0.01188297592198562,0.016081103811395624
-0.0015762181968949074,-0.007777933014782231,-0.00776093635093407,0.011854103229932376,0.016076656310954448
-0.0015585724383877645,-0.007772571973709897,-0.0077741105684571155,0.011852035743240804,0.01608543110912217
-0.0015476580318996946,-0.007771129541134381,-0.007748819917299738,0.011862902068643022,0.016093845299146013
-0.001544628923491111,-0.007764878999973812,-0.007738578646013575,0.011866315825738409,0.016081392297910727
-0.0015319114762836466,-0.007767259013723414,-0.007713312035399124,0.011868840082745562,0.01607802662190119
-0.0015303248004505793,-0.00777002367615982,-0.0076945844524603435,0.01186845543405876,0.016092186501684168
-0.0015314306654251415,-0.007768220635440425,-0.0076925169657687704,0.011867878461028552,0.016085671514551418
-0.0015211893941389793,-0.007766032946034227,-0.0077002099395048545,0.011861387514438729,0.016074540743177025
-0.001527271651499071,-0.0077629317159968675,-0.007708576048442845,0.011839558701462591,0.01607305022951566
-0.0015492206671898366,-0.007767835986753619,-0.007715066995032667,0.011821480213182791,0.016077786216471938
-0.0015529469513432526,-0.007763773134999251,-0.0077205963199054786,0.011840352039379123,0.01607812278407289
-0.0015418642610547054,-0.007760359377903864,-0.0077254765501193045,0.01183727484988469,0.016069323945362243
-0.0015434268963448476,-0.0077613450401638,-0.00772864990178544,0.011849054715918069,0.016060501066108672
-0.0015544855460904693,-0.007766225270377628,-0.0077309818344491925,0.011885764624964948,0.016062015620312963
-0.0015491004644752105,-0.007766201229834703,-0.007734083064486552,0.011894972152905324,0.016061126120224728
-0.0015589330465316429,-0.007767619621867294,-0.007746367781921361,0.01187347990753014,0.01605244748422871
-0.0015545336271763194,-0.007765023243231366,-0.007773677838684459,0.011890140003777349,0.01604182156425574
-0.0015597744655340274,-0.007775697244290182,-0.00776742729752389,0.011911463965352054,0.016037229820557015
-0.0015479705589577226,-0.007778365744554886,-0.007776274217320387,0.011906439491880676,0.016049346254191348
-0.0015410949636810974,-0.0077683889192409015,-0.007795723016546926,0.011891197787666058,0.016042855307601526
-0.0015319114762836466,-0.00776184989156523,-0.0077754568388609295,0.011882783597642216,0.016031604333512504
-0.0015309738951095615,-0.007770768932990502,-0.0077472332414666705,0.011879946813577034,0.016038792455847158
-0.0015283053948448573,-0.0077680042705540985,-0.0077308856722774905,0.011857805473542864,0.016051702227398025
-0.0015388111121031973,-0.0077677638651248455,-0.007733482050913419,0.01184083285023763,0.016056894984669882
-0.0015398448554489836,-0.007766225270377628,-0.007714129413858581,0.011855305257078638,0.016047687456729503
-0.0015393640445904785,-0.007764854959430888,-0.007680785180821242,0.011863238636243974,0.016054707295263683
-0.0015356377604370626,-0.007764470310744084,-0.007671385328537464,0.011867469771798823,0.016065645742294674
-0.0015289064084179891,-0.0077636288917416986,-0.007676313639837142,0.011867782298856851,0.016075261959464782
-0.001532392287142152,-0.007765143445945991,-0.0076843431811741796,0.011868671798945086,0.016056991146841584
-0.0015236415295173562,-0.007763508689027074,-0.007693117979341901,0.011866387947367186,0.016053745673546675
-0.0015325846114855538,-0.007764229905314831,-0.007701123480136014,0.011864152176875134,0.016069852837306598
-0.0015413113285674244,-0.0077653117297464685,-0.007708023115955566,0.011858310324944296,0.01607418013503315
-0.0015471531804982636,-0.007764566472915784,-0.007713360116484973,0.011854896567848907,0.016056510335983078
-0.0015533075594871314,-0.007763845256628026,-0.007718144184527102,0.011844150445161315,0.016049226051476722
-0.0015462636804100289,-0.007759902607588283,-0.007722279157910245,0.011839077890604085,0.016065717863923454
-0.0015406862744513678,-0.007762450905138362,-0.007722759968768752,0.011832731187271815,0.016068602729074486
-0.0015358541253233898,-0.007763701013370475,-0.007722567644425349,0.011823403456616812,0.016051606065226324
-0.0015270312460698185,-0.007765744459519123,-0.0077246110905739955,0.011846121769681186,0.01603847992878913
-0.0015470570183265626,-0.007767835986753619,-0.00773028465870436,0.011886966652111213,0.0160448266321214
-0.0015566972760395936,-0.007767066689380013,-0.007740982700306102,0.011906655856767,0.016044514105063367
-0.0015511919917097082,-0.007765552135175721,-0.007751560539193217,0.011896078017879886,0.016026387535697722
-0.001535493517179511,-0.007769398622043762,-0.007750695079647908,0.011880139137920435,0.016010544817909974
-0.0015193382723337338,-0.007773918244113712,-0.007739612389359362,0.0118766772997392,0.01601157856125576
-0.0015107317579664895,-0.007768749527384781,-0.007763652932284625,0.011872181718212176,0.016023262265117442
-0.0015295555030769706,-0.007767042648837087,-0.007789905205159013,0.01186230105506989,0.016017901224045103
-0.0015386668688456458,-0.007768028311097024,-0.007742521295053319,0.011852901202786113,0.01600249123603001
-0.0015297237868774475,-0.0077635567701129235,-0.007701604290994518,0.01185477636513428,0.016007227222986288
-0.0015227760699720466,-0.007761417161792574,-0.007678717694129667,0.011853742621788496,0.016023935400319343
-0.0015304690437081307,-0.007764878999973812,-0.00767023138247705,0.01185448787861918,0.01602258912991553
-0.0015277765029005016,-0.007776658866007194,-0.007675880910064488,0.011859584473719334,0.016016747277984692
-0.0015197950426493138,-0.007770504487018325,-0.007686362586779903,0.011853910905588972,0.016017949305130955
-0.0015177275559577412,-0.0077675234596955925,-0.00769439212811694,0.01184275609367165,0.016024945103122204
-0.0015178477586723677,-0.0077729806629396265,-0.007701243682850641,0.011834870795592164,0.016026531778955272
-0.0014998894731071955,-0.007770696811361727,-0.007706484521208349,0.01184732379682745,0.016011987250485492
-0.0014945284320348616,-0.007771995000679691,-0.007709970399932511,0.011876869624082602,0.01600756379058724
-0.001513111771716091,-0.007773052784568403,-0.0077137688057147035,0.011869753623376724,0.01602157942711267
-0.001530565205879832,-0.007770672770818801,-0.007716028616749676,0.011841025174581032,0.016018550318704087
-0.0015359983685809414,-0.007769086094985734,-0.007717110441181314,0.011845977526423636,0.016009583196192962
-0.0015469848966977874,-0.007766321432549329,-0.0077272555502957765,0.011863503082216151,0.01600746762841554
-0.0015486677347025554,-0.007767259013723414,-0.007752401958195602,0.011867013001483243,0.016026627941126973
-0.0015447731667486628,-0.007766706081236133,-0.007771754595250439,0.011860906703580223,0.016039201145076887
-0.001534868463063454,-0.007765720418976199,-0.007754661769230576,0.011866556231167663,0.016027108751985483
-0.0015215980833687087,-0.007762787472739316,-0.00770855200789992,0.011870811407265435,0.0160198004269362
-0.0015221029347701393,-0.007766105067663002,-0.007694464249745715,0.011868239069172429,0.01601924749444892
-0.0015281611515873055,-0.007767283054266339,-0.0077044410750597,0.011866676433882287,0.016018430115989458
-0.0015408064771659945,-0.0077687014462989295,-0.0077048978453752815,0.01186749381234175,0.01600698681755703
-0.001548619653616705,-0.007767499419152667,-0.007705018048089906,0.011863791568731257,0.015998957276219996
-0.0015196027183059116,-0.00776560021626157,-0.007689367654645561,0.01184802097257228,0.01600765995275894
-0.0015096739740777779,-0.007766537797435656,-0.007693310303685302,0.011835351606450668,0.01601482403455067
-0.0015100826633075075,-0.007765383851375244,-0.007696435574265587,0.011846145810224112,0.016009270669134934
-0.0015096739740777779,-0.007766994567751238,-0.007698839628558114,0.01185513697327816,0.016000832438568167
-0.001513616623117521,-0.007764253945857756,-0.007702854399226633,0.011874730015762251,0.01600929470967786
-0.0015086883118178422,-0.00776697052720831,-0.0077052103724333095,0.011892880625670827,0.016028406941303443
-0.0015041927302908175,-0.007763436567398299,-0.007708359683556518,0.011886269476366378,0.016018141629474354
-0.001504865865492725,-0.007756801377550925,-0.007715619927519949,0.011879970854119959,0.016005808830953698
-0.001514337839405279,-0.007760792107676519,-0.007734131145572401,0.011868527555687534,0.016004101952406
-0.0015142176366906527,-0.007764157783686055,-0.0077477140523251765,0.011871580704639043,0.01601888688630504
-0.001515059055693037,-0.007762018175365706,-0.0077314386047647714,0.011871676866810744,0.01602213235959995
-0.0015253484080650498,-0.007758820783156647,-0.0077420645247377375,0.011861363473895804,0.016010064007051468
-0.0015238578944036837,-0.007761104634734547,-0.0077466562684364625,0.011845520756108056,0.0160130450343742
-0.001519434434505435,-0.007767715784038994,-0.007708576048442845,0.011851627054011072,0.016024440251720774
-0.0015134002582311938,-0.007771225703306083,-0.007698118412270356,0.01186468106881949,0.016035234455494218
-0.0015128713662868382,-0.00776413374314313,-0.007693310303685302,0.011879490043261456,0.016027277035785957
-0.0015086402307319913,-0.007761825851022305,-0.007706099872521544,0.011903338261843316,0.01603136392808325
-0.0014962112700396305,-0.007765528094632795,-0.00770864817007162,0.011924878588304351,0.0160427351048869
-0.0014966680403552105,-0.007766008905491299,-0.007696531736437289,0.011948318117656485,0.01605629397109675
-0.0015090489199617212,-0.007767835986753619,-0.00769576243906368,0.011946491036394164,0.016061078039138883
-0.0015069814332701482,-0.0077675234596955925,-0.007703022683027109,0.01193204267009608,0.016059274998419484
-0.0014968122836127619,-0.007771826716879216,-0.007706484521208349,0.011958919997086523,0.016065020688178618
-0.0014991442162765125,-0.007767259013723414,-0.007696219209379259,0.011950217320547579,0.016074588824262874
-0.0014947447969211893,-0.007764253945857756,-0.007691819790023938,0.011905405748534888,0.016065477458494203
-0.001522343340199392,-0.0077641097026002045,-0.007689127249216308,0.01189098142277973,0.016054442849291504
-0.0015265744757542382,-0.007768941851728182,-0.007695161425490548,0.011888216760343323,0.01605518810612219
-0.001503303230202583,-0.007769807311273492,-0.007708696251157472,0.01187408092110327,0.016044634307777996
-0.0014926051886008408,-0.007765071324317216,-0.007745886971062855,0.01186381560927418,0.016034825766264492
-0.001492076296656485,-0.007765696378433272,-0.007758820783156647,0.011860353771092944,0.01601131411528358
-0.0015059957710102125,-0.0077686293246701545,-0.007735164888918187,0.011859824879148587,0.01600451064163573
-0.0015058274872097356,-0.007762186459166184,-0.0077089126160437985,0.011859512352090559,0.016012419980258142
-0.0015096018524490024,-0.007759662202159031,-0.007700474385477031,0.011855377378707413,0.016007082979728738
-0.0015067650683838211,-0.007765480013546946,-0.0076995848853887985,0.011855257175992787,0.01599126430248391
-0.0015045052573488464,-0.007766153148748851,-0.0076824439782830845,0.011857156378883885,0.015986985085843213
-0.001507245879242326,-0.007766730121779058,-0.007680039923990558,0.011852660797356859,0.015994245329806644
-0.0015228481916008225,-0.007766441635263956,-0.007683694086515198,0.01184458317493397,0.01599176915388534
-0.001528281354301932,-0.007767355175895115,-0.007687516532840315,0.011838765363546055,0.01597063751665404
-0.0015227520294291215,-0.007766081027120076,-0.0076941036416018375,0.011839751025805992,0.015968353665076134
-0.0015166697720690296,-0.00776322020251197,-0.007702854399226633,0.011833139876501544,0.015989677626650843
-0.0015007549326525053,-0.0077628355538251655,-0.007709297264730603,0.011839029809518236,0.016000736276396466
-0.0015014280678544126,-0.007764398189115308,-0.00771434577874491,0.011852011702697876,0.015992658653973577
-0.0015083277036739633,-0.007772884500767927,-0.007717951860183698,0.011837707579657344,0.01599756292473033
-0.0014978941080443988,-0.0077782936229261095,-0.007721798347051741,0.011831168551981672,0.01601451150749264
-0.0015018367570841418,-0.0077635567701129235,-0.007723024414740929,0.011857012135626331,0.016027685725015686
-0.001499937554193046,-0.007760022810302909,-0.007733674375256821,0.011886509881795631,0.01602136306222634
-0.0014906579046238945,-0.007759638161616106,-0.0077480265793832045,0.011859031541232051,0.016031387968626173
-0.001479599254878273,-0.007767667702953143,-0.007762258580794959,0.011852997364957813,0.016051557984140475
-0.0014684444429609506,-0.007792405421623238,-0.007758508256098619,0.011861339433352878,0.016067160296498968
-0.001488061525987966,-0.0078050988282877785,-0.0077140572922298044,0.011857853554628716,0.01606470816112059
-0.001510130744393358,-0.007768340838155052,-0.007706821088809302,0.011853742621788496,0.0160677613100721
-0.001507702649557906,-0.007737617024296565,-0.007730380820876061,0.011846674702168469,0.016098461083387663
-0.0015086883118178422,-0.007747113038752044,-0.0077351889294611145,0.011845833283166084,0.01611379894977398
-0.0015129915690014642,-0.007765431932461094,-0.007694560411917417,0.011852083824326651,0.01611473653094806
-0.0015144340015769801,-0.007769086094985734,-0.007674462518031897,0.011858262243858443,0.0161086783141309
-0.001512222271627856,-0.007766225270377628,-0.007674534639660674,0.011850376945778958,0.016118438774558555
-0.00151991524536394,-0.007770312162674924,-0.0076817948836241014,0.011851098162066715,0.01613257461379861
-0.00151900170473278,-0.007777884933696381,-0.007689223411388009,0.011841770431411715,0.016121972734368568
-0.0015088806361612445,-0.007769302459872063,-0.007696724060780691,0.011837034444455436,0.01610694739504028
-0.0014868114177558525,-0.007763749094456327,-0.007703455412799763,0.011834582309077059,0.016104495259661903
-0.001468300199703399,-0.0077631480808831935,-0.0077079750348697145,0.011830519457322693,0.01611485673366269
-0.0014913310398258018,-0.007760816148219444,-0.007710715656763194,0.011825759429823491,0.016107476286984636
-0.0015082075009593366,-0.007765480013546946,-0.00771165323793728,0.011846530458910915,0.016094542474890845
-0.0014960429862391534,-0.0077692784193291375,-0.007708624129528697,0.011862036609097713,0.016089974771735044
-0.0014830130119736606,-0.007770817014076353,-0.007708071197041416,0.011854415756990404,0.016101466151253317
-0.0014885663773893964,-0.007769230338243286,-0.00771165323793728,0.01184768440497133,0.01609055174476525
-0.0015086883118178422,-0.007769062054442809,-0.0077208848064205795,0.01183768353911442,0.016070093242735853
-0.0015065246629545682,-0.007769398622043762,-0.007736583280950778,0.01182965399777738,0.016058962471361456
-0.0014999135136501208,-0.007770672770818801,-0.00775718602623773,0.01183362068736005,0.016056269930553826
-0.0014969324863273884,-0.007772932581853777,-0.007762811513282241,0.01184011163394987,0.016055452552094368
-0.0015145782448345315,-0.007778269582383184,-0.007725692915005633,0.011841409823267837,0.01603903286127641
-0.0015203239345936699,-0.007772788338596225,-0.007705018048089906,0.011835375646993595,0.016030065738765288
-0.0015152032989505886,-0.007771995000679691,-0.007693166060427752,0.011832971592701068,0.016036556685355106
-0.0015049620276644262,-0.00776971114910179,-0.007686146221893575,0.011839077890604085,0.016046220983611064
-0.0014906338640809694,-0.007770312162674924,-0.007690497560163048,0.011836938282283736,0.016029993617136508
-0.0014719784027709649,-0.00776778790566777,-0.007697685682497702,0.011815085428764673,0.01602013699453715
-0.0014787818764188142,-0.007765552135175721,-0.00769905599344444,0.011804772035849734,0.016023021859688184
-0.0014834697822892408,-0.0077677638651248455,-0.007699152155616142,0.011815686442337804,0.016027493400672284
-0.0014831091741453616,-0.007766153148748851,-0.007701195601764791,0.011844751458734449,0.016024656616607104
-0.0014892875936771545,-0.007764638594544561,-0.0077045612777743265,0.011853141608215365,0.016013237358717604
-0.0014944563104060864,-0.007763580810655849,-0.007708263521384817,0.011827081659684378,0.016007419547329687
-0.0014974373377288188,-0.0077641818242289795,-0.007712182129881635,0.011800132211065158,0.01601862244033286
-0.0015032311085738073,-0.007769999635616896,-0.0077201876306757485,0.011802536265357684,0.016021290940597566
-0.0015030628247733302,-0.007770432365389548,-0.007746439903550136,0.011824268916162122,0.01600710702027166
-0.0015046014195205474,-0.0077685572030413794,-0.007768965892271108,0.011864152176875134,0.016015304845409174
-0.0015038080816040134,-0.007766537797435656,-0.007736943889094658,0.011876653259196271,0.016026627941126973
-0.0015021733246850955,-0.007765696378433272,-0.007707854832155087,0.01187261444798483,0.016027012589813778
-0.0014914031614545774,-0.007766922446122461,-0.0076879252220700455,0.01186703704202617,0.01601705980504272
-0.0014921724588281859,-0.007767379216438041,-0.007683694086515198,0.011853622419073869,0.016021771751456068
-0.001502678176086526,-0.007766658000150283,-0.0076980462906415794,0.011850593310665286,0.01603847992878913
-0.0015078949739013086,-0.007766922446122461,-0.007728529699070814,0.011850449067407736,0.016035619104181022
-0.0015101788254792087,-0.007767162851551712,-0.007718240346698802,0.011849054715918069,0.016027373197957658
-0.0015041927302908175,-0.007769158216614509,-0.007693694952372107,0.011851554932382295,0.01602525763018024
-0.0015022935273997216,-0.007774783703659022,-0.007684631667689283,0.011849078756460995,0.016040114685708047
-0.0014870277826421795,-0.007777644528267128,-0.007679102342816473,0.0118428041747575,0.016047158564785148
-0.0014673626185293138,-0.007770672770818801,-0.007680881342992944,0.011838116268887077,0.016043215915745406
-0.0014632757262320194,-0.007773437433255206,-0.007686747235466706,0.011841554066525388,0.01603521041495129
-0.0014784693493607858,-0.007773341271083506,-0.00769124281699373,0.011839582742005516,0.016049105848762096
-0.0014946245942065626,-0.007770768932990502,-0.007693983438887211,0.011828980862575474,0.01605913075516193
-0.0015011876624251598,-0.007762138378080333,-0.007697276993267972,0.011848670067231264,0.016052928295087213
-0.0014900088099649125,-0.0077615854455930534,-0.007700498426019956,0.011861195190095326,0.016045042997007725
-0.0014939754995475806,-0.007760263215732163,-0.007701147520678939,0.011857060216712182,0.016056870944126958
-0.0015045052573488464,-0.007764157783686055,-0.007711797481194832,0.011845424593936357,0.016058145092901994
-0.001507606487386205,-0.0077679081083823955,-0.007735381253804516,0.011848213296915685,0.016046269064696913
-0.0015011876624251598,-0.007765119405403065,-0.007722952293112153,0.011852925243329036,0.01603057059016672
-0.0014962353105825554,-0.0077643501080294575,-0.007708936656586725,0.01184672278325432,0.016031628374055428
-0.0014959708646103775,-0.007765528094632795,-0.007713456278656674,0.01184568903990853,0.016041124388510908
-0.001497196932299566,-0.007768364878697976,-0.007708095237584341,0.011844150445161315,0.016038431847703278
-0.0014965718781835091,-0.007769206297700361,-0.007681458316023148,0.011845280350678805,0.01602501722475098
-0.0014888067828186492,-0.00777016791941737,-0.0076686447066439825,0.011848573905059565,0.016032301509257336
-0.001489600120735183,-0.007767956189468247,-0.007684078735202001,0.011832370579127937,0.016045619970037932
-0.0014863306068973472,-0.007770792973533428,-0.007693598790200406,0.011789506291092192,0.01604790382161583
-0.001482604322743931,-0.007771249743849008,-0.007682251653939681,0.011799050386633522,0.016044273699634116
-0.001486042120382244,-0.0077680763921828735,-0.007680448613220287,0.01184773248605718,0.016043288037374183
-0.0014803204711660311,-0.007762547067310063,-0.0076821314512250565,0.011859127703403754,0.016058818228103903
-0.0014667856454991075,-0.007764806878345037,-0.007686338546236978,0.011858021838429192,0.016062424309542692
-0.0014821956335142016,-0.007771634392535812,-0.007690185033105019,0.011847996932029358,0.016052615768029185
-0.0014896962829068839,-0.007771201662763158,-0.007692156357624891,0.011846434296739216,0.01605300041671599
-0.0014769067140706436,-0.007768677405756005,-0.007702325507282276,0.011843140742358454,0.01607740156778513
-0.0014915474047121292,-0.007770696811361727,-0.007749180525443615,0.011843789837017437,0.016070694256308984
-0.0015184006911596484,-0.007767066689380013,-0.007770047716702745,0.011848886432117593,0.016060597228280373
-0.0015037119194323124,-0.007766922446122461,-0.00770069075036336,0.011857444865398987,0.016059563484934588
-0.0014773875249291491,-0.007766585878521506,-0.007658138989385644,0.011852059783783729,0.016068915256132514
-0.0014751036733512489,-0.007768028311097024,-0.007659100611102655,0.011852636756813934,0.016079973905878134
-0.0014826764443727069,-0.007773725919770309,-0.007680761140278315,0.011849174918632695,0.016066126553153183
-0.0014777240925301026,-0.007772091162851392,-0.007678813856301371,0.011849054715918069,0.016054130322233476
-0.0014789020791334405,-0.007772259446651868,-0.007682564180997711,0.0118335726062742,0.01605980389036384
-0.0014853689851803365,-0.00777088913570513,-0.007695882641778306,0.011819364645405369,0.01607093466173824
-0.0014899126477932116,-0.007766585878521506,-0.007700955196335538,0.011850280783607258,0.016058193173987847
-0.0014821715929712765,-0.007763652932284625,-0.0076926612090263205,0.011861844284754309,0.016048552916274814
-0.0014785414709895615,-0.00776560021626157,-0.0076884541140144,0.01184854986451664,0.016047374929671475
-0.0014636603749188233,-0.0077675234596955925,-0.007690401397991347,0.011845472675022206,0.016051365659797073
-0.0014544768875213727,-0.007769999635616896,-0.007692541006311695,0.011838717282460208,0.016042927429230303
-0.0014633238073178696,-0.007772451770995272,-0.007696724060780691,0.011816167253196308,0.016021026494625386
-0.001478228943931533,-0.00777011983833152,-0.0077239139148291645,0.01181123894189663,0.016025161468008534
-0.0014869556610134036,-0.007769230338243286,-0.0077687254868418565,0.01181626341536801,0.016036099915039532
-0.0014836380660897175,-0.007770648730275877,-0.007727207469209925,0.011839991431235243,0.01602898391433365
-0.0014814744172264435,-0.007779471609529448,-0.007679679315846678,0.011871965353325848,0.016016410710383736
-0.0014900809315936882,-0.0077784619067265874,-0.0076735008963148875,0.011873720312959392,0.01600842925013255
-0.0014968603646986125,-0.007780409190703533,-0.007666793584838737,0.01186102690629485,0.016023839238147642
-0.0014910425533106984,-0.007780505352875234,-0.007684054694659077,0.011856579405853676,0.016027950170987862
-0.0014922926615428126,-0.007780144744731357,-0.007696700020237765,0.011853454135273393,0.016009318750220783
-0.001476834592441868,-0.00778153909622102,-0.007698719425843488,0.011841914674669263,0.015994389573064198
-0.0014665692806127802,-0.0077840152721423235,-0.007707325940210731,0.011831865727726506,0.016006409844526826
-0.0014807051198528353,-0.007788030042810842,-0.007701940858595473,0.011838669201374356,0.016008212885246217
-0.0014790944034768427,-0.007780721717761563,-0.007687228046325213,0.011852636756813934,0.015998813032962446
-0.0014823879578576035,-0.007775745325376031,-0.00767734738318293,0.011846241972395814,0.015993908762205692
-0.001466449077898154,-0.007774879865830723,-0.007674510599117747,0.01183869324191728,0.01599854858699027
-0.0014542605226350455,-0.00777728392012325,-0.007676433842551769,0.011842395485527771,0.0160063858039839
-0.001461160158454596,-0.007782140109794152,-0.0076786455725008935,0.011846121769681186,0.015997755249073733
-0.0014759931734394836,-0.0077794235284435985,-0.007689848465504066,0.011850713513379912,0.01599160087008487
-0.001472098605485591,-0.007780505352875234,-0.007713360116484973,0.011858478608744772,0.016010737142253376
-0.00147245921362947,-0.007783053650425312,-0.007711725359566055,0.011842683972042876,0.01601393453446243
-0.0014723870920006939,-0.007785794272318792,-0.007698887709643966,0.01183292351161522,0.016001649817027626
-0.0014684925240468012,-0.0077837027450842955,-0.007695017182232997,0.011829245308547651,0.015993548154061808
-0.0014738054840332847,-0.007784784569515931,-0.007682155491767981,0.011822706280871979,0.01600703489864289
-0.0014785895520754119,-0.0077847124478871545,-0.0076935507091145565,0.011825062254078656,0.01601564141301013
-0.0014731804299172278,-0.007786948218379205,-0.007713336075942048,0.01183503907939264,0.016014872115636517
-0.0014760652950682595,-0.0077849528533164075,-0.007699152155616142,0.011844390850590568,0.016010737142253376
-0.0014761614572399604,-0.007784135474856948,-0.007674799085632852,0.011838933647346532,0.01601840607544653
-0.0014718582000563384,-0.007785024974945184,-0.007673765342287066,0.011828427930088193,0.016036917293498987
