channel16,channel17,channel18,channel19,channel20
-0.02118310803370969,-0.011296338593523336,0.008444360905213466,0.0001831648965475833,0.0024297776734563915
-0.02118000680367233,-0.01129631455298041,0.00844371181055448,0.00018032811248240224,0.00242780634893652
-0.02117772295209443,-0.011295184647462923,0.008446813040591842,0.00017515939575347056,0.002427830389479445
-0.021179742357700152,-0.011297708904470077,0.008447197689278645,0.00017679415267238851,0.002429969997799793
-0.021180728019960092,-0.011295977985379456,0.008446260108104559,0.0001747747470666663,0.0024274697813355664
-0.02118017508747281,-0.011297612742298374,0.008447870824480553,0.00016729813821690938,0.002427181294820463
-0.021178973060326543,-0.011299463864103621,0.008442654026665771,0.0001666730841008525,0.00242734957862094
-0.021175967992460888,-0.011301627512966893,0.00843159537692015,0.00017186584137270945,0.0024282390787091746
-0.02117611223571844,-0.011302420850883428,0.008437365107222213,0.00017316403069067367,0.0024279505921940715
-0.021179189425212876,-0.011300449526363556,0.008441403918433656,0.00017237069277413998,0.0024249455243284136
-0.02118118479027567,-0.011301146702108387,0.008443591607839855,0.00016914926002215464,0.0024239839026114025
-0.021182050249820974,-0.011300665891249884,0.0084476304190513,0.0001675145031032367,0.002425089767585965
-0.021182699344479958,-0.01130270933739853,0.008451068216689613,0.000170639773683521,0.002427061092105837
-0.02118224257416438,-0.011302541053598054,0.008453953081840644,0.00017148119268590518,0.0024278544300223703
-0.021181906006563427,-0.011300401445277705,0.00846037190680169,0.00017294766580434632,0.002429128578797409
-0.021182531060679483,-0.011299439823560695,0.008442870391552098,0.00017602485529878004,0.002431556673632861
-0.0211835888445682,-0.011299704269532872,0.008427219998107752,0.00017640950398558426,0.002427878470565296
-0.021183709047282825,-0.011301242864280091,0.00845378479804017,0.00017717880135919268,0.0024261956325605273
-0.021181617520048324,-0.011303743080744316,0.008452727014151456,0.0001757123282407516,0.002427830389479445
-0.021179838519871853,-0.01130508935114813,0.008462223028606934,0.00017823658524790428,0.002431556673632861
-0.02117885285761192,-0.011303286310428736,0.008451765392434446,0.00017780385547524954,0.0024295853491129896
-0.02117832396566756,-0.011304824905175951,0.008437749755909017,0.00017520747683932107,0.002429080497711559
-0.02117536697888776,-0.011305449959292009,0.008444817675529044,0.00017640950398558426,0.002429729592370541
-0.0211724580731938,-0.011304271972688672,0.008446260108104559,0.00017484686869544212,0.002426147551474677
-0.02117361201925421,-0.0113021083238254,0.008446789000048915,0.00017145715214297993,0.0024254022946439933
-0.021176785370920347,-0.0113046806619184,0.008445803337788979,0.00017112058454202625,0.002427085132648762
-0.02117745850612225,-0.011307829973041613,0.008448976689455115,0.00017472666598081582,0.0024275178624214174
-0.02117786719535198,-0.011309224324531277,0.008447029405478168,0.00017426989566523578,0.0024272293759063143
-0.02117635264114769,-0.01130992150027611,0.008448784365111713,0.0001700387601103894,0.002427734227307744
-0.02117628051951892,-0.011311171608508223,0.008449962351715051,0.0001722264495165884,0.002427085132648762
-0.021178684573811443,-0.01130996958136196,0.008448664162397087,0.00017953477456586852,0.0024316047547187115
-0.021180992465932268,-0.011307493405440657,0.008443110796981351,0.00017845295013423166,0.0024337684035819853
-0.021182122371449758,-0.01130701259458215,0.008441163513004404,0.0001757123282407516,0.0024331433494659284
-0.021181256911904443,-0.011307998256842087,0.008433302255467843,0.0001740775713218337,0.0024319653628625906
-0.02117851629001096,-0.0113089598785591,0.008434119633927302,0.00017342847666285157,0.0024295132274842137
-0.021179718317157228,-0.011311051405793596,0.008438302688396298,0.00017648162561436005,0.0024300661599714946
-0.02118351672293942,-0.011313046770856393,0.008442798269923323,0.00017580849041245263,0.0024342251738975647
-0.02118476683117153,-0.011312061108596458,0.008444384945756389,0.00017511131466762002,0.002439850660942077
-0.02118342056076772,-0.0113092483650742,0.008447317891993272,0.00017840486904838112,0.0024384322689094858
-0.021184454304113504,-0.011308166540642563,0.008448784365111713,0.00018506409943867916,0.002437518728278326
-0.021187315128721608,-0.011311940905881829,0.008447774662308852,0.00018679501852929807,0.002435282957786277
-0.02118962302084244,-0.011311484135566251,0.008463016366523468,0.00017352463883455263,0.0024335520386956576
-0.02118988746681461,-0.011309128162359577,0.008446356270276262,0.00016619227324234722,0.0024338405252107608
-0.0211890220072693,-0.011309176243445426,0.008427869092766735,0.0001709523007415494,0.0024316047547187115
-0.021189671101928285,-0.01131321505465687,0.008441500080605359,0.00017455838218033892,0.002430522930287075
-0.02119128181830428,-0.01131357566280075,0.008440298053459095,0.00017621717964218218,0.002436052255159885
-0.021191666466991086,-0.011313479500629048,0.008434600444785808,0.0001740535307789084,0.0024375427688212515
-0.02119130585884721,-0.011311940905881829,0.008439889364229366,0.0001714331116000547,0.002438504390538262
-0.021189238372155632,-0.011311820703167205,0.00844575525670313,0.00017583253095537792,0.0024380476202226823
-0.02118774785849426,-0.01131184474371013,0.00844712556764987,0.00017508727412469474,0.0024370859985056717
-0.02118736320980746,-0.011310955243621895,0.008446885162220617,0.00017515939575347056,0.0024354272010438287
-0.021186016939403647,-0.011312181311311084,0.008449697905742872,0.0001775634500459969,0.002436436903846689
-0.02118132903353322,-0.011313816068230002,0.008454602176499626,0.00017583253095537792,0.0024416296611185465
-0.02117837204675341,-0.0113135275817149,0.00844448110792809,0.00017301978743312208,0.002442206634148753
-0.02118089630376057,-0.011311964946424757,0.008444577270099791,0.00016797127341881674,0.0024400189447425537
-0.021183180155338467,-0.011313647784429523,0.008439745120971814,0.00016715389495935778,0.0024381197418514573
-0.02118238681742193,-0.011313551622257823,0.008430850120089466,0.0001639084216644472,0.002437927417508056
-0.021179694276614303,-0.011315426784605995,0.00843361478252587,0.00016518257043948614,0.002437302363391999
-0.021178684573811443,-0.0113160999198079,0.008447462135250824,0.00016631247595697354,0.002438239944566084
-0.02118029529018744,-0.011316172041436678,0.008448519919139535,0.0001720822062590368,0.002438624593252889
-0.02116644793746248,-0.01131655669012348,0.008437076620707109,0.0001721543278878126,0.002443961593782297
-0.021169717451300314,-0.011321629244680713,0.008441500080605359,0.00017155331431468101,0.002442110471977052
-0.021173131208395705,-0.011319345393102812,0.008444577270099791,0.00016624035432819776,0.002442206634148753
-0.02117536697888776,-0.011312061108596458,0.008446524554076738,0.00016782703016126517,0.0024392736879118703
-0.021177915276437836,-0.01131093120307897,0.008446909202763545,0.00017174563865808313,0.002438792877053365
-0.021178155681867084,-0.01131403243311633,0.00844671687842014,0.00016763470581786306,0.002439874701485002
-0.021176881533092048,-0.01131665285229518,0.008444793634986118,0.0001635718540634935,0.002440884404287863
-0.021178564371096813,-0.011316700933381031,0.00844397625652666,0.00016349973243471767,0.0024406199583156853
-0.021179694276614303,-0.011317590433469268,0.008434215796099003,0.0001633074080913156,0.0024381197418514573
-0.021181497317333698,-0.011318431852471651,0.008427340200822378,0.00016220154311675345,0.002439538133884049
-0.021184911074429085,-0.011316676892838108,0.008439480674999634,0.00016261023234648297,0.0024422547152346034
-0.02118681027732018,-0.01131910498767356,0.008449072851626816,0.0001651585298965609,0.002439850660942077
-0.021189070088355157,-0.011320619541877852,0.008449000729998041,0.0001647498406668314,0.0024374946877354013
-0.02118914220998393,-0.011319297312016963,0.008449745986828723,0.00016782703016126517,0.002441293093517593
-0.02118476683117153,-0.011316244163065451,0.00845027487877308,0.00016910117893630412,0.002443937553239372
-0.021179622154985527,-0.011314729608861162,0.008445995662132381,0.00016619227324234722,0.002441148850260041
-0.02118108862810397,-0.011314561325060686,0.008446596675705513,0.0001652787326111872,0.002440571877229835
-0.021185343804201742,-0.011319297312016963,0.008446837081134766,0.00016547105695458933,0.002442038350348276
-0.02118640158809045,-0.011322230258253844,0.008445154243129999,0.00016388438112152192,0.00244155753948977
-0.02118539188528759,-0.0113206676229637,0.008441644323862909,0.00016583166509846832,0.002441293093517593
-0.02118546400691636,-0.011319826203961318,0.008444769594443194,0.0001688607735070515,0.002441797944919023
-0.02118546400691636,-0.011319465595817438,0.008449000729998041,0.00017059169259767043,0.0024413411746034433
-0.02118334843913894,-0.011319754082332541,0.008449433459770695,0.00017164947648638207,0.0024442500802974
-0.021181377114619072,-0.011318215487585326,0.00844767850013715,0.00016578358401261775,0.0024453799858148873
-0.0211817858038488,-0.011319177109302336,0.008450996095060836,0.00016121588085681767,0.0024456684723299905
-0.021180583776702542,-0.011319754082332541,0.008449433459770695,0.00016059082674076082,0.002443889472153521
-0.021179333668470426,-0.011318624176815057,0.008451236500490091,0.00016273043506110927,0.002446822418390403
-0.021181136709189814,-0.011317061541524913,0.00844758233796545,0.00016698561115888094,0.0024483369725946946
-0.021183372479681863,-0.011317758717269744,0.008443495445668156,0.000168908854592902,0.0024484812158522464
-0.021183540763482344,-0.01132174944739534,0.008452366406007578,0.0001684761248202473,0.002448986067253677
-0.02118286762828044,-0.011322061974453368,0.00846174221774843,0.00016643267867159982,0.0024483369725946946
-0.02118231469579316,-0.011325018961233174,0.008450899932889134,0.00016741834093153568,0.002445091499299784
-0.021182555101222408,-0.01132737493443985,0.00844808718936688,0.00016792319233296617,0.002443504823466717
-0.021180655898331312,-0.011329442421131423,0.008445586972902652,0.000169822395224062,0.002442495120663856
-0.021179670236071372,-0.011325115123404877,0.008448832446197563,0.00016674520572962828,0.002441870066547799
-0.021180728019960092,-0.011322903393455751,0.008450491243659406,0.00016446135415172826,0.00244013914745718
-0.02118147327679077,-0.011323047636713305,0.008446885162220617,0.00016645671921452511,0.002442495120663856
-0.0211816896416771,-0.01132372077191521,0.008440658661602974,0.00016801935450466726,0.002444947256042233
-0.02118224257416438,-0.011325018961233174,0.00844301463480965,0.00016960603033773465,0.002447303229248909
-0.02118342056076772,-0.011322037933910442,0.008445635053988503,0.00017277938200386942,0.0024476397968498623
-0.021183949452712077,-0.011327495137154477,0.008447822743394702,0.00016979835468113676,0.002446822418390403
-0.021184430263570583,-0.01132453815037467,0.00844671687842014,0.00016085527271293872,0.002445091499299784
-0.02118320419588139,-0.011322951474541602,0.008433278214924919,0.00016270639451818403,0.002447158985991357
-0.021179838519871853,-0.011325860380235558,0.008435081255644314,0.00016710581387350726,0.002443817350524745
-0.021177698911551503,-0.011328576961586113,0.008444336864670537,0.00016208134040212715,0.0024447549316988304
-0.02117890093869777,-0.011328024029098832,0.008450202757144303,0.00016080719162708817,0.002446702215675777
-0.02117837204675341,-0.011327350893896923,0.00844539464855925,0.00016621631378527251,0.0024453799858148873
-0.02117817972241001,-0.011326485434351616,0.008443856053812034,0.00017054361151181994,0.0024433124991233147
-0.021178444168382188,-0.011326846042495495,0.00844758233796545,0.0001662884354140483,0.0024448270533276068
-0.021179093263041168,-0.011327350893896923,0.008452390446550502,0.00016102355651341556,0.002445235742557336
-0.02118017508747281,-0.011326389272179915,0.008447870824480553,0.00016099951597049029,0.002446822418390403
-0.021181641560591248,-0.011329129894073394,0.00844301463480965,0.00015717706964537336,0.002447062823819656
-0.021181978128192204,-0.011331101218593266,0.008444505148471016,0.0001558548397844839,0.002442975931522361
-0.021181978128192204,-0.011328673123757814,0.008443495445668156,0.00015789828593313132,0.0024384322689094858
-0.021181641560591248,-0.011329490502217274,0.008444577270099791,0.00016104759705634086,0.0024385284310811874
-0.021180944384846412,-0.011329394340045571,0.008444457067385166,0.00016215346203090293,0.002439970863656703
-0.02118000680367233,-0.011326846042495495,0.008451188419404239,0.0001584271778774871,0.0024377110526217285
-0.021177242141235925,-0.011326052704578959,0.008453712676411394,0.00016015809696810602,0.002437807214793429
-0.02117269847862305,-0.0113250430017761,0.008447317891993272,0.0001627785161469598,0.0024362686200462124
-0.021172626356994274,-0.011326822001952569,0.00844698132439232,0.0001613841646572945,0.0024379033769651305
-0.02117676133037742,-0.01132672583978087,0.008446813040591842,0.00016039850239735868,0.00244379330998182
-0.021179742357700152,-0.01132412946114494,0.008447317891993272,0.0001594609212232734,0.0024441058370398483
-0.021180247209101586,-0.011328625042671963,0.008446861121677692,0.0001611677997709671,0.0024401872285430303
-0.02118132903353322,-0.011334322651345251,0.0084452504053017,0.00016318720537668928,0.0024419181476336496
-0.02118132903353322,-0.011335741043377841,0.008437292985593437,0.00016378821894982084,0.002441701782747322
-0.021181497317333698,-0.01133518811089056,0.008427460403537005,0.00016018213751103132,0.0024402593501718067
-0.02118233873633608,-0.011332134961939052,0.00843361478252587,0.00015996577262470394,0.0024412690529746674
-0.021181713682220025,-0.011332687894426331,0.008446067783761158,0.00016345165134886718,0.0024459809993880193
-0.02118089630376057,-0.011335164070347636,0.008451188419404239,0.00016256215126063246,0.0024471109049055057
-0.021180535695616686,-0.011336125692064646,0.00845022679768723,0.00016102355651341556,0.002444538566812503
-0.021178828817068996,-0.011335620840663216,0.008458953514769099,0.0001602542591398071,0.002444153918125699
-0.02117781911426613,-0.011332832137683884,0.008467103258820764,0.00016128800248559346,0.002443024012608212
-0.0211795019522709,-0.011333505272885793,0.008440658661602974,0.00015960516448082498,0.002442134512519977
-0.021181906006563427,-0.011334539016231578,0.008436331363876427,0.00015936475905157236,0.0024447549316988304
-0.02118257914176534,-0.01133376971885797,0.008442702107751622,0.00016200921877335136,0.002448024445536666
-0.02118233873633608,-0.011335212151433486,0.00844154816169121,0.00016482196229560718,0.002445235742557336
-0.021183468641853567,-0.011334154367544777,0.008440850985946376,0.00016597590835601986,0.002443576945095493
-0.02118325227696724,-0.011334947705461307,0.008440442296716647,0.00016662500301500196,0.002443024012608212
-0.021180848222674714,-0.011336534381294377,0.0084476304190513,0.0001651585298965609,0.002441028647545415
-0.021180800141588862,-0.011336534381294377,0.0084498181084575,0.00016309104320498823,0.0024410526880883398
-0.021182146411992682,-0.011335260232519335,0.00845022679768723,0.00016585570564139353,0.0024433124991233147
-0.02118305995262384,-0.011332038799767352,0.008451044176146687,0.000167081773330582,0.002443024012608212
-0.02118327631751016,-0.011332928299855586,0.00845681390644875,0.00016342761080594188,0.002443024012608212
-0.021181208830818598,-0.011335596800120293,0.008458881393140324,0.00016234578637430507,0.0024457405939587664
-0.021179165384669945,-0.01133595740826417,0.008455804203645891,0.00016090335379878923,0.002445956958845093
-0.021177963357523682,-0.011338601867985949,0.008454265608898674,0.0001611197186851166,0.002445428066900738
-0.021177434465579327,-0.01133696711106703,0.00844986618954335,0.00016246598908893137,0.00244516362092856
-0.021177506587208104,-0.011336197813693423,0.008443856053812034,0.0001611677997709671,0.0024447549316988304
-0.021178420127839263,-0.01133610165152172,0.008441764526577536,0.00015801848864775762,0.0024445145262695783
-0.021178468208925112,-0.011338217219299144,0.008442629986122845,0.00015905223199354394,0.0024418219854619484
-0.021176424762776463,-0.01133788065169819,0.008440442296716647,0.00016160052954362187,0.00244379330998182
-0.02117647284386232,-0.011337736408440638,0.008438759458711878,0.00016131204302851873,0.0024443462424691012
-0.02117709789797837,-0.011337544084097236,0.008442173215807265,0.00015684050204441968,0.002446029080473869
-0.021177530627751028,-0.011339058638301529,0.008445875459417756,0.00015441240720896805,0.002447471513049385
-0.02117801143860953,-0.011338217219299144,0.008447774662308852,0.00015773000213265445,0.0024453078641861114
-0.021179189425212876,-0.011340741476306296,0.00844493787824367,0.0001617447728011735,0.0024448270533276068
-0.021178468208925112,-0.011340861679020924,0.008440754823774675,0.00016297084049036193,0.002445091499299784
-0.021180511655073758,-0.011340308746533644,0.00844118755354733,0.00016349973243471767,0.0024454761479865885
-0.021181569438962468,-0.011343193611684671,0.008442053013092641,0.00016655288138622617,0.002445091499299784
-0.02118274742556581,-0.011344395638830936,0.008442533823951144,0.00016946178708018302,0.002447591715764012
-0.021182819547194587,-0.011342256030510587,0.008442750188837472,0.00016734621930275992,0.002446197364274346
-0.02118067993887424,-0.01134153481422283,0.008441307756261956,0.00016145628628607032,0.002446101202102645
-0.021178564371096813,-0.011342881084626643,0.00844210109417849,0.0001613841646572945,0.0024468704994762536
-0.02117817972241001,-0.011343938868515356,0.008444793634986118,0.00016123992139974294,0.002445235742557336
-0.02117779507372321,-0.011343121490055898,0.00844371181055448,0.0001611677997709671,0.0024456444317870647
-0.021177506587208104,-0.011342135827795962,0.00844397625652666,0.00016157648900069662,0.002447928283364965
-0.021178973060326543,-0.011341895422366707,0.008441932810378012,0.00016306700266206296,0.002447303229248909
-0.02117745850612225,-0.01134417927394461,0.00844214917526434,0.00015984556991007764,0.0024468704994762536
-0.021174453438256597,-0.01134386674688658,0.008443832013269108,0.00015662413715809232,0.0024453799858148873
-0.021174862127486326,-0.011342231989967665,0.008443351202410604,0.00015681646150149443,0.0024459809993880193
-0.02117709789797837,-0.011340813597935071,0.008446139905389933,0.00015996577262470394,0.002446317566988973
-0.02117717001960715,-0.011341703098023306,0.008446452432447963,0.00016023021859688184,0.0024485533374810227
-0.021176496884405243,-0.011343097449512972,0.008443495445668156,0.00015643181281469018,0.0024499717295136127
-0.021176400722233545,-0.011342784922454944,0.008444697472814419,0.00015861950222088918,0.002446317566988973
-0.02117697769526375,-0.01134307340897005,0.008451356703204717,0.00016210538094505242,0.002443216336951613
-0.02117647284386232,-0.011340549151962894,0.008450539324745257,0.00016648075975745039,0.002444442404640802
-0.021175607384317008,-0.011340861679020924,0.00843940855337086,0.0001650623677248598,0.002446317566988973
-0.0211749342491151,-0.011339226922102005,0.008445274445844624,0.00016018213751103132,0.002448721621281499
-0.021174477478799518,-0.011340428949248268,0.00844113947246148,0.0001573693939887755,0.002448024445536666
-0.021173996667941012,-0.011347184341810269,0.008442341499607743,0.00015611928575666177,0.002448024445536666
-0.0211723619110221,-0.011348001720269726,0.00843580247193207,0.00015732131290292496,0.002447808080650339
-0.021172890802966454,-0.011347857477012174,0.008425128470873254,0.00016032638076858292,0.0024486014185668725
-0.021174862127486326,-0.011346342922807885,0.00843361478252587,0.00016152840791484608,0.00244968324299851
-0.02117539101943068,-0.011346751612037612,0.008432484877008385,0.00016306700266206296,0.002452327702720289
-0.02117563142485993,-0.011349684558274495,0.008441451999519508,0.00016354781352056824,0.002455044284070844
-0.02117404474902686,-0.011350670220534431,0.008446644756791364,0.00015881182656429132,0.0024530248784651217
-0.02117366010034006,-0.011348458490585306,0.008448351635339059,0.00015919647525109552,0.0024520151756622604
-0.021174405357170745,-0.011348362328413604,0.008448111229909806,0.0001595570833949745,0.0024486254591097978
-0.021174814046400474,-0.011348121922984351,0.008441307756261956,0.00015628756955713864,0.002449538999740959
-0.021174597681514147,-0.011347857477012174,0.008434937012386762,0.00014960429862391535,0.002448793742910275
-0.02117452555988537,-0.011353194477541585,0.008434119633927302,0.00015280169083297542,0.002449875567341912
-0.02117529485725898,-0.011349997085332523,0.008430850120089466,0.00015681646150149443,0.002448865864539051
-0.02117310716785278,-0.01134869889601456,0.008421161781290586,0.0001604946645690597,0.0024505727430867447
-0.02117156857310556,-0.011347520909411222,0.008425513119560059,0.0001623938674601556,0.0024528085135787944
-0.02117159261364849,-0.011347256463439042,0.008432941647323966,0.00015934071850864706,0.0024522796216344387
-0.021172890802966454,-0.011346270801179108,0.008439312391199159,0.00015825889407701022,0.002453529729866552
-0.02117584778974626,-0.011346174639007408,0.008440730783231749,0.00016349973243471767,0.0024511977972028016
-0.02117781911426613,-0.011348506571671156,0.00843885562088358,0.00016852420590609778,0.0024468464589333283
-0.021178420127839263,-0.011352569423425524,0.008437893999166569,0.00016775490853248936,0.0024492985943117052
-0.02117998276312941,-0.011352088612567021,0.008437845918080718,0.00016763470581786306,0.0024511256755740253
-0.021182026209278053,-0.01134929990958769,0.008437773796451942,0.00015241704214617117,0.002452471945977841
-0.02118277146610873,-0.011349588396102794,0.008439456634456709,0.00012491466103966962,0.0024524238648919896
-0.02118286762828044,-0.011347737274297548,0.008448880527283414,9.827773947847756e-05,0.002450428499829193
-0.021184189858141328,-0.01134783343646925,0.008442317459064817,7.575175075750556e-05,0.002453529729866552
-0.0211840696554267,-0.011348314247327755,0.0084360188368184,6.0822573600916895e-05,0.0024555731760151998
-0.021183324398596017,-0.01135057405836273,0.008441331796804879,6.825110136482335e-05,0.002453481648780701
-0.02118238681742193,-0.011352184774738722,0.008445827378331905,8.818071144986687e-05,0.002453385486609001
-0.021182146411992682,-0.011354564788488324,0.008441980891463863,0.00011032205148403464,0.002456294392302957
-0.021181881966020503,-0.011353603166771312,0.00843895178305528,0.00013866585159292042,0.002456799243704388
-0.021180800141588862,-0.011354132058715669,0.008438543093825551,0.0001604946645690597,0.00245790510867895
-0.02118111266864689,-0.011355165802061454,0.0084360188368184,0.00016583166509846832,0.002457039649133641
-0.02118046357398791,-0.01135052597727688,0.008441932810378012,0.00016876461133535044,0.0024551885273283954
-0.02117810760078124,-0.011351343355736338,0.008443423324039379,0.000167995313961742,0.002457039649133641
-0.021176160316804287,-0.011355165802061454,0.008442629986122845,0.00016739430038861046,0.0024521594189198122
-0.021177771033180283,-0.011356872680609148,0.008432196390493281,0.00016898097622167782,0.002452255581091513
-0.021180247209101586,-0.011357906423954936,0.008426402619648292,0.0001712888683425031,0.002454996202984993
-0.021180439533444985,-0.011355814896720436,0.008436331363876427,0.00017496707141006844,0.002452544067606617
-0.0211794057900992,-0.011355887018349213,0.008445178283672923,0.00017520747683932107,0.0024549240813562176
-0.02117620839789014,-0.011355574491291185,0.008446380310819186,0.00017213028734488735,0.002456414595017584
-0.02117373222196884,-0.011355526410205331,0.008441331796804879,0.00016441327306587772,0.002452327702720289
-0.021173131208395705,-0.011354540747945398,0.008439264310113308,0.00016782703016126517,0.0024532893244372995
-0.021173299492196183,-0.011353266599170358,0.008440081688572767,0.00017434201729401154,0.0024540105407250576
-0.021173491816539585,-0.011352425180167977,0.00844570717561728,0.00017188988191563473,0.002454443270497712
-0.021175463141059454,-0.011355261964233157,0.008453616514239691,0.00017306786851897264,0.002455284689500096
-0.021181016506475192,-0.011356127423778464,0.008441764526577536,0.00017443817946571262,0.0024579291492218755
-0.021185007236600783,-0.011357690059068608,0.008433446498725395,0.00017027916553964204,0.0024617515955469922
-0.021185103398772488,-0.01136021431607576,0.008447462135250824,0.00016811551667636831,0.0024623766496630487
-0.021185992898860726,-0.011359156532187048,0.008448568000225386,0.00017025512499671674,0.002458626324966708
-0.02118736320980746,-0.01135838723481344,0.008442221296893116,0.00016965411142358516,0.002458289757365754
-0.02118858927749665,-0.011358242991555887,0.00842940768751395,0.0001684761248202473,0.0024594196628832422
-0.021186593912433854,-0.01135641591029357,0.008436908336906633,0.00016852420590609778,0.002455404892214723
-0.021185151479858336,-0.011358675721328542,0.008439216229027458,0.00017150523322883047,0.002454299027240161
-0.02118762765577964,-0.011360598964762565,0.008441668364405835,0.00017566424715490108,0.002454130743439684
-0.021190272115501417,-0.01136223372168148,0.008443375242953528,0.0001737890848067305,0.002454395189411861
-0.02119007979115801,-0.011364181005658428,0.008443038675352574,0.00017263513874631788,0.0024545634732123386
-0.021186425628633376,-0.011362305843310258,0.008442870391552098,0.00017371696317795469,0.0024567511626185376
-0.02118330035805309,-0.011359420978159226,0.00844109139137563,0.00017446222000863792,0.002454876000270367
-0.021181425195704918,-0.011358819964586094,0.0084360188368184,0.00017489494978129266,0.002457352176191669
-0.02118104054701812,-0.011359973910646508,0.008435610147588668,0.0001742458551223105,0.002456847324790239
-0.021180223168558655,-0.011361464424307872,0.008435441863788192,0.00017376504426380525,0.002455861662530303
-0.02117803547915246,-0.01136031047824746,0.0084407788643176,0.0001694377465372578,0.0024561020679595555
-0.0211776027493798,-0.011359733505217256,0.008443495445668156,0.0001686924897065746,0.002457736824878473
-0.021178756695440216,-0.011362257762224407,0.008443759891640333,0.00017162543594345683,0.0024559337841590784
-0.0211790211414124,-0.011361464424307872,0.008443255040238903,0.0001724187738599905,0.0024534335676948517
-0.021176040114089658,-0.011358651680785618,0.008446548594619664,0.00017390928752135683,0.0024520872972910363
-0.021172554235365498,-0.011356127423778464,0.00844529848638755,0.00017364484154917893,0.002455044284070844
-0.0211749342491151,-0.011362065437881005,0.008444216661955913,0.00017335635503407576,0.0024557414598156764
-0.021179742357700152,-0.011361055735078144,0.008442774229380397,0.00017051957096889467,0.002455717419272751
-0.02118118479027567,-0.011362498167653659,0.00844118755354733,0.00016595186781309462,0.0024547317570128148
-0.02118019912801573,-0.01136163270810835,0.008442629986122845,0.00016619227324234722,0.0024529527568363453
-0.021179429830642124,-0.011361464424307872,0.008443832013269108,0.0001688607735070515,0.002450813148515997
-0.021176953654720818,-0.011362618370368286,0.008444192621412987,0.00017184180082978418,0.0024512939593745032
-0.021173948586855163,-0.011362978978512165,0.00844147604006243,0.00017112058454202625,0.0024511977972028016
-0.02117118392441876,-0.011365863843663195,0.008448015067738105,0.00017434201729401154,0.002450236175485791
-0.021168851991755003,-0.01136706587080946,0.008455684000931264,0.0001747987876095916,0.0024493947564834064
-0.021167121072664385,-0.011365479194976392,0.008439528756085486,0.00017689031484408954,0.0024533614460660754
-0.02116623157257615,-0.011363027059598015,0.00842483998435815,0.0001761210174704811,0.0024542749866972354
-0.021166279653662003,-0.011364036762400876,0.008439264310113308,0.00017739516624552007,0.002454683675926965
-0.02116863562686868,-0.011364036762400876,0.008437341066679288,0.00017523151738224634,0.002455404892214723
-0.021172674438080127,-0.0113660561680066,0.00844082694540345,0.00017323615231944946,0.002455789540901527
-0.021177145979064223,-0.011367258195152862,0.008440057648029842,0.00017304382797604737,0.002453553770409477
-0.021180583776702542,-0.011367594762753815,0.008437341066679288,0.00017330827394822524,0.002457640662706773
-0.02118132903353322,-0.011366464857236329,0.00844032209400202,0.00017184180082978418,0.0024591792574539893
-0.021182218533621452,-0.011365262830090064,0.00843986532368644,0.00017155331431468101,0.002455452973300573
-0.021182627222851184,-0.011365310911175916,0.008437653593737316,0.00017066381422644626,0.002453529729866552
-0.021180800141588862,-0.011365863843663195,0.008438134404595822,0.00016984643576698727,0.002454996202984993
-0.021176088195175517,-0.01136742647895334,0.008437341066679288,0.00017035128716841785,0.0024547557975557405
-0.021174477478799518,-0.011369229519672732,0.008438062282967045,0.00017191392245855997,0.0024577608654213984
-0.021175775668117486,-0.011369181438586885,0.008439120066855757,0.00017131290888542836,0.002459539865597868
-0.02117553526268823,-0.011368340019584498,0.008435994796275473,0.00017414969295060945,0.0024588907709388857
-0.02117584778974626,-0.011373268330884178,0.008432388714836684,0.00017463050380911476,0.0024564626761034345
-0.021177554668293956,-0.011369878614331716,0.00843361478252587,0.00017237069277413998,0.0024599725953705232
-0.021179525992813825,-0.011374710763459694,0.008436812174734932,0.00016797127341881674,0.0024616073522894404
-0.021181353074076145,-0.01137848512869896,0.00844037017508787,0.00016352377297764297,0.0024615833117465147
-0.021182362776879002,-0.011378388966527259,0.008443447364582305,0.00016200921877335136,0.0024607659332870568
-0.021181545398419547,-0.01137752350698195,0.008439168147941606,0.0001650623677248598,0.002461463109031889
-0.02117998276312941,-0.01137624935820691,0.00843397539066975,0.00016352377297764297,0.0024625449334635253
-0.02117957407389968,-0.011378268763812632,0.008438374810025073,0.0001669615706159557,0.002461294825231412
-0.021179790438786004,-0.011378893817928691,0.008442822310466247,0.00017198604408733575,0.0024597802710271204
-0.02118067993887424,-0.011378364925984331,0.008442197256350191,0.00017225049005951365,0.0024602851224285512
-0.02118308399316677,-0.01137939866933012,0.008437893999166569,0.00016857228699194832,0.002461775636089917
-0.021184189858141328,-0.0113774754258961,0.00843986532368644,0.00016607207052772092,0.002463362311922985
-0.02118469470954276,-0.011375648344633778,0.008431835782349403,0.00016090335379878923,0.002460405325143177
-0.02118479087171446,-0.011378605331413586,0.00843255699863716,0.00016155244845777135,0.0024599725953705232
-0.021184310060855957,-0.011381562318193391,0.008441379877890731,0.00016443731360880301,0.0024607899738299816
-0.021183468641853567,-0.011378965939557464,0.008445058080958297,0.00016547105695458933,0.0024598523926558963
-0.02118257914176534,-0.011377956236754605,0.008445995662132381,0.00016496620555315876,0.002455837621987377
-0.02118320419588139,-0.011378340885441408,0.008443663729468632,0.00016530277315411244,0.002457183892391192
-0.02118693048003481,-0.011378124520555082,0.008445082121501222,0.00016837996264854619,0.0024583859195374553
-0.02118995958844339,-0.011378244723269707,0.008443255040238903,0.00017027916553964204,0.002459900473741747
-0.021189358574870257,-0.01137894189901454,0.008445106162044148,0.00017119270617080206,0.0024607899738299816
-0.021189238372155632,-0.011381538277650469,0.008445827378331905,0.00017330827394822524,0.0024626651361781523
-0.02119233960219299,-0.011385000115831706,0.00843712470179296,0.00017078401694107256,0.002462448771291825
-0.021196282251232733,-0.011381778683079722,0.008436812174734932,0.00016470175958098086,0.0024602610818856264
-0.021195416791687426,-0.011377836034039978,0.008443327161867678,0.00016085527271293872,0.002461270784688487
-0.02119145010210476,-0.011378797655756988,0.008444336864670537,0.0001651585298965609,0.0024601408791709994
-0.02119015191278679,-0.011378917858471616,0.008446548594619664,0.00016739430038861046,0.002462761298349853
-0.021190632723645297,-0.011377403304267323,0.008442053013092641,0.00016850016536317254,0.0024623766496630487
-0.02119159434536231,-0.011376129155492284,0.008439576837171336,0.00017032724662549258,0.002460814014372907
-0.021192363642735915,-0.011378076439469231,0.008441211594090255,0.00016922138165093042,0.0024592513790827647
-0.02119416668345531,-0.01137894189901454,0.008445947581046533,0.00016907713839337882,0.0024578570275931
-0.0211927242508798,-0.011376946533951745,0.008443206959153052,0.0001697743141382115,0.002457808946507249
-0.021190344237130197,-0.011375768547348406,0.00843803824242412,0.00016854824644902305,0.0024579772303077252
-0.02118955089921366,-0.0113798554396457,0.008434720647500433,0.00016580762455554302,0.002460020676456373
-0.02118899796672638,-0.01137930250715842,0.00842890283611252,0.0001651344893536356,0.0024637710011527147
-0.02118818058826692,-0.011377235020466845,0.00843306185003859,0.00016876461133535044,0.0024635065551805364
-0.021188973926183453,-0.011382283534481152,0.008436884296363708,0.00017484686869544212,0.002460814014372907
-0.02118950281812781,-0.011383437480541565,0.008440850985946376,0.00017075997639814732,0.0024602610818856264
-0.021190656764188225,-0.011383365358912788,0.008442702107751622,0.00016085527271293872,0.0024610544198021595
-0.02119224344002129,-0.011382812426425509,0.008438687337083103,0.000158691623849665,0.0024614871495748144
-0.02119334930499585,-0.011384807791488304,0.008439480674999634,0.00016602398944187037,0.002459083095282288
-0.021193950318568983,-0.011384254859001023,0.008442028972549713,0.000167081773330582,0.002457544500535071
-0.021194190723998238,-0.011384038494114696,0.008443158878067202,0.00016895693567875252,0.0024575925816209213
-0.02119640245394736,-0.011380793020819784,0.008443904134897885,0.00017025512499671674,0.002457135811305341
-0.0211978689270658,-0.011379975642360329,0.008442389580693592,0.000167081773330582,0.002455957824702004
-0.021200489346244654,-0.011382932629140134,0.008434071552841451,0.00016289871886158611,0.0024579772303077252
-0.021203855022254192,-0.011384110615743471,0.008433230133839068,0.00016342761080594188,0.0024621843253196467
-0.02120366269791079,-0.011385529007776065,0.008442990594266724,0.00016662500301500196,0.0024602130007997753
-0.021203181887052284,-0.011388029224240287,0.008449072851626816,0.00016883673296412622,0.002457640662706773
-0.02120416754931222,-0.011386370426778446,0.00845077973017451,0.00016907713839337882,0.0024565588382751352
-0.021202220265335275,-0.011385120318546332,0.008448183351538581,0.00016809147613344304,0.002458001270850651
-0.02120116248144656,-0.0113843269806298,0.00844154816169121,0.00016609611107064616,0.002459611987226644
-0.02120010469755785,-0.011385553048318987,0.008438927742512354,0.00016494216501023348,0.002457616622163847
-0.02119762852163655,-0.011385889615919942,0.008448471838053685,0.00016703369224473148,0.0024563905544746586
-0.021196763062091242,-0.0113867069943794,0.008450298919316005,0.0001706878547693715,0.002456799243704388
-0.021196642859376613,-0.011389062967586077,0.008441860688749237,0.00017167351702930734,0.0024589388520247363
-0.021194503251056263,-0.011385216480718031,0.008435778431389145,0.00016739430038861046,0.002461222703602636
-0.021192555967079318,-0.011381394034392915,0.008436090958447173,0.00016328336754839034,0.002461030379259234
-0.021190632723645297,-0.011382307575024076,0.008438567134368477,0.00016854824644902305,0.0024597321899412702
-0.021187507453065014,-0.011381874845251423,0.00844371181055448,0.00017441413892278735,0.0024594196628832422
-0.0211862573448329,-0.011382764345339656,0.008441788567120459,0.00017347655774870209,0.002459636027769569
-0.021186065020489496,-0.011384615467144902,0.008443351202410604,0.00016910117893630412,0.0024577849059643237
-0.021185632290716842,-0.011385336683432659,0.008447341932536195,0.00016645671921452511,0.0024587946087671854
-0.021186185223204125,-0.01138721184578083,0.00844698132439232,0.00016876461133535044,0.0024564626761034345
-0.021186593912433854,-0.011385529007776065,0.008442894432095024,0.0001701108817391652,0.0024550923651566947
-0.02118553612854514,-0.011385000115831706,0.008441500080605359,0.00016729813821690938,0.002458073392479427
-0.021183468641853567,-0.011387572453924707,0.008441524121148283,0.00016571146238384196,0.0024605014873148785
-0.02118327631751016,-0.01138944761627288,0.008436884296363708,0.00016402862437907352,0.002460814014372907
-0.021185512088002217,-0.011386370426778446,0.008436139039533025,0.0001647498406668314,0.0024587465276813343
-0.021188156547723998,-0.011387139724152057,0.008442293418521894,0.00016837996264854619,0.002459611987226644
-0.02118813250718107,-0.011388101345869064,0.008443255040238903,0.00017167351702930734,0.002460477446771953
-0.02118762765577964,-0.011385168399632184,0.008446572635162589,0.00017338039557700106,0.0024584820817091565
-0.021187675736865492,-0.011385673251033613,0.008452678933065606,0.00016636055704282406,0.002459443703426167
-0.021189358574870257,-0.011387788818811036,0.008453953081840644,0.00016720197604520832,0.0024590590547393628
-0.021189478777584883,-0.011388654278356345,0.008452991460123634,0.0001709523007415494,0.002459443703426167
-0.021187675736865492,-0.011389111048671926,0.008451428824833492,0.00017172159811515788,0.002459035014196437
-0.021187026642206508,-0.01139173146785078,0.00845032295985893,0.00016698561115888094,0.0024595879466837185
-0.021187795939580117,-0.011393414305855548,0.00844986618954335,0.00016662500301500196,0.0024615111901177397
-0.021187339169264536,-0.011394784616802288,0.008445106162044148,0.00016825975993391989,0.0024623766496630487
-0.021185824615060245,-0.01139259692739609,0.008434648525871658,0.00016842804373439673,0.0024616073522894404
-0.021183709047282825,-0.011393438346398471,0.008442389580693592,0.00016645671921452511,0.002462809379435704
-0.02118257914176534,-0.0113957462385193,0.008442341499607743,0.00016703369224473148,0.002460164919713925
-0.021182170452535603,-0.011394303805943784,0.008444288783584688,0.0001667932868154788,0.0024607899738299816
-0.02118238681742193,-0.01139286137336827,0.0084360188368184,0.00016650480030037566,0.0024585061222520818
-0.02118233873633608,-0.011392741170653642,0.008444288783584688,0.0001675145031032367,0.0024597321899412702
-0.021182891668823364,-0.011389062967586077,0.008442942513180875,0.00016542297586873882,0.0024579291492218755
-0.021183180155338467,-0.011389712062245058,0.008443495445668156,0.0001611197186851166,0.002459443703426167
-0.02118313207425261,-0.011394039359971605,0.008441500080605359,0.00016215346203090293,0.002460814014372907
-0.021183709047282825,-0.011395361589832495,0.008438975823598205,0.00016491812446730824,0.0024585782438808572
-0.02118404561488377,-0.011394808657345214,0.008436691972020306,0.0001704234087971936,0.002458626324966708
-0.021182410857964858,-0.011393342184226772,0.008422700376037802,0.00017100038182739995,0.002458962892567661
-0.02118173772276295,-0.011390457319075741,0.008412170618236535,0.0001686924897065746,0.00246059764948658
-0.021181906006563427,-0.01139447208974426,0.008425176551959105,0.00016366801623519454,0.0024577608654213984
-0.02117817972241001,-0.011393847035628204,0.008435225498901864,0.0001622977052884545,0.002458097433022352
-0.021174188992284414,-0.011395265427660794,0.0084407788643176,0.0001678751112471157,0.002458121473565277
-0.021175727587031637,-0.011396828062950936,0.00844118755354733,0.000167995313961742,0.002460862095458757
-0.02117923750629872,-0.011397188671094814,0.008440129769658617,0.00016597590835601986,0.0024636988795239388
-0.021180944384846412,-0.01139524138711787,0.008440418256173721,0.00016398054329322298,0.0024624728118347503
-0.02118108862810397,-0.011393943197799905,0.008441884729292163,0.00016643267867159982,0.0024629536226932554
-0.021180247209101586,-0.011396275130463656,0.008442028972549713,0.00016703369224473148,0.0024635786768093127
-0.021179862560414774,-0.011394520170830109,0.008438182485681671,0.00016987047630991254,0.002462088163147946
-0.02118104054701812,-0.011395962603405628,0.008436090958447173,0.00016953390870895886,0.002462208365862572
-0.02118301187153799,-0.011394255724857931,0.00844236554015067,0.00016946178708018302,0.002462280487491348
-0.021184478344656428,-0.01139502502223154,0.008437893999166569,0.00016929350327970618,0.0024599725953705232
-0.021182699344479958,-0.011398727265842032,0.008436283282790577,0.00016828380047684516,0.0024622564469484226
-0.02117945387118505,-0.011397068468380187,0.008441788567120459,0.00016866844916364938,0.002462064122605021
-0.021178420127839263,-0.011396828062950936,0.008442581905036994,0.0001687165302494999,0.002463290190294209
-0.021178828817068996,-0.011398054130640123,0.008442173215807265,0.0001695098681660336,0.0024646364606980237
-0.02118031933073036,-0.011394592292458884,0.008437100661250035,0.00017463050380911476,0.002462568974006451
-0.021182122371449758,-0.01139456825191596,0.008440009566943992,0.00017398140915013258,0.002461222703602636
-0.02118305995262384,-0.011399712928101968,0.008450178716601378,0.00016746642201738622,0.002461030379259234
-0.021182290655250232,-0.0114003139416751,0.008446260108104559,0.0001599898131676292,0.002462809379435704
-0.021182290655250232,-0.011400482225475577,0.008441379877890731,0.00016364397569226932,0.00246018896025685
-0.021182362776879002,-0.011396900184579712,0.008432244471579132,0.00017027916553964204,0.0024610544198021595
-0.02118265126339411,-0.011398751306384958,0.0084387834992548,0.0001666730841008525,0.002460333203514402
-0.021182843587737508,-0.011400890914705305,0.008439576837171336,0.00016301892157621244,0.002459611987226644
-0.02118274742556581,-0.011400890914705305,0.008441067350832703,0.00016371609732104508,0.0024592273385398394
-0.02118293974990921,-0.011399761009187818,0.008440971188661002,0.00016660096247207669,0.0024616073522894404
-0.021181906006563427,-0.011397597360324543,0.008443134837524275,0.00016542297586873882,0.00246201604151917
-0.021179357709013347,-0.011398655144213257,0.008442028972549713,0.0001647738812097567,0.0024602610818856264
-0.02117849224946804,-0.011397453117066992,0.008442918472637949,0.0001681876383051441,0.002464660501240949
-0.021179093263041168,-0.011397693522496245,0.008444360905213466,0.00016852420590609778,0.0024641556498395186
-0.021178660533268515,-0.011401972739136942,0.008441451999519508,0.00016850016536317254,0.0024651413120994545
-0.02117745850612225,-0.01140182849587939,0.008440562499431273,0.00017306786851897264,0.002466944352818849
-0.02117647284386232,-0.01139959272538734,0.008436090958447173,0.00017347655774870209,0.002466872231190073
-0.021176953654720818,-0.011398607063127406,0.008440514418345422,0.0001739333280642821,0.002469588812540628
-0.021178780735983144,-0.011404545077229943,0.008446740918963065,0.00017148119268590518,0.0024729064074643144
-0.0211794057900992,-0.011404569117772871,0.008435057215101387,0.00016864440862072408,0.002474877731984186
-0.02118067993887424,-0.011403775779856335,0.00843580247193207,0.00017047148988304415,0.002472690042577987
-0.021180703979417164,-0.011402453549995448,0.008441067350832703,0.0001678751112471157,0.0024681463799651124
-0.021179694276614303,-0.011401395766106735,0.008440971188661002,0.00017059169259767043,0.002466415460874493
-0.021178660533268515,-0.01140319880682613,0.008437653593737316,0.00017186584137270945,0.0024673049609627283
-0.021179189425212876,-0.011405578820575732,0.00844493787824367,0.00016931754382263148,0.002466727987932521
-0.02117976639824308,-0.01140598750980546,0.008445827378331905,0.00016883673296412622,0.002464588379612173
-0.021181425195704918,-0.011405578820575732,0.008439264310113308,0.00016975027359528624,0.002464924947213127
-0.021181641560591248,-0.011403246887911979,0.008435826512474995,0.00017484686869544212,0.002467833852907084
-0.02118055973615961,-0.011402717995967626,0.00843890370196943,0.00017027916553964204,0.002468506988108991
-0.02117957407389968,-0.01140680488826492,0.008442750188837472,0.0001632593270054651,0.002467785771821233
-0.021178059519695383,-0.011407189536951724,0.008441620283319984,0.00016489408392438297,0.0024662712176169413
-0.021177194060150083,-0.011402573752710074,0.008431931944521104,0.00017027916553964204,0.002466415460874493
-0.02117822780349586,-0.011404136388000216,0.008440298053459095,0.0001730919090618979,0.002468603150280692
-0.02117810760078124,-0.011404857604287971,0.008452390446550502,0.00017761153113184742,0.002469588812540628
-0.02117632860060476,-0.011405098009717226,0.008454722379214253,0.0001751834362963958,0.002467593447477831
-0.0211770257763496,-0.011406083671977162,0.008448688202940011,0.00015751363724632707,0.002468002136707561
-0.021178348006210487,-0.011406973172065396,0.008443182918610126,0.0001326557158616045,0.002469011839510422
-0.02117854033055389,-0.011407766509981931,0.008443615648382781,0.0001081584026207609,0.0024680982988792622
-0.021178444168382188,-0.011406155793605936,0.008433326296010771,8.618534638706999e-05,0.002467713650192457
-0.02117837204675341,-0.011404112347457291,0.008421378146176913,7.830004830758354e-05,0.0024697090152552537
-0.02117709789797837,-0.011404761442116274,0.008431018403889944,8.67142383314258e-05,0.0024731948939794176
-0.021174862127486326,-0.011404496996144094,0.008440201891287394,0.00010214826688944499,0.0024712716505453963
-0.021174573640971226,-0.011405506698946957,0.008445995662132381,0.00011974594431073796,0.0024692282043967486
-0.02117373222196884,-0.01140711741532295,0.008447918905566405,0.00014808974441962372,0.002471752461403902
-0.021170967559532426,-0.011406035590891312,0.008450996095060836,0.00017148119268590518,0.002470742758601041
-0.021169957856729562,-0.011404400833972391,0.008445779297246055,0.00017910204479321378,0.00247110336674492
-0.02117060695138855,-0.011403727698770488,0.008446115864847009,0.0001837418695777896,0.0024701177044849838
-0.02117296292459523,-0.01140492972591675,0.008453087622295335,0.00018455924803724858,0.0024711995289166204
-0.02117337161382496,-0.011404448915058244,0.008448255473167358,0.00017648162561436005,0.0024714639748887987
-0.021173804343597613,-0.011405218212431852,0.008441500080605359,0.0001717696792010084,0.002474973894155887
-0.021176232438433064,-0.01140168425262184,0.008429239403713474,0.00017499111195299372,0.002476969259218684
-0.021177410425036403,-0.011402982441939805,0.00843909602631283,0.0001785491123059327,0.0024769452186757584
-0.021178420127839263,-0.011407502064009752,0.008442413621236518,0.00017984730162389693,0.002472401556062884
-0.021179141344127017,-0.011408487726269687,0.008434985093472612,0.00018148205854281492,0.0024684108259372907
-0.02117863649272559,-0.01140625195577764,0.008442822310466247,0.00017833274741960533,0.0024667760690183717
-0.021178949019783615,-0.01140908873984282,0.00844712556764987,0.00017763557167477267,0.002468026177250486
-0.02118012700638696,-0.011410819658933438,0.008447702540680077,0.00017845295013423166,0.0024684348664802155
-0.02118055973615961,-0.01141146875359242,0.008449697905742872,0.00017371696317795469,0.00246653566358912
-0.02118082418213179,-0.011410579253504187,0.00845402520346942,0.00017616909855633163,0.002467713650192457
-0.021181208830818598,-0.011410891780562215,0.008451068216689613,0.000176842233758239,0.002465574041872109
-0.021181978128192204,-0.011410699456218813,0.008446837081134766,0.00017463050380911476,0.002463097865950807
-0.021181449236247846,-0.011411492794135348,0.008442822310466247,0.00017607293638463058,0.0024655980824150343
-0.02118106458756104,-0.011412935226710864,0.008444144540327138,0.00017624122018510742,0.002465574041872109
-0.021180511655073758,-0.011411108145448542,0.008448471838053685,0.00017749132841722112,0.002466463541960344
-0.02118000680367233,-0.011410266726446155,0.00845051528420233,0.00017823658524790428,0.00246749728530613
-0.02117957407389968,-0.01141009844264568,0.008448111229909806,0.00017775577438939902,0.00246795405562171
-0.021177963357523682,-0.011407934793782408,0.008448495878596609,0.00017814042307620322,0.0024712716505453963
-0.021178420127839263,-0.011408054996497032,0.008451765392434446,0.00017746728787429585,0.002473146812893567
-0.02117964619552845,-0.011413151591597191,0.00845128458157594,0.00017326019286237473,0.0024730506507218662
-0.021181304992990296,-0.011410867740019287,0.008450154676058455,0.0001730919090618979,0.002471992866833155
-0.021182002168735132,-0.011408944496585268,0.00846128544743285,0.00017818850416205376,0.002470382150457161
-0.021180848222674714,-0.011411348550877795,0.008455587838759562,0.00018006366651022432,0.0024700215423132826
-0.02117923750629872,-0.011410314807532008,0.00844301463480965,0.00018169842342914225,0.002469300326025525
-0.02117704981689252,-0.01140625195577764,0.008443110796981351,0.000180400234111178,0.0024694445692830767
-0.0211748380869434,-0.01141283906453916,0.008442341499607743,0.00018032811248240224,0.0024700936639420585
-0.021170534829759773,-0.011413295834854741,0.00844666879733429,0.0001842467209792202,0.0024695166909118518
-0.02116707299157853,-0.01141283906453916,0.008450082554429677,0.0001863382482137181,0.002469853258512806
-0.021166712383434656,-0.01141269482128161,0.008450467203116482,0.00018124165311356224,0.0024701657855708344
-0.02116690470777806,-0.011413584321369843,0.008445058080958297,0.0001813378152852633,0.0024693724476543013
-0.0211659911671469,-0.011416108578376995,0.008442173215807265,0.00018100124768430958,0.0024699013395986565
-0.021165101667058664,-0.01141589221349067,0.008449481540856545,0.00017679415267238851,0.0024711995289166204
-0.02116695278886391,-0.011415988375662371,0.008452318324921727,0.00017869335556348431,0.002471968826290229
-0.021170943518989502,-0.011414858470144885,0.008451236500490091,0.00018273216677492857,0.002472593880406286
-0.02117529485725898,-0.011416324943263324,0.008437365107222213,0.0001872037077590276,0.002470742758601041
-0.02117832396566756,-0.011416156659462849,0.008434696606957509,0.00018516026161038016,0.00246795405562171
-0.02117964619552845,-0.011417358686609109,0.008450659527459884,0.00017792405818987586,0.002468482947566066
-0.02117854033055389,-0.011416276862177471,0.008450875892346209,0.00017802022036157692,0.002470334069371311
-0.02117584778974626,-0.011413464118655216,0.008445899499960682,0.00017660182832898635,0.002471415893802948
-0.021175102532915574,-0.01141142067250657,0.008439264310113308,0.0001779000176469506,0.0024722813533482576
-0.02117435727608489,-0.01141310351051134,0.008433374377096618,0.0001797511394521959,0.0024729064074643144
-0.02117539101943068,-0.011413127551054263,0.008442461702322369,0.00017907800425028848,0.0024700696233991327
-0.02117738638449348,-0.011411084104905616,0.008454962784643506,0.00017898184207858746,0.002470959123487368
-0.021177771033180283,-0.011413968970056648,0.008455924406360515,0.00018169842342914225,0.0024730025696360148
-0.021175607384317008,-0.011416901916293529,0.008447750621765927,0.00018025599085362643,0.002474637326554933
-0.02117411687065564,-0.011414353618743451,0.008443158878067202,0.0001793424502224664,0.002472786204749688
-0.0211728427218806,-0.011412983307796713,0.00844854395968246,0.00018393419392119176,0.00247475752926956
-0.021172217667764545,-0.011417551010952513,0.008450755689631584,0.0001784769906771569,0.0024742767184110547
-0.02117195322179237,-0.011416974037922306,0.008445971621589457,0.00017568828769782638,0.0024720649884619303
-0.021171352208219238,-0.011417719294752991,0.008448159310995657,0.00017931840967954117,0.002473242975065268
-0.02117118392441876,-0.011419474254386532,0.008454626217042552,0.00017775577438939902,0.002473675704837923
-0.021172434032650872,-0.011419618497644085,0.008450827811260359,0.0001740775713218337,0.002473218934522343
-0.02117228978939332,-0.011421253254563005,0.008436595809848605,0.00017484686869544212,0.002474877731984186
-0.021172193627221617,-0.011423344781797502,0.008436860255820782,0.00017638546344265902,0.0024731227723506412
-0.02117296292459523,-0.011420700322075723,0.008446115864847009,0.00017364484154917893,0.002475310461756841
-0.021173443735453733,-0.011420243551760145,0.008451068216689613,0.00017578444986952736,0.002476608651074805
-0.02117409283011272,-0.011418945362442178,0.008442750188837472,0.00018076084225505696,0.0024751902590422143
-0.021175198695087282,-0.011414065132228349,0.008427123835936051,0.00018376591012071492,0.0024743969211256807
-0.0211748380869434,-0.011415916254033594,0.008436499647676905,0.00017806830144742743,0.002472810245292613
-0.02117411687065564,-0.011421397497820555,0.008447390013622047,0.00017059169259767043,0.002471992866833155
-0.02117452555988537,-0.011420219511217215,0.008446764959505991,0.00017328423340529995,0.002473627623752072
-0.02117366010034006,-0.011418632835384149,0.00844539464855925,0.00017607293638463058,0.002473218934522343
-0.021172482113736724,-0.011417863538010541,0.008451837514063221,0.00017489494978129266,0.002472593880406286
-0.021172193627221617,-0.011418945362442178,0.0084476304190513,0.0001732121117765242,0.0024723294344341077
-0.021170534829759773,-0.01141781545692469,0.00844154816169121,0.00017342847666285157,0.002473627623752072
-0.021168707748497453,-0.011415820091861891,0.008443591607839855,0.0001756402066119758,0.002473916110267175
-0.021168154816010167,-0.011414185334942976,0.008446644756791364,0.00017402949023598315,0.002473651664294997
-0.021166496018548333,-0.011416901916293529,0.008446837081134766,0.0001721543278878126,0.002474973894155887
-0.021166712383434656,-0.011422022551936613,0.008443206959153052,0.0001701108817391652,0.002476536529446029
-0.02116832309981065,-0.01142259952496682,0.008437581472108541,0.0001709523007415494,0.002478243407993723
-0.021169356843156437,-0.011423921754827707,0.008438182485681671,0.0001721543278878126,0.0024777625971352177
-0.0211681788565531,-0.011422575484423892,0.008437100661250035,0.00017001471956746414,0.002479637759483388
-0.021165702680631795,-0.011421637903249808,0.008437701674823167,0.00017172159811515788,0.0024817773678037364
-0.021164909342715258,-0.011419594457101159,0.008443615648382781,0.00017342847666285157,0.0024818014083466612
-0.021165510356288397,-0.011419931024702113,0.00845645329830487,0.00017251493603169155,0.0024818014083466612
-0.021164909342715258,-0.01142041183556062,0.00845645329830487,0.00017167351702930734,0.002478339570165424
-0.02116394772099825,-0.011424811254915944,0.008447462135250824,0.00017066381422644626,0.002477281786276712
-0.02116558247791717,-0.011427022984865066,0.008447438094707898,0.00017131290888542836,0.0024786761377663773
-0.02116757784297997,-0.011424787214373016,0.008447149608192796,0.0001709523007415494,0.0024790367459102567
-0.02116736147809364,-0.011423537106140904,0.008446332229733336,0.00016801935450466726,0.002478435732337125
-0.021167457640265338,-0.011423945795370634,0.008446909202763545,0.00016756258418908727,0.0024785318945088263
-0.021168395221439425,-0.011423633268312606,0.008446187986475784,0.0001721543278878126,0.0024784116917941994
-0.0211680826943814,-0.011424354484600364,0.008447774662308852,0.00017174563865808313,0.002479156948624883
-0.021167217234836087,-0.01142507570088812,0.0084430627158955,0.00017054361151181994,0.002477137543019161
-0.02116704895103561,-0.011424162160256959,0.008441908769835088,0.00016984643576698727,0.002476680772703581
-0.021168491383611127,-0.011423753471027231,0.008443375242953528,0.0001717696792010084,0.002475959556415823
-0.021168226937638947,-0.011422912052024848,0.008447462135250824,0.0001740535307789084,0.002476392286188477
-0.02116760188352289,-0.0114208686058762,0.0084452504053017,0.00017660182832898635,0.002477281786276712
-0.021168202897096026,-0.011423104376368249,0.008447942946109328,0.00017650566615728532,0.0024778587593069184
-0.021167842288952143,-0.011424931457630568,0.008444769594443194,0.00017785193656110008,0.0024780510836503213
-0.02116688066723513,-0.0114231524574541,0.008436643890934455,0.00017888567990688635,0.002477594313334741
-0.0211684673430682,-0.01142000314633089,0.008429840417286606,0.00017744324733137058,0.00247886846210978
-0.021170318464873446,-0.011425965200976357,0.008436139039533025,0.00017395736860720734,0.0024768250159611324
-0.021170390586502226,-0.011427672079524049,0.00843895178305528,0.00017352463883455263,0.0024760316780445984
-0.02116954916749984,-0.011426157525319756,0.008444625351185642,0.0001777798149323243,0.0024802387730565195
-0.02116760188352289,-0.011425652673918329,0.008442413621236518,0.0001790058826215127,0.0024818735299754376
-0.02116760188352289,-0.011425364187403224,0.008438735418168955,0.00018121761257063702,0.0024808878677155016
-0.021169356843156437,-0.01142558055228955,0.008435249539444791,0.0001801357881390001,0.002482162016490541
-0.021170462708131,-0.011425965200976357,0.008438759458711878,0.00017299574689019686,0.002483291922008028
-0.021170967559532426,-0.01142452276840084,0.008451428824833492,0.000168908854592902,0.002482162016490541
-0.021170679073017326,-0.011425484390117849,0.008448664162397087,0.00016636055704282406,0.002479974327084341
-0.021170126140530043,-0.01142973956621562,0.008442726148294546,0.00016710581387350726,0.002482017773232989
-0.021169645329671537,-0.011430316539245828,0.0084384950127397,0.00016975027359528624,0.00248160908400326
-0.021170150181072968,-0.011429523201329294,0.008442028972549713,0.00017475070652374106,0.002479205029710733
-0.02117082331627488,-0.011430052093273649,0.008441379877890731,0.00017559212552612532,0.002477233705190861
-0.021170919478446574,-0.011430989674447736,0.008444865756614895,0.00017417373349353472,0.002477594313334741
-0.021170919478446574,-0.011430388660874605,0.008441572202234134,0.00017145715214297993,0.0024809840298872033
-0.021170991600075358,-0.011428585620155208,0.008441956850920938,0.00017251493603169155,0.002480767665000876
-0.021170991600075358,-0.011429378958071742,0.008445635053988503,0.00017463050380911476,0.002481945651604213
-0.021173684140882987,-0.011430725228475555,0.008449193054341442,0.00017607293638463058,0.0024819216110612877
-0.021176136276261363,-0.011431446444763314,0.008446236067561634,0.00017720284190211796,0.002481633124546185
-0.021177843154809056,-0.011429162593185415,0.008441692404948761,0.00017681819321531376,0.002480046448713117
-0.021178444168382188,-0.011430244417617051,0.008435826512474995,0.00017155331431468101,0.0024789886648244057
-0.021179189425212876,-0.011429306836442969,0.008437437228850991,0.00017167351702930734,0.002481272516402306
-0.021179694276614303,-0.01142644601183486,0.008441860688749237,0.0001764575850714348,0.0024804551379428467
-0.0211795019522709,-0.0114301001743595,0.008436860255820782,0.00017655374724313586,0.002480046448713117
-0.021180752060503013,-0.01142735955246602,0.008436764093649081,0.0001726110982033926,0.0024804551379428467
-0.0211837811689116,-0.011427047025407993,0.008439288350656235,0.0001720822062590368,0.0024797820027409397
-0.021185199560944192,-0.01142995593110195,0.008441331796804879,0.0001704234087971936,0.002479132908081957
-0.02118594481777487,-0.011432167661051072,0.008443110796981351,0.00016975027359528624,0.002480959989344277
-0.021186545831348,-0.011431999377250595,0.008442053013092641,0.00017270726037509366,0.0024822581786622423
-0.021186065020489496,-0.011429979971644874,0.008448928608369264,0.00017751536896014637,0.002481416759659857
-0.02118553612854514,-0.011433465850369038,0.008454241568355747,0.00017578444986952736,0.0024834842463514304
-0.02118714684492113,-0.01143630263443422,0.008447462135250824,0.00017116866562787682,0.0024845179896972164
-0.02118839695315325,-0.011436831526378574,0.008432364674293756,0.00016967815196651046,0.002484734354583544
-0.02118786806120889,-0.011433369688197336,0.008437821877537792,0.00017051957096889467,0.002485744057386405
-0.02118988746681461,-0.011432191701593998,0.008446187986475784,0.00017323615231944946,0.0024886289225374363
-0.021190801007445772,-0.011433057161139308,0.00845251064926513,0.00017487090923836742,0.002487330733219473
-0.02119007979115801,-0.01143461979642945,0.008452799135780231,0.00017097634128447468,0.002483844854495309
-0.021189478777584883,-0.0114345717153436,0.008450491243659406,0.0001738612064355063,0.002485816179015181
-0.02118806038555229,-0.011433489890911962,0.008452438527636353,0.00017376504426380525,0.002485527692500077
-0.02118798826392352,-0.011434451512628972,0.008453472270982141,0.00017554404444027476,0.002485984462815657
-0.021189382615413185,-0.011433706255798287,0.008440346134544946,0.00017770769330354848,0.00248622486824491
-0.02118995958844339,-0.011432552309737876,0.008446139905389933,0.00017895780153566218,0.0024856238546717784
-0.02119106545341795,-0.011430340579788752,0.00844799102719518,0.0001735967604633284,0.002489590544254447
-0.02119087312907455,-0.011432624431366651,0.008440971188661002,0.0001721783684307379,0.002489302057739344
-0.021189839385728763,-0.011433970701770468,0.00844159624277706,0.0001735967604633284,0.0024874749764770237
-0.021190488480387744,-0.011436158391176666,0.00844104331028978,0.00017576040932660214,0.0024855036519571523
-0.021192363642735915,-0.011437528702123409,0.008443735851097407,0.00017441413892278735,0.00248622486824491
-0.021194046480740684,-0.011437600823752182,0.008446548594619664,0.00017035128716841785,0.0024854555708713017
-0.02119469557539966,-0.01143639879660592,0.008445875459417756,0.00016681732735840407,0.0024844458680684405
-0.021192531926536397,-0.01143868264818382,0.008451164378861314,0.00016066294836953658,0.002483099597664626
-0.021191906872420337,-0.011437552742666331,0.00844827951371028,0.0001613841646572945,0.002481993732690064
-0.021194118602369458,-0.011433273526025635,0.008445466770188027,0.00016850016536317254,0.0024817292867178853
-0.0211954889133162,-0.01143401878285632,0.008444192621412987,0.00016926946273678096,0.0024812965569452317
-0.021196426494490286,-0.011434764039687002,0.008437317026136362,0.00016607207052772092,0.0024826428273490462
-0.02119659477829076,-0.011432985039510532,0.008436980458535408,0.00016491812446730824,0.0024827870706065976
-0.0211955850754879,-0.011430484823046304,0.00843210022832158,0.00016821167884806937,0.0024831236382075518
-0.02119370991313973,-0.01143329756656856,0.008438663296540177,0.00016741834093153568,0.0024856238546717784
-0.021191353939933055,-0.011438899013070145,0.008441500080605359,0.00017035128716841785,0.002487426895391173
-0.021189478777584883,-0.011439259621214023,0.008448303554253208,0.00017470262543789055,0.002487931746792604
-0.021188829682925903,-0.011440221242931035,0.008445106162044148,0.0001740775713218337,0.002486465273674163
-0.021187026642206508,-0.011439283661756951,0.008442798269923323,0.00017732304461674428,0.0024861767871590603
-0.021185752493431468,-0.011437937391353136,0.00844503404041537,0.00017588061204122844,0.002487426895391173
-0.02118450238519936,-0.011438634567097969,0.008443832013269108,0.00017419777403646002,0.002489326098282269
-0.02118272338502289,-0.01144050972944614,0.008442269377978966,0.0001742458551223105,0.002491345503887991
-0.021182627222851184,-0.011440221242931035,0.00844767850013715,0.00017465454435204003,0.0024885327603657355
-0.02118404561488377,-0.011436014147919116,0.008451957716777848,0.00016542297586873882,0.002488027908964305
-0.02118315611479554,-0.011435725661404012,0.008436499647676905,0.00016280255668988508,0.0024875951791916502
-0.02118096842538934,-0.011435966066833263,0.008434480242071182,0.00016393246220737243,0.002486970125075593
-0.02118017508747281,-0.011436807485835648,0.008443543526754006,0.00015996577262470394,0.002489854990226625
-0.02118005488475818,-0.011435845864118638,0.008448423756967834,0.00015970132665252604,0.002492691774291806
-0.021177843154809056,-0.011434547674800672,0.008450443162573556,0.0001632593270054651,0.002490552165971457
-0.021177194060150083,-0.011435653539775235,0.008444913837700746,0.00016676924627255355,0.0024889414495954647
-0.021179069222498244,-0.011438153756239465,0.008439144107398683,0.00016910117893630412,0.00248987903076955
-0.02117870861435437,-0.011438874972527222,0.00843570630976037,0.0001690290573075283,0.0024907685308577852
-0.02117697769526375,-0.011437216175065379,0.008441019269746853,0.00016162457008654714,0.0024921148012616
-0.021174814046400474,-0.011435605458689385,0.008440298053459095,0.00016080719162708817,0.002491345503887991
-0.02117373222196884,-0.011436422837148843,0.008432220431036206,0.00016566338129799142,0.0024883163954794087
-0.02117438131662782,-0.011436663242578094,0.008440802904860526,0.00016518257043948614,0.0024861767871590603
-0.02117435727608489,-0.0114369517290932,0.00844827951371028,0.00016763470581786306,0.0024885087198228107
-0.021172794640794752,-0.011438634567097969,0.008446404351362112,0.00017155331431468101,0.002487571138648725
-0.021172482113736724,-0.011440581851074915,0.00844214917526434,0.00016922138165093042,0.002485888300643957
-0.02117200130287822,-0.011439860634787156,0.008442341499607743,0.0001704234087971936,0.00248572001684348
-0.021171207964961684,-0.01143964426990083,0.008442341499607743,0.000171096543999101,0.002484974760012797
-0.021170630991931474,-0.01144115882410512,0.008444048378155437,0.00016931754382263148,0.0024874749764770237
-0.021170871397360725,-0.011442625297223565,0.008443663729468632,0.00016722601658813356,0.002488749125252063
-0.021173395654367884,-0.01144284166210989,0.008444433026842241,0.00016525469206826192,0.0024899030713124754
-0.02117647284386232,-0.01144183195930703,0.008445178283672923,0.00016587974618431883,0.00249348511220834
-0.021177843154809056,-0.011443586918940572,0.008439552796628412,0.00016763470581786306,0.002496610382788624
-0.021178612452182662,-0.011439956796958858,0.00842798929548136,0.0001688607735070515,0.0024969229098466524
-0.02118029529018744,-0.011436470918234696,0.008430465471402663,0.00017244281440291577,0.002495913207043791
-0.02117955003335675,-0.01144188004039288,0.008436331363876427,0.00017316403069067367,0.0024937255176375925
-0.021178612452182662,-0.011441254986276822,0.00843671601256323,0.00017496707141006844,0.002492259044519151
-0.02117839608729634,-0.011443923486541526,0.0084360188368184,0.0001724908954887663,0.002490864693029486
-0.02117923750629872,-0.011443947527084452,0.008440418256173721,0.0001684761248202473,0.002487378814305323
-0.02118019912801573,-0.011443009945910366,0.008441860688749237,0.0001647498406668314,0.002483267881465103
-0.021181136709189814,-0.011444332175771257,0.008442822310466247,0.00016438923252295245,0.002483604449066057
-0.021178564371096813,-0.011442144486365055,0.008445514851273877,0.00016443731360880301,0.002483652530151907
-0.021174958289658024,-0.011441134783562195,0.008440442296716647,0.00017239473331706522,0.002484421827525515
-0.0211746457626,-0.011441807918764105,0.008439552796628412,0.00017400544969305788,0.002485094962727423
-0.021174405357170745,-0.011442625297223565,0.008440899067032227,0.00016912521947922936,0.0024852151654420488
-0.02117685749254912,-0.011441279026819748,0.008440346134544946,0.00017282746308972,0.002484493949154291
-0.02117923750629872,-0.011442985905367442,0.008439432593913785,0.0001732121117765242,0.002484085259924562
-0.02117813164132416,-0.0114438032838269,0.00844154816169121,0.00017220240897366314,0.002485984462815657
-0.021177218100693004,-0.011445029351516091,0.008445226364758774,0.0001714331116000547,0.002488701044166212
-0.02117709789797837,-0.011444380256857107,0.008448111229909806,0.00015912435362231973,0.00248937417936812
-0.021176376681690614,-0.011442865702652814,0.00844722172982157,0.0001292419587662171,0.0024881721522218565
-0.021176929614177897,-0.011442240648536758,0.008442581905036994,0.00010296564534890396,0.0024867056791034155
-0.02117957407389968,-0.011441182864648049,0.008445178283672923,8.582473824319104e-05,0.00248937417936812
-0.021181449236247846,-0.011444957229887313,0.008446500513533814,7.676145356036668e-05,0.002488845287423764
-0.0211817858038488,-0.011445630365089221,0.008449385378684844,8.952698185368162e-05,0.0024892539766534928
-0.021180728019960092,-0.01144603905431895,0.008450827811260359,0.00010825456479246197,0.002489999233484177
-0.02117955003335675,-0.011446183297576502,0.008437244904507587,0.00012657345850151282,0.002491850355289422
-0.021179429830642124,-0.0114462794597482,0.008445586972902652,0.00015371523146413544,0.002491537828231393
-0.021179525992813825,-0.01144526975694534,0.008449794067914573,0.0001719620035444105,0.0024921628823474503
-0.021178780735983144,-0.0114460871354048,0.008444072418698361,0.00017383716589258104,0.0024933889500366392
-0.02117849224946804,-0.011446231378662351,0.008443351202410604,0.00017097634128447468,0.0024932687473220123
-0.02117832396566756,-0.011446159257033576,0.008447942946109328,0.00016994259793868833,0.0024942544095819482
-0.021179429830642124,-0.011446015013776024,0.008445178283672923,0.0001712888683425031,0.002492379247233777
-0.021179814479328932,-0.011446760270606707,0.008444793634986118,0.00017588061204122844,0.0024939899636097704
-0.021178804776526068,-0.01144481298662976,0.008445106162044148,0.00017338039557700106,0.0024950237069555565
-0.021176929614177897,-0.011447529567980315,0.008445490810730951,0.00017088017911277362,0.002493821679809293
-0.021175607384317008,-0.01144668814897793,0.008444865756614895,0.00017306786851897264,0.0024931966256932364
-0.02117435727608489,-0.0114437071216552,0.00842798929548136,0.00017419777403646002,0.0024936293554658913
-0.02117296292459523,-0.011440750134875392,0.008416185388905055,0.00017412565240768418,0.0024924754094054788
-0.02117214554613577,-0.011448731595126578,0.008437268945050511,0.00017131290888542836,0.002493845720352218
-0.021172313829936246,-0.011449212405985084,0.008450467203116482,0.00017097634128447468,0.0024961055313871936
-0.021173587978711286,-0.011449645135757741,0.008444192621412987,0.00017131290888542836,0.002499831815540609
-0.021174188992284414,-0.011450799081818152,0.008445490810730951,0.00017527959846809686,0.002499567369568432
-0.021174573640971226,-0.011449669176300664,0.008452751054694379,0.00017225049005951365,0.002497235436904681
-0.0211748380869434,-0.011447938257210044,0.00845352035206799,0.00016789915179004096,0.002498293220793392
-0.02117676133037742,-0.011450366352045495,0.008449193054341442,0.00017162543594345683,0.0024960814908442683
-0.02117854033055389,-0.011450895243989852,0.008439504715542561,0.00017436605783693684,0.00249403804469562
-0.021180247209101586,-0.011448515230240252,0.008442798269923323,0.00017643354452850953,0.002493100463521536
-0.02118017508747281,-0.011446760270606707,0.008449024770540966,0.00017523151738224634,0.00249261965266303
-0.021177843154809056,-0.0114484671491544,0.008449625784114097,0.0001757123282407516,0.002494230369039023
-0.021176376681690614,-0.011452337676565368,0.008441692404948761,0.00017513535521054529,0.002496874828760802
-0.02117690557363497,-0.01145111160887618,0.008441500080605359,0.0001678751112471157,0.0024997356533689088
-0.0211776027493798,-0.011452001108964415,0.008446740918963065,0.00016374013786397035,0.00249855766676557
-0.021178251844038785,-0.01145279444688095,0.008447317891993272,0.00017174563865808313,0.002498221099164617
-0.021179838519871853,-0.01144928452761386,0.008449000729998041,0.00017398140915013258,0.0024963940179022967
-0.021180944384846412,-0.011448611392411951,0.008450202757144303,0.00016758662473201252,0.002495240071841884
-0.021182218533621452,-0.011451039487247405,0.00844808718936688,0.00016268235397525876,0.002497547963962709
-0.02118356480402527,-0.011450534635845971,0.008451428824833492,0.00016712985441643254,0.002498389382965093
-0.02118450238519936,-0.0114528425279668,0.0084476304190513,0.00017244281440291577,0.0025016348562600047
-0.02118488703388616,-0.011448779676212427,0.008428806673940819,0.0001735967604633284,0.002502957086120894
-0.021184189858141328,-0.011443635000026424,0.008425440997931282,0.0001720341251731863,0.002501682937345855
-0.02118293974990921,-0.011449765338472364,0.008436114998990099,0.0001723466522312147,0.0025025724374340896
-0.02118104054701812,-0.0114506548385606,0.008452150041121249,0.00017220240897366314,0.0025021637482043604
-0.021178780735983144,-0.011450919284532778,0.008457246636221405,0.00017414969295060945,0.0025022839509189865
-0.02117654496549109,-0.011449717257386515,0.008451212459947165,0.00017604889584170528,0.002503726383494502
-0.021175679505945785,-0.011450702919646451,0.008447702540680077,0.00017520747683932107,0.002504976491726616
-0.021176496884405243,-0.011454068595655988,0.008452366406007578,0.00017737112570259482,0.002505144775527093
-0.02117793931698076,-0.011452169392764892,0.008444192621412987,0.0001816263018003665,0.0025042071943530077
-0.02118015104692988,-0.01144801037883882,0.008443591607839855,0.00018189074777254441,0.002504279315981784
-0.02118180984439173,-0.01145120777104788,0.008453712676411394,0.00018015982868192537,0.002504014870009605
-0.02118325227696724,-0.01145577547420368,0.00846078059603142,0.00017965497728049485,0.0025038946672949797
-0.02118301187153799,-0.011455919717461231,0.008452919338494859,0.00017898184207858746,0.0025030772888355204
-0.02118527168257296,-0.011456184163433409,0.008450851851803285,0.00017227453060243892,0.002505457302585121
-0.021188805642382975,-0.011454405163256942,0.008444144540327138,0.00017297170634727156,0.00250485628901199
-0.021189478777584883,-0.011454861933572522,0.008435057215101387,0.0001772509229879685,0.00250673145136016
-0.02118928645324148,-0.011458251650124984,0.00843169153909185,0.00017895780153566218,0.0025074767081908434
-0.02118911816944101,-0.011456328406690962,0.008439456634456709,0.0001797511394521959,0.0025048803295549147
-0.021189382615413185,-0.011453010811767276,0.008442221296893116,0.00018177054505791803,0.002504351437610559
-0.02118993554790046,-0.011454405163256942,0.008438062282967045,0.00018366974794901383,0.002504495680868111
-0.021190656764188225,-0.011456184163433409,0.00844803910828103,0.00018573723464058656,0.002503918707837905
-0.02118995958844339,-0.011457674677094777,0.008448568000225386,0.00018169842342914225,0.0025021156671185102
-0.02118964706138536,-0.011458443974468385,0.00844698132439232,0.00017527959846809686,0.0025012502075732004
-0.02119044039930189,-0.011455462947145651,0.008447870824480553,0.0001786212339347085,0.0025005289912854427
-0.02119233960219299,-0.011454284960542314,0.008449986392257976,0.00018085700442675804,0.002501851221146332
-0.021195993764717633,-0.011455486987688578,0.008447774662308852,0.00018032811248240224,0.0025016348562600047
-0.0211976766027224,-0.011456376487776813,0.008451020135603763,0.0001725630171175421,0.002499351004682105
-0.02119709962969219,-0.011459165190756144,0.008449337297598994,0.00017100038182739995,0.002498148977535841
-0.02119443112942749,-0.011456809217549468,0.008443110796981351,0.00017578444986952736,0.0024988461532806736
-0.021191954953506183,-0.011456496690491437,0.008450707608545735,0.00016739430038861046,0.002500192423684489
-0.021191786669705708,-0.011458179528496207,0.008451068216689613,0.00016205729985920188,0.002500865558886396
-0.02119106545341795,-0.011461088434190164,0.008452029838406623,0.0001656874218409167,0.0025034138564364733
-0.021191041412875027,-0.011461352880162342,0.0084476304190513,0.00016979835468113676,0.002501562734631229
-0.02118962302084244,-0.011456568812120215,0.008440586539974197,0.00017080805748399786,0.002503173451007221
-0.021187531493607942,-0.01145349162262578,0.008429095160455922,0.00016761066527493782,0.0025034619375223248
-0.021186377547547524,-0.011447553608523241,0.008435826512474995,0.00016583166509846832,0.0025025724374340896
-0.021185992898860726,-0.011455294663345177,0.008437365107222213,0.00016775490853248936,0.002503798505123278
-0.02118849311532495,-0.011456472649948514,0.008443543526754006,0.00016866844916364938,0.0025060823567011783
-0.021192003034592042,-0.01145608800126171,0.008449577703028247,0.0001666730841008525,0.002506322762130431
-0.02119409456182653,-0.011454813852486673,0.008450683568002808,0.00016686540844425458,0.002505625586385598
-0.02119469557539966,-0.011457770839266478,0.008447438094707898,0.00016991855739576306,0.002504423559239335
-0.02119476769702844,-0.011458804582612264,0.008437869958623643,0.00016657692192915144,0.002502957086120894
-0.021193806075311437,-0.011457818920352329,0.008446620716248441,0.00016585570564139353,0.0025037504240374275
-0.021192580007622242,-0.011458131447410357,0.008441812607663388,0.0001651344893536356,0.0025022839509189865
-0.021192459804907617,-0.01145928539347077,0.00844493787824367,0.0001646777190380556,0.0025046639646685875
-0.021193782034768502,-0.011459814285415126,0.008442053013092641,0.00016676924627255355,0.0025048082079261393
-0.021195705278202533,-0.011455799514746607,0.008441884729292163,0.00017150523322883047,0.002502596477977015
-0.021196763062091242,-0.011452890609052649,0.008448351635339059,0.00017265917928924318,0.0025002645453132645
-0.021197051548606342,-0.011453443541539932,0.00844827951371028,0.00016438923252295245,0.0025021637482043604
-0.021197652562179474,-0.011454934055201295,0.008447702540680077,0.00015970132665252604,0.002503654261865727
-0.021196522656661988,-0.01145878054206934,0.008438062282967045,0.0001616486106294724,0.0025044475997822602
-0.02119565719711668,-0.011461833691020848,0.008444817675529044,0.00016864440862072408,0.00250673145136016
-0.0211934935482534,-0.01146137692070527,0.008445370608016325,0.00017075997639814732,0.00250673145136016
-0.02118899796672638,-0.011459069028584444,0.008436884296363708,0.00016566338129799142,0.002504760126840289
-0.021186834317863102,-0.011460631663874584,0.008437076620707109,0.0001648700433814577,0.0025042552754388587
-0.021186738155691404,-0.011459213271841994,0.008439456634456709,0.0001632593270054651,0.0025051688160700183
-0.021185512088002217,-0.011458347812296684,0.008441403918433656,0.00016575954346969248,0.0025040389105525306
-0.02118399753379793,-0.011457987204152805,0.008437461269393914,0.000166264394871123,0.002502860923949193
-0.02118315611479554,-0.011460150853016078,0.008435201458358941,0.00016256215126063246,0.0025007934372576197
-0.021182531060679483,-0.011461737528849145,0.008439288350656235,0.00016335548917716612,0.0025022118292902106
-0.021181136709189814,-0.011464430069656776,0.00844260594557992,0.00016345165134886718,0.0025044475997822602
-0.02118173772276295,-0.011464117542598748,0.008442485742865293,0.00016655288138622617,0.0025050486133553923
-0.021183035912080917,-0.01146029509627363,0.008444408986299315,0.00016794723287589147,0.0025070199378752628
-0.021182218533621452,-0.011459934488129752,0.008439528756085486,0.00016616823269942195,0.00250764499199132
-0.02118193004710635,-0.01145887670424104,0.008441716445491684,0.00016499024609608403,0.0025077651947059466
-0.021185584209630997,-0.011462843393823708,0.008436066917904248,0.00016722601658813356,0.0025097605597687433
-0.02118981534518584,-0.011465824421146442,0.008437653593737316,0.00017253897657461682,0.0025092076272814623
-0.02119207515622081,-0.011466064826575695,0.00844147604006243,0.0001701108817391652,0.0025065631675596834
-0.02119262808870809,-0.011461352880162342,0.008433278214924919,0.00016825975993391989,0.002506659329731385
-0.021191906872420337,-0.01145974216378635,0.00844570717561728,0.00016965411142358516,0.0025064910459309075
-0.02119207515622081,-0.011466016745489844,0.008435658228674519,0.00016830784101977043,0.0025074045865620675
-0.0211927242508798,-0.011463877137169495,0.008433037809495666,0.00016789915179004096,0.002508630654251256
-0.021191666466991086,-0.011462747231652007,0.008432124268864506,0.00016914926002215464,0.0025082940866503023
-0.02119096929124625,-0.01146111247473309,0.008440850985946376,0.00016542297586873882,0.002507885397420573
-0.02119128181830428,-0.011462410664051056,0.008443351202410604,0.00016244194854600613,0.0025073565054762174
-0.02119318102119537,-0.011462290461336427,0.008446644756791364,0.00016345165134886718,0.002508197924478601
-0.021193397386081704,-0.011465319569745013,0.008446380310819186,0.00016609611107064616,0.002510025005740921
-0.02119147414264768,-0.011465968664403994,0.00844493787824367,0.00016761066527493782,0.002509592275968266
-0.021192964656309047,-0.011465199367030384,0.00843808632350997,0.00016535085423996298,0.002508366208279078
-0.021194310926712864,-0.011462963596538336,0.008426186254761965,0.00016157648900069662,0.002508895100223434
-0.02119498406191477,-0.011460535501702885,0.00842890283611252,0.000159148394165245,0.002509159546195612
-0.02119544083223035,-0.011460150853016078,0.008439336431742085,0.00016044658348320922,0.0025070680189611142
-0.021195633156573752,-0.011461232677447716,0.008441620283319984,0.0001625381107177072,0.0025024522347194635
-0.02119645053503321,-0.011465487853545488,0.008442509783408221,0.00016556721912629042,0.002504062951095456
-0.02119688326480586,-0.011468204434896042,0.008443303121324753,0.0001633795297200914,0.002506418924302132
-0.021195921643088856,-0.011467627461865837,0.008444505148471016,0.00016261023234648297,0.0025043754781534843
-0.021193806075311437,-0.01146481471834358,0.008452919338494859,0.00016386034057859662,0.0025032215320930718
-0.02119375799422558,-0.0114665456374342,0.008443423324039379,0.00017039936825426837,0.0025038946672949797
-0.021195032143000617,-0.01146719473209318,0.008435129336730164,0.00017169755757223259,0.00250764499199132
-0.02119512830517232,-0.011466473515805424,0.008436283282790577,0.00016994259793868833,0.0025083902488220035
-0.021192315561650063,-0.011466353313090795,0.008437773796451942,0.00016614419215649667,0.0025084142893649288
-0.021189863426271688,-0.011460391258445331,0.008431523255291375,0.0001607831510841629,0.0025059140729007012
-0.02119003171007217,-0.011465656137345964,0.008426498781819993,0.00016075911054123766,0.0025043754781534843
-0.02119003171007217,-0.0114687333268404,0.00843767763428024,0.00016234578637430507,0.002501562734631229
-0.0211883488720674,-0.011468444840325295,0.008433374377096618,0.00016313912429083877,0.0025029811266638192
-0.021185343804201742,-0.011467915948380937,0.008436643890934455,0.00016333144863424085,0.002505986194529477
-0.0211842619797701,-0.011466233110376171,0.008443952215983734,0.00016359589460641875,0.002504231234895933
-0.021186978561120656,-0.011464309866942149,0.008443543526754006,0.0001626583134323335,0.002504159113267157
-0.02118993554790046,-0.011464309866942149,0.008439264310113308,0.0001625381107177072,0.0025060102350724024
-0.021192411723821768,-0.011466473515805424,0.008440225931830319,0.00016388438112152192,0.002507620951448395
-0.021193445467167556,-0.011468492921411146,0.00844758233796545,0.00016369205677811983,0.00250586599181485
-0.02119265212925102,-0.01147125758384755,0.008444216661955913,0.00016494216501023348,0.002504519721411036
-0.021192291521107142,-0.011471185462218777,0.008443351202410604,0.0001697021925094357,0.0025059140729007012
-0.021190488480387744,-0.011468084232181416,0.008452150041121249,0.00016741834093153568,0.002510169248998473
-0.021188949885640528,-0.011467435137522434,0.008443423324039379,0.0001666730841008525,0.002508871059680509
-0.021187315128721608,-0.011468685245754548,0.008442509783408221,0.00016455751632342931,0.002510145208455548
-0.021185343804201742,-0.011470488286473944,0.008450250838230153,0.00016280255668988508,0.0025102654111701737
-0.021184093695969627,-0.011470896975703672,0.00844950558139947,0.00016275447560403454,0.002510409654427725
-0.0211835888445682,-0.0114733971921679,0.008445514851273877,0.00016530277315411244,0.0025099288435692204
-0.02118325227696724,-0.011473325070539126,0.00844037017508787,0.00016453347578050402,0.002511924208632017
-0.021184213898684245,-0.011470127678330064,0.008430802039003616,0.00016306700266206296,0.0025117318842886147
-0.02118438218248473,-0.011467435137522434,0.008434696606957509,0.00016378821894982084,0.002512981992520729
-0.021185151479858336,-0.011467627461865837,0.008445322526930475,0.00015960516448082498,0.002510529857142352
-0.02118541592583052,-0.011469454543128156,0.008444625351185642,0.00016097547542756504,0.002507332464933292
-0.021184911074429085,-0.01147116142167585,0.008441908769835088,0.00016722601658813356,0.0025094720732536397
-0.02118505531768664,-0.011470320002673465,0.008438615215454326,0.00016775490853248936,0.0025131983574070557
-0.02118479087171446,-0.011471281624390477,0.008441908769835088,0.00016539893532581355,0.002515217763012778
-0.021183877331083296,-0.011474358813884913,0.008450443162573556,0.00016398054329322298,0.0025149533170406003
-0.021182122371449758,-0.011471041218961224,0.008457559163279433,0.00016489408392438297,0.002515049479212301
-0.021182482979593638,-0.011470945056789522,0.008444096459241287,0.00016785107070419042,0.002511828046460316
-0.02118180984439173,-0.011472603854251369,0.008429527890228578,0.00016688944898717983,0.0025093278299960892
-0.021179622154985527,-0.011471810516334831,0.008432773363523487,0.00016674520572962828,0.0025109625869150064
-0.021178804776526068,-0.01147289234076647,0.008434167715013152,0.00016655288138622617,0.0025127415870914763
-0.021178420127839263,-0.01147284425968062,0.00843387922849805,0.00016607207052772092,0.002511419357230587
-0.021176929614177897,-0.011470151718872987,0.008417002767364512,0.00016934158436555678,0.002510409654427725
-0.021175775668117486,-0.011464526231828476,0.008417411456594243,0.00017400544969305788,0.0025162995874444148
-0.021176064154632586,-0.01147284425968062,0.008440009566943992,0.0001700387601103894,0.0025165159523307425
-0.021176929614177897,-0.011474382854427836,0.008448351635339059,0.00016770682744663885,0.002513655127722636
-0.021176689208748645,-0.01147512811125852,0.008432653160808861,0.00016636055704282406,0.002510626019314053
-0.02117529485725898,-0.011474815584200493,0.008422676335494877,0.00017326019286237473,0.0025125011816622233
-0.021173395654367884,-0.01147447901659954,0.00842962405240028,0.0001761210174704811,0.002513823411523113
-0.021171111802789983,-0.011473373151624977,0.008435033174558463,0.0001684761248202473,0.0025112270328871843
-0.021169597248585692,-0.011471858597420684,0.008442509783408221,0.0001563116101000639,0.002509736519225818
-0.0211680826943814,-0.01147274809750892,0.008438278647853372,0.00016155244845777135,0.0025148331143259733
-0.0211667604645205,-0.011472026881221162,0.008439144107398683,0.00016999067902453884,0.0025133666412075328
-0.02116478914000064,-0.011472315367736264,0.00843808632350997,0.00016184093497287452,0.002511924208632017
-0.021162577410051512,-0.011471401827105102,0.008441019269746853,0.00015046975816922483,0.002514232100752842
-0.021163755396654847,-0.011472820219137696,0.008434167715013152,0.0001502293527399722,0.0025136791682655608
-0.021165269950859142,-0.011473829921940557,0.008434432160985331,0.00015734535344585026,0.0025139916953235896
-0.021166375815833704,-0.011474166489541509,0.008433999431212676,0.00015982152936715237,0.002510890465286231
-0.021165822883346418,-0.01147512811125852,0.008435778431389145,0.00015934071850864706,0.0025102654111701737
-0.021163827518283624,-0.011474767503114642,0.008441788567120459,0.00016032638076858292,0.002512549262748074
-0.021161134977475998,-0.011473733759768857,0.008449721946285798,0.00015861950222088918,0.0025165399928736678
-0.021158706882640543,-0.011472435570450893,0.00843387922849805,0.0001603744618544334,0.002517934344363333
-0.021160173355758986,-0.011473373151624977,0.008429696174029055,0.00016306700266206296,0.002518318993050137
-0.021163563072311445,-0.011476474381662336,0.008439264310113308,0.00016282659723281033,0.0025194729391105498
-0.02116685662669221,-0.0114754887194024,0.008430417390316811,0.0001616486106294724,0.0025185353579364645
-0.021166039248232748,-0.011474695381485866,0.00842027228120235,0.00016261023234648297,0.0025197133445398023
-0.02116450065348553,-0.01147695519252084,0.008429167282084697,0.00016208134040212715,0.002517621817305305
-0.021165390153573767,-0.011478806314326084,0.008440442296716647,0.00016176881334409868,0.0025151456413840018
-0.021166784505063437,-0.011478373584553432,0.008439023904684055,0.00016186497551579977,0.0025160832225580875
-0.02116764996460874,-0.01147791681423785,0.008427748890052105,0.00015893202927891762,0.002515337965727405
-0.02116904431609841,-0.011478589949439759,0.008434720647500433,0.0001574655561604765,0.002514376344010394
-0.021170775235189024,-0.0114800564225582,0.008436451566591053,0.00016220154311675345,0.002517910303820408
-0.02117173685690604,-0.011479215003555816,0.008441524121148283,0.00016484600283853248,0.002516371709073191
-0.0211723619110221,-0.011476498422205259,0.008434888931300911,0.00016429307035125142,0.0025164438307019666
-0.021171760897448967,-0.011474935786915118,0.008431042444432869,0.00016426902980832612,0.0025186074795652408
-0.02117281868133768,-0.011473589516511305,0.008415175686102195,0.0001632593270054651,0.0025258196424428198
-0.021173491816539585,-0.011470368083759315,0.00841301203723892,0.00016236982691723034,0.002526132169500848
-0.02117452555988537,-0.011472074962307012,0.008428037376567209,0.00015744151561755126,0.0025239925611805
-0.02117438131662782,-0.011477267719578868,0.008423661997754812,0.00015686454258734498,0.002522598209690834
-0.021174333235541968,-0.011475296395058995,0.008432965687866889,0.00016369205677811983,0.002520915371686065
-0.02117479000585755,-0.011476690746548664,0.0084499142706292,0.00016039850239735868,0.0025167082766741444
-0.021173011005681083,-0.011477099435778392,0.008455515717130787,0.00015436432612311754,0.0025166601955882942
-0.021172409992107948,-0.0114776764088086,0.008434816809672134,0.00015965324556667553,0.002518006465992109
-0.021173131208395705,-0.011477484084465195,0.008428277781996464,0.00016001385371055448,0.0025196412229110264
-0.021173083127309856,-0.011478589949439759,0.008427508484622854,0.00016251407017478192,0.0025186315201081656
-0.021171352208219238,-0.011479166922469964,0.008432989728409815,0.00017131290888542836,0.002516251506358565
-0.021169260680984733,-0.01147813317912418,0.008432532958094234,0.0001749189903242179,0.002514424425096245
-0.021168803910669155,-0.011477099435778392,0.008431811741806476,0.00017323615231944946,0.002516395749616116
-0.0211658950049752,-0.011481667138934191,0.00842986445782953,0.00016662500301500196,0.0025179824254491835
-0.02116166386942035,-0.0114822441119644,0.00843616308007595,0.00015345078549195757,0.0025167803983029203
-0.02116082245041797,-0.011478037016952478,0.00843808632350997,0.0001261888098147086,0.002517862222734557
-0.0211617119505062,-0.011476979233063766,0.008436595809848605,0.00010157129385923868,0.002517309290247276
-0.0211638996399124,-0.0114779648953237,0.008444961918786595,8.474291381155416e-05,0.002516564033416593
-0.021164067923712875,-0.011477940854780776,0.008441500080605359,6.861170950870229e-05,0.002518318993050137
-0.02116310630199587,-0.01147856590889683,0.008432244471579132,7.257839909137079e-05,0.002518655560651091
-0.02116315438308172,-0.011478349544010506,0.008439817242600591,9.10655766008985e-05,0.002516107263101013
-0.021163587112854373,-0.01148188350382052,0.0084407788643176,0.00010820648370661144,0.002515337965727405
-0.02116404388316995,-0.01148431159865597,0.008432845485152262,0.00013313652672010978,0.002514929276497675
-0.021166423896919556,-0.011482821084994604,0.008417603780937644,0.00015919647525109552,0.0025151456413840018
-0.02116851542415405,-0.011477339841207643,0.008417050848450363,0.00016703369224473148,0.002515963019843461
-0.02116990977564372,-0.011484503922999371,0.008427099795393125,0.00016782703016126517,0.0025166361550453685
-0.021171496451476788,-0.011483325936396034,0.00843433599881363,0.0001687165302494999,0.0025154581684420307
-0.02117197726233529,-0.011480777638845958,0.008435345701616491,0.00016912521947922936,0.002517525655133604
-0.021172313829936246,-0.011483133612052634,0.008439264310113308,0.00016729813821690938,0.0025188719255374178
-0.02117281868133768,-0.011481546936219566,0.008446187986475784,0.00016386034057859662,0.002519400817481774
-0.021172794640794752,-0.011481907544363444,0.008444072418698361,0.00016241790800308086,0.0025230790205493393
-0.021173155248938633,-0.011481138246989837,0.008429119200998848,0.0001651344893536356,0.002522670331319609
-0.02117337161382496,-0.011477339841207643,0.008430393349773888,0.00016592782727016932,0.002520314358112934
-0.0211724580731938,-0.011478157219667105,0.008440634621060048,0.00016246598908893137,0.002523559831407845
-0.02117327545165326,-0.011476762868177438,0.00843712470179296,0.00016741834093153568,0.002522790534034236
-0.021173900505769314,-0.011474935786915118,0.008441668364405835,0.00017455838218033892,0.0025223337637186568
-0.0211722657488504,-0.011479215003555816,0.00843890370196943,0.00016987047630991254,0.002521203858201169
-0.02117168877582019,-0.011482316233593174,0.008437749755909017,0.00016167265117239768,0.0025207230473426635
-0.02117185705962066,-0.011481282490247387,0.008437461269393914,0.00016013405642518078,0.002518583439022315
-0.021172914843509374,-0.011481739260562968,0.008439168147941606,0.00016905309785045358,0.0025179824254491835
-0.021174453438256597,-0.011481522895676641,0.008437268945050511,0.0001691733005650799,0.002521131736572393
-0.021174958289658024,-0.011485874233946113,0.008435033174558463,0.00017080805748399786,0.002524930142354585
-0.021174477478799518,-0.011487989801723535,0.008438278647853372,0.0001708320980269231,0.0025269735885032323
-0.02117327545165326,-0.011485153017658357,0.008440730783231749,0.00016806743559051783,0.002528127534563645
-0.021173155248938633,-0.01148197966599222,0.008434576404242881,0.00016922138165093042,0.0025266370209022786
-0.021172337870479167,-0.01148116228753276,0.008428998998284221,0.00016823571939099464,0.002526180250586699
-0.021171111802789983,-0.0114800564225582,0.008436860255820782,0.0001669615706159557,0.002521828912317225
-0.021172121505592844,-0.011484744328428626,0.00843794208025242,0.00016828380047684516,0.0025226222502337595
-0.021172866762423533,-0.011486258882632916,0.008440899067032227,0.00016619227324234722,0.0025231511421781147
-0.02117428515445612,-0.011486859896206049,0.008441379877890731,0.000171096543999101,0.0025211798176582433
-0.021172626356994274,-0.011485345342001758,0.0084384950127397,0.00017792405818987586,0.00252130002037287
-0.02117017422161589,-0.01148407119322672,0.008446356270276262,0.00017691435538701481,0.0025234877097790693
-0.021169957856729562,-0.011486739693491423,0.008444120499784212,0.0001687165302494999,0.0025258196424428198
-0.02117310716785278,-0.011487292625978704,0.00844210109417849,0.00016866844916364938,0.0025256753991852684
-0.021175967992460888,-0.011486835855663123,0.008437749755909017,0.00016655288138622617,0.002524713777468258
-0.021176689208748645,-0.011486403125890469,0.008428277781996464,0.00016597590835601986,0.0025227184124054602
-0.021177771033180283,-0.0114891918288698,0.008420392483916976,0.00017008684119623993,0.0025242570071526776
-0.021178348006210487,-0.0114869079772919,0.008405847955447191,0.0001721543278878126,0.002525771561356969
-0.02117801143860953,-0.011480344909073304,0.008417844186366897,0.0001710244223703252,0.002529954615825965
-0.02117647284386232,-0.011485201098744206,0.008424551497843047,0.00017482282815251687,0.002532959683691623
-0.02117539101943068,-0.011486258882632916,0.00842798929548136,0.0001784289095913064,0.0025306998726566483
-0.021172986965138155,-0.011485754031231487,0.008435369742159415,0.00017823658524790428,0.0025285602643363
-0.021170414627045147,-0.011485778071774413,0.008443110796981351,0.00017720284190211796,0.00253130088622978
-0.021170534829759773,-0.011487653234122585,0.008438206526224597,0.00017732304461674428,0.002532046143060463
-0.0211724580731938,-0.011485104936572505,0.00842991253891538,0.00017539980118272316,0.0025324067512043423
-0.021174669803142924,-0.011486234842089993,0.008435898634103772,0.00017496707141006844,0.002531661494373659
-0.021176665168205717,-0.0114893841532132,0.008435417823245266,0.0001749189903242179,0.0025293295617099076
-0.021180343371273284,-0.011489624558642454,0.008435177417816013,0.00017439009837986208,0.0025312047240580787
-0.021183468641853567,-0.011488398490953266,0.008436187120618877,0.00017797213927572638,0.002530195021255218
-0.02118096842538934,-0.011489119707241023,0.00843890370196943,0.00017823658524790428,0.002530531588856171
-0.021177530627751028,-0.011486715652948495,0.008438062282967045,0.00017732304461674428,0.0025319018998029115
-0.021175967992460888,-0.01148786959900891,0.008439144107398683,0.00018177054505791803,0.0025317336160024344
-0.02117579970866041,-0.011489480315384902,0.008438975823598205,0.00018237155863104961,0.002530964318628826
-0.02117738638449348,-0.011487557071950882,0.008433855187955124,0.0001761931390992569,0.002529497845510385
-0.02117829992512464,-0.011489023545069322,0.008437581472108541,0.00016931754382263148,0.00253358473780768
-0.02117618435734721,-0.011489312031584426,0.00845022679768723,0.00016657692192915144,0.002532118264689239
-0.021172073424507,-0.011489720720814157,0.008455251271158608,0.00016768278690371355,0.0025307719942854238
-0.02117334757328203,-0.011488398490953266,0.008445514851273877,0.00016883673296412622,0.0025311326024293032
-0.021177218100693004,-0.011488542734210818,0.00844255786449407,0.00016797127341881674,0.002532502913376043
-0.021179958722586482,-0.01148887930181177,0.008425320795216656,0.00016676924627255355,0.0025309402780859013
-0.021182218533621452,-0.011487076261092376,0.008428181619824763,0.00016770682744663885,0.0025317336160024344
-0.021182482979593638,-0.01148974476135708,0.008434528323157033,0.0001687165302494999,0.0025322865484897162
-0.021180752060503013,-0.011488134044981087,0.008431571336377224,0.00016619227324234722,0.002530531588856171
-0.02117745850612225,-0.011486619490776796,0.008433759025783423,0.00016650480030037566,0.002526877426331532
-0.021177194060150083,-0.011488110004438164,0.00843717278287881,0.0001641007460078493,0.0025290891562806555
-0.021177746992637355,-0.011489480315384902,0.00843671601256323,0.00016184093497287452,0.0025322625079467905
-0.02117736234395055,-0.011490321734387288,0.008433927309583901,0.00016544701641166406,0.0025344261568100643
-0.021174501519342446,-0.0114891918288698,0.008435682269217445,0.00016393246220737243,0.00253495504875442
-0.021171207964961684,-0.011488326369324491,0.008437918039709493,0.00016066294836953658,0.0025355079812417014
-0.02117024634324467,-0.011488302328781563,0.008436331363876427,0.00016085527271293872,0.0025369744543601424
-0.0211726503975372,-0.011489119707241023,0.008423421592325559,0.0001619130566016503,0.0025371186976176933
-0.021172217667764545,-0.011488254247695714,0.008423012903095831,0.0001616486106294724,0.0025363734407870104
-0.021170967559532426,-0.011490225572215584,0.008425104430330328,0.00015811465081945868,0.0025330318053203987
-0.02116774612678044,-0.01149243730216471,0.008436090958447173,0.00015684050204441968,0.002530483507770321
-0.0211659911671469,-0.011491403558818924,0.008434576404242881,0.00015789828593313132,0.002531925940345837
-0.021168587545782828,-0.011495250045686965,0.00844301463480965,0.000160061934796405,0.002531445129487331
-0.021169525126956912,-0.01149563469437377,0.008444072418698361,0.0001631150837479135,0.0025309402780859013
-0.021170510789216848,-0.011494288423969956,0.00843585055301792,0.0001590041509076934,0.002533296251292577
-0.021171496451476788,-0.011492677707593962,0.008431763660720626,0.00015222471780276909,0.0025319740214316874
-0.021171712816363115,-0.011491595883162328,0.008432076187778656,0.00015458069100944492,0.0025303392645127693
-0.02117154453256264,-0.011492317099450084,0.008436836215277858,0.00015717706964537336,0.002530315223969844
-0.02116983765401494,-0.011493519126596349,0.008442028972549713,0.00016030234022565762,0.002531781697088285
-0.021167866329495067,-0.011492605585965187,0.008438062282967045,0.00015876374547844078,0.0025312047240580787
-0.02116673642397758,-0.011494889437543086,0.008435730350303296,0.00015861950222088918,0.002530122899626442
-0.021166928748320983,-0.011496812680977108,0.00843356670144002,0.00016008597533933027,0.002528704507593852
-0.021166015207689824,-0.01149472115374261,0.008421882997578343,0.00015910031307939446,0.0025316855349165838
-0.021163923680455325,-0.011492701748136887,0.008427171917021902,0.00016402862437907352,0.002534137670294961
-0.021160293558473608,-0.01149243730216471,0.008430802039003616,0.00016643267867159982,0.002532094224146313
-0.021158322233953742,-0.01149311043736662,0.00843387922849805,0.00016080719162708817,0.002530747953742499
-0.021158562639382997,-0.011494697113199684,0.008438927742512354,0.0001572251507312239,0.002531084521343453
-0.02115683172029237,-0.011495009640257714,0.008435970755732547,0.0001551095829538007,0.002534522318981765
-0.021154355544371072,-0.011494023977997777,0.008433470539268321,0.000156960704759046,0.002532382710661417
-0.0211522880576795,-0.01149421630234118,0.008430080822715858,0.00015515766403965123,0.0025293295617099076
-0.021149571476328944,-0.011493230640081243,0.008416570037591858,0.00015383543417876174,0.002530243102341068
-0.021146518327377437,-0.011494528829399208,0.008427965254938434,0.00015732131290292496,0.002530243102341068
-0.021145051854259,-0.01149991391101447,0.008417603780937644,0.00016032638076858292,0.0025303633050556946
-0.021142191029650887,-0.01149984178938569,0.008425416957388358,0.000158691623849665,0.002530964318628826
-0.021139955259158842,-0.01149856764061065,0.008437100661250035,0.00015970132665252604,0.002531949980888762
-0.02113976293481544,-0.011499168654183784,0.008435489944874044,0.00015948496176619868,0.002532094224146313
-0.02114017162404517,-0.011500322600244195,0.008427845052223808,0.00016008597533933027,0.002531324926772705
-0.02114183042150701,-0.011498928248754531,0.008439576837171336,0.00016001385371055448,0.002530050777997666
-0.021142840124309868,-0.0114962357079469,0.008442341499607743,0.00016374013786397035,0.002531397048401481
-0.02114235931345136,-0.011494600951027984,0.008444961918786595,0.0001621775025738282,0.002533224129663801
-0.02114247951616599,-0.0114938556941973,0.008436355404419352,0.00016003789425347972,0.0025315653322019573
-0.021142912245938644,-0.011495610653830843,0.008425513119560059,0.0001611677997709671,0.002528776629222627
-0.021142599718880616,-0.011494649032113832,0.008431018403889944,0.00016282659723281033,0.002524112763895126
-0.021143272854082525,-0.011496019343060573,0.008431282849862122,0.00016393246220737243,0.002525483074841866
-0.021147672273437848,-0.011494432667227506,0.008436427526048127,0.00016309104320498823,0.002525579237013567
-0.021150749462932283,-0.01149609146468935,0.008438254607310448,0.00016097547542756504,0.0025246897369253325
-0.0211501003682733,-0.01149695692423466,0.008441331796804879,0.00015693666421612073,0.002523054980006414
-0.021150893706189836,-0.011497798343237043,0.008443615648382781,0.00015621544792836285,0.002524401250410229
-0.021153730490255013,-0.011497894505408744,0.008438663296540177,0.00015804252919068292,0.002527021669589083
-0.02115690384192115,-0.011498134910837995,0.008436619850391529,0.0001607831510841629,0.002526492777644727
-0.02115928385567075,-0.01149856764061065,0.008429936579458307,0.00015943688068034814,0.0025243531693243788
-0.021158754963726392,-0.011496812680977108,0.008419887632515546,0.0001622977052884545,0.0025228866962059373
-0.021159644463814627,-0.0114962357079469,0.008420560767717454,0.00016289871886158611,0.0025254109532130897
-0.021158803044812245,-0.011494576910485058,0.008425416957388358,0.00016268235397525876,0.002524713777468258
-0.02115702404463577,-0.011498495518981876,0.00843169153909185,0.00016643267867159982,0.0025238002368370978
-0.021157985666352783,-0.011500587046216374,0.008431114566061644,0.00016525469206826192,0.002522838615120087
-0.0211593319367566,-0.011502342005849918,0.008414190023842257,0.00015881182656429132,0.002522502047519133
-0.02115731253115088,-0.011500827451645629,0.00842738828190823,0.00015828293461993552,0.002523439628693219
-0.021155221003916383,-0.011496860762062959,0.008442774229380397,0.0001570809074736723,0.0025242810476956033
-0.021157432733865503,-0.011497606018893642,0.008440850985946376,0.0001595570833949745,0.002524401250410229
-0.021159115571870276,-0.011499529262327664,0.008446236067561634,0.0001617447728011735,0.0025235838719507705
-0.021159668504357555,-0.011500659167845149,0.008449673865199948,0.000166264394871123,0.0025250743856121373
-0.02116012527467313,-0.011499120573097934,0.008452222162750026,0.00016657692192915144,0.002524401250410229
-0.021161086896390145,-0.011500274519158346,0.008441451999519508,0.0001633074080913156,0.0025254109532130897
-0.021161351342362317,-0.011499529262327664,0.00842849414688279,0.00015785020484728078,0.002526396615473026
-0.021160509923359938,-0.011497798343237043,0.008430273147059261,0.00015885990765014186,0.0025277669264197663
-0.021160630126074564,-0.011502678573450872,0.008425873727703937,0.0001592685968798713,0.002531036440257602
-0.02115791354472401,-0.01150248624910747,0.008427316160279455,0.00015785020484728078,0.002531036440257602
-0.021156855760835296,-0.0115006110867593,0.008429479809142727,0.0001567683804156439,0.002527718845333916
-0.021160654166617488,-0.011500827451645629,0.00843113860660457,0.00015744151561755126,0.0025281996561924212
-0.02116260145059444,-0.011499360978527186,0.008434648525871658,0.00015929263742279654,0.0025295218860533104
-0.02116173599104913,-0.01149705308640636,0.008437100661250035,0.00016157648900069662,0.0025309162375429755
-0.0211594280989283,-0.011498976329840382,0.008435441863788192,0.00016309104320498823,0.0025307239131995736
-0.02115877900426932,-0.01150294301942305,0.008438927742512354,0.00016554317858336512,0.002530122899626442
-0.021160582044988715,-0.01150385656005421,0.008436643890934455,0.00016085527271293872,0.002529401683338684
-0.021160221436844838,-0.011502462208564544,0.008430201025430484,0.00015508554241087545,0.0025281996561924212
-0.021157456774408428,-0.01150101977598903,0.008430826079546542,0.00015467685318114598,0.0025273341966471114
-0.0211571442473504,-0.01150390464114006,0.00842666706562047,0.00015917243470817024,0.002526757223616905
-0.021159668504357555,-0.011505467276430202,0.008434480242071182,0.0001637641784068956,0.0025285602643363
-0.021160630126074564,-0.011507077992806196,0.008455107027901056,0.00016499024609608403,0.002527935210220243
-0.02115990890978681,-0.011505707681859456,0.00844255786449407,0.00016011001588225554,0.0025260840884149976
-0.02115882708535517,-0.011502101600420664,0.00843205214723573,0.00015378735309291123,0.0025269976290461576
-0.021158394355582515,-0.011501043816531954,0.008423397551782634,0.00015109481228528168,0.002527454399361738
-0.021158947288069798,-0.011504048884397612,0.0084270757548502,0.00015289785300467645,0.0025286804670509267
-0.02115800970689571,-0.011504794141228295,0.008428085457653061,0.00015337866386318176,0.0025281756156494955
-0.021154980598487128,-0.011502221803135293,0.008427123835936051,0.00015520574512550175,0.002527598642619289
-0.0211522880576795,-0.011502678573450872,0.008421858957035419,0.00015159966368671223,0.0025273341966471114
-0.021151590881934662,-0.01150426524928394,0.00842483998435815,0.0001502293527399722,0.002531252805143929
-0.02115197553062147,-0.011503087262680602,0.008433662863611722,0.00015316229897685438,0.002532887562062848
-0.021153634328083308,-0.011500202397529571,0.008435369742159415,0.00015431624503726705,0.0025282477372782714
-0.021152720787452152,-0.011500707248931001,0.008423133105810457,0.0001558307992415586,0.0025266851019881287
-0.021154259382199368,-0.011500490884044671,0.008427748890052105,0.0001587397049355155,0.0025258196424428198
-0.02115553353097441,-0.011498976329840382,0.008431715579634775,0.00016114375922804186,0.002528295818364122
-0.02115529312554516,-0.011500394721872972,0.008432004066149879,0.00016234578637430507,0.002527574602076364
-0.021155100801201757,-0.011499601383956438,0.008431090525518721,0.00016342761080594188,0.002529497845510385
-0.02115663939594897,-0.0115006110867593,0.008429888498372456,0.0001632593270054651,0.002529497845510385
-0.021157384652779655,-0.011501139978703657,0.008427796971137958,0.00016018213751103132,0.002530459467227396
-0.021156663436491897,-0.01149984178938569,0.008416473875420155,0.00016011001588225554,0.0025322865484897162
-0.021155605652603184,-0.011498808046039906,0.008418445199940028,0.00015619140738543758,0.002528920872480179
-0.02115786546363816,-0.01150253433019332,0.008422508051694401,0.00015881182656429132,0.0025278871291343928
-0.021159596382728782,-0.011501933316620187,0.008424359173499645,0.0001615043673719208,0.002527430358818813
-0.02115868284209762,-0.011502654532907945,0.008445635053988503,0.0001603744618544334,0.0025285602643363
-0.021158202031239116,-0.011503303627566928,0.008438326728939223,0.00015984556991007764,0.0025293776427957586
-0.02115841839612544,-0.011501692911190936,0.008423782200469439,0.00016027829968273238,0.0025288968319372536
-0.02115764909875183,-0.011501139978703657,0.00843397539066975,0.00015741747507462602,0.0025288727913943287
-0.02115625474726216,-0.01150116401924658,0.008437461269393914,0.00015672029932979338,0.002529185318452357
-0.02115406705785597,-0.011501572708476309,0.008434672566414583,0.00015712898855952285,0.0025288006697655524
-0.021153057355053108,-0.011501885235534337,0.008427724849509183,0.00016301892157621244,0.002529690169853787
-0.021152071692793168,-0.011502438168021621,0.0084224118895227,0.00016535085423996298,0.002526829345245681
-0.02115084562510398,-0.011497654099979493,0.008426498781819993,0.00016402862437907352,0.002527502480447589
-0.02114952339524309,-0.011501115938160729,0.008431042444432869,0.00015982152936715237,0.0025284641021645986
-0.021148249246468052,-0.01150933780384117,0.008429888498372456,0.00015462877209529544,0.0025288727913943287
-0.02114945127361432,-0.011509145479497768,0.008428037376567209,0.00015917243470817024,0.0025294497644245345
-0.02114969167904357,-0.011507150114434973,0.008429287484799325,0.0001632593270054651,0.0025285362237933745
-0.021149210868185064,-0.011503784438425434,0.008434480242071182,0.00015640777227176494,0.002527526520990513
-0.021148585814069008,-0.01150390464114006,0.00843575439084622,0.0001528497719188259,0.002525651358642343
-0.021148032881581725,-0.01150751072257885,0.008432701241894712,0.00015876374547844078,0.0025270697506749326
-0.021147383786922744,-0.011507246276606672,0.00843799016133827,0.00015857142113503866,0.002526300453301325
-0.021146806813892537,-0.01150568364131653,0.008453472270982141,0.00015455665046651963,0.002525290750498464
-0.02114735974637982,-0.0115076549658364,0.008433254174381994,0.0001500370283965701,0.0025281996561924212
-0.0211452441786024,-0.011504096965483462,0.008400799441432884,0.00015244108268909644,0.002531156642972228
-0.021143320935168373,-0.011500538965130523,0.008394621021901093,0.00015390755580753753,0.002527526520990513
-0.021143224772996672,-0.011506837587376943,0.008422652294951951,0.00015393159635046283,0.0025275505615334386
-0.02114430659742831,-0.01150751072257885,0.008423950484269915,0.00015518170458257648,0.0025286083454221504
-0.02114384982711273,-0.011508424263210009,0.008420440565002827,0.00015604716412788596,0.0025304113861415447
-0.02114262375942354,-0.011508664668639262,0.008423469673411411,0.00015602312358496069,0.0025322384674038648
-0.021142599718880616,-0.011505659600773604,0.008428205660367687,0.00015619140738543758,0.002532863521519922
-0.021143705583855175,-0.011504121006026387,0.008429047079370072,0.00015753767778925232,0.0025352675758124484
-0.021144787408286816,-0.011504289289826865,0.008423397551782634,0.00015765788050387864,0.0025387534545366114
-0.021145364381317026,-0.011505298992629727,0.00842387836264114,0.00016020617805395657,0.00253865729236491
-0.02114567690837505,-0.011507534763121777,0.008424190889699168,0.00015931667796572184,0.002538945778880013
-0.021143537300054704,-0.011506837587376943,0.008424022605898692,0.0001522727988886196,0.0025351714136407468
-0.02114019566458809,-0.011508760830810963,0.008424575538385973,0.00014780125790452058,0.002532911602605773
-0.02114183042150701,-0.01151111680401764,0.00842738828190823,0.00015179198803011435,0.002531493210573182
-0.02114567690837505,-0.011510419628272806,0.0084247919032723,0.00015296997463345224,0.0025287285481367765
-0.021145700948917972,-0.011509458006555796,0.008425921808789788,0.0001522006772598438,0.0025286083454221504
-0.0211453403407741,-0.011509698411985049,0.008435610147588668,0.0001544604882948186,0.002528367939992898
-0.021144643165029262,-0.011509674371442123,0.008434552363699957,0.0001543402855801923,0.0025302190617981428
-0.021142551637794767,-0.011509409925469944,0.00842611413313319,0.0001611677997709671,0.0025318057376312107
-0.021140796678161218,-0.01150796749289443,0.008422508051694401,0.00016722601658813356,0.002534017467580334
-0.02113954656992911,-0.011510996601303013,0.0084247919032723,0.00016686540844425458,0.002533007764777473
-0.02113820029952529,-0.011511164885103491,0.008420825213689632,0.00015619140738543758,0.0025300026969118155
-0.02113750312378046,-0.011511597614876143,0.008427003633221424,0.00013231914826065082,0.002530483507770321
-0.0211384887860404,-0.011510852358045463,0.008423950484269915,0.00010736506470422719,0.0025306037104849467
-0.02114014758350224,-0.01151304004745166,0.008429575971314428,8.207441354684991e-05,0.0025297142103967124
-0.0211410611241334,-0.011514482480027177,0.008431234768776271,6.389976309535064e-05,0.0025309162375429755
-0.021140339907845643,-0.01151395358808282,0.008427965254938434,6.248137106276008e-05,0.0025320701836033877
-0.021140844759247074,-0.011511237006732266,0.00842849414688279,8.176188648882148e-05,0.002531781697088285
-0.021142191029650887,-0.011511188925646416,0.008428325863082314,9.678722581711125e-05,0.002532575035004819
-0.0211430564891962,-0.011511645695961996,0.008428998998284221,0.00011914493073760637,0.002533536656721829
-0.021142166989107963,-0.011512006304105874,0.008432268512122056,0.00014301718986239312,0.0025315412916590324
-0.02114014758350224,-0.011512799642022408,0.008432581039180086,0.0001560952452137365,0.0025296420887679365
-0.02113923404287108,-0.011514025709711596,0.008431258809319195,0.0001628746783186609,0.0025266851019881287
-0.02114055627273197,-0.011516213399117795,0.008433759025783423,0.00016535085423996298,0.002528440061621673
-0.021141806380964082,-0.011510876398588386,0.008446332229733336,0.0001667932868154788,0.002531180683515153
-0.02114235931345136,-0.011512775601479482,0.008443399283496454,0.00016020617805395657,0.002531998061974613
-0.021140989002504624,-0.01151243903387853,0.00843986532368644,0.00015359502874950914,0.002532142305232164
-0.02113978697535836,-0.01151126104727519,0.008430008701087082,0.00015611928575666177,0.0025325269539189683
-0.0211409649619617,-0.011511789939219549,0.008418445199940028,0.00015861950222088918,0.002531589372744883
-0.02114384982711273,-0.011511020641845938,0.008419382781114116,0.00016126396194266818,0.002533055845863324
-0.021146686611177908,-0.01151133316890397,0.008424671700557674,0.00016364397569226932,0.00253130088622978
-0.02114796075995295,-0.011511621655419071,0.008425609281731758,0.00016395650275029768,0.0025303392645127693
-0.02115106198999031,-0.011513881466454044,0.008424070686984544,0.000160518705111985,0.002529209358995282
-0.021155701814774885,-0.011514698844913504,0.008432124268864506,0.00015960516448082498,0.0025290891562806555
-0.02115774526092353,-0.011512390952792679,0.00843017698488756,0.0001616486106294724,0.0025296420887679365
-0.021157961625809858,-0.011512198628449277,0.008430850120089466,0.00016241790800308086,0.0025296661293108622
-0.02115683172029237,-0.011515203696314934,0.008426186254761965,0.00016123992139974294,0.0025296661293108622
-0.02115613454454754,-0.01151486712871398,0.008433590741982947,0.00016136012411436924,0.0025306037104849467
-0.02115529312554516,-0.011512511155507305,0.008431571336377224,0.0001644853946946535,0.002532430791747267
-0.02115380261188379,-0.011511525493247368,0.008428277781996464,0.00016405266492199876,0.002533079886406249
-0.02115353816591161,-0.01151436227731255,0.008429840417286606,0.00016518257043948614,0.002531949980888762
-0.02115252846310875,-0.011514722885456428,0.00843387922849805,0.00016643267867159982,0.0025308441159142
-0.02115065330076058,-0.011513160250166287,0.00843616308007595,0.0001684761248202473,0.0025310123997146767
-0.02114983592230112,-0.011512318831163902,0.008434408120442405,0.00016609611107064616,0.0025299305752830396
-0.02114868197624071,-0.01151304004745166,0.008435129336730164,0.00016186497551579977,0.0025308441159142
-0.021147431868008597,-0.011514049750254522,0.008433999431212676,0.0001632593270054651,0.002530170980712293
-0.02114632600303403,-0.011510587912073284,0.00843616308007595,0.00016241790800308086,0.0025304113861415447
-0.021146902976064242,-0.011510587912073284,0.008436812174734932,0.00016386034057859662,0.002527983291306093
-0.02114834540863976,-0.011513376615052614,0.008435081255644314,0.00016431711089417666,0.002529281480624058
-0.02114707125986472,-0.011512054385191723,0.008439384512827934,0.00015787424539020603,0.0025298103725684136
-0.02114663853009206,-0.011512871763651185,0.008451597108633968,0.00015467685318114598,0.002530315223969844
-0.021149475314157243,-0.011512847723108259,0.00842976829565783,0.00015525382621135232,0.0025303392645127693
-0.021149571476328944,-0.011512270750078052,0.008417940348538598,0.0001557586776127828,0.0025294497644245345
-0.021147600151809068,-0.011513737223196494,0.008414742956329537,0.00016039850239735868,0.0025285362237933745
-0.02114733570583689,-0.011514554601655952,0.008415007402301717,0.00016044658348320922,0.0025298103725684136
-0.021147167422036414,-0.011517920277665487,0.008431499214748448,0.00015907627253646922,0.0025292333995382073
-0.02114671065172084,-0.011517607750607459,0.008449529621942396,0.00015905223199354394,0.0025282477372782714
-0.02114608559760478,-0.01151609319640317,0.008443255040238903,0.00016316316483376398,0.0025291372373665057
-0.021143729624398103,-0.011513785304282344,0.008427268079193603,0.00016429307035125142,0.002528776629222627
-0.021141133245762174,-0.011515492182830038,0.008433710944697572,0.00016349973243471767,0.00252718995338956
-0.02114238335399429,-0.01151664612889045,0.008428542227968641,0.0001650142866390093,0.002527045710132008
-0.021145604786746274,-0.011517703912779162,0.00843433599881363,0.0001641728676366251,0.0025266129803593533
-0.021148561773526083,-0.01151594895314562,0.008437004499078334,0.00016643267867159982,0.0025256753991852684
-0.02115202361170732,-0.011514097831340372,0.008436764093649081,0.00016975027359528624,0.0025247618585541084
-0.021153682409169164,-0.01151563642608759,0.008434095593384377,0.00017318807123359892,0.0025244733720390052
-0.021153321801025284,-0.01151304004745166,0.008433807106869274,0.00017487090923836742,0.0025242329666097523
-0.0211550527201159,-0.011515588345001741,0.008435513985416967,0.00016972623305236097,0.0025264206560159518
-0.021156302828348017,-0.011519194426440529,0.008437004499078334,0.00016366801623519454,0.0025283198589070477
-0.02115608646346169,-0.011514554601655952,0.00843671601256323,0.00015847525896333763,0.002530122899626442
-0.021154980598487128,-0.011512799642022408,0.00843378306632635,0.0001592685968798713,0.0025318057376312107
-0.021154595949800323,-0.01151563642608759,0.0084338311474122,0.00016578358401261775,0.0025310123997146767
-0.02115574989586073,-0.011516574007261674,0.008432004066149879,0.00016532681369703768,0.0025309402780859013
-0.021157793342009384,-0.01151695865594848,0.008427772930595033,0.00016104759705634086,0.002532094224146313
-0.021159043450241496,-0.011518112602008893,0.008425729484446386,0.00016003789425347972,0.002531853818717061
-0.021159668504357555,-0.011518641493953248,0.008436499647676905,0.00016273043506110927,0.0025288968319372536
-0.02115800970689571,-0.011520276250872164,0.00843799016133827,0.00016398054329322298,0.0025293776427957586
