channel21,channel22,channel23,channel24,channel25
0.002528584304879225,-0.01374948367470308,-0.006205873831813396,0.006985700963223096,-0.0020405853240392994
0.0025304354266844705,-0.013747776796155388,-0.006239242105393661,0.006981710233097503,-0.0020147176998517157
0.002536253238072384,-0.013746767093352529,-0.006231284685685399,0.006988946436518006,-0.002075564313995557
0.0025491870501661755,-0.01374847397190022,-0.0062141678191226105,0.006986638544397181,-0.002046787784114017
0.0025557741589276976,-0.013749603877417707,-0.006234722483323712,0.006981638111468726,-0.001994980414110074
0.0025678905925620304,-0.013750878026192749,-0.0062400114027672685,0.006981830435812128,-0.002012770415874769
0.0025581060915914485,-0.013749435593617229,-0.0061922909250606215,0.006980700530294641,-0.0020228434033604547
0.002539835278968248,-0.013750108728819141,-0.006183756532322153,0.006979786989663481,-0.002009885550723737
0.0025317336160024344,-0.013751238634336627,-0.00619132930334361,0.006974065340447268,-0.001963246897448726
0.0025351954541836725,-0.013750733782935195,-0.006191040816828507,0.0069744019080482215,-0.001947836909433632
0.002526036007329147,-0.013745805471635515,-0.006185679775756172,0.006971444921268414,-0.001964929735453495
0.002523824277380023,-0.013750805904563972,-0.006181640964544729,0.006981229422238997,-0.0019393986788668648
0.002518655560651091,-0.013745709309463816,-0.006185247045983519,0.007019381763861389,-0.0019254551639702122
0.002519905668883205,-0.013746358404122798,-0.0061877713029906715,0.007038013184628469,-0.0019287006372651226
0.0025266370209022786,-0.01374604587706477,-0.006181929451059833,0.007034214778846277,-0.0019646172083954663
0.002526492777644727,-0.013746310323036949,-0.006189382019366664,0.0070133235470442225,-0.0019753152499972088
0.0025436817658362905,-0.013745420822948712,-0.00620731626438891,0.007000029126806553,-0.0019373552327182173
0.0025564232535866802,-0.013739386646674472,-0.006216163184185408,0.0069995963970338965,-0.001908218094692798
0.002550124631340261,-0.013740300187305632,-0.006224529293123399,0.006997168302198446,-0.001903746553708699
0.0025439462118084684,-0.013745565066206264,-0.0062241686849795206,0.006992408274699244,-0.0018887933360091853
0.002541421954801316,-0.013744915971547282,-0.006222149279373797,0.006990124423121344,-0.0018286919786960254
0.0025468310769595,-0.013748209525928043,-0.006226716982529598,0.006984595098248533,-0.0017817888794488363
0.002554740415581912,-0.013749291350359679,-0.00622238968480305,0.006985051868564114,-0.0017706581080744394
0.002556158807614502,-0.013750974188364448,-0.006227125671759327,0.006989210882490184,-0.0018168159504909453
0.002560606308055676,-0.013752007931710235,-0.006205080493896861,0.006982647814271588,-0.0017954919889162364
0.002558995591679683,-0.013754604310346162,-0.006201907142230726,0.00695370300058957,-0.0017687108240974929
0.002549595739395905,-0.013757248770067941,-0.0062053689804119645,0.006942572229215173,-0.0017766201627199046
0.002543705806379216,-0.013756888161924065,-0.006204888169553458,0.006964569325991789,-0.0017826302984512207
0.002541253671000839,-0.013747993161041716,-0.006194670938810222,0.0069774790975426545,-0.00177618743294725
0.002538777495079537,-0.013746142039236471,-0.0061895022220812895,0.006975315448679382,-0.0017563299444909824
0.002526372574930101,-0.013752488742568741,-0.006187314532675093,0.006968127326344728,-0.0017592869312707895
0.0025099288435692204,-0.013746478606837424,-0.006189141613937412,0.006975099083793054,-0.0017820533254210144
0.0025237521557512467,-0.013749195188187978,-0.006191978398002593,0.007014164966046607,-0.0017683982970394649
0.0025480090635628377,-0.013754628350889088,-0.006197243276903225,0.0070474370774551735,-0.0017152927377175574
0.002555004861554089,-0.013752248337139486,-0.006201714817887324,0.007032772346270761,-0.0017304623203033985
0.002551134334143122,-0.013756407351065557,-0.0062153698462688745,0.007015126587763618,-0.0017586859176976582
0.0025639479435222872,-0.013748762458415324,-0.006201714817887324,0.007003106316300986,-0.0017270726037509365
0.0025710399036852397,-0.013747488309640284,-0.006183371883635348,0.006997456788713549,-0.0016703609629902401
0.0025662798761860377,-0.013748570134071922,-0.006210321332254568,0.006996495166996539,-0.0016626920297970812
0.0025572165915032138,-0.013747127701496406,-0.0062360447131846,0.006993105450444077,-0.001681972545223142
0.0025488745231081467,-0.013748522052986071,-0.0062277266853324595,0.00699430747759034,-0.0016921176543376033
0.002550773725999243,-0.013744194755259523,-0.006241021105570129,0.006999139626718318,-0.0016348530810896256
0.0025448837929825537,-0.013743449498428841,-0.006222606049689378,0.0069993079105187955,-0.001613336795171515
0.0025438740901796925,-0.013748089323213416,-0.006191233141171909,0.006986061571366975,-0.00164391636577245
0.002562914200176501,-0.013749579836874784,-0.006185487451412772,0.0069833449900164185,-0.0016536527856571815
0.002578732877421325,-0.013741862822595772,-0.006187795343533597,0.00699887518074614,-0.0016196354174179337
0.002569597471109724,-0.013747752755612463,-0.006182891072776843,0.007004164100189698,-0.001637016729952899
0.0025507256449133924,-0.013752945512884321,-0.006181640964544729,0.0069993800321475706,-0.0016135050789719914
0.00254591753632834,-0.013752681066912142,-0.006187122208331689,0.007005125721906708,-0.0016184574308145956
0.0025208432500572896,-0.01375258490474044,-0.006196353776814991,0.00699846649151641,-0.0015791271025888645
0.002515386046813255,-0.013748522052986071,-0.006195704682156009,0.0069978654779432785,-0.0015540528163178146
0.00255505294263994,-0.013746887296067151,-0.0061921466818030705,0.0069831286251300926,-0.0015729246425141466
0.0025676501871327783,-0.013751118431622,-0.0061952959929262785,0.006979835070749331,-0.001595498712320969
0.0025648855246963725,-0.013750036607190362,-0.0061983010607919355,0.007007553816742161,-0.0015403256663074892
0.0025606784296844515,-0.013750733782935195,-0.00619031960054075,0.007034767711333558,-0.0014884942557606207
0.002556062645442801,-0.013750493377505942,-0.006187434735389717,0.0070284690890871394,-0.001491980134484784
0.0025525527261757125,-0.01375075782347812,-0.0061996473311957505,0.007006399870681747,-0.0014706802134529999
0.0025521440369459837,-0.013751695404652205,-0.00621914421150814,0.007003322681187313,-0.0014754162004092773
0.0025553654696979684,-0.013750084688276213,-0.006251286417399218,0.007005606532765213,-0.001427984209217732
0.0025581541726772987,-0.013752344499311188,-0.0062837651908912474,0.007011400303610202,-0.0014311094797980165
0.002558322456477776,-0.013751046309993223,-0.006171207368915164,0.007016929628483013,-0.0014584435771040412
0.002558731145707505,-0.013752464702025815,-0.0062140956974938355,0.007017819128571247,-0.0014525536440873515
0.0025616640919443874,-0.01375477259414664,-0.006228880631392873,0.0070367871169392795,-0.0014203633571104235
0.002567794430390329,-0.013749123066559205,-0.006229770131481107,0.007057053294625278,-0.0014077901531605107
0.0025709677820564643,-0.01375426774274521,-0.006234674402237861,0.007086094270478995,-0.0014337539395197956
0.0025587792267933555,-0.013757320891696718,-0.006241574038057412,0.0070896041897460845,-0.0014571694283290024
0.0025386332518219853,-0.013752921472341395,-0.0062107781025701496,0.0070631355519853705,-0.0014345713179792544
0.002527430358818813,-0.013744795768832656,-0.006196425898443766,0.007037075603454383,-0.0013967795845007398
0.0025464464282726955,-0.013743040809199112,-0.006201161885400043,0.007014237087675383,-0.0014297391688512762
0.0025695013089380232,-0.013740756957621213,-0.006200152182597182,0.00702080015589398,-0.0014651028074943392
0.0025715687956295963,-0.013743593741686393,-0.006206018075070947,0.0070359216573939705,-0.0014062275178703687
0.0025628661190906506,-0.013745204458062384,-0.006213085994690974,0.00704121057683753,-0.0013677866897328721
0.002558659024078729,-0.013748041242127564,-0.0061979164121051325,0.0070283248458295885,-0.0013686040681923312
0.002560365902626423,-0.013745997795978921,-0.0061951517496687284,0.00702267531824215,-0.001367498203217769
0.002553105658662993,-0.0137488345800441,-0.006211186791799878,0.007014549614733412,-0.0013141041573807586
0.0025496438204817558,-0.013745324660777013,-0.0061922909250606215,0.007010174235921014,-0.0012935975742655087
0.0025576012401900177,-0.01374650264738035,-0.00617599143695729,0.0070110877765521724,-0.001302540656233707
0.0025676021060469273,-0.013746791133895452,-0.006164500057439015,0.007007289370769982,-0.0013027810616629595
0.002566183714014337,-0.013745324660777013,-0.006171399693258565,0.007007385532941683,-0.0012615034494602815
0.0025630344028911268,-0.013745060214804834,-0.0061779146803913115,0.007002865910871734,-0.0012534739081232439
0.0025603418620834977,-0.013745060214804834,-0.006180270653597989,0.007003274600101464,-0.0012653980174141747
0.0025616160108585372,-0.013745204458062384,-0.0062098164808531385,0.007007073005883655,-0.0012689560177671134
0.002566039470756785,-0.013748522052986071,-0.006202964926119438,0.0069951008155068745,-0.0012506371240580626
0.002564092186779839,-0.0137488345800441,-0.006189862830225169,0.006991855342211964,-0.0012280149731653898
0.002539763157339473,-0.013750637620763494,-0.0061940939657800145,0.006988730071631678,-0.0012546518947265815
0.002532382710661417,-0.013755181283376371,-0.0061918822358308905,0.006989643612262839,-0.0012747738291550273
0.002538585170736135,-0.013747175782582256,-0.006184093099923106,0.006995533545279528,-0.0012821542758330831
0.0025419508467456717,-0.013740540592734884,-0.00618890120850816,0.006989090679775558,-0.0012492908536542475
0.002549403415052503,-0.013744819809375579,-0.006204118872179851,0.0069921678692699924,-0.001240636258201153
0.002540532454713081,-0.013742511917254755,-0.006220033711596375,0.007005342086793036,-0.0012390976634539359
0.002553081618120068,-0.013751839647909755,-0.006220827049512909,0.007014886182334365,-0.0012452280018998784
0.002566159673471412,-0.013749748120675259,-0.006203349574806242,0.0070097655466912845,-0.0012039263491542755
0.002578516512534997,-0.01375116651270785,-0.0061810159104286715,0.0070133235470442225,-0.0011780827655096173
0.002583757350892705,-0.013754243702202285,-0.00617315465289211,0.007016016087851853,-0.0011855834149022994
0.002575848012270293,-0.013746791133895452,-0.006205969993985096,0.007005486330050588,-0.0011937571994968892
0.0025665202816152906,-0.01374477172828973,-0.006192266884517695,0.0070005580187509076,-0.001154907682129663
0.0025660635112997104,-0.013747896998870015,-0.0061949353847824,0.0069888983554321545,-0.0011248329629301582
0.0025722419308315033,-0.013753666729172078,-0.006202315831460456,0.00697334412415951,-0.0011366368695064626
0.0025680829169054324,-0.013750036607190362,-0.006197050952559823,0.006978897489575246,-0.0011527680738093145
0.0025637556191788853,-0.013749988526104512,-0.006188179992220401,0.006971493002354265,-0.001119423840771974
0.002551254536857748,-0.013750733782935195,-0.006185896140642501,0.006970435218465554,-0.001088700026913487
0.002537671630104975,-0.013748113363756342,-0.0061901513167402725,0.006989956139320867,-0.0010731457956408416
0.0025402199276550524,-0.01374888266112995,-0.006186857762359511,0.006994043031618161,-0.0011426229646948533
0.0025403641709126038,-0.013750541458591793,-0.00617772235604791,0.0069796427464059296,-0.0011359637343045553
0.0025352675758124484,-0.01374741618801151,-0.0061786358966790704,0.006963751947532329,-0.0010865844591360636
0.0025402199276550524,-0.013740276146762705,-0.006183900775579704,0.006946923567484646,-0.001088603864741786
0.002546494509358546,-0.013745468904034564,-0.006190103235654422,0.006977839705686535,-0.0011293285444571829
0.002550845847628019,-0.013749195188187978,-0.006192387087232322,0.007021040561323233,-0.0011323336123228403
0.0025680348358195822,-0.013748738417872398,-0.006206090196699722,0.007028829697231018,-0.00107391509301445
0.002584839175324341,-0.013748954782758728,-0.006233376212919897,0.007016448817624507,-0.0010621352269810707
0.0025804878370548692,-0.013746887296067151,-0.006232029942516082,0.0069963749642819135,-0.0010990615009142757
0.002572554457889532,-0.013746334363579872,-0.006212605183832469,0.006983777719789075,-0.0010838919183284344
0.002569621511652649,-0.013743762025486871,-0.006204767966838833,0.006981325584410698,-0.0010155206142489848
0.0025732516336343645,-0.013745300620234088,-0.00621690844101609,0.0069818544763550535,-0.0010425181439540556
0.0025801272289109898,-0.013748570134071922,-0.006200248344768883,0.006982142962870156,-0.0010372773055963482
0.002589599202823544,-0.013749531755788932,-0.006201282088114669,0.006981277503324847,-0.0010302574670621712
0.0025792617693656803,-0.013743689903858094,-0.006178587815593221,0.006972190178099098,-0.0009747959345335881
0.0025691166602512193,-0.013746310323036949,-0.0061807274239135705,0.006959232325462381,-0.0009641700145606217
0.0025561828481574273,-0.01374979620176111,-0.006191353343886536,0.006960145866093541,-0.0009894366251750736
0.002550413117855364,-0.01374842589081437,-0.006185703816299098,0.0069762289893105425,-0.0010048225726472424
0.0025498361448251573,-0.0137488345800441,-0.0061861846271576044,0.0069820948817843065,-0.0007057341781140381
0.002547239766189229,-0.013749123066559205,-0.006180030248168737,0.006973512407959986,-0.0007325874645615574
0.0025423595359754013,-0.013753522485914526,-0.006178948423737098,0.0069759164622525145,-0.0007621573323596317
0.002552865253233741,-0.013751118431622,-0.006183275721463647,0.006974930799992577,-0.0007186920307507553
0.0025485139149642685,-0.013748305688099744,-0.0061919062763738176,0.00694074514795285,-0.0006764768373739923
0.0025572887131319892,-0.013748618215157772,-0.006198277020249011,0.0069300711468940355,-0.0006793857430679491
0.002567674227675703,-0.013751046309993223,-0.006196425898443766,0.006982984381872541,-0.0007208797201569543
0.002581689864201132,-0.01374472364720388,-0.006200104101511331,0.007022026223583168,-0.0006702743772992742
0.0025847430131526405,-0.013740420390020255,-0.006214937116496219,0.0070222185479265715,-0.0006638074712523785
0.002581257134428477,-0.013750541458591793,-0.006213446602834852,0.007018708628659482,-0.0006773903780051523
0.0025687079710214893,-0.013750252972076693,-0.006206955656245032,0.007018708628659482,-0.0007059986240862161
0.0025671453357313475,-0.013740420390020255,-0.0062070998995025824,0.007020583791007652,-0.0006884490277507736
0.002564452794923718,-0.013737367241068749,-0.006204311196523252,0.007012938898357419,-0.0006261118999455652
0.002566424119443589,-0.013742223430739652,-0.0062070998995025824,0.0070103184791785655,-0.0006154138583438228
0.002568227160162984,-0.013741790700966998,-0.006239266145936586,0.00700212065404105,-0.0006430604827078758
0.002568539687221013,-0.013740107862962227,-0.0062325828750033644,0.0070019283296976495,-0.0006233472375091598
0.0025729150660334108,-0.013740901200878765,-0.006181160153686224,0.00699700001839797,-0.0005737035163684902
0.002560173578283021,-0.013738569268215012,-0.006174188396237896,0.006990605233979849,-0.0005713715837047397
0.00257241021463198,-0.013738112497899432,-0.006198036614819759,0.006990965842123728,-0.0005709628944750104
0.00257327567417729,-0.013737487443783376,-0.0062127253865470935,0.006995076774963947,-0.0006176496288358722
0.0025648855246963725,-0.013737583605955077,-0.006205633426384142,0.006999716599748524,-0.0005849544904575137
0.0025641162273227643,-0.013740925241421688,-0.006216355508528809,0.006992792923386049,-0.0005504563113597605
0.002551254536857748,-0.013740829079249986,-0.006221259779285563,0.006980363962693687,-0.0005905559369591001
0.002549475536681279,-0.013740131903505155,-0.006188059789505774,0.006986638544397181,-0.0006023838840783298
0.00256190449737364,-0.013740973322507538,-0.006171952625745847,0.006999716599748524,-0.0005630775963955237
0.002571592836172521,-0.013742223430739652,-0.006191617789858713,0.007005750776022765,-0.0005416093915632633
0.00258241108048889,-0.013742007065853323,-0.006186905843445362,0.006984739341506085,-0.0005686069212683347
0.0025854642294403985,-0.013742608079426457,-0.006181232275314999,0.006977382935370954,-0.000590171288272296
0.0025732997147202147,-0.01374335333625714,-0.0061847662351250145,0.006986686625483032,-0.0005431960673963308
0.0025767855934443785,-0.01373919432233107,-0.0061803908563126154,0.0070022168162127505,-0.0004994663198152763
0.0025792617693656803,-0.013734266011031391,-0.006184549870238686,0.0070120734388121105,-0.0005245406060863263
0.002575006593267909,-0.013735155511119623,-0.0062034697775208685,0.007018828831374108,-0.0005433643511968077
0.0025671934168171977,-0.013735900767950308,-0.006214456305637713,0.0070180595340005,-0.0005075439422381648
0.0025714485929149693,-0.013737343200525824,-0.006209047183479529,0.007001423478296217,-0.0004485003688137176
0.002574549822952329,-0.013740107862962227,-0.0061965701417013175,0.0069888983554321545,-0.00043328270514202566
0.0025736843634070194,-0.01373554015980643,-0.006181328437486701,0.006994980612792247,-0.0004314556238797057
0.002578540553077923,-0.013733448632571931,-0.006188204032763326,0.007000678221465535,-0.00042131051476524447
0.002587940405361701,-0.013741862822595772,-0.006198469344592414,0.007001856208068873,-0.00040710255389641366
0.0025934456896915857,-0.01374005978187638,-0.0062155862111552005,0.006984691260420234,-0.0004134492572286833
0.0025866422160437364,-0.0137422715118255,-0.006234602280609085,0.00697699828668415,-0.00043462897554584056
0.0025603899431693483,-0.013740805038707062,-0.006223880198464417,0.006995196977678575,-0.00042585417737811933
0.0025396189140819213,-0.013736453700437587,-0.006230851955912744,0.006983849841417851,-0.00037467186149023313
0.002550966050342645,-0.013738352903328685,-0.006216692076129763,0.006957886055058565,-0.00043645605680816066
0.002569188781879995,-0.013740564633277807,-0.006170269787741079,0.00696009778500769,-0.0004583089103272252
0.0025679146331049557,-0.013737247038354123,-0.006175630828813413,0.006961444055411505,-0.000451457355593525
0.002559091753851384,-0.013736670065323916,-0.006202724520690185,0.0070092126142040035,-0.0004135935004862349
0.002575391241954713,-0.013740444430563185,-0.006198613587849965,0.007042220279640391,-0.0003979671475848136
0.0025680829169054324,-0.01374025210621978,-0.006190944654656807,0.007039215211774731,-0.00041318481125650537
0.002559716807967441,-0.01374243979562598,-0.006193012141348379,0.007031450116409871,-0.00041623796020801387
0.002564428754380793,-0.013736790268038543,-0.006192266884517695,0.007024742804933724,-0.0003838313083447585
0.0025635152137496327,-0.013739098160159368,-0.00618082358608527,0.0070165690203391326,-0.0003626275494846761
0.0025686358493927143,-0.013737535524869228,-0.006176039518043143,0.007011977276640409,-0.0003529151701428696
0.0025724342551749053,-0.01373614117337956,-0.0061781550858205645,0.007006880681540252,-0.00035101596725177367
0.002579430053166157,-0.01374162241716652,-0.006185559573041548,0.00700572673547984,-0.00034981394010551056
0.002584117959036584,-0.013734169848859688,-0.006207412426560611,0.0070080105870577395,-0.00029476109680665687
0.002581064810085075,-0.013738641389843787,-0.0062495554983086,0.007001760045897172,-0.00030065102982334646
0.0025826514859181426,-0.013742103228025026,-0.0062373188619596395,0.006996062437223885,-0.0003149791934068036
0.0025690685791653683,-0.013735564200349354,-0.0061948151820677725,0.006990364828550597,-0.0002920925965419527
0.0025570242671598114,-0.013732462970311995,-0.006184020978294329,0.006983801760332,-0.00026795589144498804
0.0025831082562337232,-0.013737198957268272,-0.0061993588446806495,0.006988489666202426,-0.00027875009521843136
0.00259611418995629,-0.013737247038354123,-0.006212821548718796,0.006993586261302582,-0.0003135127202883625
0.0025755595257551897,-0.013737992295184806,-0.006209383751080483,0.006982551652099886,-0.00031014704427882565
0.002574982552724984,-0.013737559565412151,-0.006191545668229938,0.006977431016456805,-0.00028391881194736305
0.002584214121208285,-0.013737030673467794,-0.00617822720744934,0.00698654238222548,-0.00024958891665008664
0.0025737084039499447,-0.013736621984238064,-0.0061766405316162724,0.006995581626365379,-0.000294039880518899
0.0025671453357313475,-0.013736333497722963,-0.0061648606655828955,0.007005606532765213,-0.00029584292123829376
0.002575271039240087,-0.013736213295008336,-0.00617173626085952,0.007011568587410678,-0.00025531056586629937
0.0025815937020294308,-0.013736958551839021,-0.0062184470357633075,0.006996014356138033,-0.0002504784167383213
0.002593469730234511,-0.013737775930298478,-0.0062804716365104886,0.006994475761390818,-0.0002580752283027047
0.002588156770248028,-0.013736429659894665,-0.0062604699047966676,0.007000509937665058,-0.00026550375606661106
0.002572650620061233,-0.013733208227142678,-0.0062071239400455095,0.007005197843535484,-0.00021364830497681755
0.002585776756498427,-0.013733328429857306,-0.006169332206566993,0.0070041160191038464,-0.0001943197084649056
0.0025946957979236995,-0.01373436217320309,-0.006185487451412772,0.0070035630866165655,-0.00021831217030431868
0.0025944313519515217,-0.013736405619351737,-0.006179886004911185,0.007001856208068873,-0.00023129406348396103
0.0025875557566748964,-0.01373852118712916,-0.006163778841151258,0.0069937305045601325,-0.00017467858489496528
0.002584598769895089,-0.013735371876005951,-0.0061648366250399685,0.00696192486627001,-0.00018136185582818854
0.00259657096027187,-0.013733448632571931,-0.006174813450353953,0.0069226907002159785,-0.00021864873790527242
0.0025992635010795,-0.01373705471401072,-0.006180991869885747,0.006943774256361436,-0.00020761412870257638
0.002567433822246451,-0.013738328862785759,-0.006179068626451726,0.006985532679422619,-0.00017953477456586852
0.0025577695239904948,-0.013736982592381946,-0.006184069059380181,0.00701801145291465,-0.00015789828593313132
0.002545821374156639,-0.013736790268038543,-0.006188925249051084,0.007033301238215117,-0.00017304382797604737
0.0025536105100644247,-0.013738449065500386,-0.006193589114378585,0.00703856611711575,-0.00016525469206826192
0.0025818821885445343,-0.013737583605955077,-0.006199983898796706,0.007025560183393182,-0.00013251147260405293
0.002589551121737693,-0.01373568440306398,-0.00620503241281101,0.0070149823445060655,-0.00010539374018435559
0.002593710135663764,-0.013738400984414536,-0.006198998236536769,0.0070166651825108355,-0.00012801589107702864
0.0026048889881240115,-0.013738016335727729,-0.006214384184008938,0.007021906020868542,-0.00013392986463664348
0.002610586596797299,-0.013737030673467794,-0.0062341695508364315,0.007016929628483013,-0.00011563501147051787
0.002608206583047698,-0.01374239171454013,-0.006250469038939759,0.0070109435332946215,-0.00011529844386956421
0.0026023887716597844,-0.013738136538442358,-0.006239386348651213,0.007007746141085562,-8.96712251112332e-05
0.002599960676824333,-0.013732150443253969,-0.0062097203186814364,0.00700115903232404,-0.00012383283660803276
0.0026064997045000047,-0.01373443429483187,-0.006211018507999401,0.0069946200046483685,0.0003425536961420809
0.002605297677353741,-0.013737174916725345,-0.0061963297362720654,0.006992865045014824,0.0003076708683575235
0.0026033984744626448,-0.013736093092293709,-0.006200200263683032,0.006996471126453614,0.00030110780013892647
0.002600898257998418,-0.0137375114843263,-0.0062223416037172,0.0070007984241801605,0.00036459887400454766
0.00259880673076392,-0.013739867457532976,-0.006213903373150432,0.006997913559029129,0.0003436836016595684
0.0025961382304992148,-0.013737319159982898,-0.006202964926119438,0.0069934179775021045,0.00032291257257214065
0.0026015473526574003,-0.01373517955166255,-0.006185198964897668,0.007010366560264415,0.00033745710104192504
0.0026162842054705863,-0.013741189687393868,-0.006207700913075715,0.006998851140203215,0.0003618342115681424
0.0026075094073028647,-0.013741141606308016,-0.006222461806431826,0.006960314149894018,0.0003822686730546165
0.0025817379452869826,-0.013740684835992436,-0.006198637628392891,0.0069600497039218395,0.0003739025641166247
0.002575703769012741,-0.013744411120145851,-0.0061949353847824,0.006993586261302582,0.0003558961974656022
0.0025813773371431035,-0.013743064849742036,-0.0061970269120168965,0.007024261994075218,0.00039856816115794514
0.002572722741690009,-0.013741333930651415,-0.006201065723228342,0.00704618696922306,0.0004492937067302513
0.0025822668372313387,-0.013734169848859688,-0.006203902507293523,0.007063808687187276,0.0004755219390617139
0.002594383270865671,-0.013736790268038543,-0.0062041669532657,0.007088113676084719,0.0004525151394822367
0.002595441054754383,-0.0137328476189988,-0.006192891938633752,0.007101432136865314,0.00045576061277714715
0.0026022445284022326,-0.01373614117337956,-0.006185944221728352,0.007098523231171356,0.00046809341129780733
0.0026097451777949148,-0.013740444430563185,-0.006184357545895284,0.007093330473899501,0.0004484763282707923
0.00261570723244038,-0.013733112064970977,-0.006180655302284794,0.007086046189393146,0.0004369849487525163
0.0026126781240317968,-0.013723279482914543,-0.0061749817341544295,0.00706856871468648,0.0004561452614639514
0.0026115722590572352,-0.01373020315927702,-0.006197195195817374,0.007050321942606205,0.0005044907932866565
0.0026083508263052496,-0.013730780132307227,-0.006207532629275239,0.007027723832256456,0.0004927590083391281
0.002606908393729734,-0.013728856888873205,-0.006213879332607507,0.007017362358255667,0.0004631170189122778
0.0026143369214936397,-0.013728616483443954,-0.006227510320446132,0.007020583791007652,0.0004842005750577341
0.002618808462477739,-0.013728880929416131,-0.006249771863194926,0.007018107615086351,0.0005245406060863263
0.002616115921670109,-0.01373116478099403,-0.006236309159156779,0.00700572673547984,0.0005309353905044463
0.0026059708125556486,-0.013734290051574316,-0.0062195529007378686,0.00699901942400369,0.0005027598741960376
0.002584069877950733,-0.013731621551309612,-0.006198517425678264,0.006989884017692093,0.0004894414134154416
0.0025743334580660016,-0.013729962753847769,-0.006183083397120245,0.00697106027258161,0.0005368734046069866
0.002561784294659013,-0.013732006199996415,-0.006180438937398466,0.006979041732832798,0.0005602167717874175
0.0025502448340548873,-0.013732655294655395,-0.006186857762359511,0.007001134991781115,0.0005500716626729564
0.0025763288231287983,-0.013737751889755552,-0.0061836603701504525,0.007020896318065681,0.0005379071479527729
0.00262616486861287,-0.013731861956738863,-0.0061833959241782725,0.007024742804933724,0.0005572357444646849
0.0026283285174761428,-0.013726068185893876,-0.006185872100099576,0.006999716599748524,0.0005679337860664273
0.002621549084371219,-0.01373015507819117,-0.006192459208861098,0.006986614503854256,0.0005487494328120669
0.002610658718426075,-0.013730443564706271,-0.006200440669112285,0.006992143828727065,0.0005416093915632633
0.002599551987594603,-0.013728760726701504,-0.00622467353638095,0.00699298524772945,0.0005887048151538549
0.002596691162986496,-0.013726164348065577,-0.006241069186655982,0.0069966634507970145,0.0006549605514558814
0.0026093845696510357,-0.01372986659167607,-0.006230202861253762,0.007001591762096695,0.0005969747619201456
0.0026139041917209852,-0.013726885564353334,-0.006244699308637696,0.007006760478825626,0.0005732227055099851
0.0026099855832241677,-0.013728616483443954,-0.00621097042691355,0.00701902115571751,0.0006067592628907279
0.002607389204588239,-0.013732511051397844,-0.006171495855430267,0.007010486762979043,0.000636689738832681
0.0025987346091351443,-0.01372301503694237,-0.006164812584497044,0.007001014789066488,0.0006308959679876926
0.002598374000991265,-0.01372736637521184,-0.006176592450530423,0.007001375397210367,0.0006208951021307827
0.0026095768939944377,-0.013730948416107705,-0.0061793571129668285,0.0069980337617437565,0.0006171207368915165
0.002615851475697932,-0.013728808807787356,-0.00618813191113455,0.00699983680246315,0.0006523641728199528
0.0025978931901327602,-0.013729001132130757,-0.006195127709125802,0.006996326883196062,0.0006581579436649414
0.0025638277408076607,-0.013732414889226144,-0.006185775937927874,0.006989379166290661,0.0006257032107158355
0.0025887337432782343,-0.013731357105337431,-0.006188396357106728,0.006975002921621353,0.0006628218089924426
0.002607629610017492,-0.013733424592029008,-0.006189790708596394,0.006959208284919457,0.0006712840801021354
0.002592195581459472,-0.013729217497017086,-0.0061880117084199245,0.006964545285448864,0.0006817176757316997
0.0026056102044117696,-0.013728640523986878,-0.00619260345211865,0.006980508205951239,0.0006488302130099392
0.0026024608932885603,-0.01373142922696621,-0.006205465142583665,0.00700298611358636,0.0006442144287682885
0.002599455825422902,-0.013741141606308016,-0.006214552467809414,0.0070103184791785655,0.0006871027573469589
0.002608735474992054,-0.013733977524516288,-0.006239530591908764,0.007006159465252494,0.0007130905842491688
0.002614120556607313,-0.013736934511296095,-0.006258450499190946,0.00699252847741387,0.0006950361365122957
0.002611716502314786,-0.013739218362873994,-0.006219576941280796,0.006997216383284296,0.0006737362154805122
0.002605009190838638,-0.013736381578808814,-0.006211379116143279,0.007001760045897172,0.0006919108659320115
0.002595729541269486,-0.013733929443430435,-0.0061912571817148345,0.006983921963046626,0.0007252550989693522
0.002600153001167735,-0.01373614117337956,-0.006199599250109901,0.006976637678540272,0.0007462905740289578
0.00260474474486646,-0.0137395068493891,-0.00621914421150814,0.006986326017339152,0.0007125136112189624
0.002608543150648652,-0.013732174483796893,-0.006191377384429461,0.006999548315948047,0.0007456174388270504
0.002609937502138317,-0.013735419957091802,-0.0061903676816266,0.006993466058587956,0.0007783846988341847
0.0025939745816359423,-0.013736093092293709,-0.006182410261918338,0.006978945570661097,0.0007636238054780729
0.0025825312832035165,-0.013736982592381946,-0.006176592450530423,0.006966684893769211,0.0007330923159629878
0.0025928446761184537,-0.013737343200525824,-0.0061948151820677725,0.00696654065051166,0.0007565799264009705
0.002592556189603351,-0.013736333497722963,-0.006182770870062217,0.006969665921091946,0.0007976171331743956
0.002601643514829101,-0.013734338132660166,-0.006180991869885747,0.006971420880725489,0.0007640324947078023
0.002608951839878381,-0.013732462970311995,-0.0061762558829294685,0.00698110921952437,0.0007477089660615483
0.002616428448728138,-0.01373380924071581,-0.006159547705596412,0.006987816531000519,0.0007493677635233915
0.0026272707335874322,-0.013735564200349354,-0.006151662407516925,0.006990773517780326,0.0008064400124279674
0.0026204913004825073,-0.013736886430210244,-0.006150676745256989,0.00698973977443454,0.0008110798372125431
0.0026091922453076338,-0.013730900335021851,-0.0061590428541949795,0.00697781566514361,0.0007472041146601178
0.0025912339597424622,-0.013731092659365255,-0.006165461679156025,0.0069687042993749355,0.0007598734807817317
0.00259657096027187,-0.013733424592029008,-0.006174044152980346,0.0069682234885164295,0.0007804521855257575
0.002605994853098574,-0.013729289618645859,-0.0061850547216401154,0.006974906759449652,0.0007867748483151016
0.0026100577048529428,-0.013730082956562395,-0.00619260345211865,0.007004885316477456,0.0007906453757260688
0.0026099855832241677,-0.01373727107889705,-0.006207484548189386,0.0070050776408208575,0.0007977373358890219
0.0026108991238553273,-0.013725803739921695,-0.0062081576833912955,0.006983849841417851,0.0008420921375861331
0.0026200345301669275,-0.01372253422608386,-0.006231356807314175,0.00697420958370482,0.0008622861936433546
0.002619289273336244,-0.01372974638896144,-0.006258234134304619,0.006953462595160317,0.0008350001774231803
0.0026055140422400684,-0.013729049213216608,-0.006218615319563785,0.0069503854056658845,0.000828220744318256
0.0025884933378489817,-0.013728616483443954,-0.0061718324230312215,0.006969233191319289,0.0008811580198396867
0.002589022229793337,-0.01372777506444157,-0.0061691398822235925,0.006992504436870945,0.0008869277501417499
0.0026091922453076338,-0.013728472240186402,-0.006171543936516118,0.007009260695289853,0.0008967603321981824
0.0026159235973267077,-0.013728520321272251,-0.006170774639142509,0.007022699358785076,0.0008920003046989802
0.002611836705029413,-0.013731236902622807,-0.006165605922413578,0.007037604495398739,0.0009132521446449133
0.0026117405428577123,-0.013730058916019468,-0.006148873704537594,0.0070341666977604255,0.0009114010228396679
0.0025920272976589953,-0.013727606780641092,-0.006145532069070983,0.0070179152907429475,0.0008905578721234644
0.0025951044871534287,-0.013728159713128373,-0.006150676745256989,0.0070097655466912845,0.0008707244242101222
0.002600441487682838,-0.013730804172850152,-0.006157648502705316,0.00700760189782801,0.0008901972639795855
0.002601715636457877,-0.013733689038001184,-0.00616721663878957,0.007003274600101464,0.0009121943607562018
0.002615562989182829,-0.01373097245665063,-0.006173010409634559,0.006995605666908304,0.0009157283205662156
0.002616885219043718,-0.013727582740098169,-0.00617579911261389,0.006997216383284296,0.0009425575664708097
0.002612557921317171,-0.0137260922264368,-0.006177866599305462,0.0070020004513264246,0.0008996932784350646
0.002616212083841811,-0.01373578056523568,-0.0061822900592037105,0.007004524708333577,0.0009053428060225017
0.0026164524892710638,-0.013735347835463029,-0.006189309897737888,0.007000533978207983,0.0009420286745264539
0.002613735907920509,-0.013732535091940772,-0.006202844723404812,0.006994571923562518,0.0009237097808174029
0.002608543150648652,-0.013724769996575913,-0.006192074560174294,0.006990917761037878,0.0009147907393921305
0.0026061871774419763,-0.013728568402358105,-0.0061800062076258115,0.006980676489751716,0.0009593138248897183
0.002601956041887129,-0.013732006199996415,-0.006220634725169506,0.0069762289893105425,0.0009783298943436018
0.002600898257998418,-0.013732318727054443,-0.006221355941457264,0.006982719935900362,0.0009438076747029236
0.002623712733234493,-0.013727318294125991,-0.006205633426384142,0.006988249260773172,0.0009421488772410804
0.002631790355657381,-0.013723952618116451,-0.00617899650482295,0.00699202362601244,0.0009906867334071874
0.002628136193132741,-0.013725491212863669,-0.006169740895796722,0.006985773084851871,0.0010406429816058852
0.0026106346778831486,-0.013725298888520266,-0.006173058490720409,0.006959280406548231,0.0009917685578388245
0.002575631647383966,-0.013728616483443954,-0.006177505991161583,0.006963078812330423,0.0009959756528507458
0.002587699999932448,-0.013730539726877973,-0.006166831990102767,0.006983633476531523,0.0010273245208252892
0.0026145532863799674,-0.013726933645439185,-0.006171303531086865,0.006994980612792247,0.0010430710764413368
0.002623135760204286,-0.013732559132483696,-0.006175823153156815,0.0070022168162127505,0.001025184912504941
0.0026225828277170057,-0.013735972889579085,-0.006185415329783996,0.00701212151989796,0.001012635749097953
0.002626453355127973,-0.013727558699555241,-0.0061715920176019685,0.007020415507207176,0.0010415324816941199
0.0026208519086263864,-0.013724385347889109,-0.006160509327313422,0.0070120734388121105,0.0010683136465128636
0.0026100817453958685,-0.013726404753494828,-0.006159139016366682,0.007004452586704801,0.0010510765772354495
0.0026039273664070013,-0.013729121334845384,-0.006162889341063023,0.007003466924444865,0.0010305699941201998
0.0026027734203465888,-0.013730082956562395,-0.006163658638436632,0.0069932737342445535,0.0010490571716297273
0.002610033664310018,-0.013731645591852536,-0.0061704621120844795,0.00699288908555775,0.001056581861565335
0.002614577326922893,-0.013732198524339816,-0.006200344506940584,0.0070035630866165655,0.0010287188723149543
0.00261707754338712,-0.013729049213216608,-0.0061948151820677725,0.0070094530196332565,0.0010360031568213094
0.0026055380827829933,-0.013733448632571931,-0.006191305262800685,0.0070008705458089356,0.0010706936602624649
0.0025987586496780696,-0.01373193407836764,-0.006183996937751405,0.006992312112527543,0.0011137502726416117
0.002611067407655805,-0.013729554064618038,-0.006173947990808643,0.006991013923209579,0.0011040138527568801
0.002618880584106515,-0.013727029807610886,-0.006167264719875421,0.006990052301492568,0.0010755738904762932
0.002610706799511925,-0.013726284550780204,-0.0061428154877204285,0.00697745505699973,0.0010697560790883793
0.002614024394435612,-0.013727895267156195,-0.0061493545153961,0.006987215517427387,0.0011143512862147435
0.0026014031093998485,-0.013726981726525036,-0.006157600421619465,0.006996831734597493,0.0011227895167815107
0.002584502607723388,-0.013725346969606115,-0.006157768705419942,0.0069992838699758685,0.001109302772200438
0.002599071176736098,-0.013727654861726942,-0.006192507289946947,0.006991206247552981,0.0011106009615184024
0.0026185920975914123,-0.013734097727230913,-0.006179789842739485,0.0069598092984925865,0.0011305305716034456
0.002609817299423691,-0.01373517955166255,-0.006154066461809452,0.00694141828315476,0.0011395457752004198
0.0025965228791860195,-0.013727125969782587,-0.006137406365562243,0.0069438704185331365,0.0011283428821972472
0.0026093845696510357,-0.013721404320566377,-0.0061427433660916535,0.006973608570131689,0.0011280303551392185
0.0026217654492575464,-0.01372238998282631,-0.006151349880458896,0.007014237087675383,0.0011739958732123225
0.00262616486861287,-0.013725322929063193,-0.006156999408046334,0.007026617967281893,0.0011839005768975311
0.0026168130974149424,-0.013724457469517884,-0.006162120043689414,0.007028925859402718,0.0011570713309929368
0.0026220539357726487,-0.01372772698335572,-0.006167024314446168,0.00702212238575487,0.0011344491801002635
0.002612221353716217,-0.013726933645439185,-0.006173779707008167,0.007011929195554558,0.0011530565603244177
0.002607749812732118,-0.013726164348065577,-0.006179717721110708,0.007002649545985406,0.0011715677783768704
0.002615442786468202,-0.013727486577926466,-0.0061835161268929,0.007000461856579207,0.0011707744404603373
0.002632920261174869,-0.013729409821360486,-0.006211859927001785,0.006996903856226268,0.0011394736535716439
0.0026611919396549786,-0.0137305637674209,-0.006194767100981923,0.006992672720671422,0.0011703417106876824
0.0026423201134586466,-0.01372924153756001,-0.0061559656647005466,0.006991783220583187,0.0012267408243903507
0.002605369798982517,-0.013725539293949521,-0.0061638990438658845,0.006991182207010054,0.0012286159867385216
0.0025968834873298986,-0.013724914239833463,-0.006141733663288791,0.006985292273993366,0.0011993586459984756
0.0025969556089586745,-0.013725972023722176,-0.006127525702419961,0.0069803399221507615,0.0012284717434809698
0.002616308246013512,-0.013730876294478929,-0.006144137717581317,0.006973031597101482,0.0012799185053410337
0.002630371963624791,-0.01373147730805206,-0.006155989705243473,0.006979474462605453,0.0012806637621717168
0.0026358772479546763,-0.013727414456297693,-0.006139906582026471,0.00697882536794647,0.0012601331385135414
0.0026309970177408482,-0.013726380712951904,-0.006141565379488315,0.0069731998809019575,0.0012568155435898553
0.0026324634908592892,-0.013720827347536168,-0.006150893110143317,0.006980460124865388,0.001312685765348168
0.00262621294969872,-0.013716788536324723,-0.0061517826102315525,0.007087777108483765,0.0012639315442957335
0.0026179430029324297,-0.013715658630807237,-0.006150917150686242,0.0070987876771435345,0.0012276543650215107
0.002613519543034181,-0.01371558650917846,-0.006149378555939025,0.007087079932738931,0.0012576569625922394
0.002607581528931641,-0.013715418225377984,-0.006167408963132973,0.007059986240862159,0.001302997426549287
0.002610033664310018,-0.013712821846742057,-0.006195632560527233,0.0070358495357651955,0.0013125655626335414
0.0026242897062646988,-0.01371371134683029,-0.0062071239400455095,0.007021353088381261,0.0012659990309873065
0.0026306123690540435,-0.013711331333080688,-0.006196546101158392,0.007011688790125305,0.0012388332174817582
0.002619625840937198,-0.013714432563118049,-0.006155629097099593,0.007008323114115768,0.0012842217625246555
0.002607100718073136,-0.013713350738686413,-0.00613661302764571,0.007001519640467919,0.0013251387665834547
0.002620539381568358,-0.013708614751730134,-0.0061488977450805185,0.006978584962517217,0.0013013386290874438
0.002640685356539729,-0.01371178810339627,-0.006153152921178291,0.006940721107409926,0.0013097768596542112
0.002648426411361664,-0.013712509319684029,-0.006152696150862711,0.006952452892357457,0.0013404285518839225
0.0026510949116263683,-0.013713470941401035,-0.006142118311975596,0.006981445787125324,0.0013260763477575398
0.002634146328864057,-0.013711812143939194,-0.006137214041218842,0.007019862574719895,0.0013298987940826568
0.0026400603024236717,-0.0137122929547977,-0.006130963500058272,0.007018732669202408,0.0013411257276287546
0.0026319826800007837,-0.013715033576691179,-0.006140579717228378,0.0070022408567556775,0.001367498203217769
0.0026229434358608843,-0.013717101063382751,-0.006158682246051103,0.006995341220936126,0.001390288637910919
0.0026143369214936397,-0.01371681257686765,-0.006158009110849193,0.007004043897475071,0.0013647095002384385
0.0026047928259523108,-0.013717942482385136,-0.006161278624687031,0.007008755843888423,0.0013393707679952107
0.0026121732726303664,-0.013712028508825521,-0.006171399693258565,0.007008250992486993,0.0013563914723862974
0.002624097381921297,-0.013706378981238086,-0.0061638269222371094,0.006992215950355842,0.0013934619895770535
0.00264027666731,-0.013710850522222184,-0.006158802448765728,0.006977983948944086,0.0014014434498282411
0.0026327760179173172,-0.013710129305934423,-0.006161206503058255,0.006980989016809744,0.0013727630821184019
0.002607293042416538,-0.013707581008384349,-0.006184573910781611,0.006984138327932953,0.001353915296464995
0.002611019326569954,-0.01370717231915462,-0.006158850529851579,0.006980556287037089,0.00138353324534892
0.0026140724755214623,-0.013708206062500405,-0.006143440541836485,0.006988056936429772,0.0013801916098823085
0.002636382099356107,-0.013704215332374809,-0.006133535838151277,0.006993778585645985,0.001355838539899016
0.0026670818726716684,-0.013705128873005972,-0.006153225042807067,0.006991013923209579,0.0013634353514633995
0.0026670097510428925,-0.01370640302178101,-0.006182626626804665,0.0069903407880076715,0.0014004577875683054
0.0026353483560103198,-0.013702484413284192,-0.006172938288005783,0.006986157733538676,0.0014126223022884886
0.002615875516240857,-0.013701162183423302,-0.006116106444530461,0.006972094015927396,0.0013979816116470034
0.002622727070974557,-0.013703325832286577,-0.006091633171832543,0.006976854043426599,0.0014042321528075718
0.0026436904244053865,-0.013703542197172904,-0.006099422307740328,0.006988080976972697,0.0014723630514577688
0.002651431479227322,-0.01370685979209659,-0.0061154573498714785,0.006990749477237401,0.0015112366093679198
0.0026273188146732824,-0.013708398386843807,-0.006132237648833311,0.0069889223959750816,0.0014283448173616113
0.002631381666427652,-0.013706066454180056,-0.0061400267847410974,0.006984042165761252,0.0014419036835714599
0.0026392188834212875,-0.013705777967664954,-0.006144522366268122,0.006978873449032321,0.001483229376859988
0.002627967909332265,-0.013701114102337451,-0.006150989272315018,0.0069699784481499745,0.0015026300950006755
0.0026277034633600863,-0.013703446035001204,-0.006155244448412789,0.006972214218642023,0.0014787578358758892
0.002629193977021453,-0.01370279694034222,-0.006154234745609928,0.006981734273640427,0.0014459184542399788
0.002629530544622407,-0.013697868629042542,-0.006154955961897686,0.006996807694054567,0.0014791905656485436
0.002627775584988862,-0.013703926845859709,-0.0061936371954644355,0.00699796164011498,0.0014939514590046556
0.0026275111390166844,-0.013706691508296114,-0.006228231536733891,0.0069746423134774745,0.0014720505243997403
0.0026242897062646988,-0.013702508453827115,-0.006206018075070947,0.0069555300818518895,0.001456231847154917
0.0026247224360373537,-0.0137031575484861,-0.0061792849913380535,0.006943125161702454,0.001493446607603225
0.002637319680530192,-0.013706330900152237,-0.006134521500411212,0.006950649851638062,0.0014848160526930556
0.0026311893420842497,-0.013706619386667337,-0.006100287767285636,0.006967622474943298,0.0014874124313289838
0.0026181112867329067,-0.013705176954091822,-0.006104879510984363,0.0069965192075394644,0.0014710648621398047
0.0026261167875270192,-0.013705008670291344,-0.006120529904428709,0.007003466924444865,0.001478685714247113
0.002644339519064369,-0.013705321197349372,-0.006152984637377815,0.006994740207362994,0.00152078070490925
0.0026803762929093395,-0.013706282819066384,-0.006178443572335668,0.006984979746935338,0.0015342674494903225
0.002671769778542095,-0.013702532494370043,-0.006170942922942986,0.006975555854108634,0.001533209665601611
0.002641911424228917,-0.013704624021604541,-0.006162168124775265,0.006964689528706415,0.0015612168981095432
0.0026062592990707518,-0.01370366239988753,-0.006123438810122665,0.006966180042367782,0.0015826129813130275
0.0026135435835771066,-0.013705369278435223,-0.006101994645833332,0.006953486635703243,0.0015432345720014454
0.002621068273512714,-0.013705970292008356,-0.006105167997499466,0.006936802498913108,0.0015071737576135506
0.002625852341554841,-0.013705369278435223,-0.006112716727977999,0.006958583230803399,0.0014878211205587135
0.0026272707335874322,-0.013704383616175287,-0.006120145255741905,0.0069774790975426545,0.001503952324861565
0.002622919395317959,-0.013705753927122028,-0.006129376824225206,0.0069730556376444075,0.0015275120569283234
0.0026208519086263864,-0.013705585643321552,-0.00612245314786273,0.006962862447444096,0.0015076305279291306
0.0026323432881446623,-0.013702772899799296,-0.006124376391296751,0.006961131528353476,0.0015165014882685527
0.002642704762145451,-0.013702917143056846,-0.006140772041571782,0.006962598001471918,0.001554918275863124
0.0026464310462988674,-0.013710778400593407,-0.006139618095511368,0.0069804360843224635,0.001593575468886948
0.0026331847071470464,-0.01370777333272775,-0.006173178693435036,0.007010486762979043,0.0016051389700339994
0.0026151302594101733,-0.01370539331897815,-0.0062109944674564755,0.007023156129100656,0.001580184886477576
0.002613062772718601,-0.013709504251818369,-0.006174597085467626,0.007012698492928167,0.0016068458485816936
0.002612485799688395,-0.013700585210393095,-0.0061459647988436365,0.0069816861925545756,0.0016658653814632155
0.002638425545504754,-0.013704624021604541,-0.006126660242874651,0.006968944704804187,0.0016573069481818216
0.0026701350216231765,-0.013706643427210265,-0.006107403767991515,0.006977599300257282,0.001597590239555467
0.0026642210480635623,-0.013707749292184823,-0.006092979442236357,0.006982359327756485,0.001632352864625398
0.002657297371701086,-0.013706210697437608,-0.006115721795843657,0.006984522976619757,0.0016512006502788046
0.0026584993988473487,-0.013701474710481332,-0.006119520201625848,0.006988297341859024,0.0016440606090300015
0.0026290497337639013,-0.013705681805493251,-0.0061180777690503325,0.006982840138614989,0.0016394929058742016
0.0026200585707098533,-0.013708807076073536,-0.006123534972294367,0.006981229422238997,0.0016695916656166315
0.002630155598738463,-0.013713687306287364,-0.006129833594540786,0.006970940069866985,0.0016935841274560446
0.0026347233018942638,-0.01371265356294158,-0.006140146987455724,0.006963126893416272,0.001678486666498979
0.002630828733940371,-0.0137055375622357,-0.006147142785446975,0.006964689528706415,0.00163665612180902
0.0026209961518839377,-0.013707701211098973,-0.006146421569159217,0.006971444921268414,0.001655167339861473
0.002621404841113668,-0.013704768264862091,-0.0061425750822911756,0.0069878886526292955,0.0016971180872660582
0.0026346752208084127,-0.013705585643321552,-0.0061343291760678105,0.006986662584940106,0.0016716351117652788
0.0026381130184467256,-0.013708807076073536,-0.006141925987632193,0.006978200313830413,0.0016498543798749898
0.002640132424052448,-0.013710393751906604,-0.0061876030191901936,0.006972863313301005,0.0016493976095594098
0.0026387861536486326,-0.013704599981061615,-0.006191209100628985,0.0069617806230124575,0.0016855065050331555
0.0026361897750127048,-0.013706427062323936,-0.0061603170029700186,0.006982070841241381,0.0016982720333264707
0.002627919828246414,-0.013705152913548894,-0.006153657772579721,0.0070080827086865145,0.0016572829076388965
0.002628665085077097,-0.013708061819242851,-0.006149546839739502,0.007017987412371724,0.0016529075288264983
0.002639242923964213,-0.013708542630101359,-0.006143224176950158,0.006999884883549001,0.0017050033853455446
0.0026574175744157125,-0.013708157981414554,-0.0061168036202752935,0.00698933108520481,0.0017349098207445725
0.002665567318467377,-0.01370777333272775,-0.006142599122834101,0.006993369896416255,0.001716278399977493
0.002663043061460224,-0.013706811711010741,-0.006145820555586086,0.0069947161668200706,0.0017231299547111932
0.0026333289504045982,-0.013708783035530612,-0.0061140149172959615,0.006984571057705608,0.0017070227909512664
0.002625828301011916,-0.013709744657247622,-0.006100119483485161,0.006978609003060143,0.0017377225642668285
0.0026438346676629387,-0.013709384049103743,-0.006107716295049544,0.0069624297176714405,0.0017247406710871858
0.0026426807216025252,-0.01370589817037958,-0.006108725997852405,0.00695822262265952,0.001707046831494192
0.0026342424910357587,-0.013706042413637131,-0.006113510065894532,0.006959352528177007,0.001722456819509286
0.002643930829834639,-0.013714192157688796,-0.006119327877282446,0.0069627662852723956,0.0017425306728518811
0.002630396004167716,-0.013711860225025043,-0.006124472553468452,0.00697928213826205,0.0017476513084949622
0.0026334731936621496,-0.013704696143233316,-0.006124256188582125,0.006999668518662672,0.0017340924422851133
0.0026483062086470376,-0.013700729453650648,-0.0061309154189724225,0.006998779018574439,0.001770970635132468
0.0026429211270317787,-0.013702412291655416,-0.006152624029233935,0.007000413775493357,0.0018011895975895238
0.002643810627120013,-0.013704407656718213,-0.0061578648675916425,0.007003010154129285,0.0018081373144949247
0.002648113884303636,-0.013704311494546512,-0.006170654436427883,0.0069946921262771435,0.00176522494537333
0.002647344586930027,-0.013703277751200726,-0.006177169423560629,0.0069831286251300926,0.0017374340777517256
0.002646166600326689,-0.01370508079192012,-0.0061720728284604745,0.0069776473813431324,0.0017827745417087722
0.0026478734788743827,-0.013700993899622826,-0.006132117446118686,0.0069771906110275535,0.001798617259496521
0.0026534989659188946,-0.013708566670644285,-0.006110432876400097,0.0069775031380855815,0.00177618743294725
0.002656215547269449,-0.013711667900681642,-0.0061224291073198045,0.006968968745347112,0.0017549115524583918
0.0026390746401637358,-0.013711619819595792,-0.006116130485073386,0.006952500973443307,0.001816094734203188
0.0026284487201907697,-0.013710369711363678,-0.006117212309505023,0.006944134864505316,0.0018436211558526144
0.0026188325030206644,-0.013711451535795316,-0.006097691388649709,0.006948293878431386,0.0018293410733550078
0.002623905057577895,-0.01371234103588355,-0.006099806956427132,0.006948822770375742,0.001837370614692046
0.0026341944099499076,-0.013715826914607713,-0.006113894714581337,0.006985797125394796,0.0018749940643700835
0.002647921559960233,-0.013712509319684029,-0.0061299537972554115,0.007020487628835953,0.001859079224953559
0.0026421277891152447,-0.013708686873358909,-0.006138872838680685,0.007014741939076813,0.001806310233232605
0.002660398601738445,-0.01370777333272775,-0.006119207674567821,0.007012770614556942,0.0018367696011189144
0.0026793665901064783,-0.013704359575632362,-0.00611651513376019,0.007015270831021169,0.001877590443006012
0.002658018587988844,-0.013707220400240468,-0.006119375958368296,0.007020511669378877,0.0018926157823343016
0.002643810627120013,-0.013706835751553664,-0.006117645039277677,0.0070180835745434255,0.0018586464951809048
0.002643810627120013,-0.013705826048750805,-0.0061415413389453895,0.0070109435332946215,0.001820518194101436
0.002635829166868825,-0.013708975359874013,-0.006161639232830909,0.00700659219502515,0.0018467704669758239
0.0026444837623219204,-0.013710441832992457,-0.006160605489485123,0.006999981045720702,0.0018727823344209594
0.002658210912332246,-0.013704936548662571,-0.0061478880422776595,0.006993970909989386,0.0018529969675934671
0.002658884047534153,-0.013699839953562413,-0.006142142352518521,0.006989379166290661,0.0018405680069011059
0.002652489263116033,-0.013702219967312015,-0.006150628664171138,0.006988850274346305,0.0018715081856459199
0.002648859141134318,-0.013704047048574334,-0.006147311069247452,0.0069874078417707895,0.0018650412795990247
0.0026493399519928237,-0.013706475143409785,-0.006126299634730772,0.006985797125394796,0.001878672267437649
0.0026482821681041123,-0.01370813394087163,-0.006120986674744289,0.0069774790975426545,0.0018882404035219038
0.0026449405326375,-0.013708903238245236,-0.006117645039277677,0.006975796259537887,0.0019063188918017017
0.002649267830364048,-0.013706979994811215,-0.0061266121617888,0.006970940069866985,0.0019253590017985105
0.002661985277571513,-0.01370589817037958,-0.006120337580085307,0.006967141664084792,0.0019238684881371442
0.0026491957087352727,-0.013705441400064,-0.006111562781917586,0.006965458826080025,0.0018848506869694414
0.0026421518296581696,-0.01370416725128896,-0.006103629402752249,0.006962357596042665,0.0018800185378414637
0.002656744439213805,-0.013705970292008356,-0.006106105578673552,0.006976589597454421,0.0019194450282388961
0.0026518642089999765,-0.013702508453827115,-0.006111634903546361,0.007012049398269184,0.0019402881789550995
0.002645565586753557,-0.013699022575102957,-0.006118005647421557,0.007041426941723856,0.001945913665999611
0.002644555883950696,-0.013702075724054463,-0.00612062606660041,0.007059144821859776,0.0019130983249066266
0.0026421518296581696,-0.013700128440077515,-0.0061198327286838775,0.0070754202694201795,0.0019499043961252046
0.0026380408968179497,-0.013704359575632362,-0.0061286075268515965,0.007047388996369322,0.001969882087296099
0.002640637275453878,-0.013707124238068769,-0.006143584785094036,0.007014814060705589,0.001948846612236493
0.002644724167751173,-0.013705249075720596,-0.006162841259977172,0.00701486214179144,0.0019499043961252046
0.00265489331740856,-0.013703397953915352,-0.006198252979706086,0.00702582462936536,0.001986205615942353
0.002652729668545286,-0.013705249075720596,-0.0061876991813618965,0.007024237953532292,0.0020253436198246822
0.002657706060930816,-0.013704407656718213,-0.0061313962298309285,0.007015992047308927,0.001999980847038529
0.002645709830011109,-0.013704407656718213,-0.00612519376975621,0.007015415074278721,0.0019681030871196293
0.002647969641046084,-0.013705369278435223,-0.006128920053909625,0.007009356857461554,0.0019988509415210416
0.0026476090329022053,-0.01370613857580883,-0.006098051996793588,0.007003226519015611,0.002039455418521812
0.0026217173681716962,-0.013705441400064,-0.006082906454750672,0.0069871674363415365,0.0020185641867197573
0.002632391369230513,-0.013704936548662571,-0.0060810312924025,0.006974041299904343,0.0019813975073573
0.002643450018976134,-0.013704912508119643,-0.006080117751771341,0.00697106027258161,0.0019924801976458468
0.002628977612135125,-0.01370685979209659,-0.00608723375247722,0.006966300245082407,0.0020451530271950987
0.0026352762343815443,-0.013698517723701523,-0.006094205509925546,0.006976926165055374,0.0020413546214129077
0.002638882315820334,-0.013701955521339836,-0.0060999271591417594,0.006989523409548211,0.002006135226027396
0.002661672750513484,-0.013706595346124412,-0.006107740335592469,0.006993778585645985,0.002016568821656961
0.0026712408865977393,-0.013708975359874013,-0.006116851701361144,0.00699882709966029,0.0020395034996076623
0.0026556626147821684,-0.013709456170732518,-0.006121900215375449,0.006992215950355842,0.0020527738793024077
0.0026558068580397197,-0.01370746080566972,-0.006123030120892936,0.006990124423121344,0.0020522209468151267
0.002659797588165313,-0.013711547697967015,-0.006128679648480372,0.006991663017868561,0.0020931860319597763
0.002658066669074695,-0.01370736464349802,-0.006149330474853175,0.0069876482472000425,0.0021357377929374925
0.002662994980374373,-0.013709480211275443,-0.00616036508405587,0.006986806828197658,0.002090998342553577
0.0026641729669777113,-0.013707677170556048,-0.006160701651656824,0.006984667219877309,0.0020764778546267177
0.0026581387907034697,-0.013702436332198342,-0.006157528299990689,0.006974113421533119,0.0020727996515591523
0.0026587157637336764,-0.01370092177799405,-0.006138969000852386,0.00696964188054902,0.0021051101412507068
0.002658210912332246,-0.013702917143056846,-0.006117861404164005,0.0069588476767755755,0.0021304007924080838
0.0026383053427901275,-0.013704311494546512,-0.006098532807652093,0.006953486635703243,0.0021081152091163647
0.002614457124208267,-0.013703446035001204,-0.006091248523145738,0.006963824069161106,0.002099412532577419
0.002648426411361664,-0.013707340602955096,-0.006123655175008993,0.0069670935829989405,0.002119991237321445
0.0026736449408902656,-0.01370640302178101,-0.006137214041218842,0.006971108353667461,0.002126289859567864
0.0026708802784538603,-0.01370736464349802,-0.006111731065718063,0.006984114287390028,0.0021020569922991983
0.002655975141840197,-0.013709504251818369,-0.006107548011249068,0.006992047666555365,0.0020862623555973
0.002651022789997593,-0.013704095129660185,-0.006101922524204557,0.006972815232215154,0.0020795790846640768
0.0026757364681247635,-0.013704479778346991,-0.006092618834092478,0.006980171638350285,0.0021156879801378227
0.0026757124275818387,-0.01370717231915462,-0.006096321077702969,0.007001447518839143,0.0021193902237483134
0.002661672750513484,-0.01371397579280247,-0.006107187403105188,0.007005197843535484,0.0021161447504534033
0.002655566452610467,-0.013716067320036966,-0.006115024620098824,0.007003106316300986,0.0021304248329510095
0.0026565040337845525,-0.013707581008384349,-0.006125386094099612,0.006996302842653137,0.0021498976727204726
0.002659124452963406,-0.013704648062147466,-0.006130699054086096,0.006990749477237401,0.0021609803630090194
0.0026658317644395546,-0.01370279694034222,-0.006127766107849214,0.00698339307110227,0.002131867265526525
0.0026703033054236536,-0.013704287454003587,-0.006139930622569396,0.006984571057705608,0.0021559078084517885
0.0026487389384196925,-0.013705802008207878,-0.006146710055674321,0.006981662152011651,0.002214951381876236
0.0026453492218672303,-0.013710273549191977,-0.006141132649715659,0.006979811030206407,0.002234808870332504
0.002664773980550843,-0.013707532927298498,-0.006154066461809452,0.006981517908754099,0.0021685771745734023
0.00268220337417166,-0.013704648062147466,-0.006128871972823776,0.006979546584234228,0.002174851756276896
0.002686073901582627,-0.01370717231915462,-0.006104999713698989,0.00696557902879465,0.00220346000235796
0.002651768046828276,-0.013705176954091822,-0.0061026196999493885,0.006956227257596722,0.0022071382054255255
0.002622005854686799,-0.013707052116439992,-0.006100840699772918,0.006949111256890845,0.002175164283334925
0.002614024394435612,-0.013711499616881166,-0.006101249389002647,0.006942644350843949,0.002185141108648909
0.0026548692768656344,-0.013710441832992457,-0.0061009368619446185,0.006943341526588782,0.002224086788187836
0.0026918917129705408,-0.013707124238068769,-0.0061051439569565396,0.006959256366005306,0.0022333904782999127
0.0026962430512400127,-0.013707581008384349,-0.0061094231735972365,0.006983729638703224,0.002189684771261784
0.0026889106856478077,-0.01371152365742409,-0.006117212309505023,0.007014453452561711,0.0021900934604915136
0.0026841506581486057,-0.013712773765656204,-0.00611834221502251,0.007021377128924186,0.0022490168312013343
0.002686843198956235,-0.013709480211275443,-0.006124616796726004,0.0070077701816284865,0.0022442087226162816
0.0026835736851184,-0.013705609683864476,-0.006127237215904857,0.006996951937312119,0.0022155283549064424
0.002671841900170871,-0.013708398386843807,-0.006130939459515348,0.0069862058146245255,0.0022174756388833885
0.0026723707921152266,-0.013706547265038562,-0.00615209513728958,0.00698156598983995,0.0022686819953142
0.002672490994829853,-0.013710874562765108,-0.006164908746668745,0.0069746423134774745,0.0023025791608388213
0.002673524738175639,-0.013703830683688007,-0.006154955961897686,0.006969353394033917,0.002260243764747433
0.0026800878063942364,-0.01370371048097338,-0.0061505084614565135,0.006967886920915475,0.002240049708690211
0.002666120250954658,-0.013708903238245236,-0.0061298095539978606,0.006963006690701647,0.002261638116237098
0.002652296938772632,-0.013702941183599772,-0.00610463910555511,0.006961660420297833,0.00228964534874503
0.00263159803131398,-0.013705513521692777,-0.006099181902311075,0.006960169906636466,0.002298035498225947
0.0026197220031088987,-0.013705874129836652,-0.006095239253271332,0.006961131528353476,0.0022809667127490093
0.002635588761439573,-0.013707148278611692,-0.0061152890660710005,0.006956107054882097,0.002283058239983508
0.0026389544374491093,-0.013705802008207878,-0.006122909918178311,0.006962405677128515,0.002300944403919904
0.0026627064938592702,-0.013702652697084669,-0.006110601160200575,0.006985917328109423,0.0023282304201400787
0.0026789338603338234,-0.013707749292184823,-0.00610454294338341,0.00698928300411896,0.002311930932036749
0.002689367455963388,-0.013710610116792931,-0.006105985375958925,0.006995653747994155,0.0023165226757354746
0.0026879490639307967,-0.013712052549368449,-0.006103028389179118,0.006986927030912284,0.002343351921640069
0.002665567318467377,-0.01370960041399007,-0.006105720929986747,0.006974113421533119,0.0023384476508833147
0.002665326913038124,-0.013713951752259543,-0.006111923390061465,0.006992744842300198,0.002307483431595576
0.0026716976569133195,-0.013716187522751591,-0.006114087038924738,0.007006712397739776,0.002316835202793503
0.002679655076621581,-0.013719625320389905,-0.006119159593481969,0.006992865045014824,0.002354146125413512
0.002664653777836217,-0.01371262952239865,-0.006127549742962886,0.0069858932875664975,0.0023703254108022147
0.002653402803747193,-0.01370589817037958,-0.006133607959780052,0.0069834411521881214,0.0023621756667505504
0.002648859141134318,-0.013710225468106126,-0.0061298816756266365,0.006976277070396392,0.0023025551202958965
0.002648979343848945,-0.01370539331897815,-0.0061318770406894344,0.0069709881509528344,0.0023563818959055623
0.0026453492218672303,-0.013701474710481332,-0.006140291230713276,0.006957020595513256,0.0023767201952203353
0.002648522573533365,-0.013704047048574334,-0.006167481084761748,0.006965050136850295,0.0023463810300486517
0.002652537344201884,-0.013705657764950328,-0.006173755666465242,0.006972190178099098,0.002326860109193339
0.0026527537090882108,-0.01370188339971106,-0.006153802015837272,0.006969545718377318,0.002367488626737033
0.002647801357245607,-0.01370121026450915,-0.006135555243756999,0.006952549054529158,0.0023893895613419486
0.002665062467065946,-0.013700080358991666,-0.006114856336298347,0.006933172376931393,0.0023866008583626184
0.002682155293085809,-0.013703470075544129,-0.006108605795137778,0.006918219159231879,0.00235715119327917
0.0027069891739276053,-0.013704696143233316,-0.006092618834092478,0.0069532943113598394,0.002378378992682178
0.0026987673082471656,-0.013703085426857324,-0.006092811158435882,0.0069946921262771435,0.002420113375200435
0.00263854574821938,-0.013703566237715828,-0.006125698621157641,0.007005318046250111,0.002382057195749744
0.002630131558195538,-0.013706571305581486,-0.0061446185284398215,0.007004957438106231,0.002393500494182169
0.002658066669074695,-0.013703854724230932,-0.006105264159671167,0.006993634342388432,0.0024289602949969327
0.0026511429927122193,-0.013703830683688007,-0.006092642874635404,0.006982599733185737,0.002448529296938097
0.002661865074856886,-0.013703566237715828,-0.0060936525774382645,0.006972454624071276,0.0024455963507012146
0.002663836399376757,-0.013706042413637131,-0.006101297470088499,0.00697005056977875,0.002424584916184534
0.0026637883182909074,-0.013709384049103743,-0.0061109377278015286,0.006986566422768405,0.002443192296408688
0.002670327345966579,-0.013701594913195956,-0.006111226214316632,0.006980628408665865,0.0024799983676272674
0.0026700148189085504,-0.013703133507943176,-0.006113606228066233,0.006985027828021189,0.002479878164912641
0.0026643652913211136,-0.013708855157159387,-0.006118606660994688,0.006995245058764425,0.0024338405252107608
0.002651623803570724,-0.0137100091032198,-0.0061328867434922935,0.006985484598336768,0.002442663404464333
0.002650926627825891,-0.01370914364367449,-0.006136853433074962,0.006975147164878905,0.0024406920799444607
0.0026744863598926498,-0.013710393751906604,-0.006127501661877035,0.0069758203000808115,0.002469300326025525
0.002665711561724928,-0.01370613857580883,-0.006173875869179868,0.006966180042367782,0.0024758393537011964
0.0026601341557662677,-0.013706306859609307,-0.006156182029586874,0.006962165271699263,0.002474685407640784
0.0026740536301199953,-0.013703301791743651,-0.0061312279460304505,0.006971733407783518,0.0025220933582894033
0.0026889587667336587,-0.01370229208894079,-0.0061202894989994564,0.006969233191319289,0.002547840779762361
0.002672611197544479,-0.013704311494546512,-0.0061098318628269675,0.006971300678010863,0.0025153139251844797
0.0026547009930651573,-0.013704311494546512,-0.0061137264307808605,0.006967309947885269,0.0024925715715771795
0.0026683800619896323,-0.013705561602778624,-0.006110745403458127,0.006939831607321691,0.002520915371686065
0.0026802320496517877,-0.013704696143233316,-0.0060953834965288825,0.006946130229568112,0.0025329356431486967
0.0026896319019355658,-0.013704840386490868,-0.006090671550115532,0.006971132394210386,0.0025300748185405914
0.002670615832481682,-0.013702893102513922,-0.006094782482955753,0.007001615802639621,0.002492042679632824
0.002658258993418097,-0.013707076156982915,-0.00610007140239931,0.007008323114115768,0.0024802387730565195
0.002666216413126359,-0.01370589817037958,-0.00610600941650185,0.00699106200429543,0.002549980388082709
0.0026694138053354193,-0.013705200994634749,-0.006113101376664803,0.006970074610321675,0.0025426961035763546
0.0026725871570015547,-0.013704143210746035,-0.006126227513101996,0.00696512225847907,0.0025178862632774823
0.002673092008402985,-0.013704455737804063,-0.0061285354052228215,0.0069757481784520365,0.0025333683729213525
0.0026739815084912194,-0.013701835318625209,-0.00612245314786273,0.006978224354373339,0.002570727376627212
0.002664966304894245,-0.0136964021559241,-0.006123655175008993,0.006984378733362206,0.002556711740101783
0.00265078238456834,-0.01369767630469914,-0.0061094472141401636,0.006983729638703224,0.0025269255074173817
0.00263311258551827,-0.01370121026450915,-0.006120818390943812,0.0069764693947397954,0.0025255071153847913
0.0026674665213584727,-0.013703470075544129,-0.0061902234383690476,0.006979041732832798,0.0025525767667186373
0.002704272592577051,-0.013703181589029024,-0.0061763520451011715,0.006981493868211175,0.0025346665622393173
0.002704416835834603,-0.013706378981238086,-0.006111803187346838,0.006971589164525966,0.002471175488373696
0.002647056100414924,-0.013706835751553664,-0.006095527739786435,0.006957645649629313,0.0024932206662361613
0.002643618302776611,-0.013703566237715828,-0.006102836064835714,0.006948582364946489,0.002550557361112916
0.0026862181448401787,-0.01370152279156718,-0.0061244244723826025,0.006950746013809763,0.0025577695239904948
0.002673236251660536,-0.013701835318625209,-0.00610692295713301,0.006957164838770808,0.0025374312246757213
0.002681145590282948,-0.013703518156629978,-0.0060936525774382645,0.00695319814918814,0.002545412684926909
0.002695161226808376,-0.013702508453827115,-0.00609641723987467,0.006965050136850295,0.0026113318536279823
0.002695858402553209,-0.013701955521339836,-0.006100335848371489,0.0069823352872135595,0.002635372396553245
0.0026854248069236447,-0.01370589817037958,-0.006102379294520136,0.006979546584234228,0.002614096516064388
0.002672058265057198,-0.013706186656894685,-0.006105624767815046,0.0069673580289711205,0.002609504772365662
0.0026651586292376467,-0.013702941183599772,-0.0061079326599358715,0.006967165704627717,0.0026494841952503755
0.002667322278100921,-0.013700008237362891,-0.006107548011249068,0.006963006690701647,0.0026309008555691466
0.0026713610893123662,-0.013697075291126008,-0.006116346849959714,0.006964953974678593,0.0026290497337639013
0.00267768375210171,-0.013697267615469409,-0.006138247784564628,0.006969449556205618,0.002609721137251989
0.0026797512387932826,-0.01370010439953459,-0.006157215772932661,0.0069790898139186494,0.002654460587635905
0.002676409603326671,-0.013705008670291344,-0.006170173625569378,0.006976277070396392,0.002676145157354493
0.0026779722386168128,-0.0137077252516419,-0.006141853866003418,0.0069675022722286714,0.0026480177221319345
0.002682828428287716,-0.013706811711010741,-0.006110384795314248,0.006962333555499739,0.00261707754338712
0.0026779722386168128,-0.013708879197702313,-0.00608723375247722,0.006958366865917071,0.002629025693220976
0.0026901127127940713,-0.013705152913548894,-0.00609555178032936,0.006964833771963967,0.002657105047357684
0.002710547174280545,-0.013705056751377195,-0.006116827660818219,0.006970363096836778,0.002645253059695529
0.002677178900700279,-0.013708302224672106,-0.0061387766765089846,0.006966660853226287,0.002640348788938775
0.002647969641046084,-0.013707556967841424,-0.006149114109966847,0.0069682234885164295,0.0026018839202583536
0.002631501869142278,-0.013705513521692777,-0.006140459514513752,0.006953222189731064,0.0026238569764920447
0.0026608313315111,-0.01370548948114985,-0.006097306739962905,0.006933701268875749,0.00267489504912238
0.002681554279512677,-0.013707605048927271,-0.006080358157200593,0.006949279540691322,0.002661384263998381
0.0026932379833743553,-0.0137031575484861,-0.006081968873576587,0.0069764693947397954,0.002639098680706661
0.0026810253875683213,-0.013704624021604541,-0.0060881713336513035,0.006992047666555365,0.002686578752984057
0.002667250156472145,-0.013700200561706292,-0.006096056631730791,0.007002841870328807,0.002703070565430788
0.0026646297372932915,-0.013702869061970996,-0.006102547578320612,0.006997528910342325,0.002665326913038124
0.0026716976569133195,-0.013700801575279423,-0.0061107934845439785,0.006991446652982234,0.002671000481168487
0.0026802320496517877,-0.013700489048221395,-0.006093171766579759,0.006983946003589551,0.002704464916920453
0.002687035523299637,-0.013700657332021872,-0.006098100077879439,0.0069742576647906715,0.0027351166091501644
0.0026968440648131448,-0.013701955521339836,-0.006141036487543958,0.00696557902879465,0.0026873480503576646
0.0027123502149999394,-0.013702364210569563,-0.006140555676685453,0.006970459259008479,0.002647921559960233
0.002695257388980077,-0.013702604615998818,-0.0061432722580360075,0.006976878083969525,0.0027043206736629016
0.0026596293043648364,-0.013703878764773858,-0.0061400267847410974,0.006973873016103866,0.0027221827970563732
0.00267128896768359,-0.013700176521163369,-0.0061806312617418676,0.006968391772316907,0.0027109077824244237
0.0026820831714570326,-0.013702051683511535,-0.006145652271785609,0.006957525446914687,0.002703455214117592
0.0026827563066589405,-0.013698686007502,-0.006096297037160044,0.0069352879447088156,0.00273518873077894
0.0026997048894212513,-0.013697652264156214,-0.006089878212199,0.006925864051882114,0.0027556712733512647
0.00268818946936005,-0.013699335102160985,-0.006104711227183886,0.006930912565896418,0.002752762367657308
0.002670183102709027,-0.01370229208894079,-0.006096729766932697,0.0069388459450617545,0.002735717622723296
0.002675544143781361,-0.013700008237362891,-0.006090310941971653,0.006978032030029936,0.002759085030446652
0.002680448414538115,-0.013698878331845405,-0.00610413425415368,0.007016016087851853,0.00278903954693153
0.002671409170398216,-0.013698325399358122,-0.006106995078761786,0.007051187402151514,0.002732760635943489
0.002678741535990421,-0.013694863561176884,-0.006089758009484372,0.007056163794537044,0.002681770644399005
0.0026827563066589405,-0.013698445602072748,-0.006085070103613946,0.007049240118174567,0.002704416835834603
0.002679679117164507,-0.013695729020722192,-0.0060862000091314325,0.007048494861343884,0.0027391313798186827
0.0026802320496517877,-0.013703542197172904,-0.00608271413040727,0.007041859671496511,0.002728289094959389
0.0026828765093735666,-0.013706210697437608,-0.0060832670628945505,0.00703354164364437,0.002722735729543654
0.002687468253072292,-0.013702436332198342,-0.006107139322019338,0.007017530642056145,0.0027268947434697247
0.0026842227797773816,-0.013698517723701523,-0.0061226695127490575,0.007004741073219904,0.0027453338398934018
0.002675015251837005,-0.01369635407483825,-0.006136492824931085,0.006993369896416255,0.0027593254358759052
0.0026612881018266803,-0.013696666601896279,-0.00615711961076096,0.006984979746935338,0.0027351166091501644
0.0026766500087559235,-0.013698157115557644,-0.006150027650598007,0.006982407408842335,0.0027407420961946764
0.002670183102709027,-0.01370056116985017,-0.00609321984766561,0.0069835853954456715,0.00275934947641883
0.002661167899112053,-0.013703061386314398,-0.006099398267197403,0.006979907192378107,0.002791563803938683
0.002682780347201866,-0.013701354507766704,-0.0061251456886703606,0.0069605305147803454,0.002769206099018188
0.0026953775916947038,-0.0137009698590799,-0.006109182768167984,0.006939446958634887,0.0027496130565340987
0.0026792944684777024,-0.013706835751553664,-0.0061184624177371355,0.006935384106880518,0.002794713115061893
0.002680400333452265,-0.013706691508296114,-0.0061313962298309285,0.006940721107409926,0.002839067916759004
0.0027015560112264962,-0.013705802008207878,-0.006120553944971635,0.006955890689995769,0.0028249801586048
0.00270646028198325,-0.01370051308876432,-0.00607737712987786,0.006982671854814514,0.0027995693047327963
0.0026954256727805548,-0.013695320331492464,-0.0060647077637562465,0.006996615369711165,0.002815219698177143
0.0027009309571104393,-0.013698830250759552,-0.006068097480308709,0.007010655046779519,0.0028281054291850838
0.0027109077824244237,-0.013705513521692777,-0.006073987413325399,0.007027387264655503,0.002829932510447404
0.002712326174457014,-0.013706451102866859,-0.0060796129003699104,0.007020367426121325,0.002765047085092117
0.0026909060507106053,-0.01370472018377624,-0.006085815360444629,0.007008323114115768,0.002805290953949009
0.0026753758599808845,-0.013706282819066384,-0.006090359023057504,0.006998923261831991,0.002832552929626258
0.0026754479816096604,-0.01370457594051869,-0.006094734401869901,0.006992384234156318,0.002805411156663635
0.002690160793879921,-0.013704383616175287,-0.006097450983220456,0.006990124423121344,0.002776538464610393
0.002697132551328248,-0.013702893102513922,-0.006102162929633808,0.006986157733538676,0.0027953862502638005
0.0026785011305611693,-0.013702051683511535,-0.006085478792843675,0.006980796692466342,0.0028500304043329247
0.0026634517506899536,-0.013705729886579105,-0.006078843602996303,0.0069801235572644355,0.00286289209479794
0.0026476090329022053,-0.01370142662939548,-0.006129064297167177,0.006982840138614989,0.002825412888377455
0.00268631430701188,-0.013697459939812813,-0.006180847626628195,0.006978128192201638,0.0028343800108885783
0.0027200191481930986,-0.013699407223789758,-0.006156855164788782,0.006973272002530734,0.002907078612694575
0.002718696918332209,-0.013701835318625209,-0.006129400864768131,0.006972791191672229,0.00289289469236867
0.0027144417422344373,-0.013702676737627595,-0.006120217377370681,0.006965050136850295,0.0028339713216588482
0.0027311739601104212,-0.013703542197172904,-0.006082786252036045,0.00693913443157686,0.0028633007840276697
0.002740020879906918,-0.013703614318801679,-0.006070693858944637,0.006936610174569706,0.002894024597886157
0.002732592352143012,-0.013702003602425688,-0.006070549615687085,0.006970771786066507,0.0029026551527963265
0.0026995366056207747,-0.0137032537106578,-0.0060606689525448025,0.006994163234332789,0.002876787528608743
0.002692156158942718,-0.013704287454003587,-0.006062808560865151,0.006996831734597493,0.0028676040412112915
0.002700257821908532,-0.013704047048574334,-0.006085598995558303,0.006992744842300198,0.002899217355158014
0.0026980941730452585,-0.013703373913372428,-0.006104014051439053,0.006985172071278739,0.0029223443574521173
0.0026802320496517877,-0.013704215332374809,-0.00610733164636274,0.006969040866975888,0.0028685656629283025
0.0026822995363433608,-0.013699359142703907,-0.006106177700302327,0.006975075043250129,0.002861593905479976
0.0026905214020238005,-0.01370123430505208,-0.0060876424417069495,0.0069859894497381995,0.0028954189493758217
0.002699873173221728,-0.013706883832639516,-0.006070645777858786,0.006993225653158703,0.002887341326952933
0.002704272592577051,-0.01370640302178101,-0.006086488495646536,0.006992288071984618,0.002905636180119059
0.002700041457022205,-0.01369909469673173,-0.006154643434839658,0.006986398138967928,0.002897366233352769
0.0026974450783862768,-0.01369690700732553,-0.0061603170029700186,0.0069773348542851036,0.002929243993271668
0.002724827256778152,-0.013693637493487695,-0.006107163362562263,0.006950986419239015,0.002964126821056225
0.0027389630960182065,-0.013698734088587851,-0.006068722534424765,0.006928580633232668,0.002969752308100737
0.0027192017697336393,-0.013700993899622826,-0.0060858874820734045,0.006954736743935357,0.002958092644781984
0.0027287218247320447,-0.013706162616351757,-0.006137791014249047,0.006977551219171431,0.002982541876936977
0.002736246514667652,-0.013704624021604541,-0.006112476322548746,0.0069905811934369245,0.003027353448949669
0.002715956296438729,-0.013705056751377195,-0.00609418146938262,0.006968824502089561,0.0030199489617286873
0.002714153255719334,-0.013707292521869243,-0.0060921380232339725,0.0069486304460323394,0.002977805889980701
0.002708119079445093,-0.013708951319331088,-0.006063265331180731,0.006968007123630103,0.002960088009844781
0.002708623930846524,-0.013712533360226951,-0.006052471127407288,0.00699202362601244,0.003007087271263671
0.002713528201603277,-0.01370899940041694,-0.006058168736080575,0.006973945137732642,0.0030148042855426805
0.002717014080327441,-0.013705200994634749,-0.006065212615157677,0.0069774069759138795,0.0029758826465466795
0.002710835660795648,-0.0137032537106578,-0.006071559318489947,0.0069894512879194355,0.002953573022712034
0.002707469984786111,-0.013699839953562413,-0.006078146427251469,0.00698791269317222,0.0030107895148741622
0.002698887510961792,-0.013703686440430456,-0.0060844690900408145,0.006983705598160299,0.003011390528447293
0.002699248119105671,-0.013708686873358909,-0.006088555982338109,0.006981541949297025,0.0029822533904218748
0.002709297066048431,-0.01370914364367449,-0.006091128320431112,0.006977527178628506,0.002981964903906771
0.0027228078511724297,-0.01370746080566972,-0.00609641723987467,0.006973151799816108,0.0030223530160212136
0.0027302604194792608,-0.01369959954813316,-0.0060996867537125065,0.006967382069514045,0.0030799060757842945
0.002719778742763846,-0.013703518156629978,-0.006086488495646536,0.006972791191672229,0.003011366487904368
0.0026989355920476426,-0.013709528292361292,-0.006094782482955753,0.00698558076050847,0.0029774452818368217
0.0027251878649220307,-0.013708855157159387,-0.006105793051615523,0.006976397273111019,0.0030288920436968856
0.002745622326408505,-0.013706018373094205,-0.006104663146098035,0.006954832906107058,0.0030458406264591968
0.002736246514667652,-0.01370685979209659,-0.006105817092158448,0.006935480269052219,0.0030316086250474408
0.0027305008249085137,-0.013712557400769878,-0.0061299778377983385,0.006950938338153165,0.0030189392589258265
0.0027280967706159874,-0.013713230535971784,-0.006124376391296751,0.006972719070043453,0.003037883206750934
0.002725572513608834,-0.013713494981943963,-0.006092041861062272,0.006981806395269203,0.003050047721471118
0.002720259553622352,-0.01371508165777703,-0.0060865125361894605,0.006999981045720702,0.0030402632205005354
0.002705739065695492,-0.013716379847094994,-0.0060877866849645005,0.007007313411312908,0.0030077363659226533
0.0027093211065913557,-0.013717678036412958,-0.0060767520757618034,0.007015559317536273,0.0030415133287326488
0.002716990039784516,-0.013715346103749209,-0.006081271697831754,0.007002601464899554,0.003051081464816904
0.0027214615807686147,-0.01370960041399007,-0.006094421874811872,0.006984907625306562,0.003041897977419453
0.002717038120870366,-0.013713903671173693,-0.006096681685846848,0.006967165704627717,0.003009539406642048
0.0027186007561605077,-0.013719360874417727,-0.006092642874635404,0.006967766718200849,0.003035431071372557
0.0027136484043179037,-0.013715514387549685,-0.006075333683729214,0.006986590463311329,0.003079160818953612
0.002698959632590568,-0.013714144076602946,-0.0060694677912554494,0.006990292706921821,0.003086613387260443
0.002692035956228092,-0.013718976225730923,-0.006071799723919199,0.0069831286251300926,0.0030829111436499524
0.002687925023387872,-0.013720731185364468,-0.006078507035395348,0.0069717814888693675,0.0030954362665140157
0.002726149486639041,-0.013716427928180844,-0.0060874020362776966,0.006968343691231054,0.003132218297189669
0.002731510527711375,-0.01371888006355922,-0.006086873144333341,0.00697512312433598,0.0031480129338915665
0.0027246589729776746,-0.013720322496134738,-0.006107403767991515,0.006985292273993366,0.003130222932126872
0.002737184095841737,-0.013718615617587044,-0.006116346849959714,0.0069777195029719075,0.0031220731880752073
0.002743939488403736,-0.013719985928533785,-0.006106394065188654,0.006965410744994172,0.0031242608774814068
0.00273107779793872,-0.013718952185187998,-0.006144185798667168,0.006960794960752523,0.003170659125327165
0.002719418134619967,-0.013721788969253178,-0.006129785513454935,0.006957405244200061,0.003145801203942442
0.0027143215395198108,-0.013722077455768282,-0.006081223616745904,0.0069656030693375755,0.003118010336320838
0.0027159803369816537,-0.01371979360419038,-0.006058000452280098,0.006974353826962371,0.003123707944994125
0.002717999742587376,-0.013720346536677662,-0.006059635209199017,0.006974978881078428,0.00312870837792258
0.0027195142967916678,-0.013726981726525036,-0.0060491535324836004,0.006972358461899575,0.0031241887558526305
0.0027210048104530354,-0.01372436130734618,-0.006055452154730021,0.006972550786242976,0.0031300306077834696
0.0027195623778775184,-0.01372426514517448,-0.0060670877775058476,0.0069761328271388395,0.0031658750572850372
0.002718071864216152,-0.013724842118204688,-0.006069251426369122,0.006979666786948855,0.0032149658459384263
0.0027140330530047076,-0.013718351171614868,-0.006048336154024142,0.006991590896239785,0.0031932812762198387
0.002704416835834603,-0.013711956387196746,-0.006055812762873899,0.006986854909283509,0.0031236117828224237
0.0027061477549252216,-0.01371890410410215,-0.0060849258603563935,0.00696872833991786,0.003154143272337509
0.002733842460375125,-0.013727678902269868,-0.006126035188758594,0.0069758443406237386,0.0031940505735934465
0.002732616392685937,-0.013721716847624405,-0.0061416134605741645,0.006982671854814514,0.0031759720853136485
0.0027050178494077344,-0.013720635023192766,-0.006143729028351588,0.00698973977443454,0.0031477244473764637
0.002702325308600105,-0.013725803739921695,-0.0061152169444422255,0.006993610301845507,0.0031513305288152532
0.00275610400312392,-0.013724096861374005,-0.0060799254274279384,0.006995124856049799,0.0032035946691347764
0.002768100234043626,-0.013724409388432031,-0.006097066334533653,0.006996903856226268,0.003205926601798527
0.002718937323761461,-0.013728568402358105,-0.00608276221149312,0.0069905090718081495,0.003175563396083918
0.0027177352966151983,-0.013726308591323129,-0.006069612034513,0.006980724570837565,0.0032170333326299984
0.002724947459492778,-0.013726308591323129,-0.006063649979867535,0.006967766718200849,0.0032836977581617538
0.002716485188383085,-0.013730395483620423,-0.006061726736433514,0.006965338623365397,0.003207417115459893
0.0027132637556310994,-0.013720899469164943,-0.006102499497234762,0.006972743110586379,0.003192656222103781
0.0027236011890889628,-0.013720394617763513,-0.006101345551174349,0.006968656218289084,0.003207946007404249
0.002722687648457803,-0.013721404320566377,-0.006070597696772936,0.006974065340447268,0.003251122822498022
0.002722086634884672,-0.013722678469341413,-0.006069491831798374,0.006983873881960776,0.0032434058082190125
0.002716124580239206,-0.013725250807434416,-0.0060800937112284155,0.006983946003589551,0.003199195249779453
0.002700378024623159,-0.013728760726701504,-0.006069443750712522,0.0069675022722286714,0.003179097355893933
0.002710426971565918,-0.013728929010501982,-0.00606453947995577,0.006960891122924224,0.0032074411560028184
0.0027145379044061385,-0.013731236902622807,-0.006069539912884225,0.00696740611005697,0.003222995387275464
0.002707301700985634,-0.013731260943165732,-0.006076703994675953,0.006992865045014824,0.003206888223515537
0.0027303806221938877,-0.013733905402887513,-0.006083531508866729,0.0070095972628908074,0.003200421317468641
0.0027579791654720907,-0.013733496713657782,-0.006086656779447013,0.0070062796679671215,0.003205397709854171
0.0027507670025945113,-0.013731044578279405,-0.006120025053027278,0.006995653747994155,0.0032073209532881924
0.0027367994471549327,-0.013732511051397844,-0.0061243283102109,0.006975147164878905,0.0032094846021514657
0.00271148475545463,-0.013731284983708658,-0.0060680253586799324,0.006969257231862216,0.0031905646948692835
0.0027265822164116963,-0.013729025172673685,-0.0060816082654327076,0.006970579461723104,0.0032312412934988296
0.002746415664325039,-0.013728640523986878,-0.006078338751594871,0.00696918511023344,0.003263816229162561
0.002716244782953832,-0.013733015902799276,-0.00606860233171014,0.006973031597101482,0.0032437904569058173
0.0027197066211350697,-0.013738328862785759,-0.0060605006687443255,0.006973512407959986,0.0032148456432237998
0.002724466648634273,-0.013737391281611677,-0.006098460686023317,0.006970891988781132,0.003259464890893089
0.0027257888784951623,-0.013734506416460644,-0.0061244244723826025,0.006965410744994172,0.003304637071049659
0.0027264620136970693,-0.013736453700437587,-0.006101634037689452,0.006947909229744581,0.003310454882437572
0.0027284573787598665,-0.01372727021304014,-0.006095744104672764,0.006945913864681785,0.003233549185619655
0.002727038986727276,-0.013732775497370023,-0.006105528605643345,0.006974498070219923,0.003252252728015509
0.002718937323761461,-0.013735876727407384,-0.0060822333195487644,0.006983729638703224,0.003315503396451877
0.002712879106944295,-0.01373746340324045,-0.006084421008954964,0.006965218420650772,0.0033331010738731712
0.0027212452158822875,-0.013741430092823118,-0.006107788416678321,0.006962622042014843,0.003310527004066348
0.002737087933670036,-0.01374263211996938,-0.006087329914648921,0.006975964543338364,0.003302665746529787
0.002740357447507872,-0.013742656160512307,-0.006039849842371525,0.006996254761567286,0.003331923087269833
0.00272651009478292,-0.01374015594404808,-0.006036003355503482,0.00701257829021354,0.003328413168002745
0.002733145284630293,-0.013742800403769859,-0.006075453886443839,0.007019694290919418,0.003294347718677646
0.002746752231925992,-0.013743233133542513,-0.00609052730685798,0.007010174235921014,0.0032956939890814605
0.0027277602030150337,-0.013746911336610079,-0.006080598562629847,0.007000053167349478,0.003347501359085404
0.0027276159597574823,-0.013748017201584641,-0.006085022022528096,0.006992576558499721,0.0033588484953461285
0.002749877502506277,-0.013741333930651415,-0.006111634903546361,0.00698704723362691,0.003289058799234088
0.0027510554891096144,-0.013739627052103723,-0.006111250254859557,0.00697389705664679,0.003290092542579875
0.002729154554504699,-0.013736934511296095,-0.006087113549762593,0.006950337324580033,0.0033444241695909705
0.002729467081562727,-0.013739410687217395,-0.006062447952721272,0.006951755716612624,0.003381085997551997
0.0027333135684307697,-0.013741093525222164,-0.006052326884149736,0.006970819867152357,0.003371902510154546
0.002729899811335382,-0.013743040809199112,-0.006054226087040832,0.006990677355608625,0.0033437029533032125
0.002734828122635061,-0.013740853119792912,-0.006085022022528096,0.007008731803345498,0.003356636765397004
0.002737160055298812,-0.013741406052280192,-0.0060718958860909,0.007002865910871734,0.0033831775247864953
0.002720259553622352,-0.013744483241774626,-0.006062544114892972,0.006984595098248533,0.003380340740721314
0.002696026686353686,-0.013747127701496406,-0.006063962506925563,0.00694822175680261,0.003356660805939929
0.0027447328263202693,-0.013742103228025026,-0.0060690831425686455,0.006943750215818511,0.0033907743363508786
0.0027609361522518976,-0.01374162241716652,-0.006077906021822216,0.006962165271699263,0.003364401860761864
0.0027261975677248915,-0.013743161011913738,-0.006099422307740328,0.00700166388372547,0.003359617792719737
0.0027191777291907145,-0.013746887296067151,-0.0061155294715002535,0.00703171456238205,0.0033431500208159315
0.002753916313717721,-0.013752897431798469,-0.006097667348106784,0.007030175967634833,0.0033683445098016073
0.002769206099018188,-0.013747608512354912,-0.006085046063071021,0.007019333682775539,0.003420680771749906
0.002763436368716125,-0.013746142039236471,-0.006064323115069443,0.007006784519368551,0.003416786203796013
0.0027478580969005537,-0.013749916404475735,-0.006054682857356412,0.0069951008155068745,0.003385052687134666
0.002750382353907707,-0.013751647323566357,-0.006043335721095688,0.006985003787478263,0.003389259782146587
0.002766176990609605,-0.01375061358022057,-0.006035474463559128,0.006973680691760464,0.003410655865350071
0.0027380735959299718,-0.01374948367470308,-0.0060430712751235105,0.006982984381872541,0.003411449203266605
0.002722375121399775,-0.01375116651270785,-0.006046172505160869,0.00699618263993851,0.003424118569388219
0.0027324000277996092,-0.013750902066735671,-0.006052134559806335,0.007013227384872522,0.003394837188105248
0.0027293709193910265,-0.013755638053691949,-0.006052591330121914,0.0070413067390092295,0.003430248907834161
0.0027063160387256983,-0.01375770554038352,-0.006059298641598061,0.007057534105483783,0.0034591456404303275
0.002727231311070678,-0.013759268175673665,-0.006073097913237163,0.00705714945679698,0.003432749124298389
0.0027390592581899077,-0.013758306553956651,-0.0060945420775265,0.007043566550044205,0.0034257292857642115
0.002725620594694685,-0.013753161877770648,-0.006106153659759401,0.007034623468076006,0.003470685101034454
0.0027291064734188486,-0.013754436026545686,-0.006103196672979594,0.0070122898036984365,0.0034761182637355645
0.002752858529829009,-0.013756263107808009,-0.006110192470970846,0.006991807261126112,0.0034511160990932893
0.002756584813982425,-0.013757104526810391,-0.006092041861062272,0.0069904850312652225,0.003428109299513813
0.0027481465834156573,-0.013760229797390677,-0.006054658816813487,0.006999476194319272,0.003460780397349245
0.0027408863394522273,-0.013762393446253948,-0.006056197411560703,0.007000269532235805,0.0035134051458126482
0.0027352127713218648,-0.01375354652645745,-0.006101081105202171,0.007006952803169028,0.0034821283994668803
0.002740117042078619,-0.013755710175320726,-0.006062471993264197,0.007008587560087946,0.003438663097858003
0.0027280967706159874,-0.013759196054044888,-0.006028983516969304,0.007000077207892403,0.003459265843144954
0.002724202202662095,-0.013758330594499579,-0.006023261867753092,0.006994115153246938,0.0034817677913230012
0.0027410065421668533,-0.013759604743274615,-0.006039248828798393,0.0069943795992191155,0.0034681848845702266
0.002728433338216941,-0.013760662527163329,-0.006077064602819832,0.0069946200046483685,0.003435850354335748
0.002722375121399775,-0.01375888352698686,-0.006119640404340474,0.006990677355608625,0.003459987059432712
0.002726870702926799,-0.01375989322978972,-0.006106201740845253,0.006983633476531523,0.0035171073894231385
0.002731943257484029,-0.013761816473223741,-0.006061486331004262,0.00698060436812294,0.003498235563226807
0.002730476784365589,-0.013760013432504345,-0.00604311935620936,0.006975195245964756,0.0034825370886966103
0.002723745432346515,-0.013763379108513885,-0.006049081410854825,0.006969617840006093,0.003481647588608375
0.0027125184988004165,-0.013766600541265871,-0.00607869935973875,0.006972118056470322,0.0035078998614827624
0.0027272553516136037,-0.013764028203172868,-0.006091561050203767,0.006983849841417851,0.003502827306925532
0.0027478580969005537,-0.013761143338021834,-0.0060592265199692855,0.006987936733715145,0.0034920811842379393
0.002748435069930761,-0.013761936675938368,-0.006032854044380273,0.006982239125041857,0.003510496240118691
0.002764085463375107,-0.013764028203172868,-0.006032637679493946,0.006978969611204022,0.0035429028919819468
0.002765167287806744,-0.013768956514472543,-0.006037445788078999,0.006965963677481454,0.003561582393834876
0.002774783504976849,-0.013767057311581449,-0.006043359761638613,0.006966564691054586,0.003535498404760965
0.0027599504899919612,-0.013767466000811178,-0.0060482159513095156,0.006959088082204829,0.0035187661868849814
0.0027416075557399854,-0.01376208091919592,-0.0060515575867761285,0.006969257231862216,0.0035632652318396438
0.002746896475183544,-0.013769052676644244,-0.006047711099908085,0.006991230288095906,0.003573602665297508
0.0027543490434903755,-0.013772803001340587,-0.006036484166361988,0.007011857073925782,0.0035470619059080172
0.002745285758807551,-0.013773235731113241,-0.00605535599255832,0.007022603196613375,0.003538263067197371
0.0027448049479490448,-0.013775399379976516,-0.006085526873929526,0.00701765084477077,0.0035287670527418915
0.0027469445562693946,-0.013772754920254735,-0.006138632433251432,0.0070035630866165655,0.0035690590026846328
0.0027448049479490448,-0.013771360568765071,-0.006161398827401657,0.00699385070727476,0.003554009622813418
0.002749901543049202,-0.013773067447312765,-0.006111274295402483,0.006990941801580803,0.0035280939175399845
0.002750791043137437,-0.013778500610013877,-0.006053865478896953,0.006980291841064912,0.003541676824292758
0.0027437231235174085,-0.013780423853447896,-0.0060274208816791615,0.00697776758405776,0.003593989045698131
0.002741463312482434,-0.013780856583220551,-0.0060143668668707455,0.006975868381166663,0.0035671838403364617
0.002732183662913282,-0.013779967083132316,-0.006011482001719713,0.006968560056117383,0.00353278182341041
0.0027325202305142357,-0.013779101623587009,-0.006043720369782492,0.006963824069161106,0.0035523027442657244
0.002745550204779729,-0.01378208265090974,-0.006047711099908085,0.006957717771258089,0.003605576587388108
0.002753026813629486,-0.013776962015266658,-0.006049105451397751,0.006962189312242188,0.003628270859909558
0.00275519046249276,-0.013771456730936773,-0.00605266345175069,0.006980363962693687,0.0035441049191282095
0.00276295555785762,-0.01377537533943359,-0.006040306612687105,0.006988730071631678,0.003531171107034418
0.0027839669923743,-0.013778548691099726,-0.006037373666450223,0.00697603666496714,0.003622693453950897
0.0027704562072503017,-0.013779654556074288,-0.0060429751129518075,0.00696690125865554,0.0036433202397807727
0.002759710084562709,-0.013773716541971749,-0.00605138930297565,0.006972743110586379,0.0036099519662005065
0.002771922680368743,-0.013776168677350124,-0.006055115587129066,0.006974954840535503,0.003596080572932629
0.0027539884353464964,-0.013783621245656956,-0.006084252725154487,0.006959616974149185,0.003626828427334042
0.0027436510018886326,-0.013782299015796064,-0.006107884578850021,0.0069468033647700185,0.003652984538036728
0.002742569177456996,-0.013781313353536129,-0.00606545302058693,0.0069568042306269295,0.003633175130666311
0.0027494207321906963,-0.01377989496150354,-0.006031892422663263,0.006978873449032321,0.0036099038851146563
0.002760503422479243,-0.013782659623939946,-0.0060245119759852065,0.006988561787831202,0.003636324441789521
0.002756656935611201,-0.013781241231907354,-0.006046316748418421,0.0069965913291682395,0.0036234146702386547
0.0027302604194792608,-0.013782419218510693,-0.006089156995911241,0.006994571923562518,0.003590839734574922
0.0027210048104530354,-0.013784366502487641,-0.0060830266574652975,0.006973656651217539,0.003572809327380974
0.0027458867723806827,-0.013786409948636284,-0.006048744843253872,0.006945721540338383,0.003572568921951722
0.002760046652163663,-0.013786602272979688,-0.006014919799358026,0.006940504742523597,0.0035856710178459907
0.002774639261719297,-0.013786313786464586,-0.006002178311607636,0.006964569325991789,0.003575742273617856
0.0027862268034092746,-0.01378482327280322,-0.0060102318934876,0.0069816861925545756,0.0035750210573300984
0.002772571775027725,-0.01378929481378732,-0.00602129054323322,0.006976277070396392,0.0036074036686504283
0.0027680521529577754,-0.013775735947577469,-0.0060167468806203465,0.006958679392975099,0.003647286929363441
0.002776153815923589,-0.013776168677350124,-0.006010856947603656,0.0069605305147803454,0.0036538019164961883
0.0027666818420110355,-0.013784703070088592,-0.0060284546250249475,0.006951034500324866,0.003652383524463597
0.002775504721264607,-0.013784895394431994,-0.006044297342812698,0.0069659155963956035,0.0036551241463570775
0.002788919344216904,-0.013789871786817523,-0.006031844341577412,0.00700623158688127,0.003678635797337985
0.002780433032564286,-0.013784630948459815,-0.006016770921163271,0.007011135857638024,0.0036849825006702547
0.0027510795296525397,-0.01378314043479845,-0.00606824172356626,0.006999860843006076,0.003671543837175032
0.0027293228383051763,-0.013783332759141852,-0.006141757703831715,0.006995509504736603,0.0036847661357839274
0.002734443473948257,-0.013781409515707832,-0.00608910891482539,0.006986590463311329,0.0037070276785327212
0.002745357880436327,-0.013785183880947098,-0.006035474463559128,0.00698522015236459,0.003705873732472308
0.0027432663532018287,-0.013784703070088592,-0.006012828272123527,0.006982070841241381,0.0036943342718681813
0.002743506758631081,-0.013786433989179213,-0.006006746014763436,0.006980989016809744,0.0036811600543451375
0.0027511756918242405,-0.013788429354242009,-0.005998884757226875,0.006981830435812128,0.003735395519184532
0.0027759855321231124,-0.013794078881829446,-0.006017011326592523,0.006979859111292256,0.003744867493097085
0.0027465839481255155,-0.013797011828066329,-0.006056558019704583,0.006976421313653944,0.0037322702486042476
0.002744011610032512,-0.013784895394431994,-0.0060387920584828135,0.006972863313301005,0.0036646201608125564
0.0027704562072503017,-0.013786506110807988,-0.0059934275539828405,0.006949087216347918,0.003700055921084394
0.0027689656935889354,-0.0137924200843676,-0.005986431755991588,0.006937283309771614,0.003690367582285513
0.002782885167942663,-0.013795930003634693,-0.005991672594349296,0.00696644448833996,0.003674885472641644
0.002794136142031687,-0.013794199084544071,-0.005999846378943886,0.006993946869446461,0.0036713034317457796
0.002778509789130265,-0.01379496838191768,-0.00600758743376582,0.006997360626541847,0.003694358312411107
0.002763123841658097,-0.013797276274038504,-0.006014414947956595,0.006996687491339941,0.003730972059286283
0.0027347079199204352,-0.013796074246892241,-0.0060215790297483245,0.006981013057352669,0.003744482844410281
0.002728481419302792,-0.013795641517119588,-0.00602443985435643,0.006959520811977485,0.0037253706127846967
0.0027315345682543003,-0.013794343327801623,-0.006029223922398557,0.006979690827491779,0.003781962050830768
0.0027481706239585826,-0.013793670192599715,-0.006033671422839732,0.007009813627777134,0.003823504109005623
0.0027710091397375827,-0.0137945116116021,-0.006036556287990763,0.0070169777095688635,0.0037390977627950227
0.002766729923096886,-0.01379715607132388,-0.006049297775741153,0.007007024924797804,0.0037268611264460643
0.002774927748234401,-0.013798430220098915,-0.006046412910590122,0.006989763814977465,0.0037497236827679892
0.0027720909641692198,-0.013803863382800027,-0.006026459259962152,0.0069848595442207105,0.003782539023860974
0.0027611284765952995,-0.013809296545501136,-0.005998668392340548,0.006991037963752504,0.0037683551035350687
0.002762378584827413,-0.013790520881476509,-0.005995134432530534,0.006991518774611009,0.0037185430985939225
0.0027643739498902104,-0.013795304949518632,-0.0060053997443596215,0.006988008855343921,0.0037313807485160133
0.00275382015154602,-0.013800281341904162,-0.00601205897474992,0.006986830868740583,0.0037645086166670258
0.002754156719146973,-0.013798862949871572,-0.005987850148024179,0.006982671854814514,0.003749843885482615
0.002761248679309926,-0.013801339125792877,-0.005974531687243583,0.006975051002707204,0.0037137830710947204
0.0027623305037415627,-0.013801843977194306,-0.005980061012116394,0.006976565556911496,0.0037382082627067884
0.0027706966126795547,-0.013800930436563144,-0.005982729512381098,0.006994499801933742,0.003759003332337141
0.002787717317070641,-0.013801795896108457,-0.005984580634186343,0.006986614503854256,0.003751622885659085
0.002802213764454575,-0.013806868450665684,-0.006000543554688718,0.006957886055058565,0.0037492188313665584
0.002778101099900536,-0.013808887856271409,-0.006009294312313514,0.006975291408136457,0.003750517020684522
0.0027708648964800318,-0.013803358531398595,-0.006035955274417632,0.007009477060176181,0.003782683267118526
0.0027590369493608016,-0.01380703673446616,-0.006019223056541648,0.007015992047308927,0.003799607809337911
0.0027353089334935664,-0.013810787059162504,-0.005991023499690314,0.007004524708333577,0.00376575872489914
0.0027230482566016822,-0.013808911896814331,-0.006003861149612404,0.006982407408842335,0.003769172481994528
0.00275158438105397,-0.013812614140424824,-0.006032998287637825,0.006980315881607836,0.0038250427037528397
0.002768845490874309,-0.013821605303478871,-0.006013309082982033,0.006992408274699244,0.0038483620303903453
0.0027772837214410768,-0.013808695531928004,-0.005981912133921639,0.007007073005883655,0.003844828070580332
0.0027592773547900538,-0.013804223990943906,-0.00598474891798682,0.007009188573661077,0.0038063151208140604
0.002766561639296409,-0.01380770986966807,-0.0059894608644001715,0.006993297774787479,0.0038312932449134094
0.0027593975575046807,-0.013808238761612423,-0.005969290848885876,0.0069740893809901935,0.0038593725990501157
0.0027623305037415627,-0.01381420081625789,-0.0059650356727881035,0.006969401475119767,0.003828312217590676
0.002766898206897363,-0.013813912329742788,-0.005973906633127525,0.00698106113843852,0.0037885972406781405
0.0027810821272232678,-0.013812590099881896,-0.005976623214478082,0.00699202362601244,0.003805690066698002
0.002791852290453786,-0.013810378369932774,-0.005984003661156137,0.007004043897475071,0.003845621408496865
0.002776899072754273,-0.01380049770679049,-0.005981287079805582,0.007004428546161875,0.0038218212710008546
0.002780264748763809,-0.013806868450665684,-0.005982849715095724,0.006993321815330404,0.003795016065639186
0.002800050115591301,-0.013807469464238815,-0.0059840757827849134,0.006994475761390818,0.0038146571892091257
0.0027854815465785912,-0.013806724207408132,-0.005979508079629113,0.006994980612792247,0.003873845005891125
0.0027700715585634982,-0.013810931302420056,-0.0059747240115869855,0.007002192775669826,0.003865983748354564
0.0027708648964800318,-0.013815739411005107,-0.006001384973691102,0.006999692559205599,0.003803141769147925
0.002778101099900536,-0.013819633978959,-0.006033671422839732,0.006975579894651559,0.003852136395629612
0.0027577147194999124,-0.01381552304611878,-0.006048720802710947,0.0069556743251094405,0.00389762110284421
0.0027453819209792524,-0.013813623843227684,-0.006009198150141813,0.00696557902879465,0.0038902166156232288
0.002771201464080985,-0.013817205884123548,-0.005979051309313533,0.006988297341859024,0.003854251963407035
0.002771105301909284,-0.013816027897520209,-0.005975805836018622,0.006999572356490972,0.003861392004655838
0.0027631959632868717,-0.013823600668541668,-0.005988475202140236,0.007012458087498914,0.003904761144093013
0.0027875249927272385,-0.013816725073265044,-0.0059935958377833175,0.007008611600630871,0.00390853550933228
0.0027767307889537953,-0.013807493504781741,-0.005996240297505096,0.00699389878836061,0.0038985106029324453
0.002767451139384644,-0.013818504073441512,-0.005977680998366793,0.0069891387608614075,0.0039013714275405523
0.00275016598902138,-0.013815691329919257,-0.005960035239859649,0.006994331518133265,0.0039555347707511705
0.0027617775712542817,-0.013817710735524978,-0.005962920105010682,0.006987071274169835,0.003921469321426073
0.0027704562072503017,-0.013824273803743577,-0.005964530821386674,0.0069706756238948064,0.003895385332352161
0.0027695667071620674,-0.013820691762847713,-0.005989100256256293,0.0069518278382414,0.0038934620889181397
0.0027636046525166017,-0.013819994587102879,-0.006023814800240373,0.006986398138967928,0.003914906253207476
0.0027702398423639744,-0.013816316384035314,-0.006007106622907315,0.0070022408567556775,0.003945053094035756
0.002775528761807532,-0.013820451357418459,-0.0059693148894288004,0.00700709704642658,0.003907381563271867
0.0027911791552518786,-0.013820234992532132,-0.005965853051247564,0.007011568587410678,0.0038693975054499524
0.002785553668207367,-0.01382364874962752,-0.005986744283049617,0.007008948168231825,0.0038848074934650454
0.0027702638829069,-0.013823167938769013,-0.005973425822269021,0.00699517293713565,0.003923801254089822
0.002777740491756657,-0.013822446722481256,-0.005953448131098127,0.0069871674363415365,0.003898630805647071
0.0027884866144442487,-0.013824033398314324,-0.00597104580851942,0.006995942234509257,0.003889495399335472
0.0027910589525372525,-0.013823264100940714,-0.0060112656368333855,0.006995245058764425,0.0038731718706892172
0.0028288266454728423,-0.013824995020031334,-0.0060085009743969815,0.006976878083969525,0.00392163760522655
0.002806396818923571,-0.013830933034133871,-0.0059928024998667844,0.006976805962340748,0.0039404613503370295
0.0027397323933918147,-0.013830908993590948,-0.005976262606334202,0.006984186409018804,0.003932335646828292
0.00275752239515651,-0.0138287693852706,-0.005964146172699868,0.006995701829080004,0.003940293066536554
0.0027646383958623887,-0.01382735099323801,-0.005969915903001933,0.007016544979796208,0.003958852365674857
0.0027563444085531717,-0.013829250196129106,-0.006008212487881877,0.007038902684716703,0.003959789946848942
0.0027652634499784447,-0.013822927533339762,-0.006027372800593312,0.0070284690890871394,0.0039436347020031645
0.0027686291259879816,-0.01382694230400828,-0.005994413216242776,0.007007121086969504,0.003937696687900625
0.0027716822749394897,-0.013832687993767415,-0.005992489972808755,0.007008347154658694,0.003973420934687567
0.002766826085268587,-0.013827182709437532,-0.0060082605689677285,0.0070184682232302285,0.003995201666577857
0.0027593975575046807,-0.013824418047001128,-0.005996072013704619,0.0070140447633319815,0.0039648865419490975
0.002757955124929165,-0.013823504506369969,-0.005973810470955825,0.0069958941534234076,0.003925844700238471
0.002745838691294832,-0.013823216019854864,-0.00597611836307665,0.006987383801227864,0.003952914351572317
0.002774855626605625,-0.0138241055199431,-0.005991552391634671,0.007004789154305755,0.003964477852719369
0.002794112101488761,-0.01382456229025868,-0.00598895601299874,0.007009525141262032,0.00394228843159935
0.0028221914556254696,-0.013827471195952635,-0.005977296349679988,0.007005846938194465,0.003947000378012703
0.002843058646884598,-0.013827879885182364,-0.005970781362547242,0.0069973125454559975,0.003995009342234453
0.002827528456154878,-0.013827206749980458,-0.00599612009479047,0.0069878886526292955,0.003967146352984073
0.0027796396946477525,-0.0138288655474423,-0.006030738476602849,0.0069932016126157785,0.003957289730384715
0.0027506948809657354,-0.013834587196658513,-0.00602169923246295,0.006985268233450441,0.0039375524446430745
0.0027547096516342545,-0.013835957507605254,-0.006012034934206994,0.006988129058058547,0.003976017313323496
0.0027605755441080185,-0.013835476696746748,-0.006026579462676778,0.006991494734068084,0.00402299253419946
0.002781490816452998,-0.013837159534751516,-0.0060212424621473686,0.007000582059293835,0.003968805150445918
0.002789207830732007,-0.013844035130028142,-0.006014823637186324,0.007039263292860581,0.003943971269604119
0.002788919344216904,-0.0138356209400043,-0.006023165705581391,0.0070864789191658,0.00397366134011682
0.002783438100429944,-0.013830764750333395,-0.005996047973161694,0.0070994367718025175,0.004008039316499946
0.002775697045608009,-0.01383470739937314,-0.005958015834253928,0.007074098039559291,0.0040122223709689415
0.0027739420859744647,-0.01383170233150748,-0.005966550226992396,0.007081406364608568,0.004005130410805989
0.0027542048002328237,-0.013832255263994763,-0.005979027268770608,0.007084459513560078,0.003963155622858479
0.002742761501800398,-0.013834803561544842,-0.005985878823504307,0.007070924687893155,0.004027175588668456
0.002768316598929953,-0.01383160616933578,-0.0059925620944375315,0.0070545049970752,0.004045807009435535
0.002783173654457766,-0.013827976047354066,-0.0060008801222896715,0.007034383062646754,0.004001307964480873
0.002793030277057124,-0.013828937669071078,-0.0060183095159104865,0.007021473291095886,0.0039915234635102895
0.002793727452801957,-0.013831870615307959,-0.006040354693772954,0.0070151506283065435,0.0040106597356788
0.002781154248852044,-0.013833841939827831,-0.006024151367841326,0.007002865910871734,0.004002822518685164
0.0027701677207351985,-0.01383891449438506,-0.006002370635951038,0.00698288821970084,0.003989960828220148
0.0027658404230086514,-0.01383836156189778,-0.006021530948662473,0.006950697932723913,0.004023136777457012
0.00278305345174314,-0.013834010223628308,-0.006030546152259447,0.006936946742170659,0.004067227133181946
0.0027864912493814524,-0.013835452656203824,-0.006048841005425572,0.006963800028618182,0.00408222843196731
0.0027730766264291557,-0.013842592697452626,-0.00603840740979601,0.007006880681540252,0.004033786737972903
0.0027773077619840016,-0.01383927510252894,-0.006022252164950231,0.0070273632241125775,0.004040734454878305
0.0027973335342407466,-0.013836245994120358,-0.006039248828798393,0.0070135639524734755,0.004076410620579396
0.0028055553999211873,-0.013837423980723695,-0.006025064908472487,0.0069995242754051215,0.004095979622520561
0.0027923571418552165,-0.013834058304714158,-0.006003332257668049,0.006997697194142802,0.004084608445716911
0.002776586545696244,-0.013836943169865187,-0.005985902864047233,0.0069993079105187955,0.004075569201577011
0.002761296760395777,-0.013843458156997937,-0.005981263039262657,0.0070168094257683855,0.00404167203605239
0.002781827384053951,-0.013838698129498731,-0.00598058990406075,0.007010727168408296,0.004076410620579396
0.0027883183306437725,-0.013837159534751516,-0.00599287462149556,0.007006640276111,0.004058332132299597
0.002795001601576996,-0.013840356926960578,-0.006001384973691102,0.007003058235215136,0.004008159519214572
0.0028246676315467714,-0.01384389088677059,-0.0060085490554828294,0.006995341220936126,0.004048259144813912
0.0028227443881127506,-0.013843674521884263,-0.006016674758991571,0.006982792057529138,0.004059942848675589
0.002807839251499087,-0.013843241792111608,-0.006019727907943078,0.006999091545632467,0.004048090861013435
0.0028023099266262764,-0.013844131292199843,-0.00600936643394229,0.007009501100719106,0.004047489847440303
0.0027931023986859,-0.013842352292023371,-0.006015592934559933,0.006999476194319272,0.004078958918129474
0.0027763461402669914,-0.013840549251303978,-0.006051653748947829,0.0069758203000808115,0.004130718207047567
0.002779495451390201,-0.013839539548501116,-0.006083916157553533,0.006947620743229479,0.00415521552028841
0.0027923571418552165,-0.013842640778538477,-0.006086728901075789,0.006965723272052202,0.004084151675401332
0.0027865633710102283,-0.013846198778891415,-0.006093291969294386,0.007000341653864582,0.004082276513053161
0.002788198127929146,-0.013839852075559149,-0.0061024514161489105,0.007013780317359803,0.004130429720532463
0.002790193492991943,-0.013837375899637844,-0.006069179304740346,0.007018107615086351,0.004130189315103211
0.0027926937094561698,-0.013843193711025758,-0.006094349753183097,0.0070138764795315035,0.004126390909321018
0.002796972926096868,-0.013848097981782513,-0.006058024492823022,0.007003226519015611,0.004115764989348053
0.0027938716960595076,-0.013844467859800796,-0.0060196798268572285,0.00699567778853708,0.0041305980043329395
0.002787933681956968,-0.013841751278450241,-0.006011385839548012,0.006992143828727065,0.004149710235958525
0.002781418694824222,-0.013837231656380292,-0.0059944372567857,0.006985075909107039,0.004100643487848062
0.002777788572842507,-0.01383927510252894,-0.005998572230168846,0.006971589164525966,0.004088214527155701
0.0027875249927272385,-0.013839491467415269,-0.006009582798828617,0.006969738042720721,0.0041295883015300796
0.0028360388083504212,-0.013841222386505888,-0.006005111257844518,0.006969569758920244,0.004123506044169988
0.0028335866729720443,-0.013841078143248337,-0.006009029866341336,0.006956395541397199,0.004126631314750272
0.002832649091797959,-0.013837159534751516,-0.006015256366958979,0.006957236960399584,0.0041172795435523435
0.0028543577020594714,-0.013844059170571068,-0.0060196798268572285,0.006983152665673018,0.004136007126491125
0.002812118468139784,-0.013839154899814314,-0.006017468096908104,0.006984643179334385,0.0041651683050594685
0.0027742305724895683,-0.013839082778185538,-0.0060150880831585036,0.0069714689618113395,0.004184569023200157
0.002779928181162856,-0.0138356209400043,-0.006044008856297595,0.006942355864328846,0.004124587868601625
0.0027912512768806545,-0.013837183575294442,-0.006047807262079786,0.006925671727538711,0.004146969614065046
0.002797381615326597,-0.013840621372932757,-0.006037157301563895,0.006946250432282738,0.004195074740458497
0.002803439832143764,-0.013844515940886648,-0.006088243455280079,0.006984402773905132,0.0041755538196031824
0.0028048101430905035,-0.013844467859800796,-0.006127669945677513,0.007000918626894787,0.00416983217038697
0.0028060842918655425,-0.013840669454018606,-0.006061558452633037,0.006993249693701628,0.004179063738870272
0.002803704278115941,-0.013840765616190309,-0.006032878084923198,0.006983489233273971,0.00419226199693624
0.002796612317952989,-0.013846895954636248,-0.006033863747183134,0.006974618272934549,0.004202334984421926
0.0027859623574370967,-0.013843121589396984,-0.0060213386243190715,0.006973656651217539,0.004190723402189025
0.00277762028904203,-0.013830428182732444,-0.0060209299350893405,0.006969473596748543,0.004205676619888538
0.0027915157228528323,-0.01383785671049635,-0.006009582798828617,0.006961684460840757,0.004255128016685806
0.002825460969463305,-0.013845140995002704,-0.006008789460912082,0.006957693730715164,0.004197911524523678
0.002855968418435464,-0.013840477129675205,-0.0060138860560122395,0.006961732541926608,0.00419084360490365
0.0028521459721103475,-0.013838073075382677,-0.006016434353562317,0.00697197381321277,0.0042089461337263745
0.0028267831993241945,-0.013835789223804776,-0.006016362231933541,0.006985676922680171,0.0042203653916158745
0.0028127675627987662,-0.01384177531899317,-0.006023165705581391,0.0069951008155068745,0.004232025054934628
0.002780240708220884,-0.013840429048589351,-0.00602398308404085,0.006978392638173816,0.004194065037655636
0.0028048341836334287,-0.01383927510252894,-0.006036003355503482,0.0069455532565379065,0.004151344992877442
0.0028060842918655425,-0.013844275535457395,-0.006085478792843675,0.006938749782890054,0.004192550483451344
0.0028044735754895497,-0.013844419778714949,-0.006152023015660804,0.006977839705686535,0.004211157863675499
0.00280127618328049,-0.013843722602970114,-0.006099710794255431,0.0070096934250625095,0.004199402038185043
0.0027930062365141986,-0.013843963008399369,-0.0060471822079637295,0.007012554249670615,0.004223947432511739
0.0027923571418552165,-0.013842520575823851,-0.006045739775388214,0.00699298524772945,0.004235078203886136
0.00279442462854679,-0.013842688859624329,-0.0060563897359041064,0.006985652882137245,0.004258926422467998
0.0027971171693544194,-0.01384740080603768,-0.006049369897369929,0.0069921678692699924,0.004256065597859891
0.0027902896551636443,-0.013851006887476468,-0.006042133693949425,0.006998995383460766,0.004230798987245439
0.002793463006829779,-0.013851127090191095,-0.006047206248506655,0.00699887518074614,0.004261426638932225
0.0027955064529784266,-0.013843241792111608,-0.00604982666768551,0.006993009288272375,0.004301886872675443
0.002791900371539637,-0.013837231656380292,-0.006055524276358796,0.006992408274699244,0.0042703216398145725
0.0027985115208440845,-0.013843794724598887,-0.006039681558571048,0.006976830002883672,0.004260104409071336
0.002816085157722452,-0.013836294075206208,-0.006032950206551974,0.006942187580528369,0.0042729180184505
0.002844332795659637,-0.013841727237907315,-0.006038191044909681,0.0069470437701992715,0.004293376520479899
0.002855992458978389,-0.013847569089838157,-0.006046124424075018,0.006988225220230248,0.0043153495767135905
0.0028394766059887337,-0.013849300008928776,-0.006049658383885032,0.0069965192075394644,0.004265681815029997
0.002806468940552347,-0.013836750845521788,-0.006042205815578201,0.006989595531176988,0.004231520203533197
0.0027762499780952907,-0.01384288118396773,-0.006068361926280887,0.006995822031794632,0.004291381155417103
0.0027948813988623697,-0.013847328684408905,-0.006097979875164812,0.006990364828550597,0.0043128974413352145
0.0028042572106032225,-0.013843410075912086,-0.006103052429722043,0.006969834204892422,0.00427149962641791
0.002803944683545194,-0.013845477562603658,-0.0060811274545742025,0.0069688485426324855,0.004281404330103118
0.002807983494756639,-0.013845092913916852,-0.006085046063071021,0.00699481232899177,0.004279961897527603
0.0028058198458933647,-0.013846775751921623,-0.006087137590305518,0.0070067364382827005,0.004309002873381321
0.0027913955201382067,-0.013846222819434342,-0.006067135858591697,0.006994523842476667,0.004287414465834434
0.0027791829243321727,-0.013844251494914469,-0.0060505959650591174,0.006984162368475879,0.00429159752030343
0.0027818754651398017,-0.01384480442740175,-0.006045739775388214,0.006976301110939318,0.004339269916924228
0.002796468074695437,-0.013844636143601274,-0.006059466925398539,0.006981181341153146,0.0043392939574671534
0.0028016367914243693,-0.013840933899990785,-0.006095527739786435,0.0069878646120863685,0.004275177829485476
0.002796444034152512,-0.013847905657439107,-0.0060878828471362025,0.006979979314006883,0.004285875871087218
0.0027915397633957576,-0.013848170103411288,-0.0060633614933524324,0.006970098650864599,0.004330374916041881
0.0028033436699720624,-0.013844515940886648,-0.006058481263138604,0.006961083447267626,0.004368551298207199
0.0028288266454728423,-0.01384064541347568,-0.0060631932095519545,0.006930239430694511,0.004375835582713554
0.002848179282527679,-0.01384389088677059,-0.006085430711757825,0.0069197577539790965,0.004332923213591958
0.002864094121944203,-0.013843169670482831,-0.006135362919413597,0.006947981351373357,0.004334245443452848
0.002835774362378243,-0.013845597765318284,-0.0061209385936584395,0.006996326883196062,0.004374104663622936
0.0027777164512137317,-0.013842785021796028,-0.0060775454136783365,0.007029142224289046,0.004365834716856645
0.0027744709779188212,-0.013841126224334184,-0.0060512450597181,0.007034310941017978,0.0043185229283797255
0.002803680237573016,-0.013838145197011452,-0.006040426815401731,0.0070168815473971614,0.004347203296089565
0.002819258509388587,-0.013836630642807159,-0.006093364090923162,0.006996543248082389,0.004333452105536314
