channel26,channel27,channel28,channel29,channel30
0.0056738806574202355,-0.017117900306133464,-0.013591609429312876,0.0014366388046708274,-0.0048501795351719315
0.00568568456399654,-0.017117539697989587,-0.013588508199275515,0.0014307729121970628,-0.004809190409484357
0.005691334091583978,-0.01711691464387353,-0.013589181334477424,0.0014280082497606574,-0.004801184908690243
0.005694651686507664,-0.017112947954290858,-0.013588940929048172,0.0014316383717423722,-0.004777192446850829
0.0056980654436030505,-0.01711335664352059,-0.01359194599691383,0.0014348357639514325,-0.004775197081788033
0.005697344227315293,-0.017116794441158902,-0.013597282997443238,0.001428032290303583,-0.004771759284149721
0.005702128295357421,-0.01711568857618434,-0.01360043230856645,0.0014217096275142384,-0.004741804767664842
0.005702729308930552,-0.017117683941247137,-0.013601345849197607,0.0014268062226143942,-0.0047277410500535634
0.00570294567381688,-0.017120953455084974,-0.01359834078133195,0.0014310133176263153,-0.004722380008981229
0.005698978984234212,-0.017121722752458584,-0.013595311672923369,0.0014383216426755955,-0.0047430548758969565
0.00569938767346394,-0.01712025627934014,-0.013601345849197607,0.001440365088824243,-0.00468648747839381
0.005701743646670617,-0.01711802050884809,-0.013600576551824001,0.0014398842779657374,-0.0046883145596561294
0.005702416781872524,-0.017116385751929173,-0.013598533105675352,0.0014414949943417302,-0.0046578792323127465
0.005715542918309718,-0.017119679306309938,-0.013597355119072016,0.0014390428589633535,-0.004687328897396196
0.0057207597161245,-0.017121362144314704,-0.013586801320727824,0.0014388745751628767,-0.00465400870490178
0.005709148133891597,-0.01712376619860723,-0.013583555847432913,0.0014453414812097725,-0.0046527345561267405
0.005699844443779521,-0.017121410225400552,-0.013580238252509228,0.0014538518334053158,-0.004609629862661743
0.00570034929518095,-0.0171163136303004,-0.01357951703622147,0.0014568569012709735,-0.004613259984643458
0.005690973483440099,-0.01711787626559054,-0.013581560482370116,0.0014542845631779708,-0.0046159284849081605
0.005681645752785097,-0.017120376482054767,-0.013581921090513994,0.0014503178735953024,-0.004588546306516286
0.005681525550070471,-0.017120809211827417,-0.013580959468796984,0.0014463031029267831,-0.004573016115786565
0.005684963347708783,-0.01711929465762313,-0.013579877644365348,0.0014458463326112027,-0.004564914452820753
0.005682679496130882,-0.01711797242776224,-0.013580310374138002,0.001451664143999117,-0.004564601925762724
0.005677534819944877,-0.01712025627934014,-0.0135825942257159,0.0014571694283290024,-0.0045374601528001025
0.0056761164279122865,-0.017120448603683544,-0.013584613631321624,0.0014562078066119918,-0.004540152693607732
0.005681621712242172,-0.01712092941454205,-0.013585935861182516,0.0014529863738600064,-0.0045090682716053656
0.005685468199110214,-0.017123694076978453,-0.013585334847609385,0.0014528902116883054,-0.004524694624506787
0.005702681227844703,-0.01712386236077893,-0.013585671415210335,0.001455967401182739,-0.004482142863529069
0.005708282674346288,-0.01712167467137273,-0.013588508199275515,0.0014589243879625465,-0.0044922398915576795
0.005704965079422602,-0.017119823549567488,-0.013591056496825595,0.0014571213472431518,-0.004464280740135599
0.005707825904030709,-0.017122660333632668,-0.01358595990172544,0.001455053860551579,-0.004479690728150692
0.005708042268917036,-0.017120881333456198,-0.013581392198569641,0.0014598379285937063,-0.004456010793369309
0.005709556823121327,-0.017122780536347294,-0.013593484591661046,0.0014589243879625465,-0.004444086684078377
0.005714509174963932,-0.01712251609037511,-0.013599638970649914,0.001454500928064298,-0.004429445993436892
0.005715951607539447,-0.017124992266296418,-0.01359555207835262,0.0014564722525841696,-0.00444240384607361
0.005713210985645968,-0.01712285265797607,-0.013594758740436086,0.0014598138880507813,-0.004420382708754068
0.0057109992556968435,-0.017119414860337755,-0.013596585821698405,0.0014605351043385393,-0.004381677434644393
0.0057143168506205285,-0.017122948820147768,-0.013589421739906677,0.001460246617823436,-0.004395260341397167
0.005722057905442464,-0.017123814279693082,-0.013588243753303341,0.0014589003474196212,-0.0043706909065275475
0.005717754648258842,-0.01712018415771136,-0.013594013483605404,0.0014580829689601624,-0.004368431095492573
0.005710662688095889,-0.01711929465762313,-0.013584854036750877,0.0014572896310436287,-0.004331072091786714
0.005700445457352653,-0.017121097698342524,-0.01357920450916344,0.001456953063442675,-0.004346698444688135
0.005695949875825629,-0.01712092941454205,-0.013576944698128464,0.0014538758739482411,-0.0043435010524790745
0.005698906862605436,-0.0171189821305651,-0.01357367518429063,0.0014551259821803547,-0.004328643996951261
0.005698209686860603,-0.0171209774956279,-0.013573506900490152,0.001456953063442675,-0.004329148848352693
0.005696286443426582,-0.017122011238973684,-0.013577473590072822,0.0014561597255261412,-0.004297463412777196
0.00569061287529622,-0.0171209774956279,-0.013577401468444043,0.0014575300364728812,-0.004310156819441734
0.005690059942808939,-0.017119486981966532,-0.013575694589896352,0.0014517122250849676,-0.004289602155240635
0.005695396943338348,-0.017121458306486405,-0.013574396400578387,0.0014473368462725696,-0.004252675881307429
0.005698906862605436,-0.017122251644402942,-0.013575694589896352,0.0014453655217526976,-0.004236688920262128
0.005698017362517201,-0.01712016011716844,-0.013578867941562486,0.0014511833331406114,-0.004238155393380571
0.005698522213918631,-0.01711955910359531,-0.013579468955135615,0.0014634199694895707,-0.004242434610021267
0.005704436187478247,-0.017122660333632668,-0.01357636772509826,0.0014648864426080118,-0.004229356554669923
0.005705325687566481,-0.01712376619860723,-0.0135731703328892,0.0014595494420786034,-0.004210484728473592
0.005704604471278723,-0.017123718117521378,-0.01358204129322862,0.001465006645322638,-0.0041914926995626324
0.005705085282137229,-0.017122251644402942,-0.013592210442886008,0.0014614005638838485,-0.0042002915382732785
0.005714941904736586,-0.017123069022862397,-0.013590695888681715,0.001458323374389415,-0.004199690524700148
0.005715134229079989,-0.017121121738885452,-0.013581584522913042,0.0014575540770158065,-0.004170457224503027
0.005708907728462345,-0.01712299690123362,-0.013577353387358194,0.0014571934688719275,-0.004140262302588896
0.005706840241770773,-0.017122203563317086,-0.01357920450916344,0.0014553904281525327,-0.004146200316691436
0.0057052776064806295,-0.01712386236077893,-0.013579637238936095,0.0014569049823568243,-0.004158557155755021
0.005704412146935321,-0.01712193911734491,-0.013574757008722266,0.0014584435771040412,-0.0041504314522462825
0.005708715404118943,-0.01712222760386001,-0.013576223481840708,0.0014612803611692225,-0.004100138636446631
0.005708979850091121,-0.017121506387572254,-0.013582233617572024,0.0014667135238703318,-0.004093455365513408
0.005698666457176183,-0.01712181891463028,-0.01358692152344245,0.0014681319159029222,-0.004103864920600047
0.005691382172669828,-0.017124343171637437,-0.013581368158026713,0.0014696464701072136,-0.004096965284780496
0.005697632713830397,-0.01712641065832901,-0.01357454064383594,0.001469910916079392,-0.004063116200341726
0.005704532349649947,-0.01712268437417559,-0.013577233184643569,0.0014689733349053065,-0.004085233499832968
0.00570609498494009,-0.01711936677925191,-0.013574276197863763,0.0014702234431374199,-0.004053884631858424
0.005701960011556945,-0.017120136076625516,-0.013570501832624494,0.0014723870920006939,-0.004023112736914087
0.005705710336253285,-0.01712222760386001,-0.013566078372726244,0.0014736612407757331,-0.004030853791736021
0.0057147255398502595,-0.01712285265797607,-0.013567737170188091,0.001474310335434715,-0.004017823817470529
0.005707777822944858,-0.01712157850920103,-0.013575021454694443,0.0014726274974299466,-0.00400234170782666
0.0057026091062159275,-0.017123381549920425,-0.01357874773884786,0.001468372321332175,-0.003998014410100111
0.005707609539144381,-0.017125857725841732,-0.013581608563455966,0.0014689973754482318,-0.003972868002200286
0.00570609498494009,-0.01712703571244507,-0.013584998280008429,0.0014682280780746234,-0.0039489476619896475
0.0057052776064806295,-0.01712465569869546,-0.013583002914945632,0.0014661365508401255,-0.003958299433187575
0.005708186512174587,-0.017123381549920425,-0.01357401175189158,0.0014647662398933855,-0.003929018051904605
0.005706695998513221,-0.017123044982319473,-0.013566679386299378,0.0014656557399816204,-0.003941230647710639
0.005708402877060915,-0.017122732455261445,-0.01356768908910224,0.0014606553070531654,-0.003933417471259929
0.005703498606304161,-0.017124054685122334,-0.013566919791728629,0.0014574098337582551,-0.003924907119064385
0.005704724673993349,-0.01712157850920103,-0.013566030291640396,0.0014541162793774939,-0.003915387064065981
0.005707128728285876,-0.01712249204983219,-0.013567544845844687,0.0014494283735070675,-0.003908247022817177
0.005707080647200025,-0.017123044982319473,-0.013571655778684908,0.0014466156299848118,-0.003910771279824329
0.005711263701669021,-0.017120953455084974,-0.013570093143394765,0.0014610639962828948,-0.0039023090087146367
0.005715759283196046,-0.0171231651850341,-0.013556149628498113,0.001495441972666022,-0.003873268032860919
0.0057183556618319725,-0.017125449036612,-0.013558842169305745,0.0015363349361818953,-0.0038430490704038623
0.005709893390722282,-0.01712427105000866,-0.013561077939797793,0.0015833341976007856,-0.0038379765158466322
0.0057006858627819046,-0.017123093063405318,-0.013562520372373307,0.0016247560530610148,-0.0038153784054968842
0.0057069604444853995,-0.017123429631006278,-0.013565309075352637,0.0016299007292470214,-0.003837495704988127
0.005703354363046609,-0.017125473077154924,-0.013564323413092702,0.0016221596744250865,-0.0038068920938442658
0.005698474132832782,-0.01712208336060246,-0.013569299805478231,0.0016083363622430595,-0.003788116429819635
0.005700469497895578,-0.01712056880639817,-0.013580286333595077,0.001579463670189818,-0.0037971316334166096
0.005705854579510837,-0.017121602549743955,-0.013575526306095877,0.0015482109643869756,-0.003768835914393574
0.005704748714536275,-0.017122660333632668,-0.013563650277890795,0.0015258051783806296,-0.00376712903584588
0.005702464862958375,-0.01712258821200389,-0.013558770047676966,0.0015048418249497995,-0.003765013468068456
0.005704748714536275,-0.01712184295517321,-0.013555837101440085,0.0014890952693337525,-0.003754796237325219
0.005704436187478247,-0.017124727820324242,-0.0135504279792819,0.0014791905656485436,-0.003750661263942074
0.005707441255343905,-0.017128141577419632,-0.013548023924989373,0.001472194767657292,-0.0037209231123435244
0.005709484701492552,-0.017128261780134255,-0.013543143694775543,0.001466449077898154,-0.0037056573675859814
0.0057097251069218044,-0.01712669914484411,-0.013543864911063304,0.0014626747126588876,-0.003716451571359424
0.0057096529852930285,-0.017123645995892604,-0.013542085910886834,0.0014676751455873422,-0.003708422030022386
0.0057113839043836465,-0.01712234780657464,-0.013545331384181744,0.0014671702941859118,-0.003677145283676617
0.005717442121200814,-0.017124583577066692,-0.013548072006075223,0.0014624823883154856,-0.003664716322984257
0.00572857289257521,-0.017125977928556354,-0.013547134424901141,0.0014622419828862329,-0.003652984538036728
0.00573619374468252,-0.017125208631182744,-0.013545427546353446,0.0014712571864832068,-0.003642238415349136
0.005729991284607801,-0.017126314496157306,-0.013544826532780314,0.0014718101189704878,-0.003637021617534353
0.005716264134597476,-0.017126386617786083,-0.013543696627262826,0.0014653432129235918,-0.003621972237663139
0.00570609498494009,-0.017127829050361598,-0.013542735005545816,0.0014626025910301115,-0.003604446681870621
0.00571121562058317,-0.01712643469887194,-0.013545187140924193,0.0014605831854243895,-0.0036085095336249907
0.0057186201078041525,-0.01712742036113187,-0.013546821897843113,0.0014585397392757422,-0.003577016422392895
0.005726938135656293,-0.017125064387925194,-0.013543816829977452,0.001459333077192276,-0.0035695157730002134
0.0057267698518558155,-0.017123333468834576,-0.01354759119521672,0.0014615688476843256,-0.003612668547551061
0.005716240094054551,-0.017121915076801983,-0.013566559183584752,0.0014617611720277276,-0.003578122287367457
0.005709172174434524,-0.017123381549920425,-0.013568482427018773,0.0014611361179116707,-0.0035692032459421845
0.005709412579863776,-0.0171231651850341,-0.013549706762994142,0.0014560876038973655,-0.0035591062179135733
0.005715807364281896,-0.017123093063405318,-0.013542374397401935,0.001454861536208177,-0.0035366763913643033
0.005717874850973468,-0.017122419928203413,-0.01354352834346235,0.001455799117382262,-0.003542133594608338
0.00572217810815709,-0.01712518459063982,-0.013549851006251694,0.0014545490091501484,-0.0035185498219986538
0.0057268419734845906,-0.017128069455790852,-0.013546172803184127,0.0014498370627367971,-0.00349948567145892
0.005722442554129269,-0.017127324198960167,-0.013540210748538664,0.0014419036835714599,-0.0034841478050726023
0.005716985350885234,-0.017128550266649358,-0.013536941234700828,0.0014386582102765492,-0.003492874522154473
0.0057158314048248214,-0.01712862238827813,-0.013538720234877295,0.0014421681295436375,-0.0034721996552387465
0.005717922932059319,-0.017127684807104047,-0.01353896064030655,0.0014552702254379065,-0.0034979470767117038
0.005713259066731818,-0.017127300158417243,-0.01353631618058477,0.001457914685159685,-0.0034922975491242666
0.005709412579863776,-0.017128550266649358,-0.013538287505104642,0.0014565203336700202,-0.003495230495361149
0.005706407511998118,-0.017132300591345698,-0.01354266288391704,0.0014530104144029315,-0.0034842439672443035
0.00571080693135344,-0.017130930280398957,-0.01354749503304502,0.0014495485762216938,-0.003457030072652905
0.005717586364458366,-0.017130136942482426,-0.0135504279792819,0.00145058231956748,-0.003453880761529695
0.005712081080128479,-0.01712686742864459,-0.013547855641188895,0.0014514477791127895,-0.0034478706257983797
0.005707248931000502,-0.017126891469187513,-0.01354571603286855,0.0014521449548576225,-0.003420224001434326
0.005704892957793826,-0.017125665401498326,-0.013544369762464734,0.0014499813059943485,-0.003409838486890612
0.005710326120494936,-0.017123477712092126,-0.01354626896535583,0.0014451972379522211,-0.00340366006735882
0.005717273837400337,-0.01712244396874634,-0.013556967006957571,0.0014398842779657374,-0.003375556672679187
0.005719269202463135,-0.017124727820324242,-0.013568770913533876,0.001437360020958585,-0.003398563472258664
0.005720903959382052,-0.01712417488783696,-0.013563049264317664,0.001436614764127902,-0.0033728641318715572
0.005721961743270763,-0.01712290073906192,-0.01354622088426998,0.0014345713179792544,-0.0033534874542737944
0.0057144130127922315,-0.017126627023215334,-0.013542422478487788,0.0014309171554546145,-0.0033478138861434323
0.0057086192419472425,-0.01712737228004602,-0.013537133559044227,0.001426686019899768,-0.00333295683061562
0.005712105120671406,-0.017126314496157306,-0.013537542248273958,0.0014236328709482597,-0.003305839098195922
0.005710013593436907,-0.017128261780134255,-0.013535522842668237,0.0014265898577280668,-0.003300093408436784
0.005711335823297797,-0.017128093496333777,-0.013536556586014024,0.001428056330846508,-0.003292280231986073
0.005715999688625298,-0.017123742158064306,-0.013538215383475868,0.0014256522765539814,-0.003281510068755556
0.005716432418397953,-0.017125569239326625,-0.013543143694775543,0.0014283928984474615,-0.003288505866746807
0.005720591432324024,-0.017126146212356832,-0.013549634641365368,0.0014316143311994467,-0.0032520844442150325
0.005722346391957568,-0.017123141144491174,-0.013549081708878086,0.0014313979663131196,-0.003268936864805642
0.005725159135479822,-0.017121290022685927,-0.013545211181467115,0.0014306767500253616,-0.003266556851056041
0.005724365797563289,-0.017121362144314704,-0.01354511501929542,0.0014320951420579524,-0.0032540557687349048
0.005725639946338328,-0.017122660333632668,-0.01354499481658079,0.0014342107098353756,-0.003237515875202323
0.005729246027777118,-0.01712030436042599,-0.013551870411857415,0.0014376004263878374,-0.0032453771327388844
0.005728116122259631,-0.017119222535994356,-0.01355691892587172,0.001437456183130286,-0.003238501537462259
0.005732683825415431,-0.01712056880639817,-0.013551461722627686,0.0014409420618544493,-0.00321580726494081
0.005742540448014789,-0.017119535063052384,-0.013551269398284285,0.001444668346007865,-0.0031998683849813604
0.005739367096348654,-0.017121458306486405,-0.01355600538524056,0.0014457742109824274,-0.0032001809120393893
0.0057259043923105065,-0.017125665401498326,-0.01355429850669287,0.0014438269270054807,-0.003204099520536207
0.005721601135126884,-0.017126122171813904,-0.013550500100910677,0.0014394034671072324,-0.0031952526007397093
0.005720735675581574,-0.017122612252546816,-0.013549538479193666,0.0014405814537105704,-0.003172317922789008
0.0057247985273359454,-0.017120689009112795,-0.013548384533133251,0.0014475772517018222,-0.0031825111129893204
0.0057319145280418215,-0.01712025627934014,-0.013547975843903524,0.0014468800759569894,-0.003156138637400305
0.005726553486969489,-0.017123213266119947,-0.013544802492237388,0.0014506784817391813,-0.003146570501316051
0.005721601135126884,-0.017123742158064306,-0.013537830734789062,0.0014581310500460128,-0.003133829013565661
0.005720855878296201,-0.017124222968922808,-0.013541893586543431,0.001455414468695458,-0.0031136589980513647
0.005718716269975853,-0.017122107401145385,-0.01354956251973659,0.0014505582790245548,-0.0031086345245799852
0.005707537417515605,-0.017123093063405318,-0.013553120520089529,0.0014512794953123126,-0.0031064468351737857
0.005704532349649947,-0.017123573874263828,-0.013552615668688098,0.0014521930359434727,-0.0030840891302532907
0.005702128295357421,-0.017119102333279727,-0.013557207412386824,0.001456592455298796,-0.003064351844511649
0.0057072008499146525,-0.017119006171108026,-0.013561510669570448,0.001459164793391799,-0.003047523464463965
0.0057212405269830065,-0.01711979950902456,-0.013557159331300974,0.001460342779995137,-0.0030502881269003704
0.005736025460882043,-0.01712234780657464,-0.013556365993384441,0.0014610399557399695,-0.0030855075222858807
0.0057416990290124065,-0.01712290073906192,-0.013564756142865356,0.0014610399557399695,-0.0030395660447557022
0.005740136393722263,-0.017121121738885452,-0.013571319211083954,0.001459236915020575,-0.003047571545549816
0.0057399440693788615,-0.01712020819825429,-0.013565813926754069,0.001458058928417237,-0.003045095369628513
0.005736626474455175,-0.017122323766031716,-0.01355078858742578,0.0014602225772805107,-0.003013313771881314
0.005734006055276321,-0.01712018415771136,-0.013549346154850265,0.0014629631991739907,-0.003001846432905964
0.005733332920074413,-0.01712032840096892,-0.013549033627792235,0.0014597658069649307,-0.002999394297527587
0.005736337987940072,-0.017122059320059536,-0.013545211181467115,0.0014561597255261412,-0.0029923984995363358
0.005734943636450406,-0.01712222760386001,-0.013543215816404322,0.0014519285899712948,-0.002988383728867816
0.005738693961146748,-0.017122179522774162,-0.013544514005722286,0.0014523853602868748,-0.002942706697309816
0.005745232988822418,-0.01712244396874634,-0.013545884316669024,0.0014528421306024546,-0.0029247724522875693
0.005730952906324811,-0.01712249204983219,-0.013546749776214334,0.0014574338743011802,-0.0029562415229767392
0.0057171776752286355,-0.017121698711915656,-0.013550115452223873,0.0014529863738600064,-0.002951505536020462
0.005715062107451214,-0.017120376482054767,-0.013550980911769182,0.0014500534276231244,-0.002920853843790751
0.005719148999748507,-0.017120520725312317,-0.013554466790493344,0.0014499332249084981,-0.002915300478375015
0.005724101351591112,-0.01712196315788784,-0.013552591628145174,0.0014509669682542846,-0.002924267600886138
0.00573121735229699,-0.017119679306309938,-0.013546172803184127,0.0014537556712336148,-0.002917656451581691
0.005735568690566462,-0.01712025627934014,-0.01354448996517936,0.0014575781175587318,-0.0029063814369497424
0.0057271785410855465,-0.017119511022509457,-0.013540138626909887,0.0014620256179999054,-0.002893543787027652
0.005720086580922593,-0.01712020819825429,-0.013538431748362192,0.0014642133074061045,-0.002878590569328137
0.005719677891692863,-0.017120520725312317,-0.01353860003216267,0.0014625064288584107,-0.0028719794200236896
0.005726433284254861,-0.01711963122522409,-0.013537518207731034,0.0014580829689601624,-0.002827865023755832
0.005729318149405894,-0.017119126373822655,-0.01353170039634312,0.001453491225261437,-0.0028470253364672664
0.005724365797563289,-0.01711823687373442,-0.013537422045559331,0.0014528902116883054,-0.0028626757299116128
0.0057183797023748996,-0.017120689009112795,-0.013546869978928962,0.0014548374956652515,-0.0028513766747367392
0.005725952473396357,-0.01712251609037511,-0.01354672573567141,0.0014563520498695431,-0.0028238262125443872
0.005737588096172186,-0.017120376482054767,-0.013545163100381266,0.0014571213472431518,-0.0028145706035181605
0.00573441474450605,-0.017118717684592926,-0.013546990181643587,0.0014564482120412445,-0.002811926143796381
0.005714268769534679,-0.01711929465762313,-0.013552663749773949,0.0014576021581016569,-0.00280771904878446
0.005704508309107022,-0.01712386236077893,-0.013547543114130868,0.0014573857932153294,-0.002801853156310696
0.0057126580531586865,-0.01712465569869546,-0.013539321248450429,0.0014564001309553935,-0.0027821158705690547
0.005720495270152322,-0.017123333468834576,-0.013535210315610207,0.0014552702254379065,-0.0027641575850038827
0.005722442554129269,-0.01712234780657464,-0.013533503437062515,0.0014556789146676359,-0.00272651009478292
0.005722394473043418,-0.017124102766208182,-0.013534729504751705,0.0014594773204498275,-0.00274341059645938
0.005719221121377282,-0.017120857292913273,-0.013537566288816884,0.0014634680505754213,-0.0027361503524959505
0.005719269202463135,-0.01712208336060246,-0.013541052167541048,0.0014601504556517348,-0.002721125013167661
0.005723668621818457,-0.01712285265797607,-0.013541581059485405,0.0014591407528488738,-0.0027107154580810213
0.005728404608774734,-0.01712016011716844,-0.013542085910886834,0.0014629631991739907,-0.002710547174280545
0.005733621406589516,-0.017122780536347294,-0.013546148762641205,0.0014678674699307446,-0.0026837900500047266
0.005736794758255653,-0.017121049617256676,-0.01354879322236298,0.0014682280780746234,-0.002673428576003939
0.005737852542144363,-0.01712196315788784,-0.013547831600645972,0.0014628189559164392,-0.002670062899994401
0.005733861812018769,-0.017124703779781314,-0.01354549966798222,0.0014572415499577778,-0.0026605428449959965
0.005733164636273936,-0.01712605005018513,-0.013544345721921808,0.0014586839825332938,-0.0026506862223966386
0.005731962609127673,-0.017124343171637437,-0.013539970343109409,0.0014587320636191446,-0.002639435248307615
0.005737684258343887,-0.017125881766384653,-0.013546557451870932,0.0014575781175587318,-0.002630852774483296
0.005734583028306526,-0.01712559327986955,-0.013561534710113373,0.001456592455298796,-0.002638233221161352
0.005726721770769966,-0.017123694076978453,-0.013565212913180935,0.001455438509238383,-0.002600729974197941
0.005730568257638007,-0.017124848023038867,-0.013551221317198431,0.0014537075901477645,-0.002594984284438802
0.005729486433206371,-0.017127492482760645,-0.01354037903233914,0.0014497409005650962,-0.002597364298188404
0.005724726405707169,-0.017125449036612,-0.013539705897137232,0.0014547894145794011,-0.0026009222985413434
0.005720591432324024,-0.017124511455437908,-0.013540859843197646,0.0014581310500460128,-0.0025971960143879274
0.005723692662361383,-0.017125617320412474,-0.013541773383828806,0.0014561116444402904,-0.002575391241954713
0.005724005189419411,-0.01712508842846812,-0.013543937032692079,0.0014550057794657286,-0.0025553654696979684
0.005716095850796999,-0.017124054685122334,-0.013547350789787466,0.0014529382927741556,-0.0025606784296844515
0.005714340891163455,-0.017128141577419632,-0.013548312411504476,0.0014511592925976866,-0.0025506054421987664
0.0057186201078041525,-0.017128093496333777,-0.013547254627615765,0.0014506784817391813,-0.0025186315201081656
0.005721745378384436,-0.017129776334338546,-0.01354718250598699,0.0014552702254379065,-0.002555149104811641
0.005724702365164243,-0.017128694509906908,-0.01354667765458556,0.0014578185229879846,-0.0025404843736272303
0.005726313081540236,-0.01712578560421295,-0.013545523708525149,0.0014584916581898918,-0.002521828912317225
0.005726793892398741,-0.017123694076978453,-0.013546148762641205,0.0014575781175587318,-0.0025202662770270837
0.005729342189948819,-0.01712609813127098,-0.013548673019648357,0.0014611361179116707,-0.00251403977640944
0.005731986649670597,-0.017127131874616768,-0.013548072006075223,0.0014633718884037204,-0.002500384748027891
0.005736097582510819,-0.017128261780134255,-0.01354448996517936,0.001463996942519777,-0.0025109385463720807
0.0057346070688494505,-0.01712980037488147,-0.013541653181114178,0.0014650787669514141,-0.002499110599252852
0.005737467893457559,-0.017128261780134255,-0.013552471425430548,0.001464549875007058,-0.0024826187868061205
0.005753863543732589,-0.01712645873941486,-0.013562544412916232,0.0014630593613456915,-0.002468290623222664
0.005758767814489342,-0.017126122171813904,-0.01355408214180654,0.0014639248208910011,-0.002443216336951613
0.005734775352649929,-0.017126939550273366,-0.013545427546353446,0.001468300199703399,-0.00247845977288005
0.005722851243358998,-0.017126987631359215,-0.013544249559750109,0.0014681078753599973,-0.0024726179209492113
0.0057301836089512035,-0.01712650682050071,-0.013542061870343907,0.0014611120773687456,-0.002442374917949229
0.005733885852561694,-0.0171279252125333,-0.013542903289346292,0.0014561597255261412,-0.002443600985638418
0.005730856744153111,-0.01712605005018513,-0.013546341086984605,0.0014623141045150086,-0.002424464713469908
0.005720591432324024,-0.017128309861220103,-0.013544538046265209,0.001467458780701015,-0.0023960487917322466
0.005723909027247709,-0.01712879067207861,-0.013540499235053766,0.0014671462536429865,-0.002366791450992201
0.0057267698518558155,-0.017129584009995143,-0.013541004086455196,0.0014591167123059485,-0.002370373491888065
0.005729318149405894,-0.017128213699048402,-0.013545980478840728,0.0014587561041620694,-0.0023498909493157405
0.005731000987410662,-0.01712891087479324,-0.013549466357564887,0.0014655114967240686,-0.0023374860291663045
0.005729053703433715,-0.017129944618139024,-0.013548673019648357,0.0014682761591604738,-0.0023255378793324484
0.0057277314735728274,-0.017126627023215334,-0.013548985546706385,0.001462073699085756,-0.002332221150265672
0.005728813298004463,-0.017125328833897373,-0.013546918060014812,0.0014593090366493509,-0.002359867774629725
0.005728813298004463,-0.017125497117697848,-0.013551197276655508,0.0014577704419021338,-0.002316162067591596
0.0057286690547469115,-0.017126482779957784,-0.013548576857476657,0.0014511833331406114,-0.0022897174703738056
0.005731818365870121,-0.01712650682050071,-0.013546148762641205,0.001444283697321061,-0.002278658820628185
0.005732347257814478,-0.01712624237452853,-0.013544562086808137,0.0014438509675484062,-0.002272047671323737
0.005732467460529103,-0.017124078725665258,-0.01354809604661815,0.0014556548741247106,-0.002261421751350771
0.0057390786098335525,-0.01712453549598084,-0.013548528776390805,0.0014908502289672967,-0.002270124427889716
0.005744728137420989,-0.017125328833897373,-0.013545211181467115,0.0015293150976477185,-0.002257094453624223
0.0057475408809432435,-0.017124727820324242,-0.01354307157314677,0.0015697272503050865,-0.002238006262541564
0.005750113219036248,-0.017128021374705,-0.013540499235053766,0.0016063409971802628,-0.0022282938831997574
0.0057501613001220975,-0.01712951188836637,-0.013539321248450429,0.0016091537407025185,-0.002233654924272091
0.0057513633272683615,-0.017131290888542837,-0.013539080843021177,0.0016016530913098366,-0.002247093587767313
0.005745473394251672,-0.017130136942482426,-0.013541124289169823,0.0015969651854394102,-0.0022237983016727327
0.005731962609127673,-0.017132060185916446,-0.013543336019118949,0.00157371798043068,-0.0022319720862673227
0.005731121190125288,-0.017132420794060323,-0.013541773383828806,0.0015447010451198867,-0.002208845083973219
0.0057268419734845906,-0.017128357942305956,-0.013548961506163458,0.0015301805571930275,-0.0022088931650590697
0.005722202148700016,-0.017130401388454602,-0.013556365993384441,0.0015088085145324687,-0.002191079122751449
0.0057253274192803,-0.017131795739944267,-0.013553288803890009,0.0014901049721366135,-0.0021630718902435173
0.005726000554482208,-0.01713167553722964,-0.013545211181467115,0.0014793828899919456,-0.0021557154841083865
0.005724005189419411,-0.01713066583442678,-0.013542302275773159,0.0014727717406874984,-0.002166197160823801
0.005720927999924978,-0.017128189658505478,-0.013549346154850265,0.0014687088889331287,-0.002156196294966892
0.005716071810254074,-0.01712864642882106,-0.01354869706019128,0.0014676511050444171,-0.002137180225513008
0.005715879485910672,-0.017129824415424398,-0.013543961073235005,0.001468660807847278,-0.002150498686293604
0.005720927999924978,-0.017130906239856032,-0.013543744708348677,0.0014657038210674708,-0.002125208035136227
0.0057255918652524785,-0.01713174765885842,-0.013552952236289051,0.0014636603749188233,-0.0021260013730527608
0.0057289094601761644,-0.017131026442570658,-0.013556341952841515,0.0014628189559164392,-0.002126482183911266
0.005734198379619722,-0.01713157937505794,-0.013550500100910677,0.0014617371314848025,-0.0021125146284716877
0.005729318149405894,-0.01712951188836637,-0.013547663316845494,0.0014601504556517348,-0.0020971046404565943
0.0057272506627143215,-0.017129535928909298,-0.013546052600469502,0.0014601264151088095,-0.002090806018210175
0.005735472528394761,-0.01713162745614379,-0.01354499481658079,0.0014608476313965676,-0.002082415868729258
0.005744030961676156,-0.01713350261849196,-0.013545163100381266,0.0014569771039856002,-0.0020639767723055805
0.0057517479759551645,-0.01713518545649673,-0.013549298073764413,0.001451760306170818,-0.0020364263101132285
0.005751195043467884,-0.017136123037670814,-0.013552014655114969,0.0014452212784951462,-0.002027002417286525
0.005742901056158669,-0.017133718983378288,-0.01355422638506409,0.0014552461848949812,-0.0020544086362213262
0.005730784622524335,-0.017132565037317873,-0.01355408214180654,0.001464621996635834,-0.0020571973392006565
0.00573080866306726,-0.017131459172343315,-0.013553192641718306,0.0014643815912065811,-0.002026281200998767
0.005733164636273936,-0.01713398342935047,-0.013555572655467906,0.0014572415499577778,-0.002013491632162527
0.005730472095466306,-0.017134344037494347,-0.013554971641894774,0.0014574819553870304,-0.002000461657897034
0.00573172220369842,-0.0171325890778608,-0.013558433480076012,0.0014588522663337704,-0.002009188374978905
0.005732178974014001,-0.01713191594265889,-0.0135549956824377,0.001456880941813899,-0.0020025051040456813
0.005734198379619722,-0.017134392118580196,-0.013552086776743744,0.0014581070095030875,-0.0019770702096307525
0.005734967676993331,-0.017135714348441085,-0.013554514871579194,0.001457962766245536,-0.001985532480740445
0.005740785488381245,-0.01713492101052455,-0.013556702560985394,0.0014582031716747885,-0.0019736804930782907
0.005742852975072818,-0.01713427191586557,-0.013559731669393976,0.0014564482120412445,-0.001964881654367644
0.005744030961676156,-0.01713609899712789,-0.013559491263964723,0.0014556308335817855,-0.001989330886522637
0.005743622272446428,-0.0171323967535174,-0.013556606398813693,0.0014557750768393368,-0.001993970711307213
0.005736698596083951,-0.01713107452365651,-0.01355215889837252,0.0014547172929506257,-0.0019836092373064244
0.005738213150288243,-0.017134440199666045,-0.013547110384358213,0.0014512794953123126,-0.001961323654014705
0.0057457859213097,-0.01713376706446414,-0.013554586993207971,0.0014492360491636653,-0.0019437019360504866
0.0057546088005632715,-0.017131170685828208,-0.013558938331477444,0.001449284130249516,-0.0019455290173128067
0.005761219949867719,-0.01713528161866843,-0.013557039128586348,0.0014498611032797222,-0.001953678761364471
0.005759729436206353,-0.017134055550979244,-0.01356119814251242,0.0014461588596692313,-0.0019527411801903856
0.005741482664126078,-0.017136123037670814,-0.013559803791022751,0.0014418556024856093,-0.0019404805032985013
0.00572756318977235,-0.017134079591522168,-0.013553505168776334,0.0014362541559840227,-0.0019301430698406379
0.005728236324974257,-0.017131459172343315,-0.01355143768208476,0.0014289217903918176,-0.001928941042694375
0.0057397998261213105,-0.01713335837523441,-0.013551750209142791,0.0014288015876771911,-0.0019275947722905602
0.0057344628255919005,-0.017133334334691483,-0.013549370195393188,0.0014332250475754395,-0.0019559145318565206
0.0057154227155950905,-0.017129944618139024,-0.013553865776920212,0.0014324076691159804,-0.0019353117865695696
0.0057067921606849216,-0.017134896969981626,-0.01355713529075805,0.0014297151283083512,-0.0019091556758668831
0.005724077311048186,-0.017135906672784487,-0.013557568020530705,0.00143007573645223,-0.0018605937791578509
0.005744992583393165,-0.017137252943188304,-0.01356143854794167,0.0014358454667542935,-0.0018162389774607395
0.0057504978677230525,-0.01713595475387034,-0.013565669683496515,0.0014409420618544493,-0.0017964055295473969
0.00574710815117059,-0.017134440199666045,-0.013563986845491748,0.0014393794265643073,-0.001812897341994128
0.005749271800033863,-0.017134752726724076,-0.013563097345403514,0.001432984642146187,-0.0018107577336737798
0.005751122921839109,-0.01713234867243155,-0.013560404804595885,0.00142824865518991,-0.0018304709788724953
0.0057504978677230525,-0.017129776334338546,-0.013553817695834363,0.0014263494522988142,-0.0018193642480410239
0.005745425313165822,-0.017131146645285287,-0.01355768822324533,0.0014265417766422164,-0.0017814763523908079
0.005739823866664235,-0.01712980037488147,-0.013570165265023542,0.0014324797907447565,-0.0017938331914543935
0.005739703663949609,-0.017128045415247928,-0.013573338616689676,0.0014350280882948346,-0.0017690954727842976
0.005742444285843089,-0.017126651063758262,-0.01356742464313006,0.0014321913042296534,-0.0017735189326825453
0.005747853408001272,-0.017127901171990374,-0.013557207412386824,0.0014337779800627207,-0.0017948428942572547
0.005754560719477421,-0.017129487847823442,-0.013550235654938498,0.001435605061325041,-0.001781091703704004
0.005755522341194432,-0.01713025714519705,-0.013551557884799387,0.0014336096962622438,-0.0017629651343383551
0.005753983746447215,-0.017129872496510247,-0.013555163966238177,0.001433080804317888,-0.0017590705663844625
0.005755378097936879,-0.01713025714519705,-0.0135570872096722,0.0014405814537105704,-0.00177207650010703
0.005753166367987756,-0.017129824415424398,-0.013556293871755665,0.0014476734138735234,-0.0017585657149830321
0.005752276867899521,-0.01712568944204125,-0.013557399736730228,0.0014478416976740002,-0.00173786680752438
0.005746867745741337,-0.017127324198960167,-0.013561270264141194,0.0014463031029267831,-0.0017191151840426743
0.005728717135832762,-0.017130329266825825,-0.0135620395615148,0.001446375224555559,-0.001734332847714366
0.005720903959382052,-0.017129079158593713,-0.013563289669746915,0.0014443317784069115,-0.0017120953455084975
0.0057258322706817315,-0.01712951188836637,-0.013562231885858205,0.0014437307648337801,-0.0016926705868248845
0.005727130459999695,-0.01713066583442678,-0.013559683588308127,0.0014469041164999151,-0.0016946178708018306
0.005726409243711937,-0.017129872496510247,-0.013554562952665043,0.0014519766710571454,-0.0016607687863630593
0.005729967244064876,-0.0171302090641112,-0.013560044196452006,0.0014563520498695431,-0.0016520420692811887
0.005734246460705573,-0.017130689874969702,-0.013572833765288244,0.0014541643604633445,-0.0016575713941539994
0.005736217785225446,-0.01713071391551263,-0.013579348752420992,0.0014522651575722485,-0.0016335789323145865
0.005738213150288243,-0.01712951188836637,-0.013575622468267576,0.0014545490091501484,-0.001634925202718401
0.005738718001689673,-0.017128213699048402,-0.013566102413269172,0.0014550057794657286,-0.0016416565547374752
0.00573984790720716,-0.01713107452365651,-0.013557447817816077,0.0014546451713218494,-0.0016167745928098273
0.005739415177434507,-0.01713234867243155,-0.01355408214180654,0.0014525296035444266,-0.0016119664842247745
0.0057408095289241705,-0.0171325890778608,-0.013561414507398744,0.0014512794953123126,-0.001613456997886141
0.005742660650729416,-0.01713213230754522,-0.013565982210554543,0.0014479378598457012,-0.001596772861096008
0.005745232988822418,-0.01713607495658496,-0.013563698358976646,0.0014500774681660495,-0.001572059182968837
0.005744776218506839,-0.0171393444704228,-0.01356021248025248,0.0014512554547693875,-0.00156823673664372
0.005742516407471864,-0.017136002834956192,-0.013560909655997315,0.0014482744274466552,-0.0015725640343702675
0.005747877448544199,-0.017133430496863184,-0.013563698358976646,0.001447192603015018,-0.0015682848177295706
0.0057526374760434006,-0.017132228469716917,-0.013564732102322431,0.001450389995224078,-0.0015641498443464256
0.005751002719124482,-0.017134752726724076,-0.013564972507751684,0.0014489716031914875,-0.001549244707732762
0.005747516840400319,-0.01713636344310007,-0.013563698358976646,0.0014458222920682778,-0.0015479465184147975
0.005740424880237367,-0.017134464240208973,-0.013560885615454387,0.0014456059271819506,-0.0015401814230499376
0.0057342945417914225,-0.01713203614537352,-0.013563962804948823,0.0014473368462725696,-0.0015499418834775945
0.0057276112708582,-0.017132901604918833,-0.013565285034809712,0.001450029387080199,-0.0015515766403965126
0.00572715450054262,-0.017131098564199438,-0.013567472724215912,0.0014524094008298,-0.0015452299370642428
0.005725399540909076,-0.017131867861573044,-0.013569924859594287,0.0014535633468902127,-0.0015508794646516798
0.005730856744153111,-0.01713119472637114,-0.01356490038612291,0.001454404765892597,-0.001525901340552331
0.005732275136185701,-0.0171324929156891,-0.013557952669217508,0.0014510390898830599,-0.0015023416084855724
0.005732058771299374,-0.01713398342935047,-0.013561871277714323,0.0014452693595809964,-0.0015015963516548892
0.005733765649847068,-0.01713431999695142,-0.013568530508104623,0.0014479378598457012,-0.0015126790419434358
0.005736410109568848,-0.017131964023744745,-0.013567544845844687,0.0014548855767511026,-0.0014753440787805016
0.005734775352649929,-0.017131699577772566,-0.013567713129645165,0.001453947995577017,-0.001440749737511047
0.00573364544713244,-0.01713119472637114,-0.013565140791552159,0.0014521449548576225,-0.0014362301154410974
0.00573797274485899,-0.01712965613162392,-0.013563241588661065,0.0014471685624720928,-0.0014386582102765492
0.0057436703535322774,-0.01713294968600468,-0.013562135723686504,0.0014476974544164484,-0.0014511352520547608
0.005755209814136403,-0.017134079591522168,-0.013558505601704787,0.0014540922388345686,-0.0014166130324140824
0.0057632393554734405,-0.017135353740297208,-0.01355778438541703,0.0014522651575722485,-0.001397500800788498
0.005763816328503648,-0.017132156348088148,-0.013561919358800176,0.0014516401034561914,-0.0014084392478194928
0.005746915826827188,-0.01713191594265889,-0.013564203210378076,0.0014538277928623907,-0.001410074004738411
0.005721504972955183,-0.0171325890778608,-0.013566655345756452,0.0014536835496048392,-0.0013813695964856464
0.005711456026012422,-0.017132228469716917,-0.013568626670276323,0.0014535633468902127,-0.0013565116751009234
0.005719990418750892,-0.017131459172343315,-0.013567015953900332,0.0014533950630897358,-0.0013417267412018864
0.005728693095289837,-0.017130906239856032,-0.013564203210378076,0.0014528902116883054,-0.0013228549150055544
0.005729414311577596,-0.0171323967535174,-0.013565813926754069,0.0014539720361199425,-0.0013028531832917356
0.005730375933294605,-0.01713191594265889,-0.013568025656703193,0.001455486590324234,-0.0012465261912178425
0.00573528020405136,-0.017130016739767797,-0.01356910748113483,0.0014531786982034086,-0.0012778510186494609
0.005741098015439274,-0.017127612685475267,-0.013566102413269172,0.0014528421306024546,-0.0012894866414252884
0.005742780853444042,-0.01713263715894665,-0.013563794521148346,0.0014533469820038857,-0.0012542912865827027
0.005741650947926555,-0.01713441615912312,-0.013567881413445641,0.001451543941284491,-0.0012441221369253162
0.0057401844748081144,-0.01713761355133218,-0.01357244911660144,0.0014536354685189886,-0.0012511900565453438
0.005745449353708747,-0.017135113334867953,-0.013578507333418607,0.0014533710225468107,-0.0012613832467456554
0.005750209381207949,-0.017135233537582582,-0.013573290535603823,0.001445389562295623,-0.001257681003135165
0.005746987948455963,-0.017134488280751897,-0.013563409872461542,0.0014421440890007124,-0.0012429201097790528
0.005739511339606206,-0.017137445267531703,-0.013562760777802559,0.0014438028864625554,-0.0012431364746653805
0.005741386501954378,-0.017139632956937902,-0.013562953102145964,0.0014442596567781356,-0.0012503967186288099
0.0057446319752492885,-0.017140402254311512,-0.013563650277890795,0.0014469521975857653,-0.001242463339463473
0.005746026326738953,-0.017138166483819463,-0.013564996548294609,0.0014481782652749535,-0.001258426259965848
0.00574482429959269,-0.017134945051067482,-0.013562328048029905,0.0014480340220174024,-0.0012475358940207035
0.005749151597319237,-0.017131314929085758,-0.01355600538524056,0.0014476253327876728,-0.0012254907161582374
0.005750642110980603,-0.017134872929438702,-0.013558721966591115,0.001440365088824243,-0.0012137829717536336
0.005744006921133232,-0.017136988497216125,-0.013560092277537857,0.0014372878993298092,-0.0011952717537011804
0.005733837771475844,-0.017134752726724076,-0.013559731669393976,0.0014358935478401438,-0.0011934927535247114
0.005734030095819245,-0.017136531726900543,-0.013559851872108605,0.0014382976021326706,-0.0011989499567687462
0.005738549717889196,-0.01713379110500706,-0.013559875912651528,0.0014441394540635091,-0.0011976517674507818
0.005740929731638797,-0.017132757361661283,-0.013561174101969492,0.0014476253327876728,-0.001189550104484968
0.0057416990290124065,-0.0171346806050953,-0.013562808858888413,0.0014489475626485622,-0.0011649806696153483
0.00574852654320318,-0.017134704645638224,-0.013564611899607806,0.0014496447383933948,-0.0011717601027202726
0.005756844571055322,-0.01713883961902137,-0.013564323413092702,0.0014513516169410885,-0.0011837803741829047
0.0057545366789344965,-0.017138310727077014,-0.013566535143041826,0.0014501495897948256,-0.00118426118504141
0.005746314813254056,-0.017135618186269384,-0.013575742670982202,0.0014509188871684338,-0.0011524795872942116
0.005741434583040227,-0.017134993132153328,-0.013572016386828787,0.0014538999144911664,-0.0011447144919293512
0.005748334218859778,-0.017134368078037268,-0.013564083007663449,0.0014558952795539633,-0.0011481763301105894
0.005746579259226234,-0.017135377780840132,-0.01356778525127394,0.001458251252760639,-0.001153008479238567
0.005749031394604611,-0.017137589510789256,-0.013574059832977431,0.001459333077192276,-0.001137117680364968
0.0057521566651848955,-0.017135930713327408,-0.013564371494178551,0.001460679347596091,-0.0011373580857942207
0.005748141894516376,-0.017136026875499113,-0.01355494760135185,0.0014594773204498275,-0.0011228616384102866
0.005745064705021942,-0.01713792607839021,-0.013554442749950421,0.001457049225614376,-0.0011265879225637026
0.005747805326915423,-0.017136411524185918,-0.013555236087866952,0.0014533950630897358,-0.0011016097984643538
0.005756387800739741,-0.01713638748364299,-0.013555188006781104,0.0014522411170293232,-0.0010920897434659497
0.005753839503189664,-0.017133190091433933,-0.013553505168776334,0.0014576502391875075,-0.0011165389756209424
0.005746435015968682,-0.017134704645638224,-0.013553264763347079,0.001463900780348076,-0.001099470190144005
0.005735063839165032,-0.017135642226812308,-0.013553505168776334,0.0014665452400698551,-0.001079204012458008
0.005727923797916229,-0.01713559414572646,-0.013553240722804156,0.0014695743484784381,-0.0010738670119285994
0.005738333353002868,-0.017138599213592117,-0.013555308209495728,0.001469742632278915,-0.0010742757011583286
0.005742420245300164,-0.01713802224056191,-0.01355783246650288,0.0014636122938329727,-0.001074083376814927
0.005742901056158669,-0.0171369644566732,-0.013559371061250098,0.001459068631220098,-0.0010524468881821898
0.005743021258873295,-0.017135882632241563,-0.01355997207482323,0.0014579868067884614,-0.0010272523991965133
0.005748983313518761,-0.017135882632241563,-0.013559948034280305,0.00145971772587908,-0.0010354261837911027
0.005755762746623684,-0.017137805875675583,-0.013559875912651528,0.0014581070095030875,-0.0010206893309779165
0.005750882516409856,-0.017140474375940292,-0.0135618472371714,0.001455799117382262,-0.0010144147492744224
0.005743838637332754,-0.01713782991621851,-0.01356564564295359,0.0014532748603751095,-0.0010505236447481683
0.005741963474984583,-0.017137252943188304,-0.013569900819051364,0.0014456780488107262,-0.0010055678294779255
0.00575172393541224,-0.017140354173225663,-0.013576896617042616,0.0014394034671072324,-0.0010065054106520106
0.0057604025714082605,-0.017140786902998317,-0.013562159764229429,0.0014419277241143852,-0.001013909897872992
0.0057593688280624744,-0.017142445700460158,-0.013545691992325623,0.00146245834777256,-0.000995014031133735
0.005750906556952782,-0.017140474375940292,-0.01354718250598699,0.0014991922973623631,-0.0009725120829556881
0.005745281069908271,-0.017138647294677966,-0.01355088474959748,0.0015437875044887269,-0.0009832341651003556
0.00574893523243291,-0.017138118402733608,-0.013550259695481423,0.0015832620759720095,-0.0009698916637768343
0.0057573013413709006,-0.017137733754046806,-0.013549971208966321,0.0015944649689751827,-0.0009615736359246932
0.0057620613688701035,-0.017138647294677966,-0.013547062303272362,0.0015816273190530914,-0.0009513804457243816
0.00575350293558871,-0.017139969524538858,-0.01354571603286855,0.0015619861954831516,-0.0009303449706647758
0.0057439107589615295,-0.017141916808515803,-0.013548937465620534,0.001539412125676329,-0.0009471973912553855
0.005733501203874889,-0.017138863659564296,-0.013551605965885238,0.0015116933796835,-0.0009381100660296359
0.005740953772181722,-0.017137805875675583,-0.013552663749773949,0.001491811850684307,-0.0009154157935081873
0.005753623138303336,-0.01713920022716525,-0.013553457087690485,0.001475392159866352,-0.0009162331719676461
0.005750978678581557,-0.017140883065170018,-0.013554827398637222,0.0014612082395404466,-0.0009017848056695627
0.005741867312812883,-0.017138911740650145,-0.013556197709583964,0.0014601744961946599,-0.0008673587482005852
0.005736530312283474,-0.01713893578119307,-0.013557952669217508,0.0014619294558282044,-0.0008562279768261883
0.005737732339429737,-0.017139777200195456,-0.013560789453282688,0.0014585878203615928,-0.0008740660596767338
0.005739559420692057,-0.017137805875675583,-0.013561390466855821,0.0014563520498695431,-0.0008609880043253902
0.005741554785754854,-0.01713768567296096,-0.0135595633855935,0.001456424171498319,-0.0008477176246306447
0.005744103083304932,-0.01713847901087749,-0.01356783333235979,0.0014522411170293232,-0.0008241338520209613
0.0057431895426737715,-0.017136844253958568,-0.013569011318963127,0.0014532989009180348,-0.0008581752608031345
0.005743478029188875,-0.01713544990246891,-0.013559851872108605,0.0014575300364728812,-0.0008663250048547988
0.005745401272622896,-0.017139729119109604,-0.013554442749950421,0.0014566645769275718,-0.0008298314606942486
0.005748550583746105,-0.017140354173225663,-0.013551557884799387,0.0014560395228115151,-0.0008117048913286
0.005748550583746105,-0.017137276983731232,-0.013548745141277132,0.0014572175094148528,-0.0008050937420241525
0.0057480697728876,-0.017136219199842515,-0.013548216249332777,0.0014534431441755866,-0.0008113202426417957
0.005752276867899521,-0.01713595475387034,-0.013547831600645972,0.0014513516169410885,-0.0007958381329979261
0.00575441647621987,-0.017139488713680352,-0.0135459564382978,0.0014547653740364758,-0.0007943957004224102
0.005754320314048169,-0.0171376375918751,-0.01354549966798222,0.001455222144352056,-0.0007958381329979261
0.005773769113274706,-0.017138719416306743,-0.01354718250598699,0.0014507265628250314,-0.0007853804968254363
0.005783120884472634,-0.017141291754399747,-0.013549370195393188,0.0014511592925976866,-0.000788097078175991
0.00575802255765866,-0.017141772565258253,-0.013552471425430548,0.0014495966573075446,-0.0007580944806052621
0.005736097582510819,-0.01713847901087749,-0.01355732761510145,0.00144738492735842,-0.0007713648603000076
0.005739126690919402,-0.017138599213592117,-0.013562544412916232,0.0014464713867272602,-0.0007711965764995308
0.005747444718771543,-0.017141604281457775,-0.013566727467385228,0.0014452693595809964,-0.0007549211289391274
0.005752060503013193,-0.017141556200371926,-0.013569083440591904,0.0014494764545929179,-0.0007451606685114704
0.005754440516762795,-0.01714057053811199,-0.013562640575087931,0.00144921200862074,-0.0007280197614057576
0.00575862357123179,-0.017137228902645376,-0.01356134238576997,0.0014429133863743207,-0.0007321787753318278
0.005758407206345463,-0.017133574740120738,-0.013568193940503669,0.0014430576296318724,-0.0007237645853079858
0.005759416909148324,-0.017133670902292442,-0.013569540210907484,0.001454068198291643,-0.0007038349752229423
0.005760907422809691,-0.017134896969981626,-0.013566991913357406,0.001453034454945857,-0.0006987864612086369
0.005766268463882025,-0.017135618186269384,-0.01356687171064278,0.0014513756574840136,-0.00067765482397733
0.00577552407290825,-0.017135401821383057,-0.013562760777802559,0.0014492360491636653,-0.0006610668493588983
0.005773360424044977,-0.017137445267531703,-0.013563818561691272,0.001446447346184335,-0.0006920791497324883
0.005764729869134808,-0.017131771699401343,-0.01356482826449413,0.0014455097650102494,-0.0006797703917547532
0.005760570855208737,-0.01713331029414856,-0.013560813493825614,0.0014457742109824274,-0.0006823908109336071
0.0057675426126570645,-0.017137541429703404,-0.013557976709760432,0.0014474810895301212,-0.0006912377307301043
0.005773721032188857,-0.017136026875499113,-0.013558361358447235,0.001445654008267801,-0.0006771499725758996
0.005768071504601418,-0.017136219199842515,-0.013560236520795408,0.0014461348191263062,-0.0006350790224566884
0.005757012854855798,-0.01713427191586557,-0.01356417916983515,0.0014404131699100936,-0.0006345260899694072
0.005743045299416221,-0.017130377347911674,-0.013565068669923384,0.0014383216426755955,-0.0006498639563557255
0.005740448920780292,-0.017131699577772566,-0.013561053899254868,0.0014396679130794106,-0.0006326028465353862
0.0057432616643025465,-0.017136267280928368,-0.013555644777096684,0.001439355386021382,-0.0006154138583438228
0.005743958840047379,-0.017138118402733608,-0.013558890250391592,0.0014402208455666914,-0.0006161591151745059
0.0057415307452119285,-0.017137276983731232,-0.013563962804948823,0.0014407016564251967,-0.0006395986445266379
0.0057435020697318,-0.017137709713503882,-0.013564443615807328,0.001438898615705802,-0.0006188997370679861
0.005749680489263593,-0.01713472868618115,-0.013561246223598269,0.0014374081020444354,-0.000595099599571975
0.005762446017556907,-0.01713595475387034,-0.013563866642777122,0.0014392111427638304,-0.0005886086529821537
0.0057761731675672326,-0.017136435564728842,-0.01357033354882402,0.0014400044806803642,-0.0005850266120862894
0.005785548979308087,-0.017134368078037268,-0.013572256792258038,0.0014360618316406211,-0.0005704580430735799
0.005788097276858165,-0.017135882632241563,-0.013568626670276323,0.0014370474939005564,-0.0005627891098804207
0.005787111614598228,-0.017136026875499113,-0.013563097345403514,0.0014429374269172464,-0.00055086500058949
0.005796751872311259,-0.017139320429879874,-0.013558553682790641,0.0014430095485460216,-0.000543484553911434
0.00579684803448296,-0.017139368510965727,-0.013560356723510034,0.001444283697321061,-0.0005238674708844188
0.005778048329915403,-0.017138310727077014,-0.01355453891212212,0.00144418753514936,-0.0004970863060656754
0.005767783018086316,-0.017136291321471292,-0.013543624505634051,0.0014482744274466552,-0.0005151167132596232
0.0057688888830608786,-0.017135666267355236,-0.013544057235406705,0.001447192603015018,-0.0005464415406912415
0.005766821396369306,-0.01713595475387034,-0.013546076641012428,0.0014424085349728905,-0.0005296852822723328
0.0057618930850696255,-0.01713879153793552,-0.01354622088426998,0.001438081237246343,-0.0005046590770871333
0.005756580125083143,-0.01714333520054839,-0.013545932397754876,0.0014378408318170904,-0.0004920858731372206
0.005754200111333542,-0.017143743889778122,-0.013548528776390805,0.001441374791627104,-0.0005004279415322869
0.005752445151699997,-0.017142710146432337,-0.013550115452223873,0.0014454136028385482,-0.0004854266427469225
0.005752252827356596,-0.017138599213592117,-0.01354749503304502,0.0014461348191263062,-0.0004716514116507465
0.005759969841635604,-0.017139464673137428,-0.013545740073411474,0.001451592022370341,-0.00047179565490829806
0.0057594890307771,-0.01714304671403329,-0.013552231020001295,0.001447817657131075,-0.00045811658598382315
0.005762830666243712,-0.01714451318715173,-0.013554586993207971,0.001442841264745545,-0.00044876481478589553
0.005766124220624473,-0.01714249378154601,-0.013555524574382057,0.0014382254805038945,-0.00046492005963167277
0.005766316544967875,-0.017140474375940292,-0.01355860176387649,0.0014398842779657374,-0.00047028110070400646
0.00576497027456406,-0.017138310727077014,-0.01356244825074453,0.0014524334413727256,-0.0004515054366793755
0.005766917558541007,-0.01713989740291008,-0.013563241588661065,0.0014529142522312307,-0.00044285084122628064
0.005773432545673753,-0.017141027308427568,-0.013556390033927366,0.0014477936165881494,-0.0004337875565434562
0.005774153761961511,-0.0171417244841724,-0.01354773543847427,0.0014519526305142199,-0.0004212624336793939
0.005766220382796174,-0.017139969524538858,-0.013541220451341523,0.0014552461848949812,-0.00040455425634633576
0.0057703072750934685,-0.01714093114625587,-0.013536460423842324,0.0014555346714100845,-0.00039856816115794514
0.005778360856973432,-0.01714198893014458,-0.013540956005369344,0.0014515199007415654,-0.00042318567711341516
0.005780596627465481,-0.017140907105712942,-0.013543720667805752,0.0014494043329641422,-0.0003924137821690777
0.005780476424750855,-0.01714121963277097,-0.013543648546176977,0.0014474330084442706,-0.0003813070513376059
0.005779899451720649,-0.01714016184888226,-0.013540763681025943,0.001445750170439502,-0.00035842045447275487
0.005769153329033056,-0.01713802224056191,-0.013542302275773159,0.0014502217114236013,-0.00037301306402839
0.005755137692507627,-0.0171368682945015,-0.013543408140747722,0.001454597090235999,-0.00036943102313252566
0.005745401272622896,-0.017140233970511034,-0.013544105316492557,0.0014527940495166042,-0.00035738671112696863
0.005742227920956761,-0.017138238605448237,-0.01354590835721195,0.0014475772517018222,-0.00034868403458802313
0.005747180272799366,-0.017138334767619938,-0.013546172803184127,0.0014467598732423633,-0.0003542133594608338
0.005753815462646738,-0.01714107538951342,-0.013543143694775543,0.0014488994815627116,-0.00035438164326131067
0.005756652246711918,-0.017141291754399747,-0.013547134424901141,0.0014505342384816295,-0.0003362069928098114
0.005760546814665811,-0.017138190524362388,-0.01354910574942101,0.0014491398869919644,-0.000346207858666721
0.005759801557835129,-0.017136700010701018,-0.01354641320861338,0.0014480821031032528,-0.00036808475272871087
0.00575766194951478,-0.017137373145902933,-0.013545018857123716,0.001446495427270185,-0.0003366397225824661
0.005757445584628453,-0.017135642226812308,-0.013547038262729438,0.001444668346007865,-0.0002990162729044286
0.005761748841812075,-0.01713583455115571,-0.013548769181820056,0.0014523853602868748,-0.00033791387135750505
0.005765859774652295,-0.017136675970158097,-0.013549394235936114,0.0014541643604633445,-0.00033623103335273663
0.005764152896104601,-0.017136315362014216,-0.013549009587249307,0.001450293833052377,-0.00031473878797755095
0.005762974909501263,-0.017136411524185918,-0.01354499481658079,0.0014515199007415654,-0.00029694878621285594
0.005760186206521933,-0.017136627889072244,-0.013541220451341523,0.001451592022370341,-0.0002976459619576886
0.005757878314401108,-0.017137084659387826,-0.013540162667452813,0.001453491225261437,-0.00028528912289410314
0.0057621334904988785,-0.01713787799730436,-0.01353667678872865,0.001454140319920419,-0.0002486753760189266
0.005764801990763583,-0.01713751738916048,-0.01354198974871513,0.0014514237385698644,-0.0002397803751365791
0.005766556950397127,-0.017141916808515803,-0.013544754411151536,0.0014489956437344128,-0.00024403555123435079
0.005780548546379632,-0.017140089727253484,-0.013543624505634051,0.0014514237385698644,-0.00024367494309047178
0.005785140290078357,-0.017140522457026137,-0.013538239424018793,0.0014556067930388602,-0.00023889087504834434
0.005777495397428122,-0.017141171551685118,-0.01353357555869129,0.0014577464013592087,-0.0002597099852216226
0.005774802856620493,-0.01713879153793552,-0.013538696194334373,0.0014534431441755866,-0.00021266264271688171
0.005768359991116522,-0.01714066670028369,-0.01354028287016744,0.0014475772517018222,-0.00018388611283534124
0.005750089178493322,-0.017141315794942668,-0.013539633775508457,0.0014496928194792456,-0.0001912906000563224
0.005740761447838321,-0.017140594578654914,-0.013540763681025943,0.00145149586019864,-0.00019237242448795928
0.0057485746242890295,-0.017141916808515803,-0.013547951803360598,0.001453491225261437,-0.00021516285918110915
0.005753839503189664,-0.017140834984084162,-0.013552279101087146,0.0014543086037208956,-0.00021737458913023344
0.005755113651964703,-0.01714299863294744,-0.01354352834346235,0.0014559193200968884,-0.0002056908852685553
0.005757325381913828,-0.017139488713680352,-0.013534128491178571,0.0014551981038091306,-0.0001961467897272257
0.005758479327974239,-0.017140594578654914,-0.013532085045029923,0.001454044157748718,-0.0001745824227232642
0.005761532476925748,-0.017141844686887026,-0.013533936166835169,0.0014536835496048392,-0.0001659999488989451
0.0057635518825314685,-0.017140955186798798,-0.01353631618058477,0.0014539960766628676,-0.00017025512499671674
0.00576446542316263,-0.01713828668653409,-0.013535931531897966,0.0014559914417256645,-0.00019246858665966036
0.005768720599260402,-0.017141363876028524,-0.013530089679967128,0.001459429239363977,-0.00015847525896333763
0.005771509302239732,-0.01714275822751819,-0.013533311112719113,0.0014553423470666821,-0.00016934158436555678
0.0057717497076689855,-0.017142157213945058,-0.013535066072352657,0.0014561116444402904,-0.00014931581210881218
0.005771437180610957,-0.017144200660093704,-0.013529897355623726,0.0014561116444402904,-0.0001121972138322052
0.005774153761961511,-0.01714482571420976,-0.013530137761052977,0.0014544288064355225,-0.00012082776874237482
0.005777038627112542,-0.017142037011230432,-0.013528142395990182,0.0014512794953123126,-0.00011794290359134322
0.0057807889518088846,-0.017141532159828998,-0.01353271009914598,0.0014488754410197865,-0.00012301545814857382
0.005771316977896329,-0.017142325497745532,-0.013539729937680158,0.001449284130249516,-0.00012479445832504332
0.005761147828238943,-0.017143214997833767,-0.013542422478487788,0.0014521449548576225,-9.657086093078386e-05
0.00576533088270794,-0.017142565903174787,-0.01354403319486378,0.0014528421306024546,-0.00010265311829087554
0.0057657155313947436,-0.017141652362543624,-0.013543336019118949,0.0014533950630897358,-0.00011575521418514421
0.005763624004160245,-0.017134440199666045,-0.013545571789610996,0.0014553423470666821,-0.00010089815865733133
0.00576025832815071,-0.017133045848176383,-0.013554250425607015,0.0014512314142264625,-7.666529138866561e-05
0.005759464990234175,-0.01713542586192598,-0.013549947168423395,0.0014494764545929179,-7.822792667880774e-05
0.005761340152582345,-0.017137373145902933,-0.01353448909932245,0.0014495245356787685,-8.149744051664358e-05
0.0057675426126570645,-0.017140955186798798,-0.013530306044853457,0.001450750603367957,-6.654422281712962e-05
0.0057686244370887,-0.017141532159828998,-0.013535042031809729,0.0014506784817391813,-6.031772219948635e-05
0.00577004282912129,-0.017143190957290843,-0.01353636426167062,0.0014526978873449033,-5.9572465368803184e-05
0.005783168965558486,-0.017141940849058727,-0.013535931531897966,0.0014523132386580991,-4.433076115418607e-05
0.005797449048056093,-0.01714249378154601,-0.013531411909828015,0.00145058231956748,-2.0410420943548792e-05
0.005789996479749261,-0.017143960254664452,-0.013522949638718324,0.0014528421306024546,6.827514190774861e-06
0.0057705476805227215,-0.01714316691674792,-0.013522132260258866,0.0014537556712336148,-2.5026205185199398e-05
0.005759537111862951,-0.017141940849058727,-0.013524416111836765,0.0014512314142264625,-5.264878900632727e-06
0.005763335517645143,-0.01714376793032105,-0.013527349058073648,0.0014552461848949812,1.197219037678127e-05
0.005773528707845454,-0.017142517822088938,-0.013529801193452023,0.0014615928882272507,7.067919620027498e-06
0.0057781444920871035,-0.017142974592404516,-0.013532686058603057,0.0014630112802598411,2.3920340210637275e-05
0.005764874112392359,-0.0171417244841724,-0.013534272734436123,0.0014679876726453704,2.735813784894997e-05
0.005751483529982988,-0.017141435997657297,-0.01353525839669606,0.0014750315517224732,2.319912392287937e-05
0.005750113219036248,-0.017141844686887026,-0.013535859410269193,0.0014751517544370994,3.36808006382943e-05
0.005758767814489342,-0.017141195592228046,-0.013536965275243751,0.0014724351730865447,2.5026205185199398e-05
0.005767350288313661,-0.01714081094354124,-0.013537205680673006,0.0014704638485666726,2.6829245904594173e-05
0.0057705476805227215,-0.01714107538951342,-0.013537662450988586,0.0014674828212439402,5.0749586115231454e-05
0.005766677153111754,-0.017143359241091317,-0.013538527910533895,0.001466449077898154,6.469310101188432e-05
0.005763383598730993,-0.017146532592757453,-0.013545812195040249,0.0014664971589840045,4.012366614226493e-05
0.005765547247594266,-0.0171438160114069,-0.013557063169129272,0.0014665452400698551,1.5890798873599233e-05
0.005765907855738146,-0.01714222933557383,-0.013550956871226255,0.0014621939018003825,3.2935543807611134e-05
0.005768191707316046,-0.017145546930497517,-0.013540499235053766,0.0014614726855126244,3.276726000713428e-05
0.00577552407290825,-0.017143431362720094,-0.013533479396519587,0.001463636334375898,4.425863952541028e-05
0.005777230951455946,-0.01714614794407065,-0.013528406841962359,0.0014643815912065811,5.911569505322318e-05
0.005772519005042593,-0.017147085525244736,-0.013530474328653931,0.0014665452400698551,3.072381385848688e-05
0.005778913789460713,-0.017147686538817868,-0.01352489692269527,0.0014628189559164392,4.80089642217514e-05
0.00577857722185976,-0.017145715214298,-0.013526411476899562,0.0014609918746541193,0.00010217230743237026
0.0057705476805227215,-0.017143647727606418,-0.013528310679790658,0.001455414468695458,0.0001261888098147086
0.005769513937176935,-0.017142565903174787,-0.013527757747303377,0.0014464713867272602,9.60179284435028e-05
0.005773985478161035,-0.01714775866044664,-0.013525546017354251,0.001444019251348883,0.00010760547013347983
0.0057722064779845645,-0.017146821079272557,-0.013524584395637244,0.001445125116323445,0.0001277274045619255
0.005764777950220658,-0.017145018038553162,-0.013526916328300992,0.0014559193200968884,0.00014876287962153114
0.005764273098819227,-0.01714552288995459,-0.013528791490649164,0.001485320904094486,0.00015547019109767965
0.005771316977896329,-0.017144969957467313,-0.013527877950018002,0.0015249156782923949,0.00016328336754839034
0.0057736489105600815,-0.017146628754929154,-0.013529176139335969,0.0015690060340173284,0.00016352377297764297
0.005777495397428122,-0.017146436430585752,-0.013529296342050594,0.001615861052178667,0.00015849929950626288
0.00578050046529378,-0.017144753592580983,-0.013528647247391612,0.0016330500403702304,0.00016208134040212715
0.005779562884119695,-0.017145354606154115,-0.013528527044676985,0.0016222077555109367,0.0001709042196556989
0.0057766539784257385,-0.017146893200901334,-0.013528310679790658,0.0016076391864982274,0.00017210624680196208
0.005771220815724629,-0.017144993998010238,-0.013528310679790658,0.0015815792379672412,0.0001868671401580739
0.005767109882884409,-0.017143239038376692,-0.013530257963767604,0.001552562302656448,0.0001823234775451991
0.0057676868559146145,-0.017145763295383847,-0.0135390087213924,0.0015308777329378605,0.00018458328858017388
0.005772446883413818,-0.01714521036289656,-0.013540330951253291,0.001510491352537237,0.00019278111371768877
0.0057710284913812275,-0.01714367176814935,-0.013528527044676985,0.0014879172827304144,0.00018900674847842242
0.0057691292884901315,-0.01714468147095221,-0.013526147030927384,0.001470992740511029,0.00018963180259447919
0.005764729869134808,-0.01714660471438623,-0.013527757747303377,0.0014598138880507813,0.0001965073978711046
0.005765210679993313,-0.017147734619903716,-0.013524512274008466,0.0014598138880507813,0.00021992288668031134
0.005762806625700787,-0.01714725380904521,-0.013530065639424202,0.0014651268480372645,0.0002449490918655108
0.005762109449955954,-0.01714634026841405,-0.01352718077427317,0.0014692137403345589,0.00024653576769857814
0.005763744206874872,-0.01714696532253011,-0.013518285773390823,0.0014736372002328078,0.00023244800954437368
0.005774322045761988,-0.017144753592580983,-0.01351915123293613,0.0014658961454108727,0.000251079430311453
0.005782567951985353,-0.017145138241267788,-0.013522468827859818,0.0014586839825332938,0.00024139109151257167
0.005783265127730186,-0.01714222933557383,-0.013526820166129293,0.0014575300364728812,0.0002627871747160563
0.005774081640332735,-0.01714340732217717,-0.013529031896078415,0.0014587080230762189,0.0002671865940713796
0.0057645135042484795,-0.017144657430409282,-0.01352819047707603,0.0014645017939212074,0.0002752401759513428
0.005766148261167398,-0.01714376793032105,-0.01352708461210147,0.0014642133074061045,0.00028839035293146207
0.005768071504601418,-0.0171442968222654,-0.013526387436356636,0.0014620496585428307,0.0002826446631723241
0.005772422842870892,-0.01714737401175984,-0.013527685625674602,0.0014640209830627025,0.0002878614609871063
0.00577552407290825,-0.017148167349676374,-0.013531123423312913,0.0014619775369140546,0.00030305508411587284
0.0057775194379710475,-0.01714888856596413,-0.013535234356153131,0.0014588522663337704,0.0003126953418289036
0.005776990546026692,-0.017149008768678756,-0.01353165231525727,0.0014605591448814644,0.00031307999051570783
0.005774225883590287,-0.01714670087655793,-0.01352429590912214,0.0014601504556517348,0.00031711880172715214
0.005775956802680907,-0.017144753592580983,-0.013531820599057746,0.0014598379285937063,0.0003035839760602287
0.005775283667478997,-0.017142613984260636,-0.01352946462585107,0.0014544288064355225,0.00033712053344097135
0.0057761731675672326,-0.017143503484348867,-0.013525497936268402,0.001455029820008654,0.0003482272642724431
0.005776702059511589,-0.017144441065522955,-0.013529152098793042,0.0014528421306024546,0.00034005347967785364
0.005776605897339888,-0.017145018038553162,-0.013528743409563313,0.0014551500227232802,0.00036327664414365817
0.0057779281272007784,-0.01714903280922168,-0.013530402207025156,0.0014556308335817855,0.0003803694701635206
0.005779370559776293,-0.01715021079582502,-0.01353042624756808,0.0014555827524959347,0.000367459698612654
0.0057804523842079295,-0.01714710956578766,-0.013527397139159498,0.0014509910087972095,0.00037123406385192046
0.005791871642097431,-0.017146412390042828,-0.0135298733150808,0.0014478416976740002,0.00037830198347194786
0.005799107845517936,-0.017146412390042828,-0.013533359193804963,0.0014463271434697086,0.0003863555653519112
0.005789563749976604,-0.01714275822751819,-0.01353280626131768,0.001455967401182739,0.00041371370320086116
0.005778384897516357,-0.017143094795119142,-0.013531868680143595,0.0014545490091501484,0.00040178959390993046
0.005778216613715879,-0.01714239761937431,-0.013532541815345505,0.0014431297512606483,0.00037173891525335096
0.0057853085738788345,-0.017143118835662066,-0.01353271009914598,0.001436614764127902,0.0003937360120299672
0.005784539276505225,-0.0171440083357503,-0.013532181207201623,0.0014377927507312398,0.00041751210898305287
0.0057787935867460866,-0.017147398052302764,-0.0135344410182366,0.0014443317784069115,0.0004330663402556983
0.005773841234903482,-0.0171507637283123,-0.013537037396872528,0.0014427931836596946,0.0004316960293089583
0.005768143626230195,-0.017149177052479234,-0.013529224220421816,0.0014429374269172464,0.00042854671818574885
0.0057731921402445,-0.017149225133565083,-0.013518814665335178,0.0014416392375992818,0.00045667415340830723
0.005779562884119695,-0.01714737401175984,-0.013523310246862204,0.0014401246833949904,0.00044787531469766086
0.005769682220977412,-0.017146027741356026,-0.013533936166835169,0.0014403410482813177,0.0004363598946364595
0.005760691057923363,-0.017144561268237584,-0.01353280626131768,0.0014380091156175672,0.00045775597783994406
0.005754801124906674,-0.017142037011230432,-0.013529031896078415,0.0014316383717423722,0.0005029762390823648
0.005762277733756431,-0.017139777200195456,-0.01353369576140592,0.0014312537230555678,0.0004703772628757073
0.005778913789460713,-0.017139272348794025,-0.01353677295090035,0.0014342828314641513,0.0004555442478908199
0.005786390398310471,-0.01714331116000547,-0.013529368463679371,0.001435605061325041,0.00045006300410385967
0.005791198506895524,-0.017143094795119142,-0.013524704598351868,0.001429066033649369,0.00046309297836935256
0.005802762008042575,-0.017141099430056345,-0.013523815098263631,0.0014257965198115332,0.00047643547969287384
0.005804757373105372,-0.01714427278172248,-0.013524247828036287,0.0014238973169204373,0.00046518450560385056
0.005795718128965473,-0.017142950551861588,-0.01352465651726602,0.001421829830228865,0.00047910397995757823
0.005787231817312855,-0.017139488713680352,-0.01352689228775807,0.0014244502494077185,0.0004932879002834837
0.005784996046820805,-0.017144320862808333,-0.013531556153085569,0.001426517736099291,0.0005131213481968261
0.005791511033953553,-0.01714057053811199,-0.013537109518501305,0.0014225029654307722,0.0005373061343796413
0.005794684385619687,-0.01713893578119307,-0.013532830301860609,0.0014259407630690848,0.0005414651483057119
0.0057891791012898005,-0.0171391521460794,-0.013526868247215142,0.0014297632093942015,0.0005101162803311681
0.0057781444920871035,-0.017139825281281305,-0.01352722885535902,0.001437720629102464,0.0005329788366530941
0.0057734806267596035,-0.01713852709196334,-0.013528839571735014,0.001442745102573844,0.0005331952015394213
0.005769874545320814,-0.017139705078566683,-0.013533431315433737,0.0014407016564251967,0.0005229539302532589
0.005773721032188857,-0.017139777200195456,-0.013531147463855841,0.0014368070884713039,0.000526776376578376
0.005777279032541795,-0.017138551132506268,-0.013529224220421816,0.0014364224397844993,0.0005409122158184309
0.0057782406542588064,-0.017139104064993547,-0.013530786855711959,0.0014423364133441144,0.0005645200289710398
0.005778721465117311,-0.01714001760562471,-0.013531940801772372,0.0014469041164999151,0.0005733669487675367
0.00578309684392971,-0.017141508119286074,-0.013530955139512435,0.0014498370627367971,0.0005573319066363859
0.005789395466176129,-0.017140258011053962,-0.013528430882505285,0.0014519526305142199,0.0005679337860664273
0.0057912706285243,-0.017136267280928368,-0.01352412762532166,0.0014496687789363198,0.0005865411662905811
0.005784467154876449,-0.0171387674973926,-0.013522300544059342,0.0014493081707924412,0.0005649767992866198
0.005779442681405069,-0.017139224267708173,-0.01352648359852834,0.0014475772517018222,0.0005673808535791461
0.005783361289901887,-0.017139031943364767,-0.013529440585308146,0.0014436105621191534,0.0005833918551673715
0.0057840103845608675,-0.017140907105712942,-0.013532830301860609,0.0014443317784069115,0.0006033935868811909
0.005791150425809672,-0.017140762862455392,-0.013530474328653931,0.0014437067242908544,0.0006055331952015393
0.005795309439735744,-0.017141844686887026,-0.013524560355094315,0.0014476974544164484,0.0006178659937221997
0.005795477723536221,-0.017142157213945058,-0.013525666220068878,0.0014546692118647749,0.0006298141435560556
0.005799612696919366,-0.01714107538951342,-0.01351941567890831,0.001456592455298796,0.0006241646159686186
0.005788986776946399,-0.01714112347059927,-0.013517468394931365,0.0014594773204498275,0.000619356507383566
0.005775836599966279,-0.017143118835662066,-0.013523815098263631,0.0014591167123059485,0.0006200056020425482
0.005777783883943226,-0.017145354606154115,-0.01352754138241705,0.0014460146164116798,0.000649190821153818
0.005785092208992506,-0.017144176619550783,-0.013531003220598288,0.0014423364133441144,0.00064207482044794
0.005788746371517147,-0.017143383281634245,-0.013535450721039462,0.0014487792788480851,0.0006435412935663811
0.005784130587275495,-0.017141892767972882,-0.013531556153085569,0.0014541884010062696,0.0006663557688024563
0.005778961870546564,-0.017142926511318664,-0.013524872882152345,0.0014586118609045179,0.0006601773492706635
0.005789756074320008,-0.017146027741356026,-0.01352129084125648,0.0014552461848949812,0.0006736400533088111
0.005791631236668178,-0.017144609349323433,-0.013520160935738993,0.0014500774681660495,0.0006793376619820986
0.0057766539784257385,-0.017145018038553162,-0.013520257097910694,0.0014457982515253525,0.0006685915392945058
0.0057707159643231995,-0.01714715764687351,-0.013521338922342332,0.0014459905758687547,0.0006827033379916355
0.005779370559776293,-0.0171487683632495,-0.013521218719627704,0.0014474570489871961,0.0007173217198040153
0.005778649343488535,-0.01714686916035841,-0.013526074909298608,0.0014515199007415654,0.0006953727041132495
0.005782543911442428,-0.01714624410624235,-0.013532974545118159,0.001454861536208177,0.0007054697321418603
0.00578542877659346,-0.017144344903351254,-0.01352833472033358,0.0014541643604633445,0.0007175140441474173
0.005789635871605381,-0.017143888133035676,-0.013523310246862204,0.0014530825360317074,0.0007063111511442443
0.005788914655317622,-0.01714275822751819,-0.013521723571029137,0.0014529382927741556,0.0007318422077308742
0.005785500898222236,-0.017141315794942668,-0.013515737475840743,0.001448923522105637,0.0007322989780464543
0.005778913789460713,-0.017144969957467313,-0.013517396273302588,0.0014440673324347337,0.000734462626909728
0.005774610532277091,-0.017146917241444258,-0.013524271868579213,0.0014469041164999151,0.0007467713848874631
0.005775500032365326,-0.01714684511981548,-0.01352306984143295,0.0014518324277995938,0.0007392707354947807
0.005781942897869296,-0.017148816444335354,-0.013525065206495749,0.0014526498062590527,0.0007550894127396043
0.0057811736004956885,-0.01714888856596413,-0.013526820166129293,0.0014569290228997494,0.0007475406822610714
0.0057879049525147615,-0.01714573925484092,-0.013524704598351868,0.0014580829689601624,0.0007535508179923872
0.005796968237197587,-0.01714674895764378,-0.013523286206319278,0.001453947995577017,0.0007697301033810896
0.0058034591837874076,-0.017143888133035676,-0.013525017125409895,0.001450293833052377,0.0007868710104868027
0.005801776345782639,-0.017146171984613576,-0.0135299694772525,0.001452120914314697,0.0007442952089661611
0.0057934823584734245,-0.017145042079096087,-0.013531171504398764,0.0014527219278878286,0.0007744420497944414
0.00578050046529378,-0.01714345540326302,-0.01353280626131768,0.0014559914417256645,0.0007778317663469036
0.005766941599083932,-0.01713989740291008,-0.013535955572440892,0.0014582752933035644,0.0007701628331537446
0.005759681355120503,-0.017140498416483213,-0.01353850386999097,0.0014584435771040412,0.0007897558756378343
0.005763816328503648,-0.017142157213945058,-0.013533431315433737,0.0014565684147558706,0.0008101182154955326
0.0057677589775433896,-0.01714001760562471,-0.013522949638718324,0.001452120914314697,0.0008210326219836023
0.005775187505307297,-0.017139921443453006,-0.013518574259905929,0.0014509429277113591,0.0008286294335479856
0.005784923925192029,-0.017139031943364767,-0.013522132260258866,0.0014502697925094516,0.0008257205278540287
0.0057874481821991825,-0.01714033013268274,-0.013528815531192088,0.0014519045494283695,0.0008297352985225477
0.005782303506013175,-0.0171440083357503,-0.013526627841785887,0.0014530825360317074,0.000854857665879448
0.005770427477808095,-0.017144128538464927,-0.013526459557985412,0.0014508227249967328,0.0008267302306568898
0.005761869044526701,-0.017140426294854436,-0.01353042624756808,0.0014488994815627116,0.0008321153122721488
0.005772110315812863,-0.01714020992996811,-0.013529584828565696,0.0014463031029267831,0.00084180365107103
0.005779610965205546,-0.017140594578654914,-0.013525666220068878,0.0014533469820038857,0.0008544970577355691
0.005782303506013175,-0.01713975315965253,-0.01352242074677397,0.0014574098337582551,0.0008550740307657754
0.005792424574584711,-0.017139969524538858,-0.01352165144940036,0.0014583714554752653,0.0008602187069517819
0.005793506399016349,-0.017141339835485596,-0.013525017125409895,0.0014591167123059485,0.0008793790196632169
0.00578136592483909,-0.017139921443453006,-0.013524632476723092,0.0014589484285054714,0.000893611021074973
0.005768432112745298,-0.017136916375587348,-0.01352850300413406,0.0014537316306906896,0.000909117171261768
0.00576725412614196,-0.01713768567296096,-0.013532085045029923,0.0014522651575722485,0.0008791145736910392
0.005770595761608572,-0.017138743456849667,-0.013534416977693677,0.0014584916581898918,0.0008932023318452435
0.0057807649112659575,-0.01713782991621851,-0.013535763248097491,0.001459693685336155,0.0008631276126457388
0.005788337682287417,-0.01713583455115571,-0.013535138193981432,0.0014550057794657286,0.0008781529519740286
0.005793265993587096,-0.01713782991621851,-0.013538167302390016,0.0014525536440873515,0.0008810618576679855
0.005787977074143538,-0.017137036578301974,-0.013537061437415454,0.0014552702254379065,0.0008808935738675086
0.00577720691091302,-0.01713787799730436,-0.01353316686946156,0.001455486590324234,0.0009041407788762382
0.005769586058805711,-0.017140762862455392,-0.013524536314551392,0.001453587387433138,0.0009100066713500027
0.005769225450661832,-0.017141676403086552,-0.0135208340709409,0.0014513516169410885,0.0009200075372069127
0.005776052964852607,-0.017140089727253484,-0.0135228294360037,0.0014473368462725696,0.0009238780646178801
0.005775692356708728,-0.017140786902998317,-0.013523791057720707,0.0014466877516135874,0.0009223154293277377
0.005769778383149114,-0.017140955186798798,-0.01352941654476522,0.0014497168600221704,0.0009314748761822633
0.005768480193831149,-0.017139416592051575,-0.013530185842138828,0.0014473368462725696,0.0009595301897760457
0.005775788518880429,-0.017137565470246332,-0.01352525753083915,0.0014481542247320285,0.0009540729865320113
0.0057821352222126995,-0.01713785395676144,-0.013524223787493362,0.001452217076486398,0.0009307777004374306
0.0057835536142452895,-0.017139681038023755,-0.013530714734083184,0.0014520007116000707,0.0009708773260367703
0.005780428343665004,-0.01714148407874315,-0.013533359193804963,0.0014521689954005474,0.000976598975252983
0.005777303073084721,-0.01714888856596413,-0.013530666652997334,0.0014546451713218494,0.0009655643660502867
0.005780211978778677,-0.017151965755458562,-0.013530209882681755,0.001458155090588938,0.0009721995558976596
0.005783962303475019,-0.017151941714915638,-0.01353170039634312,0.0014542364820921204,0.0009671029607975039
0.005787856871428912,-0.01714893664704998,-0.013534392937150749,0.0014555587119530096,0.000980517583749801
0.005782471789813652,-0.017147638457732015,-0.013539561653879682,0.001463203604603243,0.0009900857198340556
0.005770667883237348,-0.01714747017393154,-0.013539249126821652,0.0014733006326318539,0.0009917445172958992
0.005762734504072011,-0.017150451201254267,-0.013535522842668237,0.0014747911462932204,0.0009864075167664906
0.005768047464058494,-0.01715186959328686,-0.013531772517971895,0.001469021415991157,0.0010100634110049498
0.005775932762137981,-0.01715290333663265,-0.013530618571911485,0.001463900780348076,0.0009766710968817586
0.00578136592483909,-0.01715136474188543,-0.013536099815698444,0.001468372321332175,0.000982705273156
0.005782664114157054,-0.017151028174284478,-0.013537614369902735,0.0014690454565340822,0.0010079959243133774
0.005781245722124464,-0.017150667566140598,-0.013534657383122928,0.001464621996635834,0.0010322047510391175
0.005782567951985353,-0.01715223020143074,-0.013541124289169823,0.0014692618214204095,0.001022925101469966
0.005779707127377247,-0.017152518687945845,-0.013550211614395572,0.0014742141732630141,0.0010174919387688564
0.005776822262226215,-0.017156461336985587,-0.013550355857653124,0.0014745026597781173,0.0010475185768825106
0.005784899884649104,-0.01715468233680912,-0.013549995249509244,0.001471737997341712,0.0010567982264516624
0.005787496263285033,-0.017152254241973666,-0.013554322547235792,0.0014718582000563384,0.001054466293787912
0.0057778560055720025,-0.017150330998539645,-0.01354961060082244,0.0014723149703719186,0.0010651883759325797
0.005776509735168187,-0.017148648160534876,-0.013532469693716728,0.0014692618214204095,0.0011030281904969444
0.005779923492263574,-0.017151508985142984,-0.013528478963591134,0.0014640209830627025,0.001061053402549434
0.005777351154170571,-0.017151557066228833,-0.013525594098440105,0.0014614005638838485,0.0010503553609476917
0.005778336816430507,-0.017148455836191474,-0.013525882584955207,0.001451592022370341,0.0010765835932791542
0.005781438046467866,-0.017148263511848068,-0.013528911693363791,0.0014390668995062786,0.0011056005285899474
0.005784322911618897,-0.017150379079625497,-0.013532445653173804,0.001434451115264628,0.0010930513651829599
0.0057949728721347895,-0.01714944149845141,-0.013534368896607824,0.0014512554547693875,0.0010975709872529094
0.005797304804798541,-0.01714924917410801,-0.013530883017883659,0.0014974613782717439,0.0010968738115080768
0.0057963912641673795,-0.01714929725519386,-0.013529777152909098,0.0015371282740984287,0.0011058168934762749
0.005794347818018733,-0.017148816444335354,-0.013536556586014024,0.0015706167503933212,0.0011131011779826297
0.005787231817312855,-0.01715249464740292,-0.013538816397048998,0.0016123270923686533,0.001138487991311708
0.005774346086304913,-0.017151821512201012,-0.013540691559397168,0.0016283621344998045,0.0011452433838737071
0.005760546814665811,-0.01715381687726381,-0.013542374397401935,0.001626054242378979,0.0011240396250136245
0.005760210247064858,-0.017153768796177957,-0.0135435764245482,0.0016097066731897995,0.001134136653042235
0.005767999382972643,-0.017153215863690674,-0.013542831167717515,0.0015797761972478465,0.0011532969657536704
0.005773576788931305,-0.017154538093551566,-0.013540859843197646,0.001544556801862335,0.001157191533707563
0.005783769979131615,-0.017153985161064287,-0.013542638843374116,0.0015222231374847654,0.0011516862493776779
0.005783577654788214,-0.01714994634985284,-0.01353915296464995,0.0015077266901008313,0.0011679616969380812
0.005766989680169783,-0.017147181687416437,-0.0135344410182366,0.0014940957022622071,0.0011786597385398234
0.005765619369223042,-0.01714521036289656,-0.013534921829095105,0.0014779164168735046,0.001167024115763996
0.005770980410295376,-0.017145162281810716,-0.013540330951253291,0.001466449077898154,0.0011749094138434825
0.005772158396898714,-0.01714634026841405,-0.013539898221480634,0.0014618573341994285,0.0011724813190080307
0.005771605464411433,-0.01715021079582502,-0.013537614369902735,0.0014526257657161276,0.0011776981168228132
0.005772470923956743,-0.017148095228047597,-0.013536123856241368,0.0014482744274466552,0.0011631535883530285
0.0057749230593351205,-0.017149537660623108,-0.013529825233994949,0.0014596456042503044,0.0011536816144404743
0.0057752115458502215,-0.017149008768678756,-0.01352850300413406,0.0014710167810539538,0.0011793328737417306
0.0057804523842079295,-0.017150691606683525,-0.013534200612807348,0.0014698868755364664,0.00117923671157003
0.005788650209345446,-0.017149128971393382,-0.0135365325454711,0.0014685406051326518,0.001176520130219475
0.005787856871428912,-0.017150138674196243,-0.01354220611360146,0.001466929888756659,0.0011706061566598602
0.0057858615063661155,-0.01714924917410801,-0.01354672573567141,0.0014615688476843256,0.0011829629957234456
0.0057908619392945705,-0.017151653228400534,-0.013540643478311316,0.0014597417664220054,0.00122258181046428
0.005796247020909829,-0.017150451201254267,-0.0135390087213924,0.0014572415499577778,0.0012304671085437667
0.005802449480984547,-0.017149513620080187,-0.01353484970746633,0.0014577704419021338,0.0012147926745564948
0.005796511466882007,-0.017150138674196243,-0.013531003220598288,0.0014551500227232802,0.0012306594328871687
0.005780981276152285,-0.017149153011936306,-0.013528478963591134,0.0014535152658043625,0.0012768653563895252
0.005768840801975028,-0.017150451201254267,-0.013527397139159498,0.0014551981038091306,0.001231332568089076
0.0057706198021514965,-0.017151052214827402,-0.013532493734259654,0.0014562799282407677,0.001245396285700355
0.005775572153994101,-0.017152831215003873,-0.013539802059308931,0.001454500928064298,0.0012680184365930285
0.005779322478690442,-0.017153095660976052,-0.013533743842491766,0.0014524094008298,0.0012525122864062333
0.005789972439206335,-0.01715254272848877,-0.013526748044500516,0.0014518324277995938,0.0012648450849268935
0.005796703791225409,-0.01715254272848877,-0.013527156733730243,0.001449115846449039,0.0012706869368577325
0.005789395466176129,-0.0171552352692964,-0.013534008288463946,0.0014506063601104054,0.0012955688987853805
0.0057810053166952105,-0.017159875094080974,-0.013533287072176187,0.0014486831166763846,0.0012971315340755225
0.00577999561389235,-0.017163096526832962,-0.013534657383122928,0.0014484667517900569,0.0012952563717273519
0.005783601695331139,-0.017162687837603233,-0.013535354558867759,0.0014504861573957789,0.0013054976430135145
0.005787279898398706,-0.017159995296795603,-0.013535691126468713,0.0014534671847185115,0.0013307402130850411
0.005796198939823978,-0.017159778931909273,-0.013536244058955994,0.0014562799282407677,0.001302468534604931
0.00580136765655291,-0.01716030782385363,-0.01353484970746633,0.0014525055630015009,0.0013093200893386312
0.005798026021086298,-0.017159490445394172,-0.01353362363977714,0.001454500928064298,0.0013140320357519829
0.005785140290078357,-0.017157879729018177,-0.013541364694599076,0.0014544288064355225,0.0013122049544896624
0.00577908207326119,-0.017157783566846482,-0.013542446519030712,0.0014518805088854444,0.0013232395636923588
0.005780885113980585,-0.0171574229587026,-0.013536099815698444,0.001445750170439502,0.0013379523759626205
0.005777783883943226,-0.01715648537752851,-0.0135344410182366,0.0014425768187733671,0.0013505736609983835
0.00577314405915865,-0.017156870026215316,-0.01353992226202356,0.0014422642917153387,0.0013547086343815287
0.0057710284913812275,-0.017157374877616746,-0.01354073964048302,0.0014410141834832252,0.0013514150800007676
0.005774273964676138,-0.017155115066581773,-0.013534465058779524,0.0014422402511724134,0.0013700945818536975
0.005774201843047362,-0.01715391303943551,-0.013530282004310529,0.0014415671159705061,0.0013734362173203091
0.005773865275446407,-0.017154225566493538,-0.013529945436709576,0.0014403410482813177,0.0013432893764920284
0.005782952600672157,-0.017152783133918024,-0.013531003220598288,0.0014386822508194745,0.001351823769230497
0.005792785182728591,-0.017151100295913255,-0.01354220611360146,0.0014354127369816388,0.0013910819758274524
0.005801728264696789,-0.017153672634006255,-0.013537373964473482,0.0014315662501135965,0.0014060592340698918
0.0058065363732818405,-0.017154153444864758,-0.013521507206142808,0.001420579721996751,0.0013992076793361914
0.0058039399946459135,-0.01715614880992756,-0.01352621915255616,0.0014188728434490574,0.001408367126190717
0.005798362588687252,-0.01715622093155634,-0.013535643045382862,0.0014292102769069206,0.001413559883462574
0.0057936987233597505,-0.01715662962078606,-0.013539080843021177,0.0014318306960857743,0.0014044725582368243
0.0057995646158335145,-0.017157278715445045,-0.013540090545824036,0.0014299074526517533,0.0014145215051795848
0.005804637170390745,-0.017155884363955383,-0.013540643478311316,0.0014276716821597034,0.0014244262088647932
0.005794588223447986,-0.017150427160711346,-0.013542855208260441,0.0014241858034355404,0.0014313258446843435
0.005780812992351809,-0.01714802310641882,-0.013544514005722286,0.0014257484387256824,0.001405818828640639
0.005779298438147517,-0.017145354606154115,-0.013541821464914656,0.0014288015876771911,0.0014027416391462055
0.005788505966087894,-0.01714533056561119,-0.013533311112719113,0.0014312056419697177,0.001416661113499933
0.00579456418290506,-0.017147325930673987,-0.013526243193099086,0.0014344270747217028,0.001422575087059548
0.005794203574761182,-0.017148167349676374,-0.013525858544412279,0.0014295468445078745,0.001442288332258264
0.005789395466176129,-0.017152422525774143,-0.013526098949841534,0.0014261330874124868,0.0014476253327876728
0.005787832830885986,-0.01714944149845141,-0.013535378599410685,0.0014318787771716247,0.0014378648723600155
0.005795621966793772,-0.01715208595817319,-0.013538840437591923,0.0014446923865507905,0.0014456299677248756
0.0057936266017309754,-0.017154922742238368,-0.013537999018589538,0.0014450529946946696,0.0014574819553870304
0.0057879049525147615,-0.01715417748540769,-0.01353617193732722,0.0014416151970563567,0.0014582031716747885
0.005784346952161823,-0.017153792836720885,-0.013534200612807348,0.0014474089679013453,0.001467458780701015
0.00577684630276914,-0.0171531437420619,-0.013532541815345505,0.0014508708060825832,0.0014939514590046556
0.005776437613539411,-0.01715350435020578,-0.01352367085500608,0.0014528902116883054,0.0014597417664220054
0.0057808610734376605,-0.017153528390748702,-0.013526868247215142,0.0014567126580134222,0.0014675789834156412
0.0057836257358740645,-0.017152302323059518,-0.013536195977870143,0.0014551740632662055,0.0014820754307995753
0.00578533261442176,-0.01715432172866524,-0.01354028287016744,0.0014510631304259856,0.0014897443639927345
0.005788289601201567,-0.017155139107124698,-0.013542494600116564,0.0014545249686072233,0.0015191940290761822
0.005798554913030654,-0.017152711012289247,-0.013545740073411474,0.0014568328607280484,0.0015299401517637752
0.005796583588510783,-0.017152590809574618,-0.013548985546706385,0.0014555587119530096,0.0015052024330936787
0.005786510601025097,-0.017152470606859992,-0.013540595397225469,0.0014527459684307539,0.0014882538503313682
0.005782375627641951,-0.01715391303943551,-0.013533936166835169,0.0014517362656278926,0.0015007789731954302
0.005789780114862933,-0.01715198979600149,-0.013530546450282708,0.0014507746439108822,0.0015264061919537616
0.005807473954455927,-0.017154538093551566,-0.01353667678872865,0.0014498130221938714,0.0015450135721779155
0.005800117548320796,-0.017156557499157288,-0.013539080843021177,0.0014504621168528538,0.0015060438520960626
0.005782015019498072,-0.017157182553273347,-0.013540403072882064,0.0014522891981151738,0.001522896272686673
0.0057678551397150925,-0.017153792836720885,-0.013535474761582386,0.001453202738746334,0.0015434028558019225
0.005773264261873276,-0.01715186959328686,-0.013535114153438508,0.001453947995577017,0.0015430903287438939
0.0057787935867460866,-0.017153937079978438,-0.013535691126468713,0.0014513035358552381,0.0015389313148178234
0.0057835536142452895,-0.017152855255546797,-0.013536917194157902,0.0014407016564251967,0.0015602071953066822
0.0057913187096101494,-0.017152614850117546,-0.013536003653526744,0.001439547710364784,0.001560567803450561
0.005799011683346234,-0.01715583628286953,-0.013535835369726265,0.0014521930359434727,0.0015470810588694881
0.005805694954279458,-0.017157374877616746,-0.013538527910533895,0.001455318306523757,0.0015464560047534312
0.005791198506895524,-0.017156870026215316,-0.0135389125592207,0.0014544768875213727,0.0015749200075769432
0.005772663248300143,-0.01715650941807144,-0.013537662450988586,0.0014525055630015009,0.001608985456902042
0.0057699947480354405,-0.017157062350558718,-0.013537614369902735,0.0014561597255261412,0.0015631882226294148
0.005768408072202373,-0.0171575191208743,-0.013539778018766008,0.0014547894145794011,0.0015713860477669294
0.005770427477808095,-0.017156677701871913,-0.01353987418093771,0.0014531546576604833,0.0015890558468169985
0.0057768703433120645,-0.017154994863867148,-0.013542302275773159,0.001453587387433138,0.0015959074015506984
0.005778865708374863,-0.017154802539523745,-0.013547134424901141,0.0014536354685189886,0.001596941144896485
0.005782760276328756,-0.01715624497209926,-0.013544850573323237,0.0014519526305142199,0.00158148307579554
0.0057852124117071324,-0.017155403553096873,-0.013541845505457579,0.001451760306170818,0.0015918445497963294
0.005781341884296165,-0.017154994863867148,-0.013540523275596692,0.0014528661711453801,0.0016235540259147516
0.005781486127553717,-0.01715547567472565,-0.013543504302919424,0.0014536354685189886,0.0016338193377438387
0.00578598170908074,-0.017155884363955383,-0.013535474761582386,0.001453130617117558,0.0016242271611166589
0.005786582722653873,-0.01715475445843789,-0.013530282004310529,0.001451664143999117,0.0016471137579815098
0.005791943763726206,-0.017155667999069053,-0.013528983814992564,0.0014514237385698644,0.0016332904457994832
0.0057990357238891605,-0.01715174939057224,-0.013529632909651548,0.0014521930359434727,0.0016361031893217391
0.005794083372046554,-0.01715600456667001,-0.013531748477428971,0.0014530104144029315,0.0016328336754839034
0.005792592858385189,-0.017155259309839323,-0.013534392937150749,0.0014498370627367971,0.0016615861648225185
0.005791246587981374,-0.01715061948505475,-0.01353509011289558,0.0014487071572193097,0.001681227288392459
0.005787880911971837,-0.017149729984966514,-0.013534416977693677,0.0014541162793774939,0.001692165735423454
0.005773456586216678,-0.017153720715092108,-0.013533960207378095,0.0014626506721159625,0.001679784855816943
0.005762470058099833,-0.017153360106948227,-0.013533936166835169,0.0014611120773687456,0.0016666346788368242
0.005765114517821612,-0.017154009201607208,-0.01353581132918334,0.001456135684983216,0.0016794242476730642
0.005781029357238136,-0.017152855255546797,-0.013541028126998122,0.0014598138880507813,0.0016931994787692402
0.005787279898398706,-0.017153384147491155,-0.013543504302919424,0.0014576502391875075,0.001693920695056998
0.0057782406542588064,-0.017153215863690674,-0.013543864911063304,0.0014556789146676359,0.0016907954244767141
0.005777567519056897,-0.017152855255546797,-0.013536845072529127,0.001458155090588938,0.0016760104905776767
0.005778889748917789,-0.017152783133918024,-0.013530762815169036,0.0014566645769275718,0.0017161101161770164
0.005781534208639567,-0.01715648537752851,-0.013539802059308931,0.0014590926717630234,0.0016976710197533394
0.005782159262755624,-0.01715674982350069,-0.013556365993384441,0.0014580348878743118,0.0016850497347175755
0.0057888906147746996,-0.01715622093155634,-0.0135528079930315,0.0014542364820921204,0.001703032060825673
0.005789395466176129,-0.017156317093728037,-0.013543023492060921,0.0014513516169410885,0.0017080324937541276
0.005792544777299338,-0.017157543161417224,-0.013539657816051385,0.0014553663876096074,0.0017197642787016565
0.005798554913030654,-0.01715857690476301,-0.013540859843197646,0.001463203604603243,0.0017314960636491848
0.0058010070484090315,-0.017160163580596074,-0.013540811762111795,0.001463203604603243,0.0017452953352882865
0.005803074535100604,-0.017156389215356813,-0.013534392937150749,0.0014575300364728812,0.0017540460929130824
0.005798458750858953,-0.017153384147491155,-0.013531556153085569,0.0014577223608162836,0.001768999310612596
0.005788650209345446,-0.01715458617463742,-0.013534416977693677,0.001455029820008654,0.001754286498342335
0.00577953884357677,-0.01715547567472565,-0.013537373964473482,0.0014536835496048392,0.001747074335464756
0.005776726100054514,-0.01715715851273042,-0.013537373964473482,0.001454404765892597,0.001739862172587177
0.0057765818567969635,-0.017156677701871913,-0.013534416977693677,0.0014498851438226475,0.0017721245811928804
0.00578364977641699,-0.017157999931732806,-0.013533238991090336,0.0014477695760452243,0.0017680376888955858
0.005791342750153075,-0.01715843266150546,-0.013534897788552179,0.001444283697321061,0.001767532837494155
0.0057905253716936155,-0.01715766336413185,-0.013534561220951228,0.0014428653052884705,0.0017888327585259386
0.0057824237087278005,-0.017155499715268578,-0.013528358760876508,0.0014445962243790893,0.0017914531777047926
0.005780019654435275,-0.01716083671579799,-0.01353831154564757,0.0014473368462725696,0.0018068631657198863
0.005782616033071204,-0.017159250039964918,-0.013544249559750109,0.0014471685624720928,0.001822898207851037
0.005784395033247672,-0.017155355472011025,-0.013547014222186512,0.0014511352520547608,0.0018356396956014274
0.005789467587804905,-0.01715557183689735,-0.0135506203036253,0.0014492360491636653,0.0017950352186006566
0.005793265993587096,-0.017153576471834558,-0.013550235654938498,0.001447000278671616,0.0017825100957365946
0.005794612263990911,-0.017153792836720885,-0.013546004519383651,0.0014452212784951462,0.0017993865568701293
0.005790789817665794,-0.01715487466115252,-0.013542422478487788,0.001444043291891808,0.0018272014650346593
0.005787231817312855,-0.017155018904410072,-0.013548336452047402,0.0014439711702630325,0.001837899506636402
0.005787832830885986,-0.017152783133918024,-0.013546341086984605,0.0014459905758687547,0.001816094734203188
0.0057975932913136435,-0.01715201383654441,-0.01353850386999097,0.0014525055630015009,0.0018201335454146321
0.005811224279152268,-0.017151292620256657,-0.01353631618058477,0.001453034454945857,0.001823859829568048
0.0057997328996339925,-0.017152422525774143,-0.013536195977870143,0.0014500774681660495,0.001836865763290616
0.005782375627641951,-0.017153720715092108,-0.013537133559044227,0.0014517122250849676,0.0018425393314209773
0.005777134789284244,-0.017157639323588925,-0.013537854775331988,0.0014538758739482411,0.0018421306421912485
0.0057778560055720025,-0.017157471039788447,-0.01353850386999097,0.0014551981038091306,0.0018544634407119086
0.005774129721418586,-0.017152109998716115,-0.013539393370079205,0.0014580829689601624,0.0018741766859106247
0.005774081640332735,-0.01715547567472565,-0.013541004086455196,0.0014616890503989515,0.001884682403168965
0.005771581423868508,-0.017159057715621515,-0.013542037829800985,0.0014631555235173927,0.0018714601045600695
0.005778601262402684,-0.017157951850646953,-0.013536748910357423,0.001466833726584958,0.0018611226711022066
0.005784851803563253,-0.017155379512553953,-0.013534825666923404,0.0014650547264084884,0.0018665798743462405
0.005782375627641951,-0.01715362455292041,-0.013544417843550585,0.0014589003474196212,0.0018641277389678645
0.005779298438147517,-0.017155139107124698,-0.013554827398637222,0.0014620496585428307,0.0018700176719845536
0.0057822073438414745,-0.017156389215356813,-0.01355586114198301,0.0014679876726453704,0.001877157713233357
0.005783745938588691,-0.017155956485584156,-0.013549826965708769,0.001469670510650139,0.0018811003622731
0.00578629423613877,-0.017157543161417224,-0.0135435764245482,0.001466905848213734,0.0019190122984662405
0.005785621100936863,-0.01715838458041961,-0.013546172803184127,0.0014652230102089655,0.0019387255436649573
0.005787015452426528,-0.017156437296442662,-0.013552591628145174,0.0014637324965475992,0.0019189401768374653
0.0057895877905195315,-0.01715684598567239,-0.013544538046265209,0.001465463415638218,0.0019346146108247368
0.005791150425809672,-0.017159394283222468,-0.01353509011289558,0.0014668096860420328,0.0019350233000544664
0.005788818493145923,-0.01715838458041961,-0.013537806694246136,0.0014695983890213634,0.0019010780534439945
0.005790789817665794,-0.017155259309839323,-0.013539393370079205,0.0014652951318377412,0.0019271139614320551
0.005794323777475807,-0.017149128971393382,-0.01353763841044566,0.0014643815912065811,0.0019627901271331463
0.005797881777828747,-0.017147085525244736,-0.01352900785553549,0.0014582752933035644,0.0019581022212627197
0.005803531305416184,-0.017150090593110394,-0.013526531679614187,0.0014486831166763846,0.0019470435715170985
0.0058003098726642,-0.017148984728135832,-0.013530955139512435,0.001440365088824243,0.001947836909433632
0.005800285832121274,-0.01714888856596413,-0.01353280626131768,0.0014359175883830696,0.001966348127486085
0.005806872940882796,-0.017149369376822637,-0.013541028126998122,0.0014476012922447475,0.0019897876568382173
0.0057995646158335145,-0.017148840484878282,-0.013546461289699229,0.0014789020791334405,0.0019634632623350533
0.0057795148030338455,-0.01714999443093869,-0.013546894019471886,0.0015176794748718904,0.0019732237227627104
0.00577638953245356,-0.017148407755105625,-0.013547422911416244,0.001553908573060263,0.00198860967023488
0.005776293370281859,-0.017146893200901334,-0.01354220611360146,0.0015933110229147704,0.0019881048188334486
0.005770355356179319,-0.017147686538817868,-0.013537878815874912,0.0016063890782661134,0.0019959660763700093
0.005769153329033056,-0.017147085525244736,-0.013536147896784293,0.001599874091133367,0.001987936535032972
0.005782928560129232,-0.017149225133565083,-0.013536845072529127,0.0015836948057446642,0.0020116164698143566
0.005782567951985353,-0.017148215430762222,-0.013539128924107026,0.001560904371051515,0.0020283246471474144
0.005775091343135596,-0.017151052214827402,-0.01354001842419526,0.0015403737473933393,0.002027723633574283
0.00577456245119124,-0.017152783133918024,-0.01354398511377793,0.0015254926513226016,0.002001735806672073
0.0057804523842079295,-0.01714989826876699,-0.013542326316316088,0.0015074862846715788,0.002035080039709414
0.005779586924662621,-0.017146652795472082,-0.013533118788375709,0.0014899847694219868,0.002007457455888286
0.005777952167743703,-0.01714698936307304,-0.013531363828742166,0.0014785414709895615,0.002008322915433596
0.005782928560129232,-0.017148335633476848,-0.0135456679517827,0.0014725794163440965,0.0020181074164041775
0.005783241087187261,-0.017146628754929154,-0.013548985546706385,0.0014658480643250224,0.002020751876125957
0.005781798654611745,-0.017147205727959358,-0.013543167735318471,0.0014619775369140546,0.0020611880693262503
0.005783769979131615,-0.017149369376822637,-0.013537999018589538,0.0014622179423433074,0.0020889789369478553
0.005789467587804905,-0.01714667683601501,-0.013535498802125312,0.0014631314829744676,0.0020628709073310185
0.005793338115215872,-0.017143719849235198,-0.013538479829448044,0.0014562078066119918,0.002057630068973311
0.005794347818018733,-0.01714436894389418,-0.01354307157314677,0.001456688617470497,0.0020774394763437283
0.005805767075908233,-0.017148239471305147,-0.013542590762288264,0.0014577704419021338,0.0020808291928961905
0.005815599657964666,-0.01714879240379243,-0.01353429677497905,0.0014560395228115151,0.002079290598148973
0.005811777211639549,-0.017148960687592904,-0.01352677208504344,0.001452481522458576,0.0020528219603882587
0.005800093507777871,-0.017150330998539645,-0.013523815098263631,0.0014499572654514232,0.002064169096648983
0.00579456418290506,-0.01714749421447446,-0.013525161368667448,0.001454068198291643,0.002064722029136264
0.005799372291490113,-0.017144657430409282,-0.013521867814286688,0.0014634199694895707,0.002076165327568689
0.005784611398134,-0.01714552288995459,-0.013515641313669044,0.001460679347596091,0.0020848199230217843
0.00577004282912129,-0.017148287552391,-0.013528310679790658,0.0014595494420786034,0.002092560977843719
0.0057678310991721654,-0.017148455836191474,-0.01353480162638048,0.0014582993338464894,0.002102609924786479
0.0057765578162540365,-0.017146220065699425,-0.01353210908557285,0.0014589965095913222,0.00210270608695818
0.005786053830709517,-0.017145619052126294,-0.013531964842315298,0.0014606072259673148,0.0021129473582443426
0.005793746804445601,-0.017146292187328202,-0.013535210315610207,0.001457794482445059,0.0021174188992284415
0.0057946603450767615,-0.0171460998629848,-0.013532926464032308,0.0014498130221938714,0.0021467243210543377
0.005782976641215082,-0.017145498849411668,-0.013526459557985412,0.0014459905758687547,0.0021435990504740537
0.005784803722477402,-0.01714436894389418,-0.013526074909298608,0.0014459184542399788,0.0020988836406330637
0.005789491628347829,-0.017142565903174787,-0.013529512706936921,0.0014474810895301212,0.002112418466299987
0.005789756074320008,-0.017144320862808333,-0.013531435950370941,0.0014505582790245548,0.002143743293731605
0.005794636304533836,-0.017146051781898947,-0.013534272734436123,0.0014522411170293232,0.002137035982255457
0.0057994924942047395,-0.01714920109302216,-0.013530546450282708,0.0014539239550340915,0.0021382620499446454
0.005798675115745279,-0.017150883931026928,-0.013524536314551392,0.001445750170439502,0.002146411793996309
0.005802569683699172,-0.017148143309133446,-0.013520209016824844,0.0014456299677248756,0.0021478061454859748
0.005798747237374056,-0.017147301890131063,-0.013515376867696868,0.0014445481432932387,0.0021469647264835906
0.005791054263637972,-0.017147301890131063,-0.013517011624615785,0.0014385860886477735,0.0021504506052077536
0.00578502008736373,-0.017149128971393382,-0.013530907058426586,0.0014426008593162926,0.00218107825689454
0.005772639207757219,-0.017148167349676374,-0.013534729504751705,0.001451592022370341,0.0021828572570710093
0.005762902787872488,-0.017148071187504672,-0.013530546450282708,0.0014541643604633445,0.0021599947007490835
0.005762373895928132,-0.01714775866044664,-0.013528719369020387,0.0014494764545929179,0.002172928512842875
0.005769153329033056,-0.017145258443982413,-0.013530282004310529,0.001444211575692285,0.0021832178652148888
0.00578309684392971,-0.01714537864669704,-0.01352576238224058,0.0014444039000356874,0.002187881730542389
0.00579740096697024,-0.017146292187328202,-0.013520184976281921,0.0014451731974092954,0.002217523719969239
0.0058048775758199975,-0.017148600079449027,-0.013522997719804176,0.0014467117921565127,0.002215071584590862
0.0058068008192540205,-0.017150330998539645,-0.013522757314374922,0.0014440673324347337,0.0022073305297689275
0.005804204440618091,-0.017149128971393382,-0.013520930233112604,0.001441278629455403,0.0022207211121783
0.0058058391975370095,-0.017147229768502286,-0.013523622773920229,0.001441278629455403,0.002220528787834897
0.00580639213002429,-0.01714696532253011,-0.013523358327948052,0.00144236045388704,0.002226274477594035
0.00580862790051634,-0.017147422092845692,-0.013517973246332795,0.001440821859139823,0.002246180047136153
0.005806824859796945,-0.017151244539170805,-0.013520593665511648,0.001439283264392606,0.0022046139484183727
0.005804132318989315,-0.01715025887691087,-0.013519079111307356,0.0014364945614132756,0.0022247118423038927
0.005811657008924923,-0.017151244539170805,-0.01351653081375728,0.0014336818178910195,0.0022482715743706513
0.005810527103407436,-0.01715025887691087,-0.013522300544059342,0.0014299074526517533,0.00224269416841199
0.005793025588157844,-0.017150691606683525,-0.013526363395813713,0.0014279120875889564,0.0022196392877466627
0.0057764856946252606,-0.01715025887691087,-0.013529272301507668,0.0014339943449490481,0.0022490168312013343
0.005774129721418586,-0.01714989826876699,-0.01352845492304821,0.00143235958803013,0.0022454588308483954
0.005773672951103006,-0.01714792694424712,-0.013527252895901945,0.0014315902906565216,0.002224447396331715
0.005783433411530662,-0.017147950984790043,-0.013527757747303377,0.0014348598044943578,0.0022362272623650944
0.00578502008736373,-0.01714737401175984,-0.013528310679790658,0.0014321672636867279,0.002257431021225177
0.005781654411354193,-0.0171501867552821,-0.01352946462585107,0.0014354127369816388,0.002267672292511339
0.0057822073438414745,-0.01715213403925904,-0.01353261393697428,0.001445389562295623,0.0022442808442450575
0.0057841065467325705,-0.01714749421447446,-0.0135344410182366,0.0014517122250849676,0.0022515891692943373
0.005784178668361346,-0.017148407755105625,-0.013535498802125312,0.0014512314142264625,0.0022832746048698357
0.005786775046997275,-0.017151941714915638,-0.013540499235053766,0.001451543941284491,0.0022911599029493213
0.005784130587275495,-0.017151412822971283,-0.013541701262200029,0.0014523372792010242,0.002287289375538354
0.005783433411530662,-0.017149369376822637,-0.0135368210319862,0.001452673846801978,0.0022845968347307245
0.005785548979308087,-0.017147830782075418,-0.013536244058955994,0.0014504621168528538,0.002322292406037538
0.005787808790343061,-0.017147301890131063,-0.013536484464385249,0.0014509429277113591,0.0023264995010494594
0.00579091002038042,-0.017148143309133446,-0.013532782220774756,0.0014514237385698644,0.002320609568032769
0.0057917995204686545,-0.017149633822794812,-0.013535450721039462,0.0014528661711453801,0.002311161634663141
0.005791198506895524,-0.017154778498980817,-0.013534176572264422,0.0014533950630897358,0.0023345530829294225
0.0057967278317683345,-0.017148503917277326,-0.013531868680143595,0.0014541162793774939,0.00235029963854547
0.005803242818901082,-0.01714747017393154,-0.013536147896784293,0.0014563520498695431,0.002338351488711614
0.0058065604138247675,-0.017142373578831385,-0.01352992139616665,0.0014528902116883054,0.002329456487829267
0.005806872940882796,-0.01714367176814935,-0.013525618138983028,0.0014483705896183561,0.0023424624215518343
0.005793362155758797,-0.017148503917277326,-0.013529031896078415,0.0014547653740364758,0.0023446260704151076
0.005779923492263574,-0.017150499282340127,-0.013528118355447255,0.001456424171498319,0.0023577281663093768
0.005783217046644335,-0.017151148376999104,-0.013525738341697657,0.0014526257657161276,0.0023644114372426
0.005789227182375652,-0.0171487683632495,-0.013523767017177784,0.0014532748603751095,0.0023678492348809125
0.0057863423172246214,-0.01714624410624235,-0.013523815098263631,0.0014534191036326613,0.00237847515485388
0.005781510168096642,-0.01714540268723997,-0.013525906625498131,0.0014575540770158065,0.0023849180203578497
0.005783048762843858,-0.01714929725519386,-0.013527445220245349,0.0014631314829744676,0.002383836195926213
0.00577857722185976,-0.017151100295913255,-0.013528743409563313,0.0014616890503989515,0.0023732583570390967
0.005771509302239732,-0.017147902903704194,-0.013528142395990182,0.0014546451713218494,0.002351429544062957
0.005771389099525104,-0.017145474808868744,-0.013525065206495749,0.0014505582790245548,0.002372921789438143
0.005774177802504436,-0.017145907538641397,-0.013527300976987795,0.0014504140357670034,0.0023796771820001426
0.005784443114333525,-0.01714934533627971,-0.013534200612807348,0.0014521930359434727,0.0023818167903204906
0.005786678884825574,-0.0171501867552821,-0.0135392972079075,0.001454597090235999,0.0023954718187020408
0.00577867338403146,-0.017149874228224067,-0.013537710532074436,0.0014509188871684338,0.002394774642957208
0.005775163464764372,-0.017148816444335354,-0.013537878815874912,0.001446375224555559,0.002397154656706809
0.005777423275799346,-0.01714999443093869,-0.013543167735318471,0.0014523372792010242,0.002405160157500921
0.005778721465117311,-0.017153336066405303,-0.013546533411328008,0.0014552702254379065,0.002406722792791064
0.005780404303122079,-0.017153937079978438,-0.013550980911769182,0.0014501255492519,0.0024285996868530536
0.005781630370811267,-0.017153937079978438,-0.013554154263435316,0.0014476253327876728,0.00246429989309707
0.0057810774383239855,-0.017155523755811503,-0.013544634208436912,0.0014469041164999151,0.0024124925230931266
0.005784298871075972,-0.017154369809751092,-0.013529128058250116,0.001446375224555559,0.0024147282935851762
0.005786534641568022,-0.017155379512553953,-0.013516338489413877,0.0014516401034561914,0.002435523363215529
0.005787231817312855,-0.01715619689101341,-0.01352165144940036,0.0014528902116883054,0.0024331673900088533
0.005788457885002043,-0.01715158110677176,-0.013528767450106238,0.0014495485762216938,0.0024318211196050392
0.005787424141656257,-0.017147686538817868,-0.013533984247921021,0.0014514477791127895,0.002437927417508056
0.005786510601025097,-0.017145114200724863,-0.013535210315610207,0.0014575540770158065,0.0024446828100700545
0.005788049195772314,-0.0171440083357503,-0.01353357555869129,0.001462530469401336,0.0024433124991233147
0.005794852669420164,-0.017149008768678756,-0.013534681423665852,0.0014604149016239126,0.002432686579150348
0.005804060197360539,-0.017149177052479234,-0.013538984680849473,0.0014546451713218494,0.0024587946087671854
0.0057977615751141215,-0.017150427160711346,-0.013542350356859013,0.0014544768875213727,0.00249855766676557
0.005780332181493304,-0.017150523322883048,-0.013542422478487788,0.001458323374389415,0.0024799983676272674
0.005773168099701575,-0.017148455836191474,-0.01354028287016744,0.0014591888339347244,0.002480407056856997
0.00578146208701079,-0.017147950984790043,-0.01353850386999097,0.0014558471984681127,0.002481104232601829
0.0057963191425386045,-0.017146724917100856,-0.013540595397225469,0.0014516401034561914,0.0025188719255374178
0.005793746804445601,-0.017146941281987182,-0.013544706330065687,0.001449284130249516,0.002516155344186864
0.005776990546026692,-0.01714802310641882,-0.013542398437944863,0.001447817657131075,0.002476392286188477
0.0057678551397150925,-0.01714737401175984,-0.013538239424018793,0.0014521449548576225,0.002467833852907084
0.0057719660725553115,-0.017149729984966514,-0.013534753545294629,0.0014641411857773286,0.0024761278402163
0.005781822695154671,-0.017150980093198633,-0.013545475627439294,0.0014686848483902036,0.0024914176255167674
0.005785548979308087,-0.017150379079625497,-0.013550307776567272,0.0014642854290348802,0.002518222830878436
0.005786222114509994,-0.017147566336103242,-0.013543215816404322,0.0014609197530253432,0.002526829345245681
0.0057848277630203285,-0.017150427160711346,-0.013538479829448044,0.0014647421993504602,0.0025145205872679453
0.005784370992704748,-0.017145498849411668,-0.013540715599940094,0.001458058928417237,0.0025024522347194635
0.005786823128083126,-0.01714492187638146,-0.01354225419468731,0.0014592128744776495,0.0025193286958529984
0.005785669182022713,-0.017146027741356026,-0.013540787721568871,0.0014629391586310654,0.002526757223616905
0.005782736235785829,-0.017144128538464927,-0.013542927329889218,0.0014607514692248664,0.002537311021961096
0.005784250789990121,-0.017141604281457775,-0.013545355424724669,0.001463996942519777,0.0025521680774889077
0.0057833853304448115,-0.017140834984084162,-0.013547855641188895,0.0014652951318377412,0.0025377677922766755
0.005782856438500456,-0.01714468147095221,-0.013552832033574429,0.001461616928770176,0.002549595739395905
0.005780308140950379,-0.017144128538464927,-0.013554394668864569,0.001459236915020575,0.002536902332731366
0.005781894816783446,-0.01714436894389418,-0.013547831600645972,0.0014588763068766962,0.00255505294263994
0.005790669614951168,-0.01714477763312391,-0.01354723058707284,0.0014575300364728812,0.002578179944934044
0.005797953899457522,-0.01714573925484092,-0.013543384100204798,0.001454140319920419,0.0025549567804682392
0.0057924486151276385,-0.017146051781898947,-0.013541364694599076,0.0014481301841891034,0.0025315653322019573
0.005787303938941632,-0.017145787335926768,-0.013549754844079992,0.0014450049136088188,0.0025817379452869826
0.005786678884825574,-0.01714492187638146,-0.013555476493296205,0.0014436586432050038,0.0025901280947679
0.005787111614598228,-0.017144320862808333,-0.013555380331124505,0.0014463992650984845,0.002569405146766322
0.0057835536142452895,-0.017145570971040445,-0.01355362537149096,0.0014461107785833812,0.0025840939184936587
0.005784659479219851,-0.01714316691674792,-0.013545066938209569,0.0014450529946946696,0.002594094784350568
0.005791222547438449,-0.017141820646344102,-0.013535763248097491,0.0014480580625603275,0.0026004655282257628
0.005786871209168975,-0.017142061051773357,-0.01353448909932245,0.0014565203336700202,0.002575246998697161
0.005782255424927324,-0.01714275822751819,-0.013537758613160287,0.0014594051988210516,0.0025859931213847538
0.0057811736004956885,-0.017142926511318664,-0.013541268532427377,0.001456592455298796,0.002603350393376795
0.005782495830356577,-0.017144657430409282,-0.013542927329889218,0.0014510871709689107,0.0026106827589689996
0.00578415462781842,-0.01714415257900785,-0.013544682289522762,0.0014494524140499928,0.0025866662565866613
0.00578542877659346,-0.01714528248452534,-0.013546052600469502,0.0014521930359434727,0.002603278271748019
0.005789467587804905,-0.017146821079272557,-0.013547903722274749,0.0014532748603751095,0.00260200412297298
0.005788001114686464,-0.017145787335926768,-0.013549730803537068,0.0014467598732423633,0.002612942570003975
0.005789996479749261,-0.01714766249827494,-0.013551125155026732,0.0014499572654514232,0.002639315045592989
0.005791703358296954,-0.017146532592757453,-0.01355078858742578,0.0014557750768393368,0.002627895787703489
0.005790429209521915,-0.01714698936307304,-0.013549826965708769,0.0014591888339347244,0.00263758412650237
0.0057905253716936155,-0.01714569117375507,-0.013552639709231023,0.0014597417664220054,0.002646863776071522
0.0057963912641673795,-0.017146051781898947,-0.013554346587778718,0.0014561597255261412,0.002628905490506349
0.005799684818548142,-0.0171487683632495,-0.013554010020177764,0.0014551019416374296,0.002652056533343379
0.0058003098726642,-0.017147975025332968,-0.013559226817992546,0.0014562078066119918,0.002673043927317134
0.005797641372399494,-0.017148335633476848,-0.013563746440062495,0.001462987239716916,0.0026306123690540435
0.005791943763726206,-0.017149778066052366,-0.013567544845844687,0.0014689492943623813,0.002605898690926873
0.005796703791225409,-0.017146292187328202,-0.013558169034103834,0.0014687329294760538,0.002623953138663745
0.005803363021615706,-0.017144993998010238,-0.013548312411504476,0.001465920185953798,0.002647440749101728
0.005798602994116504,-0.01714528248452534,-0.013545740073411474,0.0014622179423433074,0.002664677818379142
0.005800790683522704,-0.01714660471438623,-0.013549177871049787,0.001460246617823436,0.002646599330099344
0.005801127251123657,-0.017145859457555545,-0.01355006737113802,0.001463179564060318,0.002634699261351338
0.0058037717108454364,-0.01714477763312391,-0.013547879681731824,0.001469021415991157,0.0026400603024236717
0.005808916387031442,-0.01714376793032105,-0.0135434802623765,0.0014695503079355126,0.002671841900170871
0.0058051179812492505,-0.017143960254664452,-0.013545595830153922,0.0014674828212439402,0.002697541240557977
0.005794035290960705,-0.0171440083357503,-0.013553433047147559,0.001460895712482418,0.0027073257415285595
0.005785452817136385,-0.017140233970511034,-0.013555091844609402,0.0014588041852479198,0.0026809532659395462
0.005782543911442428,-0.017141556200371926,-0.013553937898548987,0.0014604389421668381,0.00269686810535607
0.005789155060746876,-0.0171442968222654,-0.01355001929005217,0.0014647181588075347,0.0027144657827773626
0.005790597493322392,-0.01714448914660881,-0.013551533844256464,0.001463900780348076,0.002702709957286909
0.005791366790696001,-0.017138983862278922,-0.0135504279792819,0.0014600783340229589,0.002710090403964965
0.00579451610181921,-0.017136531726900543,-0.013547927762817671,0.0014596215637073789,0.0027078786740158405
