channel31,channel32,channel33,channel34,channel35
-0.02147784508997342,-0.011294583633889792,0.00559300827101965,0.0006640719172245562,0.003550451622460479
-0.021477989333230973,-0.011294751917690268,0.005594258379251764,0.0006649373767698657,0.0035493697980288424
-0.021477268116943216,-0.011292948876970871,0.005598225068834432,0.0006604177546999161,0.0035498506088873475
-0.021475152549165797,-0.011295256769091698,0.005595051717168297,0.0006606581601291688,0.0035478552438245508
-0.02147433517070633,-0.0112908813902793,0.0055910369464997785,0.0006633747414797236,0.0035473263518801946
-0.02147435921124926,-0.011297708904470077,0.00558807995971997,0.0006638074712523785,0.003547470595137747
-0.021476883468256408,-0.011299656188447022,0.005599162650008518,0.0006658749579439509,0.0035482398925113547
-0.02148128288761173,-0.01129850224238661,0.00560296105579071,0.0006685674987515806,0.003549129392599589
-0.021483158049959903,-0.011296843444924766,0.005591950487130939,0.000671428323359687,0.003550018892687824
-0.0214827734012731,-0.011295833742121906,0.00558259871593301,0.0006705869043573027,0.0035498506088873475
-0.021482100266071197,-0.011296410715152113,0.005593080392648426,0.0006717648909606406,0.003551293041462863
-0.021481835820099014,-0.011295497174520951,0.005597023041688169,0.0006702503367563491,0.0035496582845439455
-0.02148205218498534,-0.01129626647189456,0.005587094297460034,0.0006605379574145424,0.0035511247576623865
-0.02148137904978344,-0.011298117593699804,0.005586325000086426,0.0006396707661554138,0.0035490813115137392
-0.02148097036055371,-0.011300281242563078,0.005588296324606299,0.0006208710615878576,0.0035483120141401306
-0.021481210765982958,-0.011299223458674366,0.0055867577298590815,0.000599667302727775,0.003546172405819782
-0.02148044146860935,-0.011298790728901713,0.005586926013659558,0.0005845458012277843,0.003544080878585284
-0.021482557036386768,-0.011295977985379456,0.00559209473038849,0.000581684976619678,0.0035455233111608
-0.021485489982623656,-0.011294150904117136,0.005591974527673864,0.0005940177751403383,0.0035454031084461743
-0.021487533428772302,-0.011295425052892176,0.005594234338708839,0.0006130819256800722,0.0035440568380423593
-0.021489889401978983,-0.011300353364191856,0.00559154179790121,0.0006344539683406315,0.0035456915949612774
-0.02148895182080489,-0.011298261836957356,0.005588801176007729,0.0006583262274654182,0.003546533013963661
-0.02148522553665148,-0.011298814769444636,0.005591373514100733,0.0006733996478795586,0.0035454511895320244
-0.02148366290136133,-0.011297949309899328,0.00559300827101965,0.0006773182563763764,0.003544177040756985
-0.021485201496108552,-0.011298382039671984,0.005595845055084831,0.0006777750266919563,0.003545355027360323
-0.021485898671853385,-0.01130155539133812,0.005594090095451287,0.0006746978371975227,0.003544850175958893
-0.02148419179330569,-0.011301627512966893,0.005590243608583245,0.0006692165934105628,0.0035446578516154905
-0.021484720685250046,-0.011303334391514586,0.0055896185544671885,0.0006725101477913237,0.0035472542302514187
-0.02148616311782556,-0.011304151769974045,0.005593849690022034,0.0006738564181951387,0.003549465960200543
-0.02148916818569122,-0.011303286310428736,0.005594715149567344,0.0006710196341299574,0.003551293041462863
-0.02147981641449329,-0.011299199418131442,0.005587406824518064,0.00066851941766573,0.003550307379202928
-0.021476667103370085,-0.011300161039848452,0.005584906608053835,0.0006693127555822638,0.0035521825415510975
-0.021474431332878036,-0.011294824039319043,0.005591734122244611,0.0006715244855313879,0.0035538172984700155
-0.021475176589708718,-0.011300209120934305,0.005592671703418696,0.0006709955935870323,0.003553913460641717
-0.0214755371978526,-0.011303719040201393,0.005593609284592782,0.0006732313640790817,0.0035533605281544357
-0.021475561238395526,-0.011302829540113156,0.005589330067952085,0.0006745055128541207,0.003551389203634565
-0.02147488810319361,-0.011302276607625877,0.005588729054378953,0.0006760921886871879,0.0035501871764883008
-0.02147440729233511,-0.01130540187820616,0.005585122972940163,0.0006769336076895723,0.0035531201227251828
-0.02147503234645116,-0.011308118459556716,0.005579665769696128,0.0006760921886871879,0.0035524469875232757
-0.02147700367097104,-0.011309873419190259,0.005575266350340805,0.0006729188370210533,0.0035506679873468063
-0.021477171954771515,-0.011309993621904884,0.005577838688433808,0.0006725822694200996,0.0035508603116902095
-0.02147503234645116,-0.011306892391867523,0.005584257513394853,0.0006713802422738365,0.003548816865541561
-0.021475152549165797,-0.01130179579676737,0.005584738324253358,0.0006764047157452165,0.0035479994870821025
-0.02147671518445593,-0.011303646918572616,0.005587527027232689,0.0006752267291418785,0.003549033230427889
-0.021477123873685663,-0.011306555824266571,0.0055906763383559,0.0006736400533088111,0.0035443453245574616
-0.0214737341571332,-0.011306411581009021,0.005591998568216789,0.0006728467153922776,0.0035430471352394977
-0.021471738792070403,-0.011306964513496302,0.005594979595539522,0.0006733275262507827,0.0035470378653650915
-0.02147308506247422,-0.01130814250009964,0.0055954123253121775,0.0006741208641673164,0.0035488409060844867
-0.021472243643471837,-0.01130984937864733,0.005591830284416312,0.0006722697423620713,0.003548119689796729
-0.021468829886376446,-0.011308022297385013,0.005588416527320925,0.0006707551881577796,0.003550740108975582
-0.021467219170000454,-0.011308070378470864,0.005590459973469572,0.0006719572153040428,0.0035502833386600024
-0.021467098967285828,-0.011310570594935091,0.005592815946676248,0.0006725582288771742,0.0035480956492538033
-0.021464742994079158,-0.011312830405970066,0.005594763230653194,0.0006701060934987973,0.003547085946450942
-0.021463348642589492,-0.011312253432939859,0.005593945852193735,0.0006717168098747901,0.0035505237440892545
-0.021464670872450374,-0.01131504213591919,0.005591854324959239,0.0006738564181951387,0.0035514132441774897
-0.021464310264306497,-0.011313840108772929,0.005588945419265281,0.0006765008779169175,0.0035534086092402868
-0.021464526629192824,-0.011308503108243521,0.005591421595186582,0.0006737602560234375,0.0035541057849851187
-0.02146238702087248,-0.011307805932498688,0.005590604216727124,0.0006726784315918006,0.0035523748658945007
-0.021460872466668186,-0.011311412013937476,0.005591301392471957,0.000674721877740448,0.0035496823250868712
-0.021461184993726214,-0.011313407379000271,0.00558757510831854,0.0006778471483207322,0.0035486966628269353
-0.02146253126413003,-0.0113135275817149,0.0055927678655903965,0.0006777990672348817,0.0035480235276250274
-0.021461737926213496,-0.011312013027510608,0.005595099798254148,0.0006754190534852808,0.0035479754465391772
-0.021460872466668186,-0.011308839675844472,0.005595724852370205,0.0006778711888636575,0.0035472542302514187
-0.021462459142501254,-0.01130996958136196,0.005590820581613451,0.0006791693781816217,0.0035473503924231204
-0.02146238702087248,-0.011306724108067049,0.005584594080995807,0.0006752267291418785,0.003545571392246651
-0.021460848426125258,-0.011312253432939859,0.005581420729329672,0.0006746497561116722,0.003546028162562231
-0.02146007912875165,-0.011314729608861162,0.005588705013836028,0.0006756113778286827,0.0035467493788499884
-0.02146019933146628,-0.01131316697357102,0.005595099798254148,0.0006763566346593659,0.0035472782707943445
-0.02146181004784227,-0.01131307081139932,0.005591012905956853,0.0006747699588262985,0.003546100284191006
-0.021462483183044175,-0.011314296879088508,0.005578848391236669,0.0006742170263390175,0.003546244527448558
-0.02146111287209744,-0.011315595068406473,0.005581637094216,0.0006770778509471239,0.0035473503924231204
-0.021458877101605392,-0.01131285444651299,0.005581829418559402,0.0006760441076013374,0.0035495380818293186
-0.02145988680440825,-0.011312181311311084,0.005586853892030782,0.0006726784315918006,0.003553096082182258
-0.021462507223587102,-0.011311460095023328,0.005591277351929032,0.0006691204312388617,0.0035514853658062647
-0.021462194696529074,-0.011311075446336522,0.005586397121715202,0.0006670048634614384,0.00354872070336986
-0.02146152156132717,-0.01131189282479598,0.005587310662346362,0.0006680866878930753,0.003548360095225981
-0.02145988680440825,-0.011313695865515377,0.005588392486777999,0.0006701301340417227,0.0035466532166782885
-0.02145623264188361,-0.011314609406146536,0.005584954689139686,0.0006711398368445838,0.003544513608357939
-0.02145661729057041,-0.011315210419719668,0.005587190459631735,0.0006715485260743132,0.003543551986640928
-0.02146043973689553,-0.011316749014466885,0.005588608851664328,0.0006698897286124701,0.003545114621931071
-0.021462338939786628,-0.011318912663330157,0.00559113310867148,0.0006671250661760647,0.0035472061491655686
-0.02146217065598615,-0.011318984784958934,0.0055981048661198065,0.0006656826336005488,0.003545859878761753
-0.021463156318246086,-0.01131956175798914,0.0055937535278503345,0.0006657547552293247,0.0035453309868173975
-0.021464166021048947,-0.011320186812105195,0.005589257946323309,0.0006665000120600077,0.003546917662650465
-0.02146366116964752,-0.011318984784958934,0.005585531662169892,0.0006662596066307553,0.003548408176311832
-0.021464021777791397,-0.01131655669012348,0.005579257080466397,0.0006674616337770182,0.0035473744329660452
-0.021464190061591868,-0.011316989419896136,0.005586637527144454,0.0006677501202921218,0.0035476148383952978
-0.02146140135861254,-0.01132042721753445,0.005585627824341593,0.0006666202147746343,0.0035462204869056327
-0.021457891439345445,-0.011321196514908058,0.005588801176007729,0.0006691925528676375,0.003547134027536793
-0.021454117074106188,-0.011319080947130637,0.005588296324606299,0.0006710196341299574,0.003544970378673519
-0.021451737060356583,-0.011319730041789615,0.005586084594657172,0.0006698897286124701,0.003544754013787192
-0.021451376452212702,-0.011321917731195816,0.005585820148684996,0.0006697454853549185,0.003546917662650465
-0.02144983785746549,-0.011321797528481187,0.005583079526791515,0.0006651056605703426,0.0035467734193929132
-0.021446520262541804,-0.011319489636360364,0.005585363378369415,0.0006705388232714522,0.0035449463381305936
-0.02144546247865309,-0.011318552055186278,0.005583199729506143,0.0006741449047102418,0.003546148365276857
-0.02144769824914514,-0.011318600136272129,0.005571852593245418,0.000674265107424868,0.003543600067726779
-0.02144978977637964,-0.011322110055539215,0.005573222904192158,0.000671428323359687,0.003542229756780039
-0.021452794844245296,-0.011322783190741124,0.005581877499645252,0.0006685915392945058,0.0035396814592299607
-0.02145584799319681,-0.011318936703873085,0.005583319932220768,0.0006708273097865554,0.0035404267160606437
-0.02145717022305769,-0.011323840974629835,0.005586325000086426,0.0006727265126776513,0.0035432875406687507
-0.02145604031754021,-0.011322927433998677,0.005591493716815357,0.0006693848772110397,0.003541676824292758
-0.02145531910125245,-0.011322951474541602,0.005589281986866234,0.0006681347689789259,0.0035373495265662107
-0.0214557518310251,-0.011323816934086909,0.005590387851840796,0.0006680626473501501,0.0035320125260368024
-0.021454020911934487,-0.011323384204314257,0.005595508487483878,0.0006682309311506269,0.0035316278773499976
-0.02145200150632876,-0.01132412946114494,0.005595628690198504,0.0006703224583851249,0.0035322048503802048
-0.02145106392515468,-0.011326990285753048,0.005590123405868619,0.0006700339718700216,0.0035332626342689157
-0.021451280290041005,-0.01132545169100583,0.0055862047973718,0.0006723899450766975,0.003533551120784019
-0.021451881303614136,-0.011325740177520931,0.005598128906662731,0.0006726063099630247,0.0035316519178929234
-0.021450559073753248,-0.011326028664036036,0.005593224635905977,0.0006737842965663628,0.003529247863600397
-0.02145253039827312,-0.011323600569200584,0.0055678859036627495,0.0006734717695083344,0.003527685228310255
-0.02145717022305769,-0.011323961177344462,0.005569544701124593,0.0006729188370210533,0.0035283824040550867
-0.021455799912110957,-0.01132386501517276,0.005580963959014093,0.000671163877387509,0.003531675958435849
-0.021451640898184885,-0.01132554785317753,0.005585195094568939,0.0006688079041808332,0.0035316519178929234
-0.021450462911581543,-0.011327086447924748,0.00558315164842029,0.0006716687287889396,0.0035312672692061186
-0.021449164722263585,-0.0113272306911823,0.005584642162081658,0.0006714042828167617,0.0035322529314660545
-0.021447265519372486,-0.011328552921043188,0.005586901973116632,0.0006702022556704985,0.0035312672692061186
-0.021447265519372486,-0.011328649083214891,0.005588320365149224,0.0006710436746728827,0.00353319051264014
-0.021450823519725427,-0.011328552921043188,0.005588512689492626,0.0006704186205568259,0.0035333107153547663
-0.02145587203373973,-0.011327302812811076,0.005589209865237458,0.0006702984178421996,0.003532709701781635
-0.02145604031754021,-0.01133119738076497,0.005590243608583245,0.0006707792287007049,0.003531892323322176
-0.021452915046959925,-0.011330139596876256,0.005592695743961621,0.0006734958100512597,0.003528141998625834
-0.021451328371126857,-0.01132747109661155,0.0055937535278503345,0.000669697404269068,0.003528286241883387
-0.02145601627699728,-0.011327927866927129,0.0055920706898455646,0.0006721735801903701,0.0035271322958229743
-0.021461761966756417,-0.01132905777244462,0.005592431297989444,0.0006706830665290037,0.003527300579623451
-0.02146274762901636,-0.011328096150727609,0.00559209473038849,0.0006676299175774952,0.0035302094853174072
-0.02146140135861254,-0.0113272306911823,0.005591373514100733,0.0006673895121482424,0.0035268197687649454
-0.021459598317893142,-0.011330740610449388,0.005594691109024418,0.0006679905257213742,0.0035269640120224968
-0.02145813184477471,-0.011332880218769737,0.0055905801761841995,0.0006707311476148543,0.0035301133231457065
-0.021457410628486943,-0.011329923231989928,0.005578511823635716,0.0006736881343946617,0.0035292719041433228
-0.02145825204748933,-0.011329730907646524,0.0055765164585729185,0.0006753228913135796,0.003528839174370667
-0.02145952619626437,-0.011332279205196605,0.005583175688963217,0.0006739766209097649,0.003526699566050319
-0.021460415696352604,-0.011329394340045571,0.0055880078380911935,0.0006742410668819428,0.003528238160797536
-0.021462603385758804,-0.011329562623846049,0.005591493716815357,0.0006731111613644553,0.003528959377085294
-0.021463060156074385,-0.011336702665094851,0.005593128473734278,0.0006727505532205764,0.0035287910932848172
-0.02146101670992574,-0.011335741043377841,0.005592311095274818,0.0006765729995456932,0.0035281660391687604
-0.02145916558812049,-0.011332495570082932,0.005594474744138091,0.0006722216612762206,0.00353090666106224
-0.021456328804055312,-0.011331005056421563,0.005587983797548269,0.0006717889315035659,0.003531050904319792
-0.021455391222881225,-0.01133276001605511,0.005584089229594376,0.0006728947964781281,0.003529560390658425
-0.021453828587591085,-0.01133528427306226,0.0055877674326619406,0.0006726303505059501,0.0035294161474008733
-0.021452818884788224,-0.011332207083567828,0.005591060987042704,0.0006728226748493523,0.0035295363501155
-0.021455150817451973,-0.011330043434704557,0.005587094297460034,0.0006744814723111954,0.003529560390658425
-0.021456497087855787,-0.011332038799767352,0.0055881040002628965,0.0006739525803668397,0.0035314115124636704
-0.02145680961491381,-0.011334611137860356,0.005587551067775615,0.0006721976207332954,0.003531748080064624
-0.02145717022305769,-0.011336221854236349,0.005587478946146839,0.0006748901615409249,0.003529945039345229
-0.02145680961491381,-0.0113363660974939,0.005590940784328077,0.0006719572153040428,0.003527853512110731
-0.02145548738505293,-0.011337303678667985,0.005592287054731892,0.0006721014585615942,0.003527468863423928
-0.02145459788496469,-0.01133590932717832,0.0055909648248710034,0.0006758037021720849,0.0035280939175399845
-0.02145479020930809,-0.011336197813693423,0.005588705013836028,0.000677101891490049,0.0035256898632474577
-0.021455295060709523,-0.011335332354148112,0.00558077163467069,0.0006736881343946617,0.003527012093108348
-0.021457218304143544,-0.011334611137860356,0.0055821419456174295,0.00067308712082153,0.0035284064445980125
-0.021460151250380432,-0.011335115989261785,0.005581997702359879,0.0006715725666172384,0.0035329741477538134
-0.021462362980329552,-0.011333649516143345,0.005585651864884519,0.0006724861072483987,0.0035318682827792506
-0.021462459142501254,-0.011330331921219657,0.005585435499998191,0.0006735679316800352,0.003532445255809457
-0.02146332460204656,-0.011328985650815844,0.005585531662169892,0.0006713802422738365,0.0035335751613269437
-0.02146575269688201,-0.011329009691358768,0.005588536730035551,0.0006734717695083344,0.0035349935533595346
-0.02146392561561969,-0.011332832137683884,0.005591060987042704,0.0006735679316800352,0.0035314836340924467
-0.02145916558812049,-0.011334611137860356,0.005589498351752562,0.0006728707559352028,0.003528526647312639
-0.02145854053400444,-0.011337736408440638,0.005587214500174661,0.0006715725666172384,0.003530089282602781
-0.02145991084495117,-0.011337976813869893,0.0055810360806428675,0.0006711157963016585,0.003531459593549521
-0.02145892518269124,-0.011336438219122674,0.005578319499292313,0.0006726303505059501,0.0035312432286631937
-0.02145762699337328,-0.011337087313781656,0.0055836564998217215,0.0006715966071601637,0.0035307383772617633
-0.0214576510339162,-0.011337832570612341,0.005584642162081658,0.0006732313640790817,0.0035314115124636704
-0.02145623264188361,-0.011339323084273706,0.00556944853895289,0.0006737602560234375,0.003531171107034418
-0.021454237276820814,-0.011341679057480382,0.005571251579672286,0.0006741689452531669,0.003531675958435849
-0.02145500657419442,-0.011339779854589286,0.0055810360806428675,0.0006731352019073806,0.0035323731341806814
-0.021461377318069616,-0.011336269935322198,0.005586926013659558,0.0006720533774757437,0.0035333107153547663
-0.02146322843987486,-0.011341630976394531,0.005588656932750178,0.0006732073235361563,0.003534512742501029
-0.021460007007122875,-0.011341318449336505,0.0055810360806428675,0.0006741208641673164,0.0035349695128166093
-0.02145861265563321,-0.011340957841192623,0.005583848824165124,0.000672077418018669,0.003531892323322176
-0.02145842033128981,-0.01134011642219024,0.005585147013483088,0.0006681107284360006,0.003532060607122653
-0.02145916558812049,-0.011341294408793577,0.005580170621097559,0.0006661153633732036,0.003533767485670347
-0.021459646398979,-0.011341174206078952,0.005581925580731103,0.0006686636609232817,0.003531147066491492
-0.021459766601693624,-0.011336342056950973,0.005587502986689764,0.0006689281068954597,0.003529512309572575
-0.02145952619626437,-0.01133569296229199,0.005593609284592782,0.000667966485178449,0.003532180809837279
-0.02145897326377709,-0.011335236191976409,0.005599715582495799,0.0006665480931458584,0.003530089282602781
-0.021458756898890763,-0.011333889921572596,0.005595941217256532,0.0006640719172245562,0.0035274448228810023
-0.02145801164206008,-0.01133550063794859,0.005591373514100733,0.0006665240526029331,0.0035263629984493648
-0.021456304763512384,-0.011337760448983564,0.0055924793790752955,0.0006659230390298014,0.0035294642284867243
-0.021457074060885997,-0.011341318449336505,0.005593152514277202,0.0006699858907841711,0.003533406877526467
-0.021459189628663417,-0.011341270368250651,0.005594955554996597,0.0006683030527794028,0.003532589499067008
-0.02146274762901636,-0.011357906423954936,0.005587262581260511,0.000665418187628371,0.003533551120784019
-0.02146541612928106,-0.011356728437351596,0.005584353675566554,0.0006670289040043636,0.0035340319316425244
-0.021464141980506026,-0.011356055302149691,0.005587286621803436,0.0006673173905194668,0.003532180809837279
-0.021462963993902684,-0.01135925269435875,0.005591349473557807,0.0006719091342181923,0.0035315557557212217
-0.02146303611553146,-0.0113570169238667,0.00559433050088054,0.0006715244855313879,0.0035305700934612867
-0.021462483183044175,-0.01136016623498991,0.005587959757005344,0.0006667884985751111,0.003530401809660809
-0.021459550236807297,-0.01136021431607576,0.005581781337473551,0.0006728707559352028,0.0035293680663150227
-0.021456713452742117,-0.01135966138358848,0.005584473878281182,0.0006771259320329742,0.003526194714648888
-0.02145666537165626,-0.011356343788664793,0.005581324567157971,0.0006709234719582566,0.0035249686469597
-0.021458901142148316,-0.011356247626493092,0.005581757296930626,0.0006695772015544418,0.003525713903790383
-0.02146140135861254,-0.01135853147807099,0.005579882134582455,0.0006715244855313879,0.0035294642284867243
-0.02146426218322065,-0.011361079775621069,0.005579160918294698,0.0006721014585615942,0.003529872917716454
-0.021464622791364525,-0.011358771883500244,0.0055840411485085254,0.0006742410668819428,0.0035313634313778202
-0.02146411793996309,-0.01135665631572282,0.0055908927032422276,0.0006742410668819428,0.0035303056474891084
-0.021461978331642748,-0.011358627640242692,0.005586781770402006,0.000672990958649829,0.0035294161474008733
-0.0214598387233224,-0.011358146829384188,0.005578583945264492,0.0006712840801021354,0.003530786458347613
-0.02145817992586056,-0.01136213755950978,0.005579834053496604,0.0006699137691553954,0.003529560390658425
-0.0214572663852294,-0.01136341170828482,0.005586300959543501,0.0006714523639026122,0.0035323250530948304
-0.021457867398802528,-0.011363700194799924,0.005585820148684996,0.0006722697423620713,0.0035326616206957846
-0.021458853061062464,-0.011364733938145707,0.005579064756122997,0.0006703224583851249,0.003533695364041571
-0.02145921366920634,-0.011366272532892926,0.005577478080289929,0.0006744574317682702,0.003531531715178297
-0.021459694480064847,-0.011363075140683866,0.005577478080289929,0.000672077418018669,0.003531219188120269
-0.021460848426125258,-0.011361007653992294,0.005579377283181025,0.0006692165934105628,0.003529344025772098
-0.021460920547754038,-0.011363387667741894,0.005581589013130149,0.0006667163769463353,0.0035261706741059632
-0.02146156964241302,-0.011363051100140941,0.005583512256564171,0.0006681588095218512,0.003524752282073373
-0.02146308419661731,-0.011362113518966856,0.005585195094568939,0.00066943295829689,0.003526627444421543
-0.02146332460204656,-0.011355670653462884,0.005584497918824106,0.0006709475125011818,0.003526507241706917
-0.021463060156074385,-0.011356776518437445,0.0055850027702255365,0.0006717168098747901,0.0035304258502037353
-0.02146226681815785,-0.011362089478423931,0.00558488256751091,0.0006744814723111954,0.0035313393908348954
-0.02146149752078424,-0.011364854140860336,0.005583295891677843,0.000675635418371608,0.003529344025772098
-0.021466257548283445,-0.011366080208549524,0.0055750980665403285,0.0006785683646084903,0.0035305700934612867
-0.02146750765651556,-0.011362185640595629,0.005573823917765289,0.0006802992836991093,0.0035342002154430006
-0.021468349075517944,-0.011361368262136172,0.0055804110265268115,0.000678736648408967,0.003536628310278453
-0.02146810867008869,-0.011364950303032036,0.0055821659861603565,0.0006715244855313879,0.003535282039874638
-0.021469791508093455,-0.011366801424837284,0.0055795215264385755,0.0006517631592468213,0.0035331424315542897
-0.021468397156603796,-0.011367690924925516,0.005578295458749388,0.000628756359667344,0.0035316038368070728
-0.021465055521137186,-0.011367787087097216,0.005583271851134918,0.0006092594793549553,0.003530690296175913
-0.021464887237336704,-0.01136701778972361,0.00558757510831854,0.000594186058940815,0.0035304979718325104
-0.02146512764276596,-0.011364806059774486,0.005594066054908362,0.0005911088694463812,0.0035298248366306033
-0.02146358904801874,-0.011370383465733146,0.00558670964877323,0.0006029127760226856,0.0035283343229692366
-0.021462338939786628,-0.011370864276591652,0.005573775836679439,0.0006187554938104344,0.003528646850027265
-0.02146181004784227,-0.011370383465733146,0.00557392007993699,0.0006331798195655926,0.0035300652420598563
-0.021461689845127644,-0.011369830533245863,0.005568631160493432,0.000656210659687995,0.003529776755544753
-0.0214624110614154,-0.011368508303384976,0.005578680107436192,0.0006761162292301132,0.0035287910932848172
-0.0214642141021348,-0.011368123654698171,0.005590916743785152,0.0006820782838755787,0.0035316519178929234
-0.02146539208873813,-0.011368652546642528,0.005591325433014882,0.0006826071758199345,0.0035307143367188385
-0.02146313227770316,-0.0113663446545217,0.005584570040452882,0.0006826552569057852,0.0035299690798881547
-0.021461761966756417,-0.01136569555986272,0.005574593215138897,0.0006764047157452165,0.0035318202016934
-0.02146253126413003,-0.011366536978865105,0.005572934417677054,0.0006746497561116722,0.0035313393908348954
-0.02146344480476119,-0.011364974343574962,0.005574040282651615,0.0006751546075131027,0.0035293680663150227
-0.021462098534357373,-0.011369830533245863,0.005576011607171488,0.0006718610531323418,0.003528815133827742
-0.021459958926037026,-0.0113707200333341,0.005575699080113459,0.0006698416475266196,0.0035251609713031025
-0.021458997304320014,-0.011367618803296741,0.005574497052967196,0.0006744333912253449,0.0035260985524771873
-0.021459189628663417,-0.011369013154786408,0.0055719247148741935,0.0006756113778286827,0.003528069876997059
-0.02145967043952192,-0.011369662249445387,0.005577934850605509,0.0006724861072483987,0.003528863214913593
-0.021460151250380432,-0.011370143060303893,0.005582646797018861,0.0006727265126776513,0.0035292238230574717
-0.021460583980153082,-0.011369493965644913,0.005580963959014093,0.0006715966071601637,0.003531147066491492
-0.021459261750292197,-0.011367546681667964,0.005577189593774826,0.0006717648909606406,0.0035316278773499976
-0.021457146182514767,-0.011366633141036805,0.0055807235535848395,0.0006717889315035659,0.0035335992018698686
-0.021457434669029874,-0.011368796789900078,0.0055841373106802275,0.0006683030527794028,0.00353319051264014
-0.021460055088208727,-0.011370239222475594,0.005580963959014093,0.0006679424446355237,0.0035345848641298045
-0.02145921366920634,-0.011369614168359538,0.00557940132372395,0.0006663798093453817,0.0035363879048492
-0.02145690577708552,-0.011368123654698171,0.0055802427427263344,0.0006679905257213742,0.0035340559721854493
-0.02145599223645436,-0.01136706587080946,0.005587334702889287,0.0006696012420973669,0.0035313393908348954
-0.021456088398626057,-0.011367450519496265,0.005587214500174661,0.0006704186205568259,0.003533382836983542
-0.02145628072296946,-0.011367907289811843,0.005586781770402006,0.000671428323359687,0.003533430918069393
-0.021457723155544974,-0.011370191141389744,0.0055865173244298285,0.0006734477289654091,0.0035299690798881547
-0.02145803568260301,-0.011373580857942206,0.00558122840498627,0.0006721976207332954,0.003530690296175913
-0.02145820396640348,-0.011373388533598804,0.005584401756652405,0.0006724380261625481,0.003535955175076545
-0.021458492452918584,-0.01137492712834602,0.005576227972057816,0.0006751546075131027,0.0035377341752530146
-0.021460055088208727,-0.011374229952601187,0.005575386553055431,0.0006720293369328184,0.0035329981882967383
-0.02146171388567057,-0.01136797941144062,0.005575218269254954,0.0006698897286124701,0.0035333587964406173
-0.021464334304849425,-0.011371609533422335,0.0055765164585729185,0.0006702262962134237,0.0035355705263897404
-0.021465223804937657,-0.01137706673666637,0.005576540499115844,0.0006704667016426765,0.003534608904672731
-0.02146382945344799,-0.011373845303914384,0.0055779588911484355,0.000667702039206271,0.003538984283485128
-0.021464550669735752,-0.0113752877364899,0.005574064323194542,0.0006630622144216952,0.003540474797146495
-0.021465464210366908,-0.011377595628610723,0.00557437685025257,0.0006638315117953038,0.0035397535808587366
-0.021465704615796163,-0.011376129155492284,0.005578151215491836,0.0006691444717817869,0.003538046702311043
-0.021467002805114127,-0.011375672385176705,0.005581492850958447,0.0006689040663525343,0.0035367485129930787
-0.021466714318599023,-0.011377619669153651,0.005591301392471957,0.00066669233640341,0.0035370369995081827
-0.021465945021225414,-0.011378268763812632,0.0055922149331031155,0.0006687357825520575,0.003540907526919149
-0.02146507956168011,-0.011377427344810249,0.0055822381077891324,0.0006728226748493523,0.003541965310807861
-0.021464021777791397,-0.011375215614861123,0.005579737891324904,0.0006731592424503058,0.0035411719728913275
-0.021465969061768345,-0.011374590560745069,0.005584690243167508,0.0006707792287007049,0.0035388400402275775
-0.02146885392691937,-0.01137264327676812,0.005589738757181814,0.0006699137691553954,0.003537613972538389
-0.02146830099443209,-0.011375720466262557,0.005586493283886902,0.0006712600395592102,0.003538431350997848
-0.02146911837289155,-0.011377379263724398,0.005577670404633331,0.0006700339718700216,0.003537926499596417
-0.021470729089267542,-0.01137386934445731,0.005574256647537944,0.0006732794451649322,0.003538359229369072
-0.021470921413610945,-0.011374590560745069,0.005571251579672286,0.000672798634306427,0.003537710134710089
-0.021471137778497268,-0.011377331182638548,0.0055763481747724405,0.0006696252826402923,0.0035348733506449085
-0.02147137818392653,-0.011379615034216448,0.005577502120832854,0.0006679424446355237,0.0035339117289278975
-0.02147188303532796,-0.011377836034039978,0.005580194661640485,0.0006695531610115164,0.0035369167967935562
-0.02147217152184306,-0.011378076439469231,0.005581108202271643,0.0006719572153040428,0.003541244094520103
-0.02147229172455769,-0.01137574450680548,0.005580218702183409,0.0006723178234479218,0.0035377341752530146
-0.021472532129986937,-0.01137386934445731,0.0055810360806428675,0.0006703464989280501,0.003537686094167165
-0.0214737341571332,-0.011381706561450943,0.0055810360806428675,0.0006706349854431532,0.003537662053624239
-0.021475176589708718,-0.011381706561450943,0.00557843970200694,0.0006712840801021354,0.0035356186074755915
-0.02147671518445593,-0.011379975642360329,0.005576179890971965,0.0006671731472619152,0.0035355464858468156
-0.021477821049430496,-0.011378965939557464,0.005573823917765289,0.0006667884985751111,0.0035381909455685953
-0.021478638427889957,-0.011380023723446176,0.005582286188874981,0.000670707107071929,0.003539032364570979
-0.02147871054951873,-0.011382860507511356,0.005583199729506143,0.0006683030527794028,0.0035384794320836976
-0.021479143279291384,-0.011381971007423122,0.00557666070183047,0.0006674856743199436,0.0035381909455685953
-0.021479311563091862,-0.011377090777209295,0.0055780310127772105,0.0006703464989280501,0.0035371091211369578
-0.02147762872508709,-0.011373965506629013,0.00558315164842029,0.00066851941766573,0.003539104486199755
-0.021476162251968654,-0.011377235020466845,0.00558396902687975,0.0006676779986633457,0.003538527513169549
-0.02147743640074369,-0.011380480493761756,0.005584954689139686,0.0006667404174892606,0.0035397535808587366
-0.02148089823892493,-0.01138278838588258,0.005591830284416312,0.0006661153633732036,0.003541652783749833
-0.021482124306614118,-0.0113843269806298,0.005589041581436981,0.0006682068906077018,0.003542229756780039
-0.021479263482006013,-0.011384639507687828,0.005575554836855907,0.0006691204312388617,0.003540907526919149
-0.021476042049254025,-0.011382884548054284,0.005575001904368627,0.0006690723501530111,0.003540715202575747
-0.02147541699513797,-0.011380192007246655,0.005582526594304234,0.0006670289040043636,0.003541196013434253
-0.0214760180087111,-0.011379759277473998,0.005587238540717586,0.0006668606202038868,0.0035388400402275775
-0.021476739224998855,-0.011379014020643315,0.005585050851311387,0.0006652258632849689,0.0035390564051139047
-0.021477580644001244,-0.011377715831325352,0.005578199296577687,0.0006649854578557162,0.0035391525672856046
-0.021478518225175332,-0.011377355223181472,0.005579257080466397,0.0006639517145099299,0.0035359792156194705
-0.02147628245468328,-0.011380143926160805,0.005582526594304234,0.0006658989984868762,0.0035362917426774994
-0.02147426304907756,-0.011380841101905636,0.005587142378545885,0.0006667404174892606,0.0035363157832204242
-0.021473782238219045,-0.01138528860234681,0.005581877499645252,0.0006625333224773394,0.0035371812427657336
-0.0214733495084464,-0.011385384764518513,0.0055726940122478,0.0006659470795727267,0.0035349935533595346
-0.02147267637324449,-0.011382403737195778,0.005577526161375779,0.0006681588095218512,0.003536652350821378
-0.02147243596781524,-0.011376994615037592,0.0055769011072597215,0.0006657547552293247,0.003537157202222809
-0.02147279657595912,-0.01137798027729753,0.00557981001295368,0.0006641921199391826,0.003539296810543157
-0.02147322930573177,-0.011382115250680674,0.005579160918294698,0.0006640959577674815,0.0035414844999493563
-0.021473445670618097,-0.011385024156374629,0.005579785972410755,0.0006645767686259867,0.00354232591895174
-0.021471474346098227,-0.011385120318546332,0.005585748027056221,0.0006651056605703426,0.003542253797322964
-0.021469238575606172,-0.0113843269806298,0.005584329635023629,0.0006644325253684352,0.0035425422838380673
-0.02146962322429298,-0.011384351021172724,0.005577285755946527,0.0006626535251919657,0.0035399218646592133
-0.02147003191352271,-0.01138259606153918,0.005577502120832854,0.0006627737279065921,0.0035381669050256696
-0.021468132710631613,-0.011386418507864295,0.005578992634494221,0.0006649373767698657,0.00353821498611152
-0.021465969061768345,-0.011391467021878602,0.005581805378016476,0.0006647450524264638,0.003539104486199755
-0.021465632494167386,-0.01138944761627288,0.005583464175478319,0.0006637353496236027,0.003542229756780039
-0.02146683452131365,-0.011389495697358731,0.005581372648243822,0.0006616919034749553,0.0035418691486361602
-0.021466065223940043,-0.011388678318899273,0.0055716843094449405,0.0006664519309741572,0.0035403545944318686
-0.02146661815642732,-0.011386947399808651,0.0055748576611110755,0.0006672693094336162,0.003538431350997848
-0.02146601714285419,-0.011385865575377015,0.005578728188522042,0.0006662115255449048,0.0035401622700884663
-0.021463372683132413,-0.0113866108322077,0.0055857239865132954,0.0006665961742317089,0.003541845108093235
-0.02146217065598615,-0.011387981143154438,0.0055836564998217215,0.0006646248497118372,0.0035415566215781322
-0.021461088831554512,-0.011389567818987506,0.005581444769872598,0.0006658028363151753,0.003542518243295142
-0.02145916558812049,-0.011390553481247442,0.005581060121185793,0.0006661394039161289,0.003541965310807861
-0.021457530831201572,-0.011386538710578924,0.005577381918118228,0.0006649373767698657,0.003541965310807861
-0.021454549803878842,-0.01138605789972042,0.005581637094216,0.0006648652551410901,0.003542181675694189
-0.02145380454704816,-0.011389087008129002,0.005585603783798668,0.0006626535251919657,0.0035434317839263024
-0.02145548738505293,-0.011390192873103564,0.005579834053496604,0.0006661153633732036,0.003543936635327733
-0.0214557518310251,-0.011391058332648871,0.005581925580731103,0.0006614274575027772,0.0035460041220193046
-0.02145435747953544,-0.011389327413558251,0.005588392486777999,0.0006594320924399803,0.003545811797675903
-0.02145387666867693,-0.011389303373015329,0.005581853459102328,0.0006613793764169266,0.0035457156355042023
-0.021453155452389176,-0.011388245589126616,0.00558031486435511,0.0006598407816697097,0.0035470378653650915
-0.02145125624949808,-0.011389087008129002,0.005581084161728718,0.0006583743085512687,0.003549105352056665
-0.021450198465609367,-0.011387356089038382,0.005582430432132533,0.0006591916870107278,0.0035512209198340877
-0.021450438871038625,-0.011387740737725187,0.0055884886489497,0.0006582541058366423,0.003548888987170337
-0.02145202554687169,-0.011390457319075741,0.005591373514100733,0.0006602975519852897,0.0035530480010964077
-0.02145219383067216,-0.011392981576082891,0.005588632892207252,0.0006598648222126349,0.0035523027442657244
-0.02145084756026835,-0.011396010684491477,0.005585675905427444,0.0006620525116188341,0.0035522546631798733
-0.021451544736013184,-0.011394183603229156,0.005580194661640485,0.000661499579131553,0.0035507881900614328
-0.021452362114472642,-0.01139177954893663,0.005577021309974349,0.0006623890792197878,0.0035509324333189846
-0.021453011209131626,-0.011391947832737108,0.005581901540188177,0.0006594320924399803,0.003550764149518508
-0.02145166493872781,-0.011389976508217235,0.005593176554820127,0.0006580137004073898,0.0035524950686091268
-0.021450486952124467,-0.01138985630550261,0.005594017973822511,0.0006575569300918098,0.003554730839101176
-0.02145185726307121,-0.01138829367021247,0.005580603350870213,0.0006577011733493614,0.0035554520553889336
-0.021452722722616526,-0.011390457319075741,0.005576636661287545,0.0006556336866577888,0.003556245393305468
-0.021452362114472642,-0.011390601562333293,0.0055808677968423905,0.0006589032004956245,0.0035532162848968844
-0.02145267464153067,-0.0113889908459573,0.005579954256211231,0.000657941578778614,0.0035519180955789205
-0.02145479020930809,-0.011395505833090049,0.005575626958484684,0.0006579656193215393,0.003551894055035995
-0.021455799912110957,-0.011394279765400856,0.005588536730035551,0.0006588070383239233,0.003553649014669539
-0.021455559506681703,-0.011392164197623436,0.005599499217609471,0.0006572444030337812,0.0035532884065256603
-0.021453708384876456,-0.011392572886853164,0.005586084594657172,0.0006580137004073898,0.003552062338836472
-0.021452794844245296,-0.01139259692739609,0.005581060121185793,0.0006580858220361656,0.003551725771235518
-0.021452722722616526,-0.011393919157256979,0.005594570906309792,0.0006610668493588983,0.003553673055212464
-0.021452626560444818,-0.011393678751827726,0.0055905801761841995,0.0006624131197627131,0.003554899122901653
-0.02145387666867693,-0.011395626035804672,0.005584714283710433,0.0006629420117070688,0.0035550674067021297
-0.021455559506681703,-0.01139543371146127,0.005589041581436981,0.0006599129032984856,0.003554899122901653
-0.02145584799319681,-0.01139442400865841,0.005589089662522832,0.0006581819842078668,0.00355602902841914
-0.02145491041202272,-0.011395193306032015,0.005585964391942547,0.0006601052276418878,0.003557471460994656
-0.02145471808767932,-0.011396563616978758,0.005580747594127765,0.0006582541058366423,0.00355790419076731
-0.02145522293908075,-0.011396034725034402,0.0055820698239886545,0.0006553211595997602,0.0035584330827116662
-0.021454934452565647,-0.011396731900779234,0.005589498351752562,0.0006578454166069129,0.0035587215692267703
-0.02145176110089951,-0.011397549279238695,0.0055915177573582844,0.0006572924841196318,0.00355785610968146
-0.02144959745203624,-0.011399568684844416,0.005589065621979907,0.0006597205789550835,0.003558144596196563
-0.02145065523592495,-0.011403439212255385,0.005583416094392469,0.0006590234032102509,0.0035603322856027617
-0.021452891006417,-0.011400650509276052,0.005577429999204079,0.0006589753221244003,0.0035581686367394884
-0.02145582395265388,-0.011396106846663178,0.0055837286214504974,0.0006584223896371192,0.0035584571232545915
-0.021454958493108568,-0.011392308440880988,0.00558533933782649,0.0006582060247507918,0.003558937934113097
-0.02145459788496469,-0.011395121184403242,0.005582117905074505,0.000659408051897055,0.003560813096461268
-0.02145668941219919,-0.011396058765577328,0.0055869740947454075,0.0006603456330711402,0.0035592985422569757
-0.02145854053400444,-0.011395049062774469,0.005589690676095964,0.000658230065293717,0.0035591542989994243
-0.021458684777261983,-0.01139848686041278,0.005593344838620604,0.0006571001597762298,0.0035590100557418725
-0.021457843358259603,-0.011398006049554273,0.005593849690022034,0.0006571482408620804,0.0035592985422569757
-0.02145801164206008,-0.01139848686041278,0.005583512256564171,0.0006587108761522225,0.003558865812484321
-0.02145820396640348,-0.011398006049554273,0.005567284890089617,0.0006593840113541298,0.003557976312396087
-0.02145690577708552,-0.011398655144213257,0.005560793943499796,0.0006633507009367982,0.0035594427855145275
-0.021457338506858173,-0.01140036202276095,0.00557113137695766,0.000662316957591012,0.0035593466233428267
-0.02146007912875165,-0.011399881211902444,0.005578728188522042,0.0006622207954193111,0.0035597312720296306
-0.021460583980153082,-0.011398991711814207,0.005583512256564171,0.0006601052276418878,0.0035592264206282
-0.02146082438558233,-0.011397597360324543,0.0055841132701373005,0.0006575569300918098,0.0035583850016258156
-0.0214623148992437,-0.011397068468380187,0.005584065189051451,0.0006583021869224928,0.0035573512582800296
-0.021463348642589492,-0.011396852103493862,0.005583944986336825,0.000660778362843795,0.003558144596196563
-0.021462603385758804,-0.011399376360501014,0.0055851710540260145,0.0006617159440178805,0.003558577325969218
-0.021462050453271524,-0.011402886279768102,0.005584762364796284,0.0006582541058366423,0.003560885218090043
-0.021462459142501254,-0.011401323644477959,0.005576035647714413,0.000659672497869233,0.0035587936908555453
-0.02146373329127629,-0.011401612130993064,0.0055710352147859575,0.0006612591737023004,0.003558144596196563
-0.021462651466844656,-0.0114027901175964,0.005584930648596761,0.0006602735114423644,0.00355785610968146
-0.0214598387233224,-0.011403030523025656,0.005598609717521236,0.0006577973355210624,0.0035596591504008547
-0.021458732858347842,-0.01140315072574028,0.005584089229594376,0.0006545278216832267,0.003561221785690997
-0.02145861265563321,-0.011402357387823749,0.00556437598439566,0.0006538546864813192,0.003561726637092428
-0.021456569209484563,-0.011402213144566195,0.0055710592553288845,0.0006554413623143866,0.003559514907143303
-0.021455679709396328,-0.011398919590185434,0.00557560291794176,0.0006567155110894254,0.003557663785338058
-0.02145705002034307,-0.011398967671271285,0.005579329202095174,0.0006575088490059593,0.003558865812484321
-0.021459814682779476,-0.011403367090626608,0.005583752661993423,0.0006550807541705077,0.0035584330827116662
-0.02146034357472383,-0.0114049778070026,0.005579689810239054,0.0006558500515441161,0.00355785610968146
-0.021458372250203958,-0.0114049778070026,0.005572838255505353,0.0006566193489177246,0.003558745609769695
-0.02145815588531763,-0.011402333347280821,0.005571660268902015,0.0006541191324534973,0.0035591542989994243
-0.021459430034092668,-0.011402886279768102,0.005575049985454477,0.0006511621456736897,0.0035584330827116662
-0.02146366116964752,-0.011404617198858722,0.005581709215844775,0.0006519314430472982,0.003558216717825339
-0.021466521994255618,-0.011406684685550294,0.005589041581436981,0.0006529411458501593,0.003557471460994656
-0.021467531697058482,-0.011406179834148863,0.0055857239865132954,0.0006524362944487287,0.0035601399612593602
-0.021468349075517944,-0.011403679617684636,0.0055795215264385755,0.0006539748891959456,0.003559466826057453
-0.02146911837289155,-0.0114048816448309,0.005576179890971965,0.0006541672135393476,0.0035572070150224782
-0.021469959791893936,-0.01140077071199068,0.0055739681610228395,0.0006560423758875183,0.003557591663709282
-0.021469094332348625,-0.011404737401573349,0.005576107769343189,0.0006555375244860878,0.0035592264206282
-0.021466233507740518,-0.011408054996497032,0.005581108202271643,0.0006547682271124793,0.0035589138935701718
-0.021462723588473433,-0.011404641239401646,0.005584449837738256,0.0006552009568851338,0.003559851474744257
-0.021460127209837504,-0.011400530306561426,0.005580699513041914,0.0006555134839431624,0.0035619670425216803
-0.021458877101605392,-0.011401515968821364,0.0055731988636492326,0.000653373875622814,0.0035635056372688967
-0.021457891439345445,-0.011404617198858722,0.005574256647537944,0.0006561625786021447,0.003563457556183047
-0.02145548738505293,-0.011406612563921515,0.005577405958661154,0.0006574607679201088,0.0035600197585447337
-0.02145166493872781,-0.01140858388844139,0.005583944986336825,0.0006578934976927635,0.0035580003529390117
-0.02144983785746549,-0.011407381861295128,0.0055893781490379355,0.0006549605514558814,0.0035600197585447337
-0.021451953425242917,-0.011404232550171915,0.005590820581613451,0.0006534940783374403,0.0035606688532037155
-0.021454117074106188,-0.011402309306737895,0.005584978729682611,0.000654383578425675,0.0035626882588094383
-0.02145637688514116,-0.011401924658051092,0.0055808918373853175,0.0006555134839431624,0.0035637220021552244
-0.021458660736719058,-0.01140365557714171,0.0055810360806428675,0.0006539748891959456,0.0035646595833293093
-0.02145892518269124,-0.011404256590714841,0.005581805378016476,0.0006546961054837034,0.003561221785690997
-0.021460535899067237,-0.011403847901485112,0.005581709215844775,0.0006587108761522225,0.003561293907319773
-0.021461882169471046,-0.011405049928631377,0.0055823102294179075,0.0006600811870989624,0.003564467258985908
-0.021462627426301728,-0.011406732766636144,0.0055841132701373005,0.0006585906734375961,0.0035691551648563344
-0.021464238142677724,-0.011406011550348386,0.005590099365325694,0.0006553692406856107,0.003567760813366669
-0.021464694912993302,-0.011408295401926286,0.005594450703595166,0.0006552490379709844,0.0035662702997053025
-0.02146577673742494,-0.01141009844264568,0.005590291689669095,0.0006574126868342582,0.003567760813366669
-0.02146647391316977,-0.0114118293617363,0.005580386985983886,0.0006630862549646205,0.0035701167865733454
-0.021466161386111744,-0.01140949742907255,0.00557336714744971,0.0006672212283477657,0.0035678810160812953
-0.021465945021225414,-0.011407598226181452,0.005577429999204079,0.0006677501202921218,0.0035665347456774804
-0.021465969061768345,-0.01140918490201452,0.005580122540011708,0.0006611870520735246,0.003567159799793537
-0.021465824818510792,-0.01140625195577764,0.0055824544726754575,0.0006441423071395128,0.003566558786220405
-0.02146693068348535,-0.011405939428719609,0.005579497485895651,0.0006193084262977153,0.0035684099080256506
-0.021467724021401884,-0.011407766509981931,0.0055670925657462155,0.0005979844647230067,0.0035723044759795436
-0.021467820183573585,-0.011408439645183838,0.005571107336414734,0.0005847381255711864,0.0035700446649445687
-0.021468902008005226,-0.011409737834501802,0.005579785972410755,0.0005723332054217504,0.00356932344865681
-0.021468974129633996,-0.011412165929337251,0.005586493283886902,0.000577501922150682,0.0035709582055757287
-0.021469454940492502,-0.011411588956307048,0.0055877674326619406,0.0005935129237389077,0.0035713188137196077
-0.02147080121089632,-0.01141218996988018,0.005584521959367031,0.0006115673714757805,0.0035708860839469532
-0.021471546467727004,-0.0114120216860797,0.005583247810591992,0.0006348386170274357,0.0035741796383277147
-0.021471137778497268,-0.011408656010070165,0.005582742959190562,0.000657677132806436,0.0035735786247545827
-0.021470873332525096,-0.01141832030832612,0.005589979162611067,0.0006658749579439509,0.0035707178001464774
-0.021471089697411426,-0.011420844565333273,0.005591734122244611,0.0006654662687142215,0.003570285070373822
-0.02147130606229775,-0.011415988375662371,0.005584714283710433,0.0006647210118835384,0.003571294773176683
-0.021471642629898702,-0.011410651375132962,0.005575266350340805,0.000661042808815973,0.00357384307072676
-0.021472003238042586,-0.01141050713187541,0.00557214107976052,0.0006603696736140656,0.003572713165209273
-0.02147190707587088,-0.011412790983453313,0.005570866930985481,0.0006607302817579447,0.003569996583858719
-0.021471474346098227,-0.011413752605170321,0.005575266350340805,0.0006600571465560372,0.0035713188137196077
-0.02147137818392653,-0.011414834429601959,0.005576300093686591,0.0006602494708994392,0.003574371962671117
-0.021471233940668973,-0.011414329578200528,0.005575987566628564,0.0006575809706347352,0.003572953570638526
-0.0214738303193049,-0.011414666145801479,0.005578367580378164,0.0006573646057484077,0.0035738190301838352
-0.021476450738483758,-0.01141370452408447,0.005581516891501374,0.0006567395516323507,0.003574468124842817
-0.021477772968344647,-0.011413464118655216,0.005581997702359879,0.0006585185518088202,0.003574804692443771
-0.02147902307657676,-0.011412670780738684,0.005583247810591992,0.0006568116732611266,0.003576776016963643
-0.021479912576664997,-0.011410891780562215,0.005589161784151608,0.0006584464301800445,0.003577377030536774
-0.02147827781974608,-0.01141365644299862,0.0055851710540260145,0.0006613793764169266,0.003576415408819764
-0.021477051752056886,-0.011415555645889716,0.005576708782916321,0.0006607062412150193,0.003575477827645678
-0.0214758256843677,-0.011415291199917537,0.005578680107436192,0.0006578454166069129,0.0035779059224811303
-0.021475080427537017,-0.01141488251068781,0.0055812043644433455,0.0006606822006720941,0.0035767519764207173
-0.021474791941021917,-0.011414642105258556,0.00558168517530185,0.0006579175382356888,0.0035782424900820844
-0.02147484002210776,-0.011413993010599574,0.005583127607877366,0.0006544797405973762,0.0035788194631122907
-0.02147419092744878,-0.011414065132228349,0.005585796108142071,0.000655104794713433,0.0035776655170518773
-0.021473301427360543,-0.011412526537481132,0.0055884886489497,0.0006554894434002372,0.0035788194631122907
-0.02147250808944401,-0.011415796051318969,0.005580603350870213,0.0006564270245743224,0.0035789396658269163
-0.021470705048724614,-0.011423032254739472,0.005574184525909168,0.0006564029840313972,0.0035781703684533077
-0.021469358778320805,-0.011419474254386532,0.005575506755770058,0.0006585906734375961,0.0035763432871909885
-0.02146664219697025,-0.011414858470144885,0.005570410160669902,0.0006568357138040518,0.0035778578413952797
-0.021464021777791397,-0.011413440078112291,0.005569496620038742,0.0006550326730846572,0.003577833800852355
-0.021463420764218262,-0.011413031388882564,0.005583440134935396,0.0006594561329829057,0.0035775693548801765
-0.021464045818334318,-0.011414545943086857,0.005579353242638099,0.0006589272410385497,0.0035768000575065687
-0.02146435834539235,-0.011416060497291144,0.005568727322665133,0.0006586387545234468,0.003575213381673501
-0.02146457471027868,-0.011416228781091622,0.005568727322665133,0.000657941578778614,0.00357744915216555
-0.02146486319679378,-0.011417070200094007,0.0055762760531436655,0.0006569318759757528,0.0035769683413070454
-0.02146548825090984,-0.01141685383520768,0.005581661134758924,0.0006560423758875183,0.0035778578413952797
-0.021465969061768345,-0.011420363754474768,0.005583776702536348,0.0006565231867460235,0.0035762952061051366
-0.02146789230520236,-0.01142507570088812,0.005581877499645252,0.0006587589572380728,0.003575069138415949
-0.02146933473777788,-0.011424138119714034,0.0055779588911484355,0.0006572684435767066,0.0035738190301838352
-0.02146885392691937,-0.01142031567338892,0.00557711747214605,0.0006589753221244003,0.003574756611357921
-0.021466161386111744,-0.011418632835384149,0.005576564539658769,0.0006590474437531762,0.003574588327557444
-0.021461689845127644,-0.011420219511217215,0.005579257080466397,0.0006577011733493614,0.003577016422392895
-0.021459093466491715,-0.01141832030832612,0.005579160918294698,0.0006595042140687562,0.0035747085302720704
-0.021458732858347842,-0.011418656875927077,0.0055797619318678285,0.0006602494708994392,0.0035746123681003688
-0.02145911750703464,-0.011418464551583673,0.005580026377840007,0.0006595042140687562,0.003576415408819764
-0.021459958926037026,-0.011421950430307836,0.005583223770049067,0.0006614034169598518,0.0035750210573300984
-0.021461978331642748,-0.011421397497820555,0.005584834486425059,0.0006632545387650973,0.0035711264893762053
-0.02146156964241302,-0.011419305970586057,0.00558259871593301,0.0006627256468207416,0.0035686983945407533
-0.0214599348854941,-0.011419882943616264,0.005582959324076889,0.0006619803899900582,0.0035684099080256506
-0.021460848426125258,-0.011417863538010541,0.005582286188874981,0.000663591106366051,0.0035728333679239
-0.021462122574900298,-0.01141776737583884,0.005581613053673075,0.0006625333224773394,0.0035759826790471095
-0.02146368521019044,-0.01141832030832612,0.005575434634141282,0.0006608985655584214,0.003573097813896077
-0.021464622791364525,-0.011420628200446946,0.005574112404280392,0.0006615476602174035,0.0035733622598682555
-0.021465728656339087,-0.01142132537619178,0.005576227972057816,0.0006626535251919657,0.0035747806519008463
-0.021465560372538613,-0.01142283993039607,0.005579665769696128,0.0006634228225655741,0.003574371962671117
-0.02146587289959664,-0.011423825592656006,0.005581444769872598,0.0006594320924399803,0.003572568921951722
-0.02146519976439473,-0.011424306403514512,0.005586877932573707,0.0006598648222126349,0.003573218016610704
-0.02146445450756405,-0.011423921754827707,0.005590940784328077,0.0006589032004956245,0.0035763673277339134
-0.02146289187227391,-0.011419305970586057,0.005583848824165124,0.0006579656193215393,0.0035752614627593514
-0.02146181004784227,-0.011423176497997024,0.0055735835123360365,0.0006574607679201088,0.0035769202602211943
-0.0214618340883852,-0.011424642971115465,0.005582815080819338,0.0006566674300035751,0.0035782665306250093
-0.021464069858877246,-0.011424354484600364,0.005593368879163529,0.0006571001597762298,0.003576247125019287
-0.021465824818510792,-0.011423825592656006,0.005592839987219172,0.0006541191324534973,0.003575213381673501
-0.02146539208873813,-0.011422767808767295,0.005586613486601529,0.0006499360779845014,0.003575790354703707
-0.021464166021048947,-0.011422286997908787,0.00558396902687975,0.0006508496186156612,0.003575357624931052
-0.021462362980329552,-0.011422527403338042,0.005578343539835239,0.0006533979161657393,0.0035743960032140424
-0.02146457471027868,-0.011419834862530412,0.005573102701477531,0.0006553932812285361,0.0035753816654739774
-0.021468517359318415,-0.01142060415990402,0.005577429999204079,0.0006550807541705077,0.0035773289494509244
-0.021472387886729387,-0.01142466701165839,0.0055839209457939,0.000651186186216615,0.0035772568278221476
-0.02147291677867374,-0.011424763173830092,0.0055781031344059855,0.0006501524428708287,0.0035776655170518773
-0.0214712579812119,-0.011428297133640105,0.005574160485366243,0.0006522439701053266,0.003576175003390512
-0.021472267684014758,-0.01142909047155664,0.005574256647537944,0.0006552009568851338,0.003578723300940589
-0.021474431332878036,-0.01142909047155664,0.005576300093686591,0.0006566433894606498,0.0035802618956878064
-0.02147527275188042,-0.011429018349927864,0.0055775502019187045,0.0006553932812285361,0.003579396436142497
-0.02147440729233511,-0.011427479755180645,0.005578992634494221,0.0006541672135393476,0.003578410773882561
-0.021474383251792184,-0.011426542174006559,0.005578343539835239,0.0006535902405091414,0.003578146327910383
-0.021474142846362933,-0.011427407633551871,0.0055775502019187045,0.0006566674300035751,0.003576319246648063
-0.021473878400390757,-0.011426998944322142,0.005580122540011708,0.0006539748891959456,0.00357744915216555
-0.02147452749504973,-0.011425436309032,0.005581084161728718,0.0006570761192333045,0.003578506936054262
-0.02147474385993606,-0.011426373890206084,0.005581925580731103,0.0006551288352563582,0.0035773289494509244
-0.021474166886905857,-0.011427840363324523,0.005580603350870213,0.0006540950919105719,0.0035745642870145186
-0.021473012940845443,-0.0114277201606099,0.005575506755770058,0.0006543595378827497,0.0035742998410423408
-0.02147262829215864,-0.011427335511923094,0.005580675472498989,0.000656210659687995,0.0035747325708149953
-0.02147262829215864,-0.011427527836266495,0.005591181189757329,0.0006563789434884719,0.0035742517599564897
-0.02147395052201953,-0.011428994309384936,0.005585675905427444,0.000653373875622814,0.00357420367887064
-0.021474479413963885,-0.0114300040121878,0.005569809147096771,0.0006530853891077109,0.0035756941925320063
-0.021474166886905857,-0.011428946228299087,0.005571251579672286,0.0006554173217714613,0.0035777857197665038
-0.021474912143736542,-0.011427599957895274,0.005572934417677054,0.000654383578425675,0.003577064503478746
-0.021475993968168176,-0.011428345214725957,0.005572117039217595,0.0006558019704582655,0.0035759345979612584
-0.021477364279114917,-0.011427599957895274,0.005571251579672286,0.0006558500515441161,0.0035747085302720704
-0.02147952792797819,-0.0114277201606099,0.005571540066187389,0.0006562587407738455,0.003575405706016903
-0.021480417428066424,-0.011428176930925479,0.005572453606818549,0.0006542393351681233,0.003575718233074931
-0.021480249144265943,-0.011422407200623416,0.0055664434710872325,0.0006546239838549278,0.003576848138592419
-0.021479335603634787,-0.011427960566039152,0.0055674050928042436,0.0006557298488294897,0.0035817043282633217
-0.02147873459006165,-0.011431398363677464,0.005573246944735082,0.0006552249974280592,0.003585262328616261
-0.02147923944146309,-0.011431013714990659,0.005575963526085638,0.0006558500515441161,0.003587233653136133
-0.02147815761703145,-0.011430893512276032,0.005580507188698512,0.0006519314430472982,0.003588652045168723
-0.02147683538717056,-0.011433465850369038,0.005581781337473551,0.0006516910376180455,0.0035880029505097407
-0.021478229738660225,-0.011431157958248213,0.00557721363431775,0.0006501043617849783,0.003588267396481919
-0.02148053763078105,-0.011429427039157593,0.005580026377840007,0.0006499841590703519,0.00358795486942389
-0.021481066522725408,-0.011427960566039152,0.005584714283710433,0.0006514506321887929,0.0035854306124167377
-0.021481691576841464,-0.011427623998438198,0.005581396688786747,0.0006488302130099392,0.0035851421259016345
-0.02148433603656324,-0.01143233594485155,0.005579665769696128,0.0006503688077571561,0.0035851180853587092
-0.02148565826642413,-0.011432191701593998,0.0055838007430792725,0.0006521718484765507,0.003589926193943762
-0.021485345739366103,-0.011431662809649643,0.0055749297827398505,0.0006532777134511129,0.0035896857885145093
-0.021484528360906644,-0.011431807052907195,0.005565890538599952,0.0006532536729081876,0.003589565585799883
-0.02148573038805291,-0.011432985039510532,0.0055700255119830976,0.0006527728620496824,0.0035911041805471
-0.02148676413139869,-0.011433922620684616,0.00557295845821998,0.0006521237673907003,0.003592402369865064
-0.0214874372666006,-0.011433874539598769,0.005577021309974349,0.0006512823483883161,0.003593748640268878
-0.02148678817194162,-0.01143339372874026,0.005573535431250186,0.0006535902405091414,0.0035952391539302454
-0.021485562104252433,-0.01143288887733883,0.005573751796136514,0.0006513785105600171,0.0035959363296750773
-0.021485417860994883,-0.011433465850369038,0.005574352809709645,0.0006504168888430066,0.0035958161269604508
-0.021484215833848616,-0.011433465850369038,0.005574569174595972,0.0006515467943604941,0.003596032491846779
-0.021483158049959903,-0.011431542606935016,0.00557574716119931,0.0006489744562674908,0.0035975470460510705
-0.0214826772391014,-0.011428898147213236,0.005569977430897247,0.0006483494021514338,0.003600215546315775
-0.021483109968874054,-0.011435341012717207,0.005565578011541924,0.0006509217402444371,0.003600263627401625
-0.02148344653647501,-0.01143873072926967,0.005572669971704876,0.000651090024044914,0.0036025955600653757
-0.021484047550048138,-0.011437937391353136,0.005578848391236669,0.0006500803212420531,0.00360293212766633
-0.021484287955477396,-0.011440389526731513,0.005579040715580071,0.0006499120374415762,0.003606850736163147
-0.021482797441816026,-0.011437336377780005,0.005579593648067352,0.0006531575107364868,0.0036072594253928774
-0.021481980063356568,-0.011436350715520068,0.005583680540364647,0.000653926808110095,0.0036079566011377093
-0.021484287955477396,-0.011434355350457271,0.005581540932044299,0.0006516910376180455,0.0036086056957966924
-0.021488783537004414,-0.011430821390647258,0.005573775836679439,0.0006502005239566793,0.0036082691281957373
-0.0214916203210696,-0.011432504228652026,0.005574304728623794,0.0006500081996132773,0.0036069949794206983
-0.021493255077988514,-0.011436350715520068,0.0055770693910602,0.0006499120374415762,0.0036062737631329406
-0.021492942550930486,-0.011434715958601151,0.005575867363913936,0.0006481089967221812,0.0036084614525391397
-0.021490466375009183,-0.011435653539775235,0.005575771201742235,0.0006470752533763947,0.0036107212635741147
-0.021488495050489314,-0.011437745067009734,0.005574953823282778,0.0006491186995250422,0.0036103366148873104
-0.0214872449422572,-0.011438658607640892,0.005575458674684207,0.0006469310101188433,0.003613317642210043
-0.021487485347686453,-0.0114392355806711,0.005577141512688975,0.0006431085637937263,0.0036115626825764992
-0.02148832676668884,-0.011437023850721977,0.005580555269784362,0.0006471233344622454,0.0036113222771472467
-0.021487317063885972,-0.011439620229357905,0.005583512256564171,0.0006474358615202739,0.0036140388584978006
-0.021486860293570397,-0.011441711756592402,0.005575867363913936,0.0006464742398032633,0.003615889980303046
-0.021487581509858158,-0.011440894378132943,0.005576300093686591,0.0006485176859519108,0.0036142071422982773
-0.021487653631486928,-0.011440221242931035,0.005581637094216,0.0006489744562674908,0.003613005115152015
-0.0214872449422572,-0.01143877881035552,0.0055828631619051884,0.0006461857532881601,0.003614231182841203
-0.02148695645574209,-0.011439668310443754,0.00557807909386306,0.0006457770640584308,0.003615793818131345
-0.021486619888141142,-0.011441351148448523,0.0055751701881691035,0.0006450318072277474,0.003617981507537544
-0.0214855380637095,-0.01144091841867587,0.005575915444999787,0.0006444067531116907,0.003616995845277608
-0.02148455240144957,-0.011441663675506551,0.005575458674684207,0.0006447914017984949,0.0036170198858205336
-0.021483879266247664,-0.01144050972944614,0.00557843970200694,0.0006440701855107369,0.0036148081558714093
-0.021481571374126842,-0.011438297999497016,0.005581084161728718,0.0006432047259654275,0.0036155293721591673
-0.021479311563091862,-0.011436639202035172,0.005577646364090407,0.0006435893746522317,0.0036168035209342064
-0.02147911923874846,-0.011435413134345984,0.005573847958308214,0.0006424354285918191,0.0036175728183078146
-0.021480561671323974,-0.011439259621214023,0.0055775502019187045,0.0006392139958398338,0.003617524737221964
-0.021482484914758,-0.01144091841867587,0.005577502120832854,0.0006372426713199621,0.003617452615593188
-0.021482797441816026,-0.011440221242931035,0.005580362945440961,0.0006417382528469863,0.003619472021198912
-0.02148130692815466,-0.011437552742666331,0.0055782473776635364,0.0006421469420767157,0.003620000913143267
-0.021479047117119683,-0.011433922620684616,0.00558122840498627,0.0006395024823549367,0.0036170439263634594
-0.02147806145485975,-0.01144188004039288,0.005584594080995807,0.0006392620769256843,0.0036164909938761775
-0.021477772968344647,-0.011442240648536758,0.005580435067069737,0.0006369061037190084,0.003614303304469979
-0.021477676806172945,-0.01144111074301927,0.005579593648067352,0.0006378196443501684,0.0036138705746973244
-0.021477724887258798,-0.011442000243107505,0.005576468377487068,0.0006400794553851432,0.003614615831528007
-0.02147729215748614,-0.011442937824281593,0.0055719247148741935,0.0006399352121275915,0.0036146879531567828
-0.021475633360024296,-0.01143853840492627,0.0055750980665403285,0.00063887742823888,0.003613606128725146
-0.021475320832966268,-0.011438418202211642,0.005577718485719182,0.0006396467256124884,0.003613389763838819
-0.02147577760328185,-0.011440581851074915,0.005578463742549865,0.0006425556313064452,0.0036123079394071813
-0.02147534487350919,-0.011440076999673485,0.005577454039747003,0.0006436374557380822,0.0036152889667299135
-0.02147486406265069,-0.011441182864648049,0.00557843970200694,0.0006409689554733777,0.0036135099665534453
-0.021474671738307288,-0.011439980837501784,0.005571612187816165,0.0006420267393620893,0.003612187736692556
-0.02147395052201953,-0.01144115882410512,0.005561827686845582,0.0006442384693112138,0.0036131253178666406
-0.02147291677867374,-0.011441591553877776,0.00556752529551887,0.0006438297800814844,0.003612644507008136
-0.02147202727858551,-0.011443009945910366,0.005570602485013304,0.0006413776447031075,0.003611009750089218
-0.021470993535239718,-0.01144426005414248,0.005573799877222364,0.0006417382528469863,0.003610673182488264
-0.021470224237866112,-0.011444115810884928,0.005572044917588819,0.0006432047259654275,0.003609471155342001
-0.02146976746755053,-0.011443514797311795,0.005568462876692955,0.0006413536041601822,0.003605744871188585
-0.02146976746755053,-0.011443827324369826,0.005567284890089617,0.0006409689554733777,0.0036062016415041647
-0.02146921453506325,-0.011443033986453292,0.005570386120126976,0.0006393101580115348,0.0036107933852028897
-0.02146786826465944,-0.011443683081112276,0.005577502120832854,0.0006412334014455558,0.00361302915569494
-0.02146846927823257,-0.011444187932513705,0.005581348607700896,0.00064024773918562,0.0036155293721591673
-0.021471065656868498,-0.011442553175594786,0.005577021309974349,0.0006390216714964315,0.003615889980303046
-0.02147243596781524,-0.011442745499938187,0.00557214107976052,0.0006370743875194852,0.0036150726018435867
-0.021473061021931292,-0.0114413271079056,0.005573102701477531,0.0006362089279741758,0.003613846534154399
-0.02147322930573177,-0.011443875405455677,0.005573631593421887,0.0006369301442619336,0.0036111059122609186
-0.021471594548812853,-0.011446231378662351,0.005573343106906784,0.0006374109551204388,0.003608798020140094
-0.02147003191352271,-0.011442961864824516,0.005576300093686591,0.0006380119686935705,0.0036098798445717297
-0.021471474346098227,-0.011444692783915135,0.005577429999204079,0.0006362570090600263,0.0036095432769707773
-0.021471834954242104,-0.01144416389197078,0.005572982498762905,0.0006388533876959548,0.0036093749931703
-0.021471738792070403,-0.011445173594773641,0.005573799877222364,0.0006413536041601822,0.0036092547904556732
-0.021471137778497268,-0.011446135216490651,0.0055738960393940645,0.0006431085637937263,0.0036093749931703
-0.02147024827840904,-0.011444668743372207,0.005570698647185005,0.0006426998745639968,0.0036109616690033672
-0.02146911837289155,-0.011441855999849955,0.005567621457690571,0.0006408006716729012,0.003608653776882542
-0.021469503021578355,-0.011440293364559812,0.005556875335002979,0.0006400313742992926,0.0036079085200518587
-0.021469046251262777,-0.011446543905720379,0.005561418997615853,0.0006420988609908652,0.0036076200335367565
-0.02146628158882637,-0.0114462794597482,0.005567958025291525,0.0006442144287682885,0.003610456817601937
-0.021462122574900298,-0.011446856432778409,0.005572742093333653,0.0006449116045131213,0.0036088220606830188
-0.02146048781798138,-0.01144906816272753,0.0055750259449115535,0.0006433489692229791,0.003607427709193353
-0.021461761966756417,-0.011449885541186993,0.005574280688080868,0.0006406564284153495,0.0036060814387895383
-0.02146373329127629,-0.011450919284532778,0.0055763722153153675,0.0006442384693112138,0.003607740236251382
-0.021467098967285828,-0.011450462514217198,0.005578463742549865,0.000648181118350957,0.003604759208928649
-0.021470921413610945,-0.011450823122361077,0.005579064756122997,0.0006489744562674908,0.0036069949794206983
-0.021472003238042586,-0.011450847162904005,0.0055797619318678285,0.0006484696048660603,0.0036069949794206983
-0.02147243596781524,-0.011451303933219584,0.0055807956752136146,0.0006456809018867296,0.0036046390062140225
-0.02147243596781524,-0.011451039487247405,0.005574280688080868,0.0006459453478589076,0.0036053121414159305
-0.021469358778320805,-0.011452674244166322,0.005568823484836834,0.000644430793654616,0.003604590925128173
-0.02146661815642732,-0.011451832825163938,0.0055664434710872325,0.0006427479556498474,0.0036059852766178375
-0.021465969061768345,-0.011449717257386515,0.005569929349811396,0.0006452481721140749,0.0036069949794206983
-0.021467002805114127,-0.01144644774354868,0.005574448971881346,0.0006460655505735338,0.0036047832494715743
-0.02146765189977311,-0.011445942892147249,0.005573150782563382,0.0006425556313064452,0.003606105479332464
-0.021468228872803315,-0.011445149554230715,0.005573078660934606,0.0006451520099423737,0.003606538209105119
-0.021468902008005226,-0.011445510162374594,0.005575891404456862,0.0006457049424296549,0.003606105479332464
-0.0214690702918057,-0.01144745744635154,0.005576708782916321,0.0006433489692229791,0.003606105479332464
-0.02147003191352271,-0.01145106352779033,0.005577718485719182,0.0006415218879606589,0.003602571519522451
-0.02147075312981047,-0.01144933260869971,0.005576227972057816,0.0006406083473294988,0.0036014175734620383
-0.021468829886376446,-0.011446519865177454,0.0055668521603169634,0.0006403919824431714,0.0036018503032346923
-0.02146618542665467,-0.011450174027702095,0.005562188294989462,0.0006448154423414201,0.0036041822358984423
-0.021463973696705545,-0.011454068595655988,0.005569905309268471,0.0006482291994368075,0.0036021387897497955
-0.02146368521019044,-0.011453131014481902,0.005573343106906784,0.0006501284023279034,0.003601970505949319
-0.021465728656339087,-0.011452313636022443,0.0055763481747724405,0.0006519074025043729,0.003602042627578095
-0.021465945021225414,-0.011451808784621013,0.005581084161728718,0.0006541672135393476,0.003602186870835646
-0.0214644064264782,-0.011453611825340408,0.005583896905250975,0.0006467867668612918,0.003603100411466806
-0.021464310264306497,-0.011452770406338023,0.00558807995971997,0.0006292612110687745,0.0036043505196989203
-0.021464767034622082,-0.011450174027702095,0.005594402622509315,0.0006051966276005858,0.003602186870835646
-0.021464622791364525,-0.011451448176477134,0.005584810445882134,0.0005796415304710305,0.0035997587760001944
-0.02146354096693289,-0.011451640500820535,0.005566683876516486,0.000562813150423346,0.003600455951745027
-0.02146217065598615,-0.011449597054671891,0.005566996403574514,0.0005556731091745427,0.0035982442217959033
-0.021461040750468664,-0.0114528425279668,0.005575122107083253,0.0005684145969249324,0.0035977393703944724
-0.021459141547577568,-0.011456063960718785,0.0055794494048098005,0.0005895221936133137,0.0036013214112903366
-0.02145668941219919,-0.01145339546045408,0.005579425364266875,0.0006061582493175963,0.0036000472625152976
-0.021454549803878842,-0.0114529386901385,0.005576949188345573,0.000629213129982924,0.0035979557352808
-0.021452722722616526,-0.011454020514570135,0.005579906175125379,0.0006509938618732129,0.003600624235545504
-0.021453395857818428,-0.011452674244166322,0.005580675472498989,0.0006565953083747993,0.003603557181782385
-0.02145447768225006,-0.011450630798017673,0.00557798293169136,0.0006592638086395034,0.0036037254655828634
-0.02145394879030571,-0.011450919284532778,0.005578824350693744,0.0006588791599526992,0.003601970505949319
-0.0214509918035259,-0.011450702919646451,0.00558122840498627,0.000655104794713433,0.003599662613828493
-0.0214507994791825,-0.011450775041275226,0.0055823102294179075,0.0006508736591585866,0.0035997587760001944
-0.021451160087326383,-0.01145298677122435,0.0055807956752136146,0.0006488302130099392,0.003600455951745027
-0.021450943722440045,-0.011451279892676657,0.005579184958837623,0.0006505130510147077,0.003598051897452501
-0.02145212170904339,-0.01145156837919176,0.005581829418559402,0.0006497918347269497,0.0036005040328308782
-0.021453227574017956,-0.011451231811590806,0.005584257513394853,0.0006483494021514338,0.0036012492896615607
-0.02145180918198536,-0.011454429203799866,0.005587647229947316,0.000650537091557633,0.003601129086946935
-0.021451544736013184,-0.011455895676918309,0.005587815513747792,0.0006528930647643088,0.003602234951921497
-0.021452794844245296,-0.011457049622978721,0.005595869095627756,0.0006530132674789352,0.0036002395868587
-0.02145358818216183,-0.011455366784973952,0.005591686041158761,0.0006525324566204298,0.0036011050464040094
-0.021451737060356583,-0.01145786700143818,0.00557757424246163,0.0006481570778080317,0.0036020666681210204
-0.021449909979094267,-0.011458492055554236,0.005569640863296293,0.0006496475914693981,0.0036014896950908133
-0.021449549370950387,-0.011456208203976337,0.0055719247148741935,0.0006515708349034193,0.003602860006037553
-0.021448707951948004,-0.011454092636198912,0.005575675039570535,0.0006500081996132773,0.003602811924951703
-0.021447097235572008,-0.011454116676741838,0.00557026591741235,0.0006475079831490497,0.003601585857262515
-0.021447097235572008,-0.01145476577140082,0.005573174823106307,0.0006471473750051706,0.0036006963571742798
-0.021446472181455952,-0.011457698717637702,0.005581564972587224,0.0006452241315711496,0.0036017060599771405
-0.021446063492226226,-0.011457386190579674,0.005583993067422676,0.0006466906046895907,0.0036017781816059164
-0.021445486519196016,-0.011456568812120215,0.005584570040452882,0.000651186186216615,0.0036041101142696673
-0.021444260451506828,-0.011457049622978721,0.005582286188874981,0.0006474599020631992,0.0036024272762648986
-0.02144486146507996,-0.01145786700143818,0.005584642162081658,0.0006446471585409432,0.0036007203977172046
-0.021445077829966287,-0.01145452536597157,0.005589065621979907,0.0006478445507500032,0.003599927059800672
-0.021444933586708737,-0.01145587163637538,0.005584714283710433,0.0006481089967221812,0.0035996866543714185
-0.02144601541114037,-0.011459621961071724,0.005582791040276413,0.0006465944425178896,0.003598292302881753
-0.021447121276114936,-0.011458588217725937,0.005587863594833643,0.0006465704019749642,0.0035988211948261095
-0.021447890573488542,-0.011455414866059804,0.0055876953110331655,0.0006482291994368075,0.003597595127136921
-0.02144755400588759,-0.011456015879632934,0.005586325000086426,0.0006485417264948361,0.003597619167679846
-0.021448106938374872,-0.011457891041981104,0.005582911242991038,0.0006467146452325159,0.003597354721707668
-0.02144894835737725,-0.011458588217725937,0.005584594080995807,0.0006489504157245654,0.003596729667591611
-0.02144911664117773,-0.011458443974468385,0.005586613486601529,0.0006488061724670138,0.0035961767351043307
-0.021448996438463104,-0.011461160555818941,0.005586084594657172,0.0006494552671259961,0.0035951670323014686
-0.02144947724932161,-0.01146267511002323,0.0055869740947454075,0.0006476281858636759,0.0035950949106726936
-0.021450318668324,-0.011460174893559005,0.0055836564998217215,0.0006485657670377613,0.003597210478450117
-0.021450967762982973,-0.011458419933925459,0.0055811803239004185,0.0006485898075806863,0.0035984125055963795
-0.021451280290041005,-0.011459910447586829,0.005583199729506143,0.0006529651863930845,0.003595695924245825
-0.021450270587238144,-0.011459165190756144,0.005589570473381338,0.0006524362944487287,0.0035975710865939954
-0.02145007826289474,-0.011454212838913541,0.005593176554820127,0.0006513544700170919,0.0035952151133873205
-0.021450871600811282,-0.011457193866236271,0.005588656932750178,0.0006531575107364868,0.003596369059447732
-0.02145111200624053,-0.011465896542775215,0.005582887202448113,0.0006536142810520668,0.0035975710865939954
-0.02145166493872781,-0.011465632096803041,0.005580218702183409,0.0006511140645878393,0.0035985567488539313
-0.021451160087326383,-0.011463877137169495,0.005583632459278796,0.0006514506321887929,0.0035991337218841376
-0.021449621492579164,-0.01146380501554072,0.005584425797195329,0.0006546961054837034,0.0036001915057728494
-0.021448491587061674,-0.011463708853369016,0.005579112837208847,0.0006550086325417319,0.0035999751408865217
-0.021448227141089498,-0.01146394925879827,0.005577694445176256,0.0006529892269360098,0.0035970902757354907
-0.021448275222175347,-0.011462194299164726,0.005581108202271643,0.0006514025511029424,0.003598628870482707
-0.021448299262718268,-0.011459910447586829,0.005581300526615046,0.0006529651863930845,0.003600552113916728
-0.021447746330230992,-0.011461545204505744,0.005579160918294698,0.0006532777134511129,0.0035994222083992407
-0.021446544303084732,-0.011459573879985871,0.0055781031344059855,0.0006528930647643088,0.003594734302528815
-0.021445823086796968,-0.011461473082876969,0.005571588147273239,0.0006529651863930845,0.003594373694384935
-0.02144649622199888,-0.011468036151095566,0.005571828552702492,0.0006539989297388707,0.0035942775322132343
-0.021446664505799358,-0.011466834123949304,0.005578415661464014,0.0006521478079336254,0.003595719964788751
-0.021446832789599832,-0.011467795745666313,0.005583247810591992,0.0006510179024161383,0.0035953112755590213
-0.021447938654574398,-0.01146462239400018,0.005585050851311387,0.0006513785105600171,0.0035962248161901813
-0.02144846754651875,-0.011463276123596364,0.005589161784151608,0.0006532055918223371,0.003595575721531199
-0.02144820310054657,-0.011463780974997794,0.005586613486601529,0.0006525324566204298,0.0035959122891321524
-0.021448347343804124,-0.011463636731740242,0.005577838688433808,0.0006513304294741666,0.0035960565323897038
-0.02144865987086215,-0.011463588650654392,0.005579112837208847,0.0006499120374415762,0.003598124019081277
-0.02144805885728902,-0.011461833691020848,0.00558356033765002,0.0006499120374415762,0.0035991337218841376
-0.02144868391140508,-0.0114644541101997,0.005584065189051451,0.0006520997268477751,0.003600552113916728
-0.02144998210072304,-0.011466713921234677,0.005582045783445729,0.0006507294159010349,0.003598893316454885
-0.021449573411493308,-0.01146471855617188,0.005581829418559402,0.0006493110238684445,0.003597619167679846
-0.021450174425066443,-0.0114642617858563,0.005582358310503757,0.0006497197130981738,0.0035960565323897038
-0.02145015038452352,-0.011466665840148826,0.005582430432132533,0.0006473877804344233,0.003596777748677462
-0.02144897239792018,-0.01146781978620924,0.005583392053849544,0.0006477003074924517,0.0035949987485009924
-0.021447986735660243,-0.011466088867118621,0.005583752661993423,0.0006467867668612918,0.003596921991935013
-0.021448347343804124,-0.011465656137345964,0.005581829418559402,0.0006472916182627223,0.0035977634109373977
-0.021449429168235758,-0.011466762002320526,0.0055765885802016935,0.000645440496457477,0.003599398167856316
-0.021450318668324,-0.011468661205211622,0.005575915444999787,0.0006464742398032633,0.003598628870482707
-0.021450270587238144,-0.01146594462386107,0.005579641729153203,0.0006437816989956338,0.0036007203977172046
-0.02144995806018012,-0.011467026448292705,0.005581709215844775,0.0006417622933899116,0.003599542411113867
-0.02144928492497821,-0.011464381988570927,0.005571900674331268,0.0006435172530234558,0.003600263627401625
-0.02144673662742813,-0.011469959394529586,0.005569640863296293,0.0006449596855989718,0.0035997347354572687
-0.021446135613854996,-0.011473012543481095,0.005575626958484684,0.0006449596855989718,0.0035959363296750773
-0.02144740976263004,-0.011470536367559792,0.005580338904898036,0.0006467146452325159,0.003595647843159974
-0.021450631195382024,-0.01146952666475693,0.0055840411485085254,0.0006439499827961108,0.0035974028027935187
-0.021452915046959925,-0.011467723624037538,0.005581637094216,0.0006462578749169358,0.0035988452353690344
-0.02145293908750285,-0.011465319569745013,0.005579257080466397,0.0006452481721140749,0.0036000713030582224
-0.02145135241166978,-0.011465319569745013,0.00557940132372395,0.0006467146452325159,0.0036050957765296023
-0.02145204958741461,-0.01146952666475693,0.005578704147979117,0.0006486619292094622,0.0036082450876528133
-0.021453612222704758,-0.011469478583671082,0.00557985809403953,0.0006471233344622454,0.003609399033713225
-0.02145416515519204,-0.011471329705476329,0.005582190026703281,0.0006464261587174128,0.003607884479508933
-0.021452842925331148,-0.011469093934984277,0.0055831035673344406,0.0006457530235155054,0.003606153560418315
-0.02145147261438441,-0.011469911313443736,0.0055838247836221995,0.0006458732262301318,0.0036056246684739593
-0.02145216979012924,-0.01146842079978237,0.005579954256211231,0.0006465463614320389,0.003604975573814977
-0.021453924749762786,-0.011464381988570927,0.005581372648243822,0.0006473637398914982,0.0036038697088404147
-0.02145543930396708,-0.011467939988923865,0.005582117905074505,0.0006466425236037401,0.0036028359654946282
-0.021453636263247682,-0.011471233543304626,0.0055825506348471604,0.0006459934289447581,0.0036020907086639453
-0.02145178514144244,-0.011471377786562178,0.005582021742902804,0.0006488782940957897,0.003603220614181433
-0.02144995806018012,-0.011471954759592385,0.0055820698239886545,0.0006500803212420531,0.003600263627401625
-0.021447674208602212,-0.011473084665109871,0.005582286188874981,0.0006497437536410992,0.0036005761544596533
-0.0214462317760267,-0.01147294042185232,0.005582670837561786,0.0006495514292976973,0.0036003838301162517
-0.02144671258688521,-0.01147325294891035,0.005583752661993423,0.0006490706184391917,0.003600768478803056
-0.02144865987086215,-0.011469959394529586,0.005582430432132533,0.0006445029152833918,0.0036027398033229275
-0.021450559073753248,-0.011471089300047074,0.005586637527144454,0.0006425556313064452,0.003600263627401625
-0.02145084756026835,-0.011474887705829268,0.0055895945139242615,0.0006441182665965875,0.0035984846272251554
-0.021451208168412228,-0.011474551138228314,0.005592575541246996,0.0006435172530234558,0.003599614532742643
-0.02145212170904339,-0.011474190530084435,0.00558767127049024,0.0006455847397150285,0.003601345451833262
-0.021453227574017956,-0.011472603854251369,0.0055779588911484355,0.0006453443342857759,0.0036009608031464576
-0.021453900709219858,-0.011471690313620206,0.005577598283004554,0.0006461617127452348,0.0036037014250399377
-0.021454525763335917,-0.01147375780031178,0.005580362945440961,0.0006466184830608147,0.003603557181782385
-0.021457122141971846,-0.011476161854604306,0.00557711747214605,0.0006446711990838684,0.0036027638438658523
-0.02145870881780491,-0.011476258016776007,0.005576877066716797,0.0006452722126570001,0.0036000953436011477
-0.021457771236630827,-0.011475392557230698,0.005578800310150818,0.0006456568613438043,0.0035985567488539313
-0.021454117074106188,-0.011474094367912734,0.005576540499115844,0.0006483013210655832,0.0036018503032346923
-0.0214488041141197,-0.011474046286826885,0.00557173239053079,0.0006478926318358539,0.003603821627754564
-0.021445510559738944,-0.011476666706005736,0.005574304728623794,0.0006471954560910213,0.003603316776353133
-0.02144527015430969,-0.011475849327546278,0.00557336714744971,0.0006477724291212275,0.003602475357350749
-0.02144563076245357,-0.01147553680048825,0.005574304728623794,0.0006467627263183665,0.003599903019257747
-0.021445173992137988,-0.011477532165551049,0.005577502120832854,0.0006443586720258402,0.003598652911025633
-0.021444428735307303,-0.011477339841207643,0.005581949621274028,0.0006460655505735338,0.003599253924598764
-0.02144459701910778,-0.011474527097685391,0.005582791040276413,0.0006465223208891139,0.0036012492896615607
-0.02144483742453704,-0.011473493354339602,0.005585363378369415,0.0006471714155480959,0.0036021387897497955
-0.02144637601928425,-0.0114732048678245,0.005586493283886902,0.0006482532399797327,0.003602619600608301
-0.02144791461403147,-0.011473637597597154,0.005587454905603913,0.0006483253616085086,0.003602499397893674
-0.021447986735660243,-0.011474551138228314,0.005586132675743025,0.0006468348479471423,0.0036043505196989203
-0.021448227141089498,-0.011475296395058995,0.005578968593951295,0.0006458251451442813,0.0036036533439540866
-0.02144923684389236,-0.011476618624919886,0.005581300526615046,0.0006464982803461887,0.003601970505949319
-0.021450102303437663,-0.01147457517877124,0.0055865173244298285,0.000646810807404217,0.0036043264791559945
-0.021450414830495697,-0.01147462325985709,0.005587118338002959,0.0006484455643231349,0.003604230316984293
-0.02144971765475086,-0.011475176192344371,0.005585844189227921,0.0006456328208008791,0.003603773546668713
-0.02144966957366501,-0.011473998205741031,0.0055840411485085254,0.0006445990774550927,0.0036049274927291257
-0.021449260884435283,-0.011473613557054228,0.0055864452028010535,0.0006451520099423737,0.0036041101142696673
-0.02144779441131684,-0.011475681043745802,0.005590099365325694,0.0006443105909399897,0.0036050717359866775
-0.02144685683014276,-0.01147599357080383,0.005586805810944931,0.0006458972667730571,0.003605937195531987
-0.021446472181455952,-0.01147426265171321,0.0055821659861603565,0.0006473637398914982,0.003606321844218791
-0.02144618369494085,-0.011475272354516073,0.005586950054202483,0.0006489263751816403,0.0036046149656710977
-0.02144522207322384,-0.011472123043392865,0.005591205230300256,0.0006474839426061244,0.003604566884585247
-0.02144255357295913,-0.011479046719755338,0.005582526594304234,0.0006487821319240887,0.0036039418304691898
-0.02144010143758076,-0.011480969963189359,0.005573126742020457,0.0006508736591585866,0.00360389374938334
-0.021439644667265174,-0.011476378219490636,0.005577910810062584,0.0006496956725552487,0.003603509100696536
-0.021439163856406672,-0.011475681043745802,0.005581997702359879,0.0006468829290329928,0.0036037014250399377
-0.02143827435631844,-0.011476282057318932,0.005583079526791515,0.0006484215237802097,0.00360293212766633
-0.021437697383288237,-0.01147772448989445,0.005583247810591992,0.0006486138481236117,0.003601898384320543
-0.021437937788717484,-0.011478349544010506,0.005585122972940163,0.0006484215237802097,0.003601537776176664
-0.021439163856406672,-0.011478421665639279,0.00558209386453158,0.0006467627263183665,0.00360293212766633
-0.021440510126810492,-0.011480080463101124,0.005578704147979117,0.0006452722126570001,0.0036039418304691898
-0.02144101497821192,-0.01148116228753276,0.0055775502019187045,0.0006460655505735338,0.003602475357350749
-0.021440582248439262,-0.01147818126021003,0.005574160485366243,0.0006449356450560465,0.0036013935329191125
-0.021439260018578373,-0.011475849327546278,0.005568919647008536,0.0006477964696641527,0.0036026436411512267
-0.02143942830237885,-0.011476762868177438,0.005568462876692955,0.0006479887940075549,0.003601754141062992
-0.021441207302555318,-0.0114779648953237,0.0055755788773988344,0.0006474599020631992,0.003600984843689383
-0.021443106505446417,-0.011478758233240237,0.005577478080289929,0.0006479407129217044,0.003602042627578095
-0.021445390357024315,-0.011478397625096356,0.0055792330399234745,0.0006484936454089856,0.0036052400197871546
-0.02144541439756724,-0.011476306097861858,0.005582190026703281,0.0006482532399797327,0.003606153560418315
-0.021442289126986955,-0.011478085098038328,0.005587454905603913,0.0006466906046895907,0.0036051678981583782
-0.02143856284283354,-0.011481739260562968,0.0055905561356412725,0.0006458251451442813,0.00360663437127682
-0.021435437572253257,-0.011483999071597945,0.005588392486777999,0.0006458732262301318,0.0036041822358984423
-0.02143339412610461,-0.011483926949969166,0.0055864452028010535,0.0006464742398032633,0.0036026436411512267
-0.021430677544754057,-0.011484912612229102,0.005586421162258127,0.0006448154423414201,0.0036016820194342157
-0.021428105206661045,-0.011485056855486654,0.005581973661816953,0.000647003131747619,0.003602403235721973
-0.021426855098428937,-0.01148325381476726,0.005581925580731103,0.0006475079831490497,0.0036053121414159305
-0.02142627812539873,-0.01147868611161146,0.005589762797724739,0.0006451520099423737,0.003605504465759333
-0.02142740803091622,-0.011478301462924657,0.0055907244194417505,0.0006446231179980179,0.003605143857615453
-0.021428345612090303,-0.01147969581441432,0.005586036513571323,0.0006450318072277474,0.003606033357703688
-0.021428081166118128,-0.011478589949439759,0.005584353675566554,0.0006458491856872066,0.0036050236549008273
-0.021426782976800163,-0.011477604287179822,0.005586132675743025,0.0006449356450560465,0.0036068988172489975
-0.021424619327936892,-0.011478541868353908,0.005589570473381338,0.0006450318072277474,0.003605215979244229
-0.021422648003417016,-0.01147791681423785,0.00558767127049024,0.0006447192801697191,0.003603773546668713
-0.02142409043599253,-0.011476570543834035,0.005579713850781979,0.0006424354285918191,0.003603172533095582
-0.021425869436169004,-0.011478878435954862,0.005579641729153203,0.0006432047259654275,0.0036029802087521796
-0.021428465814804933,-0.011480729557760107,0.0055746893773105976,0.0006462338343740107,0.003604278398070144
-0.02143111027452671,-0.011482869166080456,0.005576973228888497,0.0006458011046013559,0.0036062737631329406
-0.0214329133152461,-0.011478157219667105,0.005582045783445729,0.0006437816989956338,0.003603509100696536
-0.02143421150456407,-0.011478734192697309,0.0055862047973718,0.0006439019017102603,0.0036019224248634678
-0.021434836558680125,-0.011483349976938959,0.0055867336893161545,0.0006452000910282242,0.003602571519522451
-0.021436254950712715,-0.011484696247342777,0.005583848824165124,0.0006464261587174128,0.003608437411996215
-0.02144010143758076,-0.011483902909426242,0.0055836564998217215,0.0006441182665965875,0.003609182668826898
-0.02144212084318648,-0.011484455841913523,0.005589642595010113,0.000644166347682438,0.003608365290367439
-0.02144293822164594,-0.011485417463630531,0.005595941217256532,0.0006436374557380822,0.003609350952627374
-0.021444140248792203,-0.011485585747431009,0.005592647662875771,0.0006462819154598612,0.0036073315470216533
-0.02144524611376676,-0.011482412395764877,0.0055820698239886545,0.0006471954560910213,0.0036072594253928774
-0.02144618369494085,-0.011483374017481885,0.0055736556339648115,0.0006442625098541392,0.0036083893309103643
-0.02144671258688521,-0.011488807180182995,0.005577718485719182,0.0006449596855989718,0.003607235384849951
-0.021446592384170574,-0.011488158085524013,0.005580362945440961,0.0006437816989956338,0.003606706492905596
-0.021446832789599832,-0.011490970829046269,0.005581348607700896,0.0006402717797285452,0.003608100844395261
-0.02144690491122861,-0.011492605585965187,0.005581973661816953,0.0006411131987309295,0.0036095192364278524
-0.02144502974888044,-0.01148960051809953,0.0055840411485085254,0.0006411853203597053,0.0036085816552537658
-0.02144084669441144,-0.011485826152860262,0.005586613486601529,0.0006412093609026305,0.003607499830822129
-0.021436855964285847,-0.011484335639198895,0.0055883444056921494,0.0006430604827078758,0.003608653776882542
-0.021434475950536245,-0.011488182126066938,0.0055852431756547895,0.0006444548341975413,0.0036094230742561508
-0.021433995139677742,-0.011491427599361849,0.005583872864708049,0.0006446952396267937,0.003606922857791923
-0.02143651939668489,-0.01149258154542226,0.0055888973381794296,0.0006448394828843454,0.003608197006566962
-0.02143829839686136,-0.011489480315384902,0.005581901540188177,0.000645536658629178,0.0036109616690033672
-0.02144005335649491,-0.011490345774930213,0.00557762232354748,0.0006431566448795769,0.0036086778174254674
-0.02144303438381764,-0.011490321734387288,0.005582815080819338,0.0006431566448795769,0.003608100844395261
-0.02144462105965071,-0.011490682342531163,0.005585651864884519,0.0006444067531116907,0.003608437411996215
-0.02144490954616581,-0.011490033247872185,0.005588368446235075,0.0006473156588056475,0.0036085816552537658
-0.021445342275938462,-0.011490778504702866,0.0055896185544671885,0.000648734050838238,0.003607019019963624
-0.021445967330054518,-0.011490754464159942,0.005586926013659558,0.0006474358615202739,0.0036056246684739593
-0.021446977032857386,-0.011488037882809386,0.0055857239865132954,0.0006479166723787791,0.0036068026550772968
-0.021445486519196016,-0.011484191395941343,0.005589402189580861,0.0006483253616085086,0.0036071873037641007
-0.02144291418110301,-0.011483614422911138,0.005590147446411543,0.000648181118350957,0.0036086778174254674
-0.021441688113413824,-0.011485609787973935,0.005587887635376568,0.0006442384693112138,0.0036107212635741147
-0.021442048721557704,-0.011486186761004142,0.00558478640533921,0.0006426037123922957,0.0036111539933467687
-0.02144349115413322,-0.011487677274665507,0.005576300093686591,0.0006458491856872066,0.0036085816552537658
-0.021446255816569625,-0.011492557504879337,0.005575626958484684,0.0006463059560027865,0.003607307506478727
-0.021447313600458342,-0.011487941720637686,0.005581709215844775,0.0006462819154598612,0.0036069949794206983
-0.02144637601928425,-0.011487220504349928,0.005583416094392469,0.0006451039288565232,0.0036062016415041647
-0.02144618369494085,-0.011485465544716385,0.005583632459278796,0.000645536658629178,0.003606321844218791
-0.021446351978741326,-0.011486859896206049,0.00558315164842029,0.0006483013210655832,0.0036069949794206983
-0.02144601541114037,-0.011487797477380136,0.005584401756652405,0.0006479166723787791,0.0036104327770590115
-0.021445390357024315,-0.01148695605837775,0.005583512256564171,0.0006489744562674908,0.0036137984530685476
-0.02144536631648139,-0.011486571409690944,0.005578343539835239,0.000650272645585455,0.003611081871717993
-0.021445823086796968,-0.011487821517923059,0.005581805378016476,0.0006484215237802097,0.0036107933852028897
-0.02144702511394324,-0.01148599443666074,0.005584930648596761,0.0006481570778080317,0.003615337047815765
-0.021447986735660243,-0.011484455841913523,0.005584305594480704,0.0006464021181744875,0.003611947331263303
-0.021450126343980597,-0.011489816882985856,0.005586781770402006,0.0006397428877841895,0.0036097356013141783
-0.0214509918035259,-0.011488037882809386,0.0055881761218916715,0.0006446471585409432,0.0036103366148873104
-0.021451737060356583,-0.011489456274841978,0.005587238540717586,0.0006497197130981738,0.003612668547551061
-0.02145303524967455,-0.01149258154542226,0.005584257513394853,0.0006494312265830707,0.003610360655430236
-0.021453347776732582,-0.011491643964248177,0.0055840411485085254,0.0006514987132746435,0.0036117550069199008
-0.02145260251990189,-0.011490898707417494,0.0055862047973718,0.000652917105307234,0.0036131253178666406
-0.02145212170904339,-0.01148955243701368,0.005586805810944931,0.0006514506321887929,0.0036144715882704564
-0.02145221787121509,-0.011489528396470751,0.005588729054378953,0.0006424113880488936,0.003615721696502569
-0.02145303524967455,-0.011491884369677428,0.005585363378369415,0.0006200296425854734,0.003615240885644064
-0.02145303524967455,-0.01149106699121797,0.005581516891501374,0.0005932484777667298,0.0036154091694445404
-0.02145257847935897,-0.011489720720814157,0.0055837286214504974,0.0005743766515703977,0.0036118030880057522
-0.021451833222528287,-0.01149299023465199,0.005588777135464804,0.0005592070689845565,0.003608725898511317
-0.021451160087326383,-0.011494961559171865,0.00559209473038849,0.0005599282852723144,0.003610384695973161
-0.021451640898184885,-0.011494120140169478,0.005592815946676248,0.0005800742602436853,0.003609639439142477
-0.021450679276467877,-0.011495009640257714,0.005589281986866234,0.0005974796133215763,0.0036115626825764992
-0.02144779441131684,-0.011494048018540702,0.005586325000086426,0.0006198373182420713,0.003611586723119424
-0.02144370751901955,-0.011490634261445316,0.005587599148861465,0.0006417622933899116,0.00361211561506378
-0.021440942856583142,-0.011490514058730687,0.005588945419265281,0.0006545518622261519,0.00361120207443262
-0.021440125478123684,-0.011488711018011294,0.0055906763383559,0.0006587349166951476,0.003608148925481111
-0.021436735761571218,-0.011488638896382516,0.005584978729682611,0.0006570761192333045,0.003608725898511317
-0.021433754734248488,-0.011489961126243408,0.005578223337120612,0.0006549845919988066,0.0036089182228547204
-0.021432047855700798,-0.011488254247695714,0.005584281553937778,0.0006555375244860878,0.003609182668826898
-0.02143111027452671,-0.011490345774930213,0.005588993500351132,0.0006532296323652624,0.0036108414662887407
-0.02143074966638283,-0.011495033680800638,0.005592551500704071,0.0006521478079336254,0.0036082931687386635
-0.021428586017519558,-0.011494288423969956,0.005590748459984676,0.0006524362944487287,0.0036118030880057522
-0.021425941557797774,-0.01149284599139444,0.005586373081172278,0.0006558981326299666,0.0036122358177784063
-0.021423825990020358,-0.011494600951027984,0.005584930648596761,0.0006558260110011907,0.003612644507008136
-0.021421662341157083,-0.011494769234828459,0.005584425797195329,0.0006531334701935614,0.0036140869395836508
-0.021420700719440067,-0.011493326802252945,0.005580939918471167,0.0006525324566204298,0.0036143513855558295
-0.0214213017330132,-0.011495442370030369,0.005579064756122997,0.0006534700377945151,0.0036133657232958936
-0.02142219123310144,-0.011496355910661529,0.0055869981352883345,0.0006549365109129561,0.003615216845101139
-0.021422431638530692,-0.01149421630234118,0.005587887635376568,0.0006519074025043729,0.003617308372335637
-0.021421734462785856,-0.011491884369677428,0.00558259871593301,0.0006493110238684445,0.003616250588446925
-0.02142202294930096,-0.01149431246451288,0.005582887202448113,0.0006506572942722592,0.0036111539933467687
-0.02142416255762131,-0.011496836721520031,0.005588921378722357,0.0006514987132746435,0.0036099519662005065
-0.021425052057709545,-0.01149563469437377,0.005589330067952085,0.0006514265916458678,0.003610360655430236
-0.021425028017166614,-0.011495298126772815,0.005590532095098348,0.0006514746727317183,0.003610312574344385
-0.021425340544224646,-0.011496211667403977,0.005594643027938568,0.0006514506321887929,0.003607499830822129
-0.021427335909287443,-0.011495250045686965,0.005594907473910746,0.000652460334991654,0.0036089903444834963
-0.02142935531489316,-0.011492605585965187,0.005594955554996597,0.0006562587407738455,0.0036135820881822212
-0.02143060542312528,-0.011493158518452468,0.00559346504133523,0.0006532055918223371,0.0036134859260105205
-0.021431687247556917,-0.011492220937278384,0.005591397554643657,0.000653830645938394,0.0036133657232958936
-0.02143171128809984,-0.011492701748136887,0.005589330067952085,0.0006557779299153402,0.003614519669356306
-0.021432456544930523,-0.011492196896735458,0.005587142378545885,0.0006521237673907003,0.0036131974394954173
-0.02143608666691224,-0.011487989801723535,0.005574593215138897,0.0006512823483883161,0.0036122117772354814
-0.02143827435631844,-0.011493591248225122,0.0055752423097978785,0.0006550807541705077,0.0036127406691798367
-0.02143933214020715,-0.01149659631609078,0.005584233472851928,0.000655561565029013,0.003612692588093986
-0.02144161599178505,-0.011497750262151192,0.005588296324606299,0.0006535902405091414,0.003613317642210043
-0.02144308246490349,-0.011496980964777585,0.0055893781490379355,0.0006528449836784582,0.0036131974394954173
-0.02144202468101478,-0.011497149248578059,0.005585772067599145,0.0006550807541705077,0.003613630169268072
-0.02143882728880572,-0.011495947221431798,0.0055853152972835645,0.0006532296323652624,0.003613990777411951
-0.021436206869626863,-0.011493543167139271,0.005588656932750178,0.0006545278216832267,0.0036108655068316656
-0.02143478847759428,-0.01149349508605342,0.0055876953110331655,0.000655657727200714,0.0036108174257458154
-0.02143303351796073,-0.01149640399174738,0.005588705013836028,0.0006577732949781371,0.0036127647097227615
-0.021432360382758826,-0.01150147654630461,0.005588536730035551,0.0006604177546999161,0.0036157697775884203
-0.021431591085385216,-0.011501332303047056,0.005587382783975138,0.0006591676464678026,0.0036141831017553524
-0.021430148652809698,-0.011502053519334816,0.0055881761218916715,0.0006607062412150193,0.0036137984530685476
-0.021429956328466296,-0.011499505221784737,0.005586901973116632,0.0006616919034749553,0.003613317642210043
-0.02143012461226677,-0.011497702181065342,0.0055866615676873795,0.0006608264439296456,0.0036142071422982773
-0.021432264220587117,-0.011498303194638472,0.005588632892207252,0.0006616197818461794,0.003612788750265687
-0.021433995139677742,-0.011498038748666296,0.005589690676095964,0.0006584704707229697,0.003614543709899232
-0.021434548072165018,-0.011498279154095549,0.005587454905603913,0.0006560904569733688,0.0036152889667299135
-0.02143445190999332,-0.01150101977598903,0.005585892270313771,0.0006585185518088202,0.003614231182841203
-0.02143382685587726,-0.011498711883868204,0.005585603783798668,0.0006600090654701866,0.003613918655783175
-0.021434548072165018,-0.0114960433836035,0.005586373081172278,0.0006615236196744782,0.0036129810746090892
-0.021436928085914624,-0.011496524194462005,0.005587046216374184,0.0006596965384121582,0.003612356020493032
-0.02144010143758076,-0.011495466410573292,0.005586469243343977,0.0006596244167833825,0.003611274196061396
-0.021441231343098246,-0.011496019343060573,0.005587719351576091,0.0006572684435767066,0.003612668547551061
-0.02144048608626756,-0.011498495518981876,0.005588368446235075,0.0006566433894606498,0.0036147841153284844
-0.02144036588355293,-0.011498086829752148,0.005587406824518064,0.0006536623621379173,0.003613245520581267
-0.021442962262188864,-0.011497389654007314,0.0055865894460586036,0.0006532536729081876,0.003612043493435004
-0.02144524611376676,-0.01149741369455024,0.005590195527497394,0.0006528209431355329,0.003613966736869025
-0.021445486519196016,-0.01149258154542226,0.005595772933456054,0.0006512102267595402,0.003615481291073317
-0.021445847127339896,-0.011494769234828459,0.005594763230653194,0.0006513304294741666,0.0036125483448364343
-0.0214462317760267,-0.011501644830105084,0.005589209865237458,0.0006522439701053266,0.003611682885291125
-0.021446664505799358,-0.011501933316620187,0.005582718918647637,0.0006536142810520668,0.0036122358177784063
-0.021446664505799358,-0.011498904208211605,0.005582286188874981,0.0006527247809638317,0.0036149283585860358
-0.021447674208602212,-0.01149969754612814,0.005580146580554632,0.0006508736591585866,0.0036156736154167187
-0.021448731992490932,-0.011500707248931001,0.005569208133523638,0.0006496235509264731,0.0036137744125256228
-0.021448179060003646,-0.011502654532907945,0.005574064323194542,0.0006487100102953128,0.0036148562369572603
-0.021447457843715892,-0.011504746060142445,0.005585026810768462,0.0006499360779845014,0.0036149283585860358
-0.02144791461403147,-0.011506020208917484,0.005585796108142071,0.0006504409293859319,0.003616923723648832
-0.0214485156276046,-0.011504890303399995,0.005585699945970368,0.0006521237673907003,0.0036183180751384976
-0.021447866532945614,-0.011503760397882508,0.005582622756475936,0.0006507294159010349,0.0036149283585860358
-0.021446952992314455,-0.01150385656005421,0.005582887202448113,0.0006477483885783022,0.003613341682752968
-0.021446087532769147,-0.011503736357339584,0.005588536730035551,0.0006489744562674908,0.003615889980303046
-0.021445799046254044,-0.011503183424852305,0.0055877674326619406,0.0006518112403326719,0.0036137744125256228
-0.02144471722182241,-0.011502967059965976,0.005587118338002959,0.0006519074025043729,0.003612644507008136
-0.02144305842436056,-0.011505563438601905,0.005584401756652405,0.0006491427400679675,0.0036164188722474025
-0.02144075053223974,-0.011505323033172652,0.005580579310327289,0.0006448394828843454,0.003618342115681423
-0.021439115775320827,-0.0115051787899151,0.005583319932220768,0.0006434210908517549,0.003621731832233886
-0.021438202234689663,-0.011507703046922252,0.005585411459455266,0.0006449596855989718,0.0036228857782942994
-0.02143805799143211,-0.01150710203334912,0.0055842094323090025,0.0006500081996132773,0.003623606994582057
-0.021437529099487755,-0.011507174154977895,0.005586349040629352,0.0006470271722905444,0.00362211648092069
-0.021436735761571218,-0.011505491316973128,0.005590195527497394,0.0006431806854225022,0.003619544142827687
-0.021436014545283464,-0.01150253433019332,0.005590219568040318,0.0006410651176450789,0.0036155293721591673
-0.02143536545062448,-0.011503808478968359,0.005589041581436981,0.0006438297800814844,0.0036134859260105205
-0.021436062626369316,-0.011502654532907945,0.005588392486777999,0.0006426998745639968,0.003612692588093986
-0.02143668768048537,-0.01150385656005421,0.005589738757181814,0.000645440496457477,0.0036118030880057522
-0.021437312734601432,-0.011504890303399995,0.005590363811297871,0.0006446711990838684,0.0036144715882704564
-0.021437481018401903,-0.011505659600773604,0.005588656932750178,0.0006436614962810075,0.0036137503719826975
-0.02143772142383116,-0.011505467276430202,0.005588392486777999,0.0006429643205361747,0.003615962101931822
-0.021437456977858982,-0.011503495951910329,0.00558884925709358,0.0006424354285918191,0.0036176930210224407
-0.0214370002075434,-0.011502558370736243,0.005591445635729508,0.0006431806854225022,0.003615240885644064
-0.021438202234689663,-0.01150440949254149,0.005589883000439366,0.0006449116045131213,0.0036142071422982773
-0.021440125478123684,-0.011505755762945305,0.00558767127049024,0.0006468588884900675,0.003614567750442157
-0.021440798613325592,-0.011502510289650394,0.005588632892207252,0.0006493350644113697,0.0036161063451893736
-0.02144101497821192,-0.011507150114434973,0.005591205230300256,0.0006471473750051706,0.003616851602020057
-0.021440942856583142,-0.011508183857780758,0.005591060987042704,0.0006452241315711496,0.003618125750795096
-0.02143990911323736,-0.01150573172240238,0.005591782203330462,0.0006460655505735338,0.0036165150344191033
-0.02143764930220238,-0.011506164452175036,0.0055909648248710034,0.0006507053753581097,0.0036169718047346826
-0.021435125045195232,-0.011504433533084415,0.00558315164842029,0.0006523401322770277,0.003615649574873794
-0.0214329133152461,-0.01150563556023068,0.005579954256211231,0.0006516910376180455,0.003616154426275224
-0.021429956328466296,-0.0115077511280081,0.005583007405162739,0.0006515227538175688,0.0036160342235605977
-0.02142976400412289,-0.011507943452351505,0.005585868229770846,0.0006516669970751202,0.003616995845277608
-0.021431903612443244,-0.011508592547010487,0.005586493283886902,0.0006517871997897466,0.0036181017102521694
-0.021433874936963117,-0.011507294357692523,0.005588560770578475,0.0006509698213302878,0.0036205538456305477
-0.021435653937139584,-0.011503015141051828,0.00559031573021202,0.0006486859697523875,0.003619087372512107
-0.021435076964109376,-0.011503495951910329,0.005586637527144454,0.0006495273887547719,0.0036196162644564632
-0.02143632707234149,-0.011503736357339584,0.005585772067599145,0.0006487100102953128,0.0036193758590272094
-0.02143786566708871,-0.011506981830634495,0.00558716641908881,0.0006480128345504803,0.0036201932374866695
-0.021437481018401903,-0.011508183857780758,0.005588921378722357,0.0006497197130981738,0.0036188469670828546
-0.021436928085914624,-0.011507246276606672,0.005586541364972753,0.0006506572942722592,0.003615938061388897
-0.0214346201937938,-0.01150705395226327,0.0055842094323090025,0.0006513063889312412,0.0036148081558714093
-0.021431543004299364,-0.011509217601126543,0.005583392053849544,0.0006494071860401456,0.0036161303857322994
-0.02142906682837806,-0.011507871330722728,0.005585026810768462,0.0006524362944487287,0.0036148562369572603
-0.021427696517431327,-0.011508183857780758,0.005584161351223152,0.0006514506321887929,0.003615553412702093
-0.02142675893625724,-0.011509001236240216,0.005586300959543501,0.000647267577719797,0.0036174045345073375
-0.021427480152545,-0.01150837618212416,0.005589161784151608,0.0006504168888430066,0.003617957466994619
-0.02142699934168649,-0.011508280019952459,0.005586012473028397,0.0006451039288565232,0.0036209625348602773
-0.02142666277408553,-0.011508712749725113,0.0055853152972835645,0.0006465223208891139,0.003620457683458847
-0.02142719166602989,-0.011509938817414302,0.005587719351576091,0.0006485417264948361,0.003621323143004157
-0.02142687913897186,-0.011510563871530358,0.005582911242991038,0.0006459934289447581,0.0036203374807442213
-0.02142659065245676,-0.011511741858133695,0.005575218269254954,0.000646354037088637,0.003621323143004157
-0.02142675893625724,-0.011506669303576463,0.005581348607700896,0.0006488542535528644,0.0036192075752267336
-0.021426927220057717,-0.011507029911720344,0.005586853892030782,0.000647003131747619,0.0036195922239135384
-0.02142555690911097,-0.011511621655419071,0.005585868229770846,0.0006465463614320389,0.003619472021198912
-0.021423585584591103,-0.011511741858133695,0.005581661134758924,0.0006477003074924517,0.003618438277853124
-0.02142147001681368,-0.011512150547363426,0.005584618121538733,0.0006512102267595402,0.0036174285750502633
-0.021421181530298573,-0.011510635993159136,0.005586036513571323,0.0006488302130099392,0.003618654642739451
-0.021423008611560896,-0.011508544465924636,0.005586325000086426,0.0006478685912929286,0.0036208182916027264
-0.02142344134133355,-0.011509385884927021,0.005587454905603913,0.000646354037088637,0.003621707791690961
-0.021423128814275518,-0.011509025276783142,0.00558844056786385,0.0006479166723787791,0.003620842332145651
-0.02142317689536137,-0.0115097464930709,0.005592864027762098,0.0006481089967221812,0.003618582521110676
-0.02142288840884627,-0.011513592979938942,0.005594570906309792,0.000648637888666537,0.003619928791514491
-0.02142211911147266,-0.011513064087994586,0.005590195527497394,0.0006458011046013559,0.0036209384943173524
-0.021420267989667417,-0.011511597614876143,0.005584666202624582,0.0006455847397150285,0.003619159494140883
-0.02141940253012211,-0.011509890736328451,0.005584978729682611,0.0006483494021514338,0.0036183180751384976
-0.021418969800349453,-0.011509073357868993,0.0055857239865132954,0.0006445269558263169,0.003617885345365843
-0.021418993840892374,-0.011510299425558179,0.005586950054202483,0.000644983726141897,0.0036205778861734734
-0.02141750332723101,-0.011509938817414302,0.005588656932750178,0.000644983726141897,0.003622981940466
-0.021415892610855015,-0.01150979457415675,0.0055870702569171095,0.0006427479556498474,0.003622693453950897
-0.021414570380994133,-0.011512871763651185,0.005584834486425059,0.0006396226850695631,0.00362389548109716
-0.021413584718734197,-0.011514193993512074,0.005586036513571323,0.0006377956038072433,0.0036231983053523283
-0.02141348855656249,-0.011514242074597924,0.005587983797548269,0.0006404641040719472,0.0036227415350367467
-0.021414378056650727,-0.01151527581794371,0.005588801176007729,0.0006408727933016769,0.003620601926716399
-0.02141512331348141,-0.011514073790797445,0.005590219568040318,0.0006425556313064452,0.003620024953686192
-0.021415772408140396,-0.011512511155507305,0.005588969459808206,0.000644166347682438,0.003621299102461232
-0.021418993840892374,-0.011510780236416688,0.0055895223922954864,0.0006431806854225022,0.003622260724178242
-0.02142050839509667,-0.011509914776871376,0.005589089662522832,0.0006432047259654275,0.0036231983053523283
-0.02142046031401082,-0.011511910141934171,0.005586685608230305,0.0006415940095894347,0.003623751237839608
-0.02142086900324055,-0.011512799642022408,0.005585868229770846,0.0006387331849813284,0.0036244003324985906
-0.021421542138442454,-0.01150933780384117,0.005590195527497394,0.0006403439013573211,0.0036260591299604335
-0.021422143152015585,-0.01151390550699697,0.005596301825400411,0.0006433008881371286,0.0036247849811853945
-0.021421806584414636,-0.011519795440013659,0.005590604216727124,0.0006434691719376052,0.0036234867918674314
-0.02142125365192735,-0.01151755966952161,0.005587238540717586,0.0006426758340210716,0.0036233425486098788
-0.02142175850332878,-0.011516309561289495,0.005591253311386106,0.0006430604827078758,0.0036250013460717217
-0.02142187870604341,-0.011511958223020024,0.005591205230300256,0.0006417142123040611,0.0036240878054405617
-0.021421806584414636,-0.011511838020305398,0.005583536297107095,0.0006409449149304526,0.0036210106159461283
-0.021419907381523537,-0.011514121871883295,0.005580747594127765,0.0006399832932134421,0.003624063764897637
-0.021417791813746114,-0.011515083493600307,0.005583319932220768,0.0006397428877841895,0.0036240878054405617
-0.021421806584414636,-0.0115165980478046,0.005580435067069737,0.0006405843067865737,0.003625337913672676
-0.021425148219881243,-0.01151527581794371,0.005579497485895651,0.0006403919824431714,0.0036244964946702905
-0.021425148219881243,-0.011514626723284727,0.005586349040629352,0.0006378196443501684,0.003625962967788732
-0.021424523165765187,-0.011516381682918271,0.005590772500527601,0.0006351030629996138,0.0036251215487863478
-0.021423321138618924,-0.011518617453410322,0.005592118770931415,0.0006338048736816496,0.003624977305528797
-0.021423513462962326,-0.011518833818296648,0.005593224635905977,0.0006380119686935705,0.0036261072110462846
-0.021424234679250084,-0.011518641493953248,0.005587238540717586,0.0006404160229860967,0.00362714095439207
-0.021425196300967096,-0.011518761696667872,0.005580362945440961,0.0006395505634407872,0.0036241599270693376
-0.021424595287393964,-0.011516670169433377,0.0055828631619051884,0.0006374590362062893,0.0036225251701504204
-0.021424258719793008,-0.01151715098029188,0.005588680973293103,0.0006359444820019977,0.0036265159002760133
-0.021426157922684104,-0.011516910574862628,0.0055908686626993005,0.0006379158065218693,0.0036264437786472383
-0.021428441774262005,-0.01151943483186978,0.005588584811121402,0.0006388533876959548,0.0036267082246194157
-0.021430389058238956,-0.01152275242679347,0.00558884925709358,0.0006402958202714705,0.0036272611571066967
-0.02143315372067536,-0.011523930413396805,0.0055905561356412725,0.0006418824961045379,0.0036271169138491453
-0.021435846261482986,-0.011518136642551816,0.005588680973293103,0.0006417382528469863,0.0036277660085081275
-0.02143856284283354,-0.011516886534319702,0.005587382783975138,0.0006431326043366517,0.0036260831705033593
-0.021440413964638787,-0.011517727953322086,0.005588368446235075,0.0006440701855107369,0.003626299535389686
-0.021441303464727026,-0.011519699277841959,0.005590700378898825,0.0006425796718493705,0.0036279342923086037
-0.02144216892427233,-0.011517391385721134,0.005588536730035551,0.0006386610633525526,0.003630242184429429
-0.02144358731630492,-0.01151532389902956,0.005587719351576091,0.0006378196443501684,0.0036299536979143257
-0.0214438517622771,-0.011518809777753724,0.005591397554643657,0.0006390697525822821,0.003626948630048668
-0.021442745897302537,-0.011520204129243391,0.005594186257622988,0.0006398630904988158,0.0036257706434453295
-0.021439861032151505,-0.01151943483186978,0.00559757597417545,0.0006438778611673349,0.0036264197381043134
-0.021437192531886803,-0.011518088561465963,0.005592287054731892,0.0006440701855107369,0.003628198738280782
-0.02143536545062448,-0.011517848156036714,0.0055895464328384135,0.0006465223208891139,0.003629328643798269
-0.02143344220719046,-0.01151582875043099,0.005591806243873387,0.0006451039288565232,0.003629905616828476
-0.02142973996357997,-0.011522560102450063,0.005591902406045088,0.0006440942260536622,0.0036282468193666326
-0.021425148219881243,-0.01152513244054307,0.00558990704098229,0.000639887131041741,0.0036286314680534365
-0.0214229124493892,-0.011523665967424629,0.0055895223922954864,0.0006381802524940474,0.003628943995111465
-0.021423056692646745,-0.01151962715621318,0.005589690676095964,0.0006421469420767157,0.003629905616828476
-0.02142522034151002,-0.011514746925999356,0.005591469676272433,0.0006414738068748084,0.003629232481626569
-0.021427648436345467,-0.01151664612889045,0.005593344838620604,0.0006401034959280684,0.003628583386967585
-0.021428898544577583,-0.011519170385897604,0.005592287054731892,0.0006422911853342674,0.0036306508736591594
-0.02142935531489316,-0.01151847321015277,0.005589979162611067,0.0006432287665083527,0.003630819157459636
-0.021430076531180925,-0.011520564737387268,0.0055850989323972386,0.0006418824961045379,0.003632045225148824
-0.021428610058062486,-0.0115211657509604,0.005583488216021245,0.0006407285500441253,0.003634088671297471
-0.021424619327936892,-0.011520997467159923,0.0055888973381794296,0.0006413055230743317,0.003634425238898425
-0.02142115748975565,-0.011522055251048637,0.005591686041158761,0.0006414497663318831,0.003633103009037536
-0.021419017881435302,-0.011523040913308571,0.005590411892383722,0.00064116127981678,0.0036320692656917493
-0.021418344746233397,-0.011519651196756108,0.005588680973293103,0.0006416420906752853,0.0036319971440629726
-0.02141649362442815,-0.011518112602008893,0.0055828631619051884,0.0006428681583644738,0.003631516333204469
-0.02141452229990828,-0.011517800074950865,0.005584906608053835,0.0006430364421649505,0.0036323817927497773
-0.02141324815113324,-0.011519002102097126,0.005590267649126171,0.0006413055230743317,0.003631756738633721
-0.02141276734027473,-0.011521406156389651,0.005589858959896441,0.0006415459285035842,0.0036307229952879353
-0.02141286350244644,-0.011522848588965169,0.005588536730035551,0.0006398150094129653,0.003633704022610667
-0.02141344047547664,-0.011524699710770412,0.005586421162258127,0.0006382283335798979,0.003633679982067742
-0.02141264713756011,-0.01152349768362415,0.0055841132701373005,0.0006397669283271148,0.003634208874012098
-0.021410771975211938,-0.011521478278018428,0.005583776702536348,0.0006405121851577978,0.0036352906984437354
-0.021409209339921798,-0.011522487980821287,0.005581132242814569,0.0006390457120393567,0.0036344733199842757
-0.021407238015401925,-0.011525420927058171,0.0055867577298590815,0.0006400073337563673,0.003634737765956453
-0.02140557921794008,-0.01152628638660348,0.005590291689669095,0.00063887742823888,0.003636324441789521
-0.021403463650162657,-0.011525901737916677,0.005582911242991038,0.0006379879281506452,0.0036345694821559773
-0.021403511731248503,-0.01152683931909076,0.005583488216021245,0.0006391899552969084,0.0036336078604389662
-0.021405507096311303,-0.011520348372500941,0.005586493283886902,0.0006405362257007231,0.0036310114818030384
-0.02140658892074294,-0.011521358075303802,0.005591301392471957,0.0006431566448795769,0.0036277900490510532
-0.0214075024613741,-0.011522295656477886,0.005589858959896441,0.000646354037088637,0.0036293046032553435
-0.02140911317775009,-0.0115236419268817,0.005587238540717586,0.0006482051588938822,0.003630170062800653
-0.02141019500218173,-0.011525757494659124,0.005578511823635716,0.000648637888666537,0.003631828860262497
-0.021410916218469488,-0.01152796922460825,0.005581637094216,0.0006372907524058126,0.0036313240088610655
-0.02140887277232084,-0.01152760861646437,0.005587406824518064,0.0006150772907428691,0.003630001779000177
-0.021406516799114164,-0.011527849021893622,0.005587791473204868,0.000590171288272296,0.0036282949004524828
-0.021406276393684916,-0.01152436314316946,0.005588536730035551,0.0005679578266093524,0.0036316124953761695
-0.021407069731601447,-0.01152263222407884,0.005587454905603913,0.0005553125010306638,0.003630843198002561
-0.02140670912345757,-0.011524819913485041,0.00558625287845765,0.0005559135146037953,0.0036302662249723546
-0.021404954163824024,-0.011526406589318108,0.005586637527144454,0.0005768768680346253,0.0036329828063229094
-0.021405362853053757,-0.01152893084632526,0.005589161784151608,0.0005913733154185593,0.0036328866441512077
-0.021407550542459956,-0.011527680738093146,0.005589931081525217,0.0006146686015131396,0.003634040590211621
-0.021410723894126085,-0.011526863359633687,0.005591181189757329,0.0006409449149304526,0.0036319971440629726
-0.021412959664618137,-0.011525757494659124,0.0055904840140124975,0.0006541912540822731,0.0036307951169167103
-0.021412839461903508,-0.011523882332310954,0.005592695743961621,0.000650633253729334,0.0036344011983555
-0.021411757637471874,-0.011523786170139251,0.005590339770754946,0.0006512823483883161,0.0036359638336456424
-0.021409209339921798,-0.011524964156742592,0.00558884925709358,0.0006504409293859319,0.0036368292931909523
-0.02140692548834389,-0.011525084359457215,0.00558757510831854,0.0006464501992603381,0.0036365167661329225
-0.021405747501740558,-0.011523738089053402,0.005587358743432211,0.0006459453478589076,0.0036371899013348304
-0.021404665677308917,-0.011522776467336392,0.005587214500174661,0.0006467146452325159,0.0036376466716504102
-0.02140428102862212,-0.011524291021540685,0.005588536730035551,0.0006504890104717824,0.0036387525366249726
-0.02140428102862212,-0.011527897102979473,0.00558990704098229,0.0006484936454089856,0.0036398343610566093
-0.02140579558282641,-0.011529868427499344,0.005590844622156376,0.000646810807404217,0.003640627698973143
-0.021406949528886818,-0.011529291454469138,0.005591734122244611,0.0006476762669495264,0.003643680847924651
-0.0214075986235458,-0.011529652062613015,0.005594114135994211,0.0006473396993485728,0.003645339645386495
-0.021408055393861383,-0.011529291454469138,0.0055980808255768795,0.0006484455643231349,0.0036416854828618546
-0.0214095939886086,-0.011524819913485041,0.0055948593928248965,0.0006526045782492057,0.003641901847748182
-0.02141293562407521,-0.01153066176541588,0.005588993500351132,0.0006537104432237675,0.00364257498295009
