0.0,0.0063390343990764285
0.004,0.006345501305123325
0.008,0.0063531702383164855
0.012,0.006343554021146378
0.016,0.006343818467118556
0.02,0.006344058872547809
0.024,0.0063418952236845355
0.028,0.006328504641275164
0.032,0.006326365032954815
0.036000000000000004,0.0063280238304166585
0.04,0.006334634979721106
0.044,0.006338601669303774
0.048,0.006339370966677383
0.052000000000000005,0.0063405489532807205
0.056,0.006336918831299006
0.06,0.006334803263521582
0.064,0.006343770386032706
0.068,0.006348386170274356
0.07200000000000001,0.006343073210287873
0.076,0.006340597034366571
0.08,0.006341847142598685
0.084,0.006344395440148762
0.088,0.006344756048292642
0.092,0.006352809630172607
0.096,0.006360262198479438
0.1,0.006350501738051779
0.10400000000000001,0.006347448589100271
0.108,0.006351968211170222
0.112,0.006344299277977062
0.116,0.00633598125012492
0.12,0.006326845843813321
0.124,0.0063181672078173
0.128,0.00632629291132604
0.132,0.006330500006337961
0.136,0.0063333367904031415
0.14,0.006336630344783902
0.14400000000000002,0.006342183710199638
0.148,0.0063458619132672036
0.152,0.006350429616423003
0.156,0.006355069441207581
0.16,0.006354228022205198
0.164,0.006357497536043033
0.168,0.00636410868534748
0.17200000000000001,0.006365094347607416
0.176,0.0063607910904237945
0.18,0.006359372698391204
0.184,0.0063573773333284065
0.188,0.006354829035778329
0.192,0.0063685561857886545
0.196,0.006380624538337137
0.2,0.006361969077027132
0.20400000000000001,0.0063362697366400236
0.20800000000000002,0.006324946640922225
0.212,0.006331341425340344
0.216,0.006337976615187717
0.22,0.0063304038441662595
0.224,0.006323335924546232
0.228,0.006326220789697264
0.232,0.00633776025030139
0.23600000000000002,0.006365310712493744
0.24,0.006377619470471479
0.244,0.006371945902341116
0.248,0.006366080009867352
0.252,0.00636543091520837
0.256,0.006366272334210754
0.26,0.006372138226684519
0.264,0.006370960240081181
0.268,0.006364950104349865
0.272,0.006360141995764812
0.276,0.006351703765198045
0.28,0.006350165170450826
0.28400000000000003,0.006363675955574826
0.28800000000000003,0.006363195144716321
0.292,0.006354949238492955
0.296,0.006343121291373724
0.3,0.006336197615011248
0.304,0.006339419047763233
0.308,0.006345645548380876
0.312,0.006348842940589936
0.316,0.006351703765198045
0.32,0.006353050035601859
0.324,0.006358555319931744
0.328,0.006375840470295009
0.332,0.0063755279432369805
0.336,0.006366993550498512
0.34,0.006358050468530314
0.34400000000000003,0.006352160535513625
0.34800000000000003,0.006359228455133652
0.352,0.006363243225802171
0.356,0.006360262198479438
0.36,0.006356151265639218
0.364,0.006354492468177375
0.368,0.006347256264756869
0.372,0.006346559089012036
0.376,0.006349299710905516
0.38,0.006344443521234613
0.384,0.006340669155995347
0.388,0.006341726939884058
0.392,0.006344948372636044
0.396,0.0063494199136201425
0.4,0.00635059790022348
0.404,0.00634780919724415
0.40800000000000003,0.006352112454427774
0.41200000000000003,0.006351823967912671
0.41600000000000004,0.00635675227921235
0.42,0.0063608632120525695
0.424,0.006359685225449232
0.428,0.006351968211170222
0.432,0.006349059305476264
0.436,0.006345958075438905
0.44,0.006338745912561326
0.444,0.006340476831651945
0.448,0.0063429289670303216
0.452,0.006350645981309331
0.456,0.0063557906574953395
0.46,0.006349564156877694
0.464,0.006341149966853852
0.468,0.0063349955878649845
0.47200000000000003,0.006337567925957988
0.47600000000000003,0.006343554021146378
0.48,0.00634689565661299
0.484,0.00634917950819089
0.488,0.006348602535160683
0.492,0.0063485544540748335
0.496,0.006355309846636834
0.5,0.006369926496735394
0.504,0.006382018889826801
0.508,0.006386201944295797
0.512,0.006368387901988177
0.516,0.0063429289670303216
0.52,0.0063315097091408215
0.524,0.006334346493206002
0.528,0.006339106520705204
0.532,0.006344852210464343
0.536,0.006348097683759253
0.54,0.006349732440678171
0.544,0.006350982548910285
0.548,0.006357713900929361
0.552,0.006361920995941282
0.556,0.006366007888238576
0.56,0.006375455821608205
0.5640000000000001,0.006368435983074028
0.5680000000000001,0.006349924765021573
0.5720000000000001,0.006342880885944471
0.5760000000000001,0.006351078711081985
0.58,0.006351487400311717
0.584,0.006345573426752101
0.588,0.0063466552511837375
0.592,0.006345453224037474
0.596,0.006353074076144784
0.6,0.006363195144716321
0.604,0.006360262198479438
0.608,0.006346294643039858
0.612,0.006333841641804572
0.616,0.006336798628584379
0.62,0.006341198047939703
0.624,0.006339082480162279
0.628,0.006341077845225076
0.632,0.006345212818608221
0.636,0.006352016292256073
0.64,0.006361584428340328
0.644,0.006366152131496128
0.648,0.006371320848225059
0.652,0.006368099415473074
0.656,0.006354155900576422
0.66,0.006350525778594704
0.664,0.006348217886473879
0.668,0.006333865682347497
0.672,0.006335380236551788
0.676,0.006346775453898364
0.68,0.006355574292609012
0.684,0.006360430482279915
0.6880000000000001,0.0063542761032910474
0.6920000000000001,0.006341750980426984
0.6960000000000001,0.006337880453016016
0.7000000000000001,0.006340284507308542
0.704,0.006347256264756869
0.708,0.006350044967736199
0.712,0.0063499007244786475
0.716,0.0063496603190493954
0.72,0.0063581706712449405
0.724,0.006372258429399145
0.728,0.006380312011279108
0.732,0.006370527510308525
0.736,0.006355886819667041
0.74,0.006362113320284683
0.744,0.006373989348489764
0.748,0.006358555319931744
0.752,0.006352160535513625
0.756,0.006349876683935722
0.76,0.006343121291373724
0.764,0.006330644249595512
0.768,0.006330379803623334
0.772,0.006334947506779134
0.776,0.006340765318167048
0.78,0.006343025129202023
0.784,0.0063433136157171255
0.788,0.00634552534566625
0.792,0.006345909994353054
0.796,0.006349203548733815
0.8,0.006355454089894385
0.804,0.006363243225802171
0.808,0.00637634532169644
0.812,0.0063680032533013735
0.8160000000000001,0.006348001521587552
0.8200000000000001,0.006344130994176585
0.8240000000000001,0.00635309811668771
0.8280000000000001,0.0063612719012823
0.8320000000000001,0.006351391238140016
0.836,0.006344251196891211
0.84,0.006347039899870541
0.844,0.006345789791638428
0.848,0.00634187118314161
0.852,0.006348674656789459
0.856,0.00636771476678627
0.86,0.006365575158465922
0.864,0.006354708833063703
0.868,0.0063488669811328615
0.872,0.006357737941472286
0.876,0.006365406874665445
0.88,0.006372402672656696
0.884,0.006375167335093102
0.888,0.006368291739816476
0.892,0.006363243225802171
0.896,0.006362137360827609
0.9,0.006357521576585958
0.904,0.006358867846989773
0.908,0.00635497327903588
0.912,0.006350429616423003
0.916,0.006348506372988983
0.92,0.006350525778594704
0.924,0.0063455493862091756
0.928,0.00633369739854702
0.932,0.006332254965971505
0.936,0.006338048736816493
0.9400000000000001,0.006357425414414257
0.9440000000000001,0.006379855240963528
0.9480000000000001,0.0063871876065557335
0.9520000000000001,0.006388245390444445
0.9560000000000001,0.0063917793502544585
0.96,0.006378533011102638
0.964,0.006371128523881657
0.968,0.006362041198655908
0.972,0.006355670454780713
0.976,0.006358939968618549
0.98,0.006364902023264014
0.984,0.006377571389385628
0.988,0.006378292605673385
0.992,0.006368652347960356
0.996,0.0063592765362195025
1.0,0.0063568003602982
1.004,0.0063605506849945415
1.008,0.006367017591041437
1.012,0.006363363428516797
1.016,0.006353266400488187
1.02,0.006353530846460365
1.024,0.0063584110766741935
1.028,0.006360598766080392
1.032,0.006362858577115367
1.036,0.006369638010220291
1.04,0.006376441483868141
1.044,0.006377980078615357
1.048,0.006380071605849856
1.052,0.006365911726066875
1.056,0.006353050035601859
1.06,0.006348891021675787
1.064,0.006345357061865773
1.068,0.006343554021146378
1.072,0.00634780919724415
1.076,0.00635629550889677
1.08,0.006367955172215523
1.084,0.006370599631937301
1.088,0.006361632509426178
1.092,0.0063584110766741935
1.096,0.00635862744156052
1.1,0.006357882184729837
1.104,0.006369349523705188
1.108,0.0063829083899150365
1.112,0.006378893619246517
1.116,0.006364781820549388
1.12,0.006354732873606628
1.124,0.006352328819314102
1.1280000000000001,0.006352136494970699
1.1320000000000001,0.006348698697332384
1.1360000000000001,0.006343433818431752
1.1400000000000001,0.00634694373769884
1.1440000000000001,0.00635675227921235
1.1480000000000001,0.006358266833416642
1.1520000000000001,0.006355814698038265
1.156,0.00635314619777356
1.16,0.006351944170627297
1.164,0.006352088413884849
1.168,0.006352280738228251
1.172,0.006352497103114578
1.176,0.006360839171509645
1.18,0.006373027726772753
1.184,0.006372114186141593
1.188,0.006360646847166243
1.192,0.0063464148457544846
1.196,0.00635497327903588
1.2,0.006368363861445252
1.204,0.006367618604614569
1.208,0.006364613536748911
1.212,0.006355165603379283
1.216,0.006359204414590727
1.22,0.0063637240366606765
1.224,0.006360141995764812
1.228,0.00635095850836736
1.232,0.006351655684112194
1.236,0.006361151698567673
1.24,0.006354252062748122
1.244,0.006342039466942086
1.248,0.006338986317990578
1.252,0.006342351994000115
1.256,0.006350790224566883
1.26,0.006354179941119347
1.264,0.006357185008985005
1.268,0.006360622806623317
1.272,0.006361175739110598
1.276,0.0063653828341225195
1.28,0.006366849307240961
1.284,0.006364084644804555
1.288,0.006360646847166243
1.292,0.0063589640091614745
1.296,0.006356608035954799
1.3,0.006352136494970699
1.304,0.006349924765021573
1.308,0.006354348224919823
1.312,0.006359180374047801
1.316,0.006361872914855431
1.32,0.006362882617658292
1.324,0.006367834969500896
1.328,0.006365527077380071
1.332,0.006361223820196449
1.336,0.006352088413884849
1.34,0.006350910427281509
1.344,0.0063600698741360364
1.348,0.006371176604967508
1.352,0.006367474361357017
1.356,0.006361536347254477
1.36,0.006358435117217119
1.364,0.006373220051116155
1.368,0.00638872620130295
1.372,0.0063851201198641605
1.3760000000000001,0.006370311145422199
1.3800000000000001,0.006347592832357822
1.3840000000000001,0.006348145764845103
1.3880000000000001,0.006347376467471496
1.3920000000000001,0.006341630777712357
1.3960000000000001,0.006342736642686919
1.4000000000000001,0.006347664953986598
1.4040000000000001,0.006351222954339537
1.408,0.006359468860562905
1.412,0.0063635557528601994
1.416,0.006360166036307738
1.42,0.006356608035954799
1.424,0.0063638682799182274
1.428,0.006373364294373707
1.432,0.006377547348842703
1.436,0.006369926496735394
1.44,0.0063705034697656
1.444,0.006366873347783885
1.448,0.0063594448200199796
1.452,0.006352761549086756
1.456,0.006357954306358613
1.46,0.006360598766080392
1.464,0.006364325050233808
1.468,0.006361536347254477
1.472,0.006352352859857027
1.476,0.006349443954163068
1.48,0.0063506940623951815
1.484,0.006352016292256073
1.488,0.006351295075968313
1.492,0.006349083346019189
1.496,0.006347015859327616
1.5,0.006352088413884849
1.504,0.006355694495323638
1.508,0.006354107819490571
1.512,0.006359540982191681
1.516,0.006363219185259246
1.52,0.006359901590335559
1.524,0.006359132292961951
1.528,0.006370671753566077
1.532,0.006376657848754468
1.536,0.006369469726419814
1.54,0.00635446842763445
1.544,0.0063561031845533675
1.548,0.0063791821057616205
1.552,0.006386875079497705
1.556,0.006378052200244133
1.56,0.006357641779300585
1.564,0.006343457858974677
1.568,0.006353987616775945
1.572,0.006362425847342712
1.576,0.006362305644628086
1.58,0.006358435117217119
1.584,0.006363123023087545
1.588,0.006371657415826014
1.592,0.006371969942884042
1.596,0.006366007888238576
1.6,0.006363844239375303
1.604,0.0063674503208140925
1.608,0.006369205280447637
1.612,0.006371537213111387
1.616,0.006375792389209159
1.62,0.006375335618893578
1.624,0.006361824833769581
1.6280000000000001,0.006355886819667041
1.6320000000000001,0.006359468860562905
1.6360000000000001,0.006351944170627297
1.6400000000000001,0.006348794859504086
1.6440000000000001,0.00635857936047467
1.6480000000000001,0.006372570956457173
1.6520000000000001,0.006374013389032689
1.6560000000000001,0.006378941700332368
1.6600000000000001,0.006384230619775926
1.6640000000000001,0.006375792389209159
1.668,0.006372258429399145
1.672,0.006370815996823629
1.676,0.006370335185965124
1.68,0.00637593663246671
1.684,0.006380384132907884
1.688,0.006375960673009635
1.692,0.006370888118452405
1.696,0.006372186307770369
1.7,0.00637187378071234
1.704,0.006372378632113771
1.708,0.006389279133790231
1.712,0.006394808458663042
1.716,0.006376537646039841
1.72,0.006355814698038265
1.724,0.0063459340348959795
1.728,0.006352977913973084
1.732,0.0063622094824563845
1.736,0.006368940834475458
1.74,0.006368243658730626
1.744,0.006365791523352249
1.748,0.006364950104349865
1.752,0.0063640365637187045
1.756,0.006366632942354633
1.76,0.006365599199008847
1.764,0.006367378199185317
1.768,0.006367642645157494
1.772,0.0063645894962059855
1.776,0.006368652347960356
1.78,0.006378653213817265
1.784,0.0063786291732743396
1.788,0.006372979645686902
1.792,0.006379206146304546
1.796,0.006388149228272744
1.8,0.006381345754624894
1.804,0.006364301009690883
1.808,0.006354612670892002
1.812,0.006349564156877694
1.816,0.006350357494794228
1.82,0.006355285806093909
1.824,0.0063565118737830975
1.828,0.006360286239022363
1.832,0.006362137360827609
1.836,0.006367233955927765
1.84,0.006369878415649543
1.844,0.006364421212405509
1.848,0.006361199779653524
1.852,0.006371392969853835
1.856,0.006376537646039841
1.86,0.006371080442795806
1.864,0.006369950537278319
1.868,0.006375672186494532
1.872,0.00637502309183555
1.8760000000000001,0.006363435550145573
1.8800000000000001,0.00635766581984351
1.8840000000000001,0.006360190076850663
1.8880000000000001,0.006352497103114578
1.8920000000000001,0.006358387036131268
1.8960000000000001,0.006366152131496128
1.9000000000000001,0.006366681023440484
1.9040000000000001,0.0063576177387576595
1.9080000000000001,0.006352376900399952
1.9120000000000001,0.006358338955045418
1.9160000000000001,0.006361512306711552
1.92,0.006361151698567673
1.924,0.006364373131319659
1.928,0.006366632942354633
1.932,0.0063669695099555865
1.936,0.006376369362239365
1.94,0.006392524607085142
1.944,0.006394351688347462
1.948,0.006373027726772753
1.952,0.006360959374224271
1.956,0.0063594448200199796
1.96,0.006353386603202813
1.964,0.0063475207107290465
1.968,0.00634552534566625
1.972,0.006351848008455596
1.976,0.0063566561170406485
1.98,0.006359901590335559
1.984,0.006365647280094698
1.988,0.0063712487265962835
1.992,0.006373484497088333
1.996,0.0063756962270374576
2.0,0.006373989348489764
2.004,0.00637045538867975
2.008,0.006368532145245729
2.012,0.006365454955751295
2.016,0.0063645894962059855
2.02,0.00636867638850328
2.024,0.006379855240963528
2.028,0.006383557484574019
2.032,0.006380191808564481
2.036,0.006380624538337137
2.04,0.006380744741051762
2.044,0.0063768020920120195
2.048,0.0063612719012823
2.052,0.006356199346725069
2.056,0.006362161401370534
2.06,0.0063624498878856375
2.064,0.006357473495500108
2.068,0.006356463792697247
2.072,0.006363844239375303
2.076,0.006368291739816476
2.08,0.0063699745778212444
2.084,0.0063722103483132946
2.088,0.006383172835887214
2.092,0.006388317512073221
2.096,0.006380167768021556
2.1,0.006373220051116155
2.104,0.006375503902694055
2.108,0.006368916793932533
2.112,0.006361151698567673
2.116,0.006353627008632066
2.12,0.006365671320637622
2.124,0.006379927362592304
2.128,0.006380792822137613
2.132,0.006376898254183721
2.136,0.006372498834828397
2.14,0.006370647713023152
2.144,0.006374806726949222
2.148,0.006380888984309314
2.152,0.00638735589035621
2.156,0.0063928130936002445
2.16,0.0063954335127790985
2.164,0.006383918092717897
2.168,0.00636543091520837
2.172,0.006359228455133652
2.176,0.006363820198832378
2.18,0.00636264221222904
2.184,0.006358867846989773
2.188,0.006352521143657503
2.192,0.006352040332798998
2.196,0.006350501738051779
2.2,0.006356463792697247
2.204,0.0063655511179229966
2.208,0.006371561253654312
2.212,0.006372162267227444
2.216,0.006373821064689287
2.22,0.006372402672656696
2.224,0.006376729970383244
2.228,0.006377691592100254
2.232,0.006375624105408682
2.236,0.006375047132378475
2.24,0.006373772983603436
2.244,0.006377403105585151
2.248,0.00637776371372903
2.2520000000000002,0.006378028159701208
2.2560000000000002,0.006383557484574019
2.2600000000000002,0.006390360958221868
2.2640000000000002,0.0064045448785477735
2.2680000000000002,0.006416949798697209
2.2720000000000002,0.006413632203773523
2.2760000000000002,0.006392139958398337
2.2800000000000002,0.006386466390267975
2.2840000000000003,0.006380336051822033
2.2880000000000003,0.0063581706712449405
2.2920000000000003,0.0063458619132672036
2.2960000000000003,0.006350670021852256
2.3000000000000003,0.006360670887709168
2.3040000000000003,0.006365983847695651
2.308,0.006368844672303757
2.312,0.006373484497088333
2.316,0.006373797024146362
2.32,0.00636867638850328
2.324,0.006367354158642391
2.328,0.006361151698567673
2.332,0.006361392103996926
2.336,0.006381369795167819
2.34,0.006400337783535852
2.344,0.006400962837651909
2.348,0.006400962837651909
2.352,0.0063994723239905425
2.356,0.006397044229155091
2.36,0.0063928130936002445
2.364,0.0063856009307226656
2.368,0.00639512098572107
2.372,0.006396683621011212
2.376,0.006387692457957164
2.38,0.006367233955927765
2.384,0.006363988482632854
2.388,0.006374013389032689
2.392,0.006365190509779117
2.396,0.006365767482809323
2.4,0.006377547348842703
2.404,0.006386875079497705
2.408,0.00637817240295876
2.412,0.006365839604438099
2.416,0.006360670887709168
2.42,0.00636314706363047
2.424,0.006365334753036669
2.428,0.006368604266874505
2.432,0.006371657415826014
2.436,0.006374349956633643
2.44,0.006377980078615357
2.444,0.006377956038072432
2.448,0.006378893619246517
2.452,0.006381682322225848
2.456,0.006389086809446829
2.46,0.006396731702097063
2.464,0.006389759944648736
2.468,0.006369517807505665
2.472,0.00636771476678627
2.476,0.006371657415826014
2.48,0.006380023524764005
2.484,0.006383725768374495
2.488,0.00638233141688483
2.492,0.006382595862857008
2.496,0.006384086376518374
2.5,0.006379614835534275
2.504,0.006365599199008847
2.508,0.006354348224919823
2.512,0.0063534106437457384
2.516,0.00635533388717976
2.52,0.006364493334034284
2.524,0.006369806294020768
2.528,0.006366320415296604
2.532,0.006363123023087545
2.536,0.006365238590864968
2.54,0.006368940834475458
2.544,0.0063720420645128175
2.548,0.006373460456545408
2.552,0.006374950970206774
2.556,0.006373748943060511
2.56,0.006371681456368938
2.564,0.006372811361886426
2.568,0.006384350822490552
2.572,0.006387548214699612
2.576,0.006381610200597072
2.58,0.006371056402252882
2.584,0.006374470159348269
2.588,0.006384759511720282
2.592,0.006381177470824418
2.596,0.006369277402076412
2.6,0.006358435117217119
2.604,0.006352833670715532
2.608,0.0063568244008411256
2.612,0.006364397171862584
2.616,0.006369133158818861
2.62,0.006370166902164647
2.624,0.006373364294373707
2.628,0.006373845105232212
2.632,0.006376705929840318
2.636,0.006374926929663849
2.64,0.006377018456898347
2.644,0.006381586160054147
2.648,0.00639101005288085
2.652,0.006393534309888003
2.656,0.006382836268286261
2.66,0.006375576024322831
2.664,0.006370575591394376
2.668,0.006379374430105023
2.672,0.00638822134990152
2.676,0.006380672619422987
2.68,0.006366248293667829
2.684,0.006358867846989773
2.688,0.0063607910904237945
2.692,0.0063664886990970814
2.696,0.006367282037013615
2.7,0.006365238590864968
2.704,0.0063703832670509745
2.708,0.006374205713376091
2.712,0.006374446118805344
2.716,0.006373821064689287
2.72,0.006377138659612973
2.724,0.006376778051469094
2.728,0.00637634532169644
2.732,0.006379542713905499
2.736,0.006390360958221868
2.74,0.006397621202185297
2.744,0.006398486661730607
2.748,0.006390409039307718
2.7520000000000002,0.006394760377577191
2.7560000000000002,0.006393197742287049
2.7600000000000002,0.006374373997176568
2.7640000000000002,0.006360190076850663
2.7680000000000002,0.006365166469236192
2.7720000000000002,0.006366272334210754
2.7760000000000002,0.006358026427987389
2.7800000000000002,0.006359132292961951
2.7840000000000003,0.006359637144363382
2.7880000000000003,0.006362113320284683
2.7920000000000003,0.0063653828341225195
2.7960000000000003,0.006366608901811708
2.8000000000000003,0.006372859442972277
2.8040000000000003,0.00637781179481488
2.8080000000000003,0.0063765616865827665
2.8120000000000003,0.006373364294373707
2.816,0.006367402239728242
2.82,0.00636908507773301
2.824,0.006374590362062896
2.828,0.0063760087540954856
2.832,0.00637228246994207
2.836,0.006379759078791827
2.84,0.00637415763229024
2.844,0.0063638682799182274
2.848,0.006361800793226655
2.852,0.006362329685171011
2.856,0.0063680753749301485
2.86,0.006368099415473074
2.864,0.006369493766962739
2.868,0.006372402672656696
2.872,0.006375888551380859
2.876,0.006377859875900731
2.88,0.006379855240963528
2.884,0.006381658281682923
2.888,0.00638228333579898
2.892,0.006385192241492936
2.896,0.006389687823019961
2.9,0.006387692457957164
2.904,0.006383437281859392
2.908,0.006383533444031093
2.912,0.0063834613224023175
2.916,0.006385264363121712
2.92,0.006382836268286261
2.924,0.006378773416531891
2.928,0.006378436848930937
2.932,0.0063788695787035925
2.936,0.0063779079569865815
2.94,0.006378965740875293
2.944,0.006380696659965912
2.948,0.006382163133084353
2.952,0.006382980511543812
2.956,0.006376056835181336
2.96,0.0063747346053204465
2.964,0.0063762491595247385
2.968,0.006368796591217907
2.972,0.006362666252771964
2.976,0.006362473928428563
2.98,0.006381225551910268
2.984,0.0064155554472075434
2.988,0.006425532272521528
2.992,0.006409521270933303
2.996,0.006384230619775926
3.0,0.006370888118452405
3.004,0.006369638010220291
3.008,0.00637086407790948
3.012,0.006380816862680538
3.016,0.006384422944119328
3.02,0.006375576024322831
3.024,0.006365478996294221
3.028,0.006368652347960356
3.032,0.006374638443148746
3.036,0.006382595862857008
3.04,0.006387908822843491
3.044,0.006387980944472267
3.048,0.0063943997694333125
3.052,0.006398727067159859
3.056,0.006395721999294201
3.06,0.006384230619775926
3.064,0.006366993550498512
3.068,0.006373772983603436
3.072,0.006383268998058915
3.076,0.006377691592100254
3.08,0.006369325483162262
3.084,0.006368772550674981
3.088,0.006380913024852239
3.092,0.006380263930193257
3.096,0.006367859010043822
3.1,0.006366440618011231
3.104,0.006371152564424582
3.108,0.006373484497088333
3.112,0.006375407740522354
3.116,0.006377162700155898
3.12,0.006381994849283876
3.124,0.006380191808564481
3.128,0.006377018456898347
3.132,0.006377523308299778
3.136,0.006375503902694055
3.14,0.006386370228096274
3.144,0.006394279566718686
3.148,0.0063915389448252055
3.152,0.006389832066277512
3.156,0.006389904187906288
3.16,0.006383100714258438
3.164,0.006375672186494532
3.168,0.0063655511179229966
3.172,0.0063597573470780076
3.176,0.006354780954692479
3.18,0.0063603824011940644
3.184,0.006367161834298989
3.188,0.006370359226508049
3.192,0.006369878415649543
3.196,0.0063725228753713226
3.2,0.006373724902517586
3.204,0.0063704073075939
3.208,0.006374854808035073
3.212,0.006378893619246517
3.216,0.006380023524764005
3.22,0.006374542280977045
3.224,0.006368844672303757
3.228,0.006366993550498512
3.232,0.006370815996823629
3.236,0.006382619903399933
3.24,0.0063936064315167785
3.244,0.006396154729066857
3.248,0.006387043363298182
3.2520000000000002,0.006379903322049379
3.2560000000000002,0.006381009187023941
3.2600000000000002,0.006372955605143977
3.2640000000000002,0.006353915495147169
3.2680000000000002,0.006351126792167836
3.2720000000000002,0.006360983414767196
3.2760000000000002,0.006373460456545408
3.2800000000000002,0.0063797350382489015
3.2840000000000003,0.006378533011102638
3.2880000000000003,0.006379470592276724
3.2920000000000003,0.006374253794461941
3.2960000000000003,0.006368892753389608
3.3000000000000003,0.00637456632151997
3.3040000000000003,0.006381489997882446
3.3080000000000003,0.006385552849636815
3.3120000000000003,0.006380263930193257
3.3160000000000003,0.006371729537454789
3.3200000000000003,0.006369686091306142
3.3240000000000003,0.00637634532169644
3.3280000000000003,0.0063837738494603455
3.332,0.006376152997353037
3.336,0.006372883483515201
3.34,0.006374133591747315
3.344,0.006387668417414239
3.348,0.006382619903399933
3.352,0.006374373997176568
3.356,0.006376056835181336
3.36,0.006368051334387224
3.364,0.00636410868534748
3.368,0.006371729537454789
3.372,0.006375263497264803
3.376,0.006371609334740163
3.38,0.006370239023793423
3.384,0.006375744308123308
3.388,0.0063856730523514415
3.392,0.0063930534990294975
3.396,0.006382619903399933
3.4,0.006373123888944454
3.404,0.006372450753742547
3.408,0.006379927362592304
3.412,0.00638959166084826
3.416,0.006388029025558117
3.42,0.006367594564071643
3.424,0.006359877549792634
3.428,0.0063634836312314235
3.432,0.006361488266168626
3.436,0.006365911726066875
3.44,0.006369734172391992
3.444,0.00637273924025765
3.448,0.006373893186318063
3.452,0.006374446118805344
3.456,0.0063773550244993005
3.46,0.0063766338082115424
3.464,0.006376898254183721
3.468,0.0063781483624158345
3.472,0.0063808409032234635
3.476,0.006380191808564481
3.48,0.006381009187023941
3.484,0.0063862259848387224
3.488,0.006384831633349058
3.492,0.006385793255066068
3.496,0.0063871876065557335
3.5,0.006382066970912652
3.504,0.006376465524411066
3.508,0.0063762491595247385
3.512,0.006381778484397549
3.516,0.006376729970383244
3.52,0.006377571389385628
3.524,0.006382379497970681
3.528,0.006383172835887214
3.532,0.0063856730523514415
3.536,0.00638461526846273
3.54,0.006392668850342694
3.544,0.006396755742639988
3.548,0.006389110849989754
3.552,0.006380071605849856
3.556,0.00638365364674572
3.56,0.006385865376694844
3.564,0.006391755309711533
3.568,0.006399953134849048
3.572,0.006394087242375284
3.576,0.006384038295432524
3.58,0.006375624105408682
3.584,0.006389062768903904
3.588,0.006390649444736971
3.592,0.006373484497088333
3.596,0.006372186307770369
3.6,0.006377210781241749
3.604,0.006379230186847471
3.608,0.006375191375636027
3.612,0.006361368063454001
3.616,0.006360839171509645
3.62,0.006365190509779117
3.624,0.006383677687288645
3.628,0.006399111715846664
3.632,0.006401251324167012
3.636,0.0064050256894062785
3.64,0.006407838432928534
3.644,0.006410314608849836
3.648,0.006410146325049359
3.652,0.0064015398106821155
3.656,0.0063897118635628854
3.66,0.006375311578350653
3.664,0.00637817240295876
3.668,0.006389808025734587
3.672,0.006398630904988159
3.676,0.006403054364886407
3.68,0.0063891589310756045
3.684,0.006377691592100254
3.688,0.0063834613224023175
3.692,0.006382595862857008
3.696,0.0063824997006853065
3.7,0.006381514038425371
3.704,0.006383124754801363
3.708,0.006388149228272744
3.712,0.006396443215581959
3.716,0.006397621202185297
3.72,0.006390168633878466
3.724,0.006379783119334752
3.728,0.006379831200420603
3.732,0.006381273632996119
3.736,0.006386346187553349
3.74,0.006386754876783078
3.744,0.006391611066453981
3.748,0.006400049297020749
3.7520000000000002,0.006406059432752065
3.7560000000000002,0.006410362689935687
3.7600000000000002,0.006404352554204371
3.7640000000000002,0.006386201944295797
3.7680000000000002,0.00637730694341345
3.7720000000000002,0.006383341119687691
3.7760000000000002,0.006387716498500089
3.7800000000000002,0.006384663349548581
3.7840000000000003,0.006376537646039841
3.7880000000000003,0.0063729075240581265
3.7920000000000003,0.006378196443501685
3.7960000000000003,0.006387572255242537
3.8000000000000003,0.0063941593640040595
3.8040000000000003,0.006399111715846664
3.8080000000000003,0.006386274065924573
3.8120000000000003,0.006378412808388012
3.8160000000000003,0.00638009564639278
3.8200000000000003,0.0063818025249404746
3.8240000000000003,0.006380432213993734
3.8280000000000003,0.006379278267933322
3.8320000000000003,0.006372979645686902
3.8360000000000003,0.006374301875547792
3.84,0.006382884349372111
3.844,0.006383870011632047
3.848,0.006384278700861777
3.852,0.006379831200420603
3.856,0.006372186307770369
3.86,0.006373724902517586
3.864,0.0063766338082115424
3.868,0.006377186740698823
3.872,0.0063823554574277555
3.876,0.006382836268286261
3.88,0.0063853605252934134
3.884,0.006387836701214716
3.888,0.0063898801473633625
3.892,0.006400842634937283
3.896,0.006409641473647929
3.9,0.00640654024361057
3.904,0.006400457986250479
3.908,0.006394087242375284
3.912,0.006391683188082757
3.916,0.006380167768021556
3.92,0.006373171970030305
3.924,0.006377090578527122
3.928,0.0063727632808005755
3.932,0.006375576024322831
3.936,0.006383052633172588
3.94,0.006387836701214716
3.944,0.0063871876065557335
3.948,0.006390889850166224
3.952,0.006389687823019961
3.956,0.006385817295608993
3.96,0.006385023957692459
3.964,0.006387620336328388
3.968,0.006389447417590708
3.972,0.006388630039131249
3.976,0.006390240755507242
3.98,0.00639375067477433
3.984,0.006398390499558906
3.988,0.006400385864621703
3.992,0.006404905486691652
3.996,0.006416132420237751
4.0,0.006412117649569231
4.0040000000000004,0.006399616567248094
4.008,0.0063797350382489015
4.0120000000000005,0.006372162267227444
4.016,0.0063691091182759355
4.0200000000000005,0.006363507671774349
4.024,0.006367883050586747
4.0280000000000005,0.006374854808035073
4.032,0.00638233141688483
4.0360000000000005,0.006388245390444445
4.04,0.006391587025911056
4.0440000000000005,0.006390625404194046
4.048,0.006390457120393569
4.0520000000000005,0.006392115917855412
4.056,0.006394327647804537
4.0600000000000005,0.006399808891591497
4.064,0.00640146768905334
4.0680000000000005,0.006398967472589112
4.072,0.006394279566718686
4.0760000000000005,0.006396563418296586
4.08,0.0064043044731185205
4.0840000000000005,0.00640242931077035
4.088,0.006406828730125673
4.0920000000000005,0.0064048574056058015
4.096,0.006394568053233789
4.1,0.006380215849107407
4.104,0.006373893186318063
4.108,0.006385721133437292
4.112,0.0063853605252934134
4.116,0.0063725228753713226
4.12,0.0063685561857886545
4.124,0.0063744220782624185
4.128,0.006378100281329984
4.132,0.006381369795167819
4.136,0.006384350822490552
4.14,0.00638740397144206
4.144,0.00638872620130295
4.148,0.006391442782653505
4.152,0.006399736769962721
4.156,0.006409761676362555
4.16,0.006412309973912633
4.164,0.006408703892473844
4.168,0.006401900418825994
4.172,0.006393438147716301
4.176,0.0063877405390430145
4.18,0.006393438147716301
4.184,0.006393654512602629
4.188,0.006394856539748892
4.192,0.006396924026440464
4.196,0.006391683188082757
4.2,0.00638963974193411
4.204,0.006390769647451598
4.208,0.006397621202185297
4.212,0.006407429743698805
4.216,0.0064138966497457005
4.22,0.006410434811564463
4.224,0.006406756608496897
4.228,0.006415507366121694
4.232,0.006421854069453963
4.236,0.006414521703861757
4.24,0.006402381229684499
4.244,0.006403583256830762
4.248,0.006401203243081161
4.252,0.006400962837651909
4.256,0.006398654945531084
4.26,0.00639288521522902
4.264,0.0063861538632099465
4.268,0.006390841769080374
4.272,0.006394375728890387
4.276,0.0063983664590159806
4.28,0.006404929527234577
4.284,0.006411156027852221
4.288,0.006415098676891964
4.292,0.006417935460957145
4.296,0.006421854069453963
4.3,0.006426782380753642
4.304,0.006419882744934091
4.308,0.006412406136084335
4.312,0.006406420040895944
4.316,0.006405193973206756
4.32,0.006405458419178933
4.324,0.0064183441501868745
4.328,0.006415627568836319
4.332,0.006401948499911845
4.336,0.006391154296138402
4.34,0.006389086809446829
4.344,0.006402862040543005
4.348,0.006406852770668599
4.352,0.006408247122158264
4.356,0.0064055786218935595
4.36,0.006398102013043803
4.364,0.006396659580468287
4.368,0.006399328080732991
4.372,0.006399808891591497
4.376,0.006401034959280685
4.38,0.006403174567601033
4.384,0.006402357189141574
4.388,0.006404280432575595
4.392,0.006405746905694037
4.396,0.006408944297903096
4.4,0.006422407001941244
4.404,0.00642709490781167
4.408,0.006419377893532661
4.412,0.006411468554910249
4.416,0.006404785283977026
4.42,0.006396419175039034
4.424,0.006390409039307718
4.428,0.0063967797831829135
4.432,0.006402501432399126
4.436,0.006396058566895155
4.44,0.006388990647275128
4.444,0.006389086809446829
4.448,0.006392861174686095
4.452,0.006392236120570038
4.456,0.006395409472236173
4.46,0.006398342418473055
4.464,0.006398799188788635
4.468,0.0064000252564778235
4.472,0.0064002656619070765
4.476,0.006408223081615339
4.48,0.006418560515073201
4.484,0.006415459285035843
4.488,0.0064011311214523855
4.492,0.006405698824608186
4.496,0.006414569784947608
4.5,0.006415771812093871
4.5040000000000004,0.006399905053763198
4.508,0.006389038728360979
4.5120000000000005,0.00638598557940947
4.516,0.006386802957868929
4.5200000000000005,0.006397452918384821
4.524,0.006393558350430928
4.5280000000000005,0.0063913947015676546
4.532,0.006391442782653505
4.5360000000000005,0.006383172835887214
4.54,0.006384711430634431
4.5440000000000005,0.006391082174509626
4.548,0.006397044229155091
4.5520000000000005,0.006400097378106599
4.556,0.006403222648686884
4.5600000000000005,0.006403631337916613
4.564,0.006406468121981795
4.5680000000000005,0.006413271595629644
4.572,0.006424979340034247
4.5760000000000005,0.006430220178391954
4.58,0.006420507799050148
4.5840000000000005,0.006407814392385609
4.588,0.006402212945884023
4.5920000000000005,0.00639740483729897
4.596,0.006399304040190066
4.6000000000000005,0.006402140824255247
4.604,0.006407141257183701
4.6080000000000005,0.006403919824431717
4.612,0.006391731269168608
4.616,0.006388149228272744
4.62,0.006396154729066857
4.624,0.006401083040366536
4.628,0.006396924026440464
4.632,0.006398029891415027
4.636,0.0064044727569189976
4.64,0.006401227283624087
4.644,0.00639877514824571
4.648,0.0064111319873092956
4.652,0.006429210475589094
4.656,0.006426373691523912
4.66,0.006407742270756833
4.664,0.006394447850519163
4.668,0.006399568486162244
4.672,0.0064050978110350544
4.676,0.0063955296749508
4.68,0.0063779079569865815
4.684,0.006381273632996119
4.688,0.006393558350430928
4.692,0.006396178769609782
4.696,0.006395721999294201
4.7,0.006402813959457155
4.704,0.006399063634760813
4.708,0.006395649877665426
4.712,0.0064043044731185205
4.716,0.006410627135907865
4.72,0.006411372392738548
4.724,0.006407141257183701
4.728,0.0064077903518426835
4.732,0.006408439446501666
4.736,0.00640197254045477
4.74,0.00640329477031566
4.744,0.006413487960515971
4.748,0.0064292825972178695
4.752,0.006434066665259997
4.756,0.006424089839946012
4.76,0.0064119253252258295
4.764,0.006391178336681327
4.768,0.006378100281329984
4.772,0.006378004119158283
4.776,0.006384735471177357
4.78,0.0063930534990294975
4.784,0.006399255959104216
4.788,0.006404424675833147
4.792,0.006395457553322024
4.796,0.0063917793502544585
4.8,0.006403222648686884
4.804,0.006420219312535045
4.808,0.006423873475059685
4.812,0.006403487094659062
4.816,0.006392404404370515
4.82,0.006394255526175761
4.824,0.006403559216287837
4.828,0.006416372825667003
4.832,0.006412670582056512
4.836,0.006408078838357787
4.84,0.006409785716905481
4.844,0.006412646541513587
4.848,0.006411708960339502
4.852,0.006410434811564463
4.856,0.006405218013749681
4.86,0.006402381229684499
4.864,0.006412165730655082
4.868,0.006419594258418988
4.872,0.006416661312182106
4.876,0.00640654024361057
4.88,0.0064093049060469755
4.884,0.006421445380224234
4.888,0.00642202235325444
4.892,0.006420603961221849
4.896,0.006421950231625664
4.9,0.006420964569365728
4.904,0.006411588757624875
4.908,0.006409713595276705
4.912,0.00639877514824571
4.916,0.006386466390267975
4.92,0.00637999948422108
4.924,0.00637822048404461
4.928,0.006391274498853028
4.932,0.006418728798873678
4.936,0.006434258989603398
4.94,0.006431999178568424
4.944,0.00642298397497145
4.948,0.0064263496509809875
4.952,0.006429931691876852
4.956,0.006438466084615319
4.96,0.006438466084615319
4.964,0.006424474488632817
4.968,0.006411708960339502
4.972,0.006409256824961125
4.976,0.006415892014808498
4.98,0.006412406136084335
4.984,0.006407141257183701
4.988,0.006413247555086718
4.992,0.006418440312358576
4.996,0.006408463487044591
5.0,0.0063965393777536605
5.0040000000000004,0.006404112148775119
5.008,0.006414161095717879
5.0120000000000005,0.00641019440613521
5.016,0.006404641040719475
5.0200000000000005,0.006407309540984178
5.024,0.006415363122864142
5.0280000000000005,0.006425051461663023
5.032,0.006423296502029479
5.0360000000000005,0.006419377893532661
5.04,0.006420892447736953
5.0440000000000005,0.006419089407017558
5.048,0.006415651609379245
5.0520000000000005,0.00642202235325444
5.056,0.006417887379871295
5.0600000000000005,0.006395649877665426
5.064,0.006388317512073221
5.0680000000000005,0.006395890283094678
5.072,0.006401227283624087
5.0760000000000005,0.006410362689935687
5.08,0.006412574419884811
5.0840000000000005,0.006406227716552542
5.088,0.006402669716199603
5.0920000000000005,0.006403366891944436
5.096,0.006408295203244115
5.1000000000000005,0.006428873907988139
5.104,0.006440100841534238
5.1080000000000005,0.0064288017863593635
5.112,0.006407357622070029
5.1160000000000005,0.006399424242904692
5.12,0.0064052660948355315
5.124,0.006412189771198007
5.128,0.006407598027499282
5.132,0.0064000252564778235
5.136,0.006406636405782271
5.14,0.006404208310946819
5.144,0.0063983664590159806
5.148,0.006402789918914229
5.152,0.006403943864974642
5.156,0.0063967797831829135
5.16,0.0063952652289786215
5.164,0.006400337783535852
5.168,0.006402309108055724
5.172,0.006408006716729011
5.176,0.006416108379694825
5.18,0.006415892014808498
5.184,0.00640973763581963
5.188,0.00640973763581963
5.192,0.006415194839063665
5.196,0.006416733433810882
5.2,0.0064119974468546045
5.204,0.0064138966497457005
5.208,0.006421974272168589
5.212,0.0064140649335461776
5.216,0.006395361391150323
5.22,0.006393510269345077
5.224,0.006394808458663042
5.228,0.006398895350960336
5.232,0.0064047131623482505
5.236,0.006403535175744912
5.24,0.006403895783888791
5.244,0.006406155594923766
5.248,0.006416324744581152
5.252,0.006421445380224234
5.256,0.006417406569012789
5.26,0.006403030324343481
5.264,0.006409352987132826
5.268,0.006418608596159052
5.272,0.006421180934252055
5.276,0.00641983466384824
5.28,0.006428056529528681
5.284,0.0064297874486193
5.288,0.006411396433281473
5.292,0.006397837567071625
5.296,0.006407862473471459
5.3,0.00641243017662726
5.304,0.006409352987132826
5.308,0.00640242931077035
5.312,0.006409160662789424
5.316,0.006408078838357787
5.32,0.006401780216111368
5.324,0.006398654945531084
5.328,0.006400097378106599
5.332,0.006403246689229809
5.336,0.006410747338622491
5.34,0.006414281298432505
5.344,0.006414185136260804
5.348,0.006409569352019153
5.352,0.006406396000353019
5.356,0.006408703892473844
5.36,0.006416733433810882
5.364,0.006423993677774311
5.368,0.00642618136718051
5.372,0.006424835096776695
5.376,0.0064269747050970435
5.38,0.006425700556322005
5.384,0.006416012217523124
5.388,0.006409833797991331
5.392,0.00640928086550405
5.396,0.006408872176274321
5.4,0.006415122717434889
5.404,0.006426037123922959
5.408,0.006423368623658254
5.412,0.006406636405782271
5.416,0.006401227283624087
5.42,0.00639786160761455
5.424,0.006398029891415027
5.428,0.006398534742816458
5.432,0.006402212945884023
5.436,0.006405506500264784
5.44,0.006411083906223445
5.444,0.0064162766634953015
5.448,0.006416805555439657
5.452,0.0064194500151614365
5.456,0.006415771812093871
5.46,0.00641704596086891
5.464,0.00641795950150007
5.468,0.006407357622070029
5.472,0.00639740483729897
5.476,0.0063973327156701945
5.48,0.006402813959457155
5.484,0.00641435342006128
5.488,0.006424065799403087
5.492,0.006415483325578768
5.496,0.00640882409518847
5.5,0.006416877677068433
5.5040000000000004,0.006420435677421372
5.508,0.006419305771903885
5.5120000000000005,0.006423368623658254
5.516,0.0064125503793418855
5.5200000000000005,0.0064044727569189976
5.524,0.0064098578385342565
5.5280000000000005,0.006416204541866526
5.532,0.0064172382852123126
5.5360000000000005,0.006423248420943628
5.54,0.006424642772433293
5.5440000000000005,0.006427816124099428
5.548,0.006429619164818823
5.5520000000000005,0.006424330245375265
5.556,0.006412285933369708
5.5600000000000005,0.006411396433281473
5.564,0.006411708960339502
5.5680000000000005,0.006407742270756833
5.572,0.006413007149657466
5.5760000000000005,0.006418296069101024
5.58,0.006412358054998484
5.5840000000000005,0.006409761676362555
5.588,0.006419377893532661
5.5920000000000005,0.006431374124452367
5.596,0.00643668708443885
5.6000000000000005,0.006432143421825976
5.604,0.006429186435046168
5.6080000000000005,0.006435412935663811
5.612,0.006430676948707534
5.6160000000000005,0.006409665514190854
5.62,0.006402140824255247
5.6240000000000006,0.006406396000353019
5.628,0.006412309973912633
5.632,0.006410843500794192
5.636,0.006410122284506435
5.64,0.006414978474177337
5.644,0.006415266960692441
5.648,0.006419377893532661
5.652,0.006420267393620896
5.656,0.006421781947825187
5.66,0.006423416704744105
5.664,0.006426205407723436
5.668,0.006424065799403087
5.672,0.006412334014455559
5.676,0.006401635972853817
5.68,0.006413199474000868
5.684,0.006419281731360959
5.688,0.006416060298608975
5.692,0.006410771379165416
5.696,0.006406876811211524
5.7,0.006406107513837915
5.704,0.006410386730478612
5.708,0.006414161095717879
5.712,0.006417358487926938
5.716,0.006416372825667003
5.72,0.006415242920149515
5.724,0.006413079271286242
5.728,0.0064124782577131105
5.732,0.006413367757801345
5.736,0.006425219745463499
5.74,0.006430340381106581
5.744,0.006421301136966682
5.748,0.006414521703861757
5.752,0.0064090645006177225
5.756,0.006406396000353019
5.76,0.006410843500794192
5.764,0.006419498096247287
5.768,0.006411877244139979
5.772,0.006395361391150323
5.776,0.0063983664590159806
5.78,0.006406900851754449
5.784,0.006407598027499282
5.788,0.006413103311829167
5.792,0.006419281731360959
5.796,0.006413872609202775
5.8,0.006405987311123289
5.804,0.006398582823902308
5.808,0.006397741404899924
5.812,0.006403054364886407
5.816,0.0064114445143673236
5.82,0.006418151825843472
5.824,0.006422839731713898
5.828,0.006411636838710726
5.832,0.006403895783888791
5.836,0.0064061315543808405
5.84,0.0064046650812624
5.844,0.006396250891238558
5.848,0.006393414107173376
5.852,0.006402597594570827
5.856,0.006410627135907865
5.86,0.0064154112039499925
5.864,0.006421301136966682
5.868,0.0064242100426606386
5.872,0.006415194839063665
5.876,0.006401227283624087
5.88,0.006396178769609782
5.884,0.006404424675833147
5.888,0.006417190204126462
5.892,0.0064183441501868745
5.896,0.0064188970826741555
5.9,0.006419065366474633
5.904,0.006419906785477016
5.908,0.0064207241639364756
5.912,0.006416757474353807
5.916,0.0064177912176995935
5.92,0.006410747338622491
5.924,0.00641060309536494
5.928,0.006410675216993716
5.932,0.006409425108761602
5.936,0.006404833365062876
5.94,0.006405746905694037
5.944,0.00641024248722106
5.948,0.00641476210929101
5.952,0.006417190204126462
5.956,0.006412862906399914
5.96,0.006408463487044591
5.964,0.006414954433634412
5.968,0.006416252622952376
5.972,0.006414401501147131
5.976,0.0064127907847711385
5.98,0.006414810190376861
5.984,0.006413439879430121
5.988,0.006413367757801345
5.992,0.006413512001058897
5.996,0.006407934595100235
6.0,0.006410939662965893
6.0040000000000004,0.006419017285388782
6.008,0.0064242100426606386
6.0120000000000005,0.006418921123217081
6.016,0.006405674784065261
6.0200000000000005,0.006402309108055724
6.024,0.006405506500264784
6.0280000000000005,0.006409040460074797
6.032,0.006420507799050148
6.0360000000000005,0.006428873907988139
6.04,0.006426061164465884
6.0440000000000005,0.0064238975156026105
6.048,0.006421902150539813
6.0520000000000005,0.0064211088126232795
6.056,0.006406347919267168
6.0600000000000005,0.006398102013043803
6.064,0.006395361391150323
6.0680000000000005,0.006401660013396742
6.072,0.0064050978110350544
6.0760000000000005,0.006408150959986563
6.08,0.0064115166359960995
6.0840000000000005,0.006410386730478612
6.088,0.00641704596086891
6.0920000000000005,0.00641800758258592
6.096,0.006413920690288626
6.1000000000000005,0.006409713595276705
6.104,0.006406636405782271
6.1080000000000005,0.006404328513661446
6.112,0.006409352987132826
6.1160000000000005,0.006419930826019942
6.12,0.006425388029263976
6.1240000000000006,0.006428441178215485
6.128,0.00641978658276239
6.132000000000001,0.006411660879253651
6.136,0.006400409905164628
6.140000000000001,0.006393414107173376
6.144,0.006399784851048571
6.148,0.0064080307572719365
6.152,0.006415795852636796
6.156,0.00641800758258592
6.16,0.0064155554472075434
6.164,0.006423104177686077
6.168,0.006432696354313257
6.172,0.006435965868151093
6.176,0.006428657543101813
6.18,0.0064206520423077
6.184,0.006421253055880831
6.188,0.006434643638290203
6.192,0.0064338743409165945
6.196,0.006415315041778291
6.2,0.006402212945884023
6.204,0.0064072374193554025
6.208,0.006418752839416604
6.212,0.006418127785300547
6.216,0.00641699787978306
6.22,0.006419978907105792
6.224,0.006423464785829955
6.228,0.006416901717611358
6.232,0.006395721999294201
6.236,0.006386995282212331
6.24,0.006389976309535064
6.244,0.006405314175921382
6.248,0.006430027854048552
6.252,0.006444139652745682
6.256,0.006454909815976201
6.26,0.00645623204583709
6.264,0.006453659707744087
6.268,0.006441735598453156
6.272,0.006419882744934091
6.276,0.006401587891767966
6.28,0.006404376594747296
6.284,0.006410506933193239
6.288,0.006413920690288626
6.292,0.0064207962855652514
6.296,0.006422839731713898
6.3,0.006417358487926938
6.304,0.00641288694694284
6.308,0.006412670582056512
6.312,0.006417767177156668
6.316,0.006418680717787828
6.32,0.006415747771550946
6.324,0.006410987744051744
6.328,0.006416156460780675
6.332,0.0064308692730509365
6.336,0.006429955732419777
6.34,0.0064264217726097625
6.344,0.006432720394856182
6.348,0.00643440323286095
6.352,0.00642659005641024
6.356,0.006418223947472248
6.36,0.006418440312358576
6.364,0.006415771812093871
6.368,0.006405482459721858
6.372,0.006408631770845068
6.376,0.006417094041954761
6.38,0.006420339515249672
6.384,0.006418296069101024
6.388,0.006413127352372093
6.392,0.006406876811211524
6.396,0.006410915622422968
6.4,0.006418127785300547
6.404,0.006422743569542198
6.408,0.006419930826019942
6.412,0.006419882744934091
6.416,0.006432383827255228
6.42,0.006437889111585113
6.424,0.006432504029969854
6.428,0.006420291434163821
6.432,0.006400770513308507
6.436,0.006396323012867333
6.44,0.006394327647804537
6.444,0.006394423809976238
6.448,0.006395553715493725
6.452,0.006400169499735375
6.456,0.006409521270933303
6.46,0.006415339082321217
6.464,0.006412141690112156
6.468,0.006407117216640777
6.472,0.006409641473647929
6.476,0.006411180068395146
6.48,0.00641521887960659
6.484,0.00641339179834427
6.488,0.0064141370551749535
6.492,0.006417983542042995
6.496,0.006420628001764774
6.5,0.006424907218405471
6.5040000000000004,0.0064397402333903585
6.508,0.006457073464839475
6.5120000000000005,0.006440437409135191
6.516,0.006407501865327581
6.5200000000000005,0.006389808025734587
6.524,0.006403463054116137
6.5280000000000005,0.006414040893003252
6.532,0.006406612365239346
6.5360000000000005,0.006406059432752065
6.54,0.006400337783535852
6.5440000000000005,0.006402381229684499
6.548,0.006408439446501666
6.5520000000000005,0.0064162766634953015
6.556,0.006421902150539813
6.5600000000000005,0.006427022786182894
6.564,0.006436470719552523
6.5680000000000005,0.006441038422708323
6.572,0.006430917354136787
6.5760000000000005,0.00641476210929101
6.58,0.006407309540984178
6.5840000000000005,0.006409978041248883
6.588,0.006419041325931707
6.5920000000000005,0.006425580353607379
6.596,0.006426373691523912
6.6000000000000005,0.0064135841226876725
6.604,0.006409954000705958
6.6080000000000005,0.006424161961574788
6.612,0.0064401489226200885
6.6160000000000005,0.0064373602196407574
6.62,0.006413680284859374
6.6240000000000006,0.006404689121805325
6.628,0.006406396000353019
6.632000000000001,0.006413127352372093
6.636,0.006419377893532661
6.640000000000001,0.006419954866562867
6.644,0.006420940528822803
6.648000000000001,0.006425748637407856
6.652,0.006428441178215485
6.656000000000001,0.006429066232331542
6.66,0.00642937875938957
6.664,0.006420844366651102
6.668,0.0064122378522838575
6.672,0.006413127352372093
6.676,0.006423128218229002
6.68,0.006426926624011194
6.684,0.006423584988544582
6.688,0.006423368623658254
6.692,0.0064237292318021335
6.696,0.006416012217523124
6.7,0.006416300704038227
6.704,0.006416324744581152
6.708,0.006420892447736953
6.712,0.0064231762993148525
6.716,0.006421974272168589
6.72,0.006422142555969066
6.724,0.006420748204479401
6.728,0.0064237292318021335
6.732,0.006424089839946012
6.736,0.006424330245375265
6.74,0.006438730530587498
6.744,0.006448154423414201
6.748,0.006441759638996081
6.752,0.00642942684047542
6.756,0.0064200029476487175
6.76,0.0064223829613983185
6.764,0.006412189771198007
6.768,0.006393798755860181
6.772,0.0063901205527926155
6.776,0.006394640174862565
6.78,0.006400890716023133
6.784,0.00640841540595874
6.788,0.006413824528116925
6.792,0.006417094041954761
6.796,0.006418296069101024
6.8,0.00641750273118449
6.804,0.006421493461310084
6.808,0.0064287296647305885
6.812,0.006427167029440446
6.816,0.006428224813329157
6.82,0.006432792516484958
6.824,0.006439523868504032
6.828,0.006442504895826764
6.832,0.006447409166583517
6.836,0.006447481288212293
6.84,0.006435172530234559
6.844,0.006420267393620896
6.848,0.006416637271639181
6.852,0.006419522136790212
6.856,0.0064244504480898915
6.86,0.006421325177509607
6.864,0.006420483758507223
6.868,0.006424161961574788
6.872,0.006435965868151093
6.876,0.0064421202471399595
6.88,0.006435196570777484
6.884,0.0064287296647305885
6.888,0.006431638570424545
6.892,0.006435797584350616
6.896,0.006436639003352999
6.9,0.006430340381106581
6.904,0.006434234949060473
6.908,0.006432744435399107
6.912,0.006423464785829955
6.916,0.0064183441501868745
6.92,0.0064226233668275715
6.924,0.00642942684047542
6.928,0.006426734299667791
6.932,0.006430989475765563
6.936,0.006434210908517548
6.94,0.006438682449501647
6.944,0.006441158625422949
6.948,0.00644079801727907
6.952,0.0064410143821653975
6.956,0.00644034124696349
6.96,0.006438297800814843
6.964,0.006442961666142344
6.968,0.0064465677475811336
6.972,0.006446856234096236
6.976,0.006441879841710707
6.98,0.006438153557557291
6.984,0.006445389760977796
6.988,0.00645801104601356
6.992,0.006464742398032634
6.996,0.006442216409311661
7.0,0.006413800487573999
7.0040000000000004,0.006414233217346655
7.008,0.006423152258771927
7.0120000000000005,0.00642161366402471
7.016,0.006421180934252055
7.0200000000000005,0.006420531839593073
7.024,0.006424426407546966
7.0280000000000005,0.0064305567459929085
7.032,0.006435004246434082
7.0360000000000005,0.006436566881724224
7.04,0.006436879408782252
7.0440000000000005,0.006443899247316429
7.048,0.0064465677475811336
7.0520000000000005,0.00644353863917255
7.056,0.0064399085171908356
7.0600000000000005,0.006441495193023903
7.064,0.006447986139613724
7.0680000000000005,0.006449596855989717
7.072,0.006434619597747278
7.0760000000000005,0.006415627568836319
7.08,0.006416733433810882
7.0840000000000005,0.0064263496509809875
7.088,0.0064274555159555494
7.0920000000000005,0.006430508664907058
7.096,0.006426734299667791
7.1000000000000005,0.006428994110702766
7.104,0.0064309413946797124
7.1080000000000005,0.006429739367533449
7.112,0.006427263191612147
7.1160000000000005,0.006424161961574788
7.12,0.0064205558801359985
7.1240000000000006,0.006427359353783848
7.128,0.006433297367886388
7.132000000000001,0.00643476384100483
7.136,0.006436566881724224
7.140000000000001,0.006435340814035036
7.144,0.006434523435575577
7.148000000000001,0.006432792516484958
7.152,0.006436711124981775
7.156000000000001,0.006434980205891156
7.16,0.006423873475059685
7.164000000000001,0.006415074636349038
7.168,0.006416757474353807
7.172,0.006419522136790212
7.176,0.00642202235325444
7.18,0.006427551678127251
7.184,0.00643344161114394
7.188,0.006429258556674944
7.192,0.006425484191435678
7.196,0.006427647840298951
7.2,0.006430821191965086
7.204,0.00643303292191421
7.208,0.006431878975853797
7.212,0.006434162827431698
7.216,0.006430845232508011
7.22,0.006430845232508011
7.224,0.006440076800991313
7.228,0.006442601057998465
7.232,0.006428561380930111
7.236,0.006419498096247287
7.24,0.006422743569542198
7.244,0.006429066232331542
7.248,0.006433177165171762
7.252,0.006438970936016751
7.256,0.006441759638996081
7.26,0.006443610760801326
7.264,0.006437456381812459
7.268,0.006430220178391954
7.272,0.0064269025834682685
7.276,0.006431302002823591
7.28,0.006433585854401491
7.284,0.006435653341093064
7.288,0.006439091138731376
7.292,0.006442240449854586
7.296,0.006435316773492111
7.3,0.006425051461663023
7.304,0.006422310839769543
7.308,0.006429138353960318
7.312,0.006432840597570808
7.316,0.006433682016573192
7.32,0.0064351484896916335
7.324,0.006438730530587498
7.328,0.006439668111761583
7.332,0.006439163260360152
7.336,0.006436999611496879
7.34,0.006430003813505627
7.344,0.006431999178568424
7.348,0.006443057828314045
7.352,0.006447024517896713
7.356,0.006448851599159033
7.36,0.006444067531116906
7.364,0.006431806854225021
7.368,0.006425892880665407
7.372,0.006421757907282262
7.376,0.006426926624011194
7.38,0.006430196137849029
7.384,0.006431710692053321
7.388,0.006434739800461904
7.392,0.0064408460983649204
7.396,0.00645075080205013
7.4,0.006452890410370479
7.404,0.0064408460983649204
7.408,0.006426229448266361
7.412,0.006418680717787828
7.416,0.006419570217876063
7.42,0.006427864205185279
7.424,0.006432792516484958
7.428,0.006436398597923747
7.432,0.0064357014221789145
7.436,0.006431638570424545
7.44,0.006429523002647122
7.444,0.006431999178568424
7.448,0.006435533138378437
7.452,0.006434643638290203
7.456,0.006434475354489726
7.46,0.006436542841181299
7.464,0.006440052760448387
7.468,0.006438201638643142
7.472,0.00643572546272184
7.476,0.006435797584350616
7.48,0.006429258556674944
7.484,0.00643389838145952
7.488,0.00644668795029576
7.492,0.006454188599688443
7.496,0.006447529369298144
7.5,0.006435076368062858
7.5040000000000004,0.006433105043542986
7.508,0.006436110111408644
7.5120000000000005,0.006428897948531065
7.516,0.0064237292318021335
7.5200000000000005,0.006423705191259208
7.524,0.006429715326990524
7.5280000000000005,0.006441326909223426
7.532,0.006449452612732165
7.5360000000000005,0.006452962531999254
7.54,0.006448851599159033
7.5440000000000005,0.006441519233566828
7.548,0.006442601057998465
7.5520000000000005,0.006445726328578749
7.556,0.006450630599335504
7.5600000000000005,0.006452265356254422
7.564,0.006453755869915788
7.5680000000000005,0.006442144287682885
7.572,0.006430725029793385
7.5760000000000005,0.006433105043542986
7.58,0.006436999611496879
7.5840000000000005,0.006441086503794173
7.588,0.006433537773315641
7.5920000000000005,0.006430484624364133
7.596,0.006440172963163014
7.6000000000000005,0.006439812355019134
7.604,0.00643344161114394
7.6080000000000005,0.006424089839946012
7.612,0.006420988609908653
7.6160000000000005,0.006433826259830744
7.62,0.006451688383224216
7.6240000000000006,0.0064651991683482134
7.628,0.006474599020631991
7.632000000000001,0.006477075196553293
7.636,0.006464958762918961
7.640000000000001,0.006451928788653468
7.644,0.006448298666671752
7.648000000000001,0.00644445217980371
7.652,0.00643572546272184
7.656000000000001,0.00643623031412327
7.66,0.006438105476471441
7.664000000000001,0.006432191502911826
7.668,0.0064309413946797124
7.672000000000001,0.006435364854577961
7.676,0.00644166347682438
7.68,0.006443442477000849
7.684,0.00644627926106603
7.688,0.006453779910458713
7.692,0.006452481721140749
7.696,0.00645070272096428
7.7,0.006456784978324371
7.704,0.006474526899003216
7.708,0.00647445477737444
7.712,0.006448683315358556
7.716,0.006429523002647122
7.72,0.006425748637407856
7.724,0.006439043057645526
7.728,0.006442432774197988
7.732,0.006436855368239327
7.736,0.006428272894415008
7.74,0.006432407867798153
7.744,0.006445269558263169
7.748,0.006444115612202757
7.752,0.006437744868327562
7.756,0.006441110544337099
7.76,0.00644861119372978
7.764,0.006451255653451561
7.768,0.006453731829372863
7.772,0.006452794248198778
7.776,0.006451664342681291
7.78,0.006457025383753624
7.784,0.006455510829549332
7.788,0.006451784545395916
7.792,0.006447216842240116
7.796,0.00644166347682438
7.8,0.006444139652745682
7.804,0.006447986139613724
7.808,0.00645111141019401
7.812,0.006455703153892735
7.816,0.00645293849145633
7.82,0.006445413801520721
7.824,0.006434523435575577
7.828,0.006434283030146324
7.832,0.006433970503088296
7.836,0.006440437409135191
7.84,0.00644714472061134
7.844,0.006444235814917383
7.848,0.006438225679186067
7.852,0.006427575718670175
7.856,0.006428946029616915
7.86,0.006433369489515164
7.864,0.006436566881724224
7.868,0.006440605692935668
7.872,0.00643800931429974
7.876,0.006437432341269533
7.88,0.006432431908341078
7.884,0.006436086070865718
7.888,0.006443418436457924
7.892,0.006451183531822785
7.896,0.006453996275345041
7.9,0.006451472018337888
7.904,0.006448322707214678
7.908,0.006453683748287012
7.912,0.006458107208185261
7.916,0.006454597288918173
7.92,0.006451544139966664
7.924,0.0064343551517750995
7.928,0.006417358487926938
7.932,0.006423080137143151
7.936,0.006432720394856182
7.94,0.006438706490044572
7.944,0.006440966301079547
7.948,0.006440966301079547
7.952,0.006439163260360152
7.956,0.006442480855283839
7.96,0.0064423606525692125
7.964,0.0064469523962679375
7.968,0.006449260288388763
7.972,0.00644719280169719
7.976,0.0064441877338315325
7.98,0.00644668795029576
7.984,0.006451664342681291
7.988,0.006444692585232963
7.992,0.006446303301608955
7.996,0.006446904315182087
8.0,0.006439163260360152
8.004,0.006428296934957933
8.008000000000001,0.006430676948707534
8.012,0.006448587153186856
8.016,0.006457385991897503
8.02,0.0064460869367226285
8.024000000000001,0.006433056962457135
8.028,0.006428345016043784
8.032,0.006437480422355384
8.036,0.006442721260713091
8.040000000000001,0.006445654206949973
8.044,0.006449308369474613
8.048,0.006452986572542179
8.052,0.006455703153892735
8.056000000000001,0.006457025383753624
8.06,0.0064502219101057745
8.064,0.00645075080205013
8.068,0.006453539505029461
8.072000000000001,0.006456400329637567
8.076,0.0064484669504722295
8.08,0.006441447111938052
8.084,0.006440966301079547
8.088000000000001,0.006436158192494494
8.092,0.006432888678656659
8.096,0.006431542408252844
8.1,0.006438562246787021
8.104000000000001,0.0064449810717480665
8.108,0.006449308369474613
8.112,0.006448154423414201
8.116,0.006446591788124059
8.120000000000001,0.006445485923149497
8.124,0.006439716192847433
8.128,0.00644216832822581
8.132,0.006453587586115311
8.136000000000001,0.006463732695229773
8.14,0.006457001343210699
8.144,0.0064475053287552184
8.148,0.006455438707920556
8.152000000000001,0.006472507493397494
8.156,0.006464285627717054
8.16,0.00644435601763201
8.164,0.006424186002117713
8.168000000000001,0.006421781947825187
8.172,0.006433706057116117
8.176,0.006438610327872871
8.18,0.006438033354842665
8.184000000000001,0.0064311096784801895
8.188,0.006432383827255228
8.192,0.006436302435752046
8.196,0.006436831327696402
8.2,0.006436566881724224
8.204,0.006442144287682885
8.208,0.006449524734360941
8.212,0.006456905181038998
8.216,0.006457482154069204
8.22,0.006461112276050919
8.224,0.006461304600394321
8.228,0.00645892458664472
8.232,0.006454837694347425
8.236,0.006457410032440428
8.24,0.006455438707920556
8.244,0.00646070358682119
8.248,0.006460415100306086
8.252,0.006456111843122464
8.256,0.006449452612732165
8.26,0.006441038422708323
8.264,0.006444163693288607
8.268,0.006447577450383994
8.272,0.0064479140179849485
8.276,0.006446784112467461
8.28,0.006444764706861739
8.284,0.006448947761330735
8.288,0.00644861119372978
8.292,0.0064471206800684145
8.296,0.006446327342151881
8.3,0.006446159058351404
8.304,0.00644582249075045
8.308,0.006446495625952358
8.312,0.006446303301608955
8.316,0.006443009747228195
8.32,0.006450606558792578
8.324,0.006466930087438832
8.328,0.006478830156186837
8.332,0.00646531937106284
8.336,0.0064510152480223085
8.34,0.006448370788300528
8.344,0.0064595015596749265
8.348,0.00646577614137842
8.352,0.006458251451442813
8.356,0.0064439473284022795
8.36,0.006445413801520721
8.364,0.006450318072277476
8.368,0.006448539072101005
8.372,0.00644618309889433
8.376,0.006441976003882409
8.38,0.006444572382518336
8.384,0.006447048558439639
8.388,0.006449164126217062
8.392,0.006453972234802116
8.396,0.006461593086909424
8.4,0.006467002209067608
8.404,0.00646714645232516
8.408,0.006460631465192414
8.412,0.0064592611542456735
8.416,0.006462362384283033
8.42,0.006457626397326756
8.424,0.006448995842416585
8.428,0.006451135450736935
8.432,0.006451159491279859
8.436,0.006452097072453945
8.44,0.006450534437163803
8.444,0.006444115612202757
8.448,0.006439331544160629
8.452,0.0064445002608895605
8.456,0.0064495728154467915
8.46,0.006449043923502436
8.464,0.0064514960588808136
8.468,0.006450173829019924
8.472,0.006448010180156649
8.476,0.006446904315182087
8.48,0.006446207139437254
8.484,0.006447697653098621
8.488,0.006447409166583517
8.492,0.006445702288035824
8.496,0.006451183531822785
8.5,0.006461136316593844
8.504,0.006463011478942015
8.508000000000001,0.00645440496457477
8.512,0.006445149355548543
8.516,0.006434787881547754
8.52,0.0064415673146526785
8.524000000000001,0.0064471206800684145
8.528,0.006447986139613724
8.532,0.00643983639556206
8.536,0.006438345881900694
8.540000000000001,0.006436879408782252
8.544,0.006438466084615319
8.548,0.006443923287859354
8.552,0.006443779044601803
8.556000000000001,0.006442817422884792
8.56,0.006453251018514358
8.564,0.006456784978324371
8.568,0.006448587153186856
8.572000000000001,0.006438369922443619
8.576,0.006438778611673348
8.58,0.006437023652039804
8.584,0.006434114746345847
8.588000000000001,0.006437865071042188
8.592,0.006441471152480977
8.596,0.006451255653451561
8.6,0.006450366153363326
8.604000000000001,0.006443514598629625
8.608,0.006440629733478594
8.612,0.006447481288212293
8.616,0.006453515464486536
8.620000000000001,0.006454549207832322
8.624,0.006446928355725012
8.628,0.006448298666671752
8.632,0.006451712423767141
8.636000000000001,0.006453827991544564
8.64,0.006455318505205931
8.644,0.006450895045307682
8.648,0.006445221477177319
8.652000000000001,0.006457770640584307
8.656,0.006459189032616898
8.66,0.006449933423590672
8.664,0.006444428139260785
8.668000000000001,0.006444836828490515
8.672,0.006450318072277476
8.676,0.006452986572542179
8.68,0.006439331544160629
8.684000000000001,0.006426734299667791
8.688,0.00643024421893488
8.692,0.0064320713001972
8.696,0.006436134151951569
8.700000000000001,0.0064482265450429765
8.704,0.0064533952617719095
8.708,0.006450101707391148
8.712,0.006450582518249653
8.716,0.006450606558792578
8.72,0.006453996275345041
8.724,0.006461809451795752
8.728,0.006465944425178897
8.732,0.006455679113349809
8.736,0.006439571949589882
8.74,0.00643800931429974
8.744,0.006446519666495283
8.748,0.006452866369827554
8.752,0.00645303465362803
8.756,0.006447168761154265
8.76,0.006446447544866507
8.764,0.006441519233566828
8.768,0.006440245084791789
8.772,0.006446784112467461
8.776,0.006447553409841069
8.78,0.006449067964045361
8.784,0.0064491881667599876
8.788,0.0064497410992472685
8.792,0.0064556069917210334
8.796,0.006454525167289397
8.8,0.006456712856695595
8.804,0.006460631465192414
8.808,0.006463227843828342
8.812,0.006463372087085893
8.816,0.006467939790241694
8.82,0.0064595015596749265
8.824,0.006443202071571596
8.828,0.006431518367709919
8.832,0.006437312138554907
8.836,0.0064456061258641225
8.84,0.006441471152480977
8.844,0.006438153557557291
8.848,0.006437504462898309
8.852,0.006439668111761583
8.856,0.006441543274109753
8.86,0.006448322707214678
8.864,0.006446976436810863
8.868,0.006447529369298144
8.872,0.006447745734184471
8.876,0.006449668977618493
8.88,0.0064465677475811336
8.884,0.006446375423237731
8.888,0.00644942857218924
8.892,0.0064502219101057745
8.896,0.006457962964927709
8.9,0.006472291128511166
8.904,0.0064728921420842975
8.908,0.006446663909752835
8.912,0.006420291434163821
8.916,0.006416757474353807
8.92,0.006418127785300547
8.924,0.006428994110702766
8.928,0.0064349080842623805
8.932,0.006440317206420565
8.936,0.006440028719905462
8.94,0.006442288530940437
8.944,0.006448130382871275
8.948,0.006452866369827554
8.952,0.006456159924208314
8.956,0.006462554708626435
8.96,0.006460222775962684
8.964,0.0064609199517075165
8.968,0.0064662329116939995
8.972,0.0064710650608219775
8.976,0.006467723425355366
8.98,0.00646947838498891
8.984,0.006453755869915788
8.988,0.006435509097835512
8.992,0.0064373602196407574
8.996,0.0064526019238553755
9.0,0.006462674911341061
9.004,0.006457025383753624
9.008000000000001,0.006437889111585113
9.012,0.00643988447664791
9.016,0.006439355584703555
9.02,0.0064379131521280384
9.024000000000001,0.006440990341622472
9.028,0.00644079801727907
9.032,0.006441735598453156
9.036,0.006440365287506415
9.040000000000001,0.006436855368239327
9.044,0.006436086070865718
9.048,0.00644861119372978
9.052,0.0064678195875270674
9.056000000000001,0.006471930520367287
9.06,0.006475200034205123
9.064,0.006479719656275073
9.068,0.006480152386047727
9.072000000000001,0.0064747913449753934
9.076,0.006464237546631203
9.08,0.006457794681127232
9.084,0.006452097072453945
9.088000000000001,0.006451375856166187
9.092,0.0064566407350668195
9.096,0.0064550540592337525
9.1,0.0064550540592337525
9.104000000000001,0.006448899680244884
9.108,0.006443803085144728
9.112,0.006448130382871275
9.116,0.006452193234625646
9.120000000000001,0.006453323140143134
9.124,0.006452217275168572
9.128,0.006451952829196393
9.132,0.006458612059586691
9.136000000000001,0.006468733128158227
9.14,0.0064744066962885895
9.144,0.006467362817211488
9.148,0.00645572719443566
9.152000000000001,0.006440076800991313
9.156,0.0064373602196407574
9.16,0.00644216832822581
9.164,0.006429811489162225
9.168000000000001,0.006423056096600226
9.172,0.006431061597394339
9.176,0.006431830894767947
9.18,0.006437167895297356
9.184000000000001,0.006440437409135191
9.188,0.006443178031028672
9.192,0.006446711990838685
9.196,0.006448659274815631
9.200000000000001,0.006447986139613724
9.204,0.006448274626128827
9.208,0.006447793815270322
9.212,0.006450871004764757
9.216000000000001,0.0064521211129968704
9.22,0.006450606558792578
9.224,0.006451231612908635
9.228,0.006459405397503225
9.232,0.006457722559498457
9.236,0.006443682882430102
9.24,0.00643211938128305
9.244,0.006433826259830744
9.248,0.006442192368768735
9.252,0.006440918219993696
9.256,0.006436398597923747
9.26,0.006431494327166993
9.264,0.006432263624540602
9.268,0.006435364854577961
9.272,0.006446038855636778
9.276,0.006454068396973817
9.28,0.006452457680597824
9.284,0.006443057828314045
9.288,0.0064383939629865435
9.292,0.006446615828666984
9.296,0.006455462748463482
9.3,0.006460847830078741
9.304,0.006461040154422143
9.308,0.006446663909752835
9.312,0.006435124449148708
9.316,0.00643526869240626
9.32,0.006443202071571596
9.324,0.006444812787947589
9.328,0.00644252893636969
9.332,0.006441927922796558
9.336,0.006443779044601803
9.34,0.006442504895826764
9.344,0.006449067964045361
9.348,0.0064533952617719095
9.352,0.00644897180187366
9.356,0.006441326909223426
9.36,0.006440413368592266
9.364,0.006452097072453945
9.368,0.0064678195875270674
9.372,0.006468757168701152
9.376,0.006454044356430892
9.38,0.0064378410304992625
9.384,0.0064399806388196115
9.388,0.00644714472061134
9.392,0.006449236247845837
9.396,0.006450871004764757
9.4,0.006462362384283033
9.404,0.006476378020808461
9.408,0.006463011478942015
9.412,0.006433657976030267
9.416,0.006421709826196411
9.42,0.006431878975853797
9.424,0.006437744868327562
9.428,0.006443370355372073
9.432,0.00644668795029576
9.436,0.006452650004941226
9.44,0.006458588019043766
9.444,0.006458395694700364
9.448,0.006460030451619282
9.452,0.006462554708626435
9.456,0.006468564844357751
9.46,0.006466377154951551
9.464,0.0064549819376049766
9.468,0.00644947665327509
9.472,0.006439932557733761
9.476,0.006436518800638374
9.48,0.006435629300550139
9.484,0.006439355584703555
9.488,0.006447625531469845
9.492,0.006453876072630415
9.496,0.006456953262124848
9.5,0.006455005978147902
9.504,0.00645390011317334
9.508000000000001,0.006459669843475403
9.512,0.006462362384283033
9.516,0.0064531548563426565
9.52,0.00645111141019401
9.524000000000001,0.006467050290153459
9.528,0.0064744788179173654
9.532,0.006464766438575559
9.536,0.006456304167465866
9.540000000000001,0.00645207303191102
9.544,0.0064441877338315325
9.548,0.006440221044248864
9.552,0.006445894612379226
9.556000000000001,0.006459068829902271
9.56,0.006466906046895907
9.564,0.006458323573071589
9.568,0.006436759206067626
9.572000000000001,0.006436855368239327
9.576,0.006442601057998465
9.58,0.006448731396444407
9.584,0.006452746167112927
9.588000000000001,0.006455462748463482
9.592,0.006455871437693212
9.596,0.006459285194788599
9.6,0.0064571936675541005
9.604000000000001,0.006452650004941226
9.608,0.006460727627364115
9.612,0.0064638528979443985
9.616,0.00646034297867731
9.620000000000001,0.006459525600217852
9.624,0.006455895478236137
9.628,0.006444139652745682
9.632,0.0064330810030000605
9.636000000000001,0.006427551678127251
9.64,0.006440269125334714
9.644,0.0064456061258641225
9.648,0.006441687517367305
9.652000000000001,0.006438273760271918
9.656,0.006442649139084315
9.66,0.0064502219101057745
9.664,0.006453827991544564
9.668000000000001,0.0064560878025795385
9.672,0.006464742398032634
9.676,0.006470175560733743
9.68,0.006481546737537393
9.684000000000001,0.006489816684303683
9.688,0.006485970197435641
9.692,0.00647902248053024
9.696,0.006479455210302894
9.700000000000001,0.006476041453207507
9.704,0.0064618815734245275
9.708,0.006460847830078741
9.712,0.006452818288741703
9.716000000000001,0.006451375856166187
9.72,0.006452674045484151
9.724,0.006451928788653468
9.728,0.006455703153892735
9.732,0.006457241748639951
9.736,0.006460559343563638
9.74,0.006461136316593844
9.744,0.006460006411076357
9.748,0.006462963397856164
9.752,0.006460102573248058
9.756,0.006466256952236925
9.76,0.0064784455075000335
9.764,0.006480272588762354
9.768,0.006461593086909424
9.772,0.006439932557733761
9.776,0.006436759206067626
9.78,0.006441759638996081
9.784,0.0064593813569603
9.788,0.0064803447103911295
9.792,0.006485273021690809
9.796,0.006482147751110524
9.8,0.00647902248053024
9.804,0.006473228709685252
9.808,0.006464526033146306
9.812,0.006454597288918173
9.816,0.006453275059057283
9.82,0.006457145586468251
9.824,0.006457506194612129
9.828,0.006460992073336292
9.832,0.006465896344093046
9.836,0.006466088668436449
9.84,0.006465728060292569
9.844,0.006464477952060455
9.848,0.0064609199517075165
9.852,0.006457289829725802
9.856,0.006453226977971432
9.86,0.006453419302314835
9.864,0.006450726761507205
9.868,0.006444163693288607
9.872,0.006447793815270322
9.876,0.006454140518602593
9.88,0.006456039721493688
9.884,0.006453803951001639
9.888,0.0064539481942591905
9.892,0.006455943559321988
9.896,0.006456472451266343
9.9,0.006461593086909424
9.904,0.006469165857930882
9.908,0.006463876938487324
9.912,0.006456520532352194
9.916,0.006466208871151074
9.92,0.006471666074395109
9.924,0.006463324006000043
9.928,0.006452986572542179
9.932,0.006455342545748856
9.936,0.006453635667201162
9.94,0.0064440194500310554
9.944,0.006439331544160629
9.948,0.006440942260536622
9.952,0.006448995842416585
9.956,0.00645293849145633
9.96,0.006456472451266343
9.964,0.006457746600041382
9.968,0.006460631465192414
9.972,0.006463059560027865
9.976,0.006459549640760777
9.98,0.006459790046190029
9.984,0.006469165857930882
9.988,0.006480777440163784
9.992,0.006484191197259172
9.996,0.006474310534116888
10.0,0.00645618396475124
10.004,0.0064447406663188135
10.008000000000001,0.006436302435752046
10.012,0.006438826692759199
10.016,0.00645293849145633
10.02,0.006462915316770314
10.024000000000001,0.006461496924737723
10.028,0.0064518085859388416
10.032,0.006458203370356962
10.036,0.006460463181391937
10.040000000000001,0.00645618396475124
10.044,0.006454597288918173
10.048,0.0064581552892711116
10.052,0.006462218141025481
10.056000000000001,0.00646217005993963
10.06,0.00646988707421864
10.064,0.00648765303544041
10.068,0.006488638697700345
10.072000000000001,0.006479359048131194
10.076,0.006462362384283033
10.08,0.006445413801520721
10.084,0.006442000044425333
10.088000000000001,0.006447986139613724
10.092,0.006457289829725802
10.096,0.006466016546807673
10.1,0.006468492722728975
10.104000000000001,0.006464958762918961
10.108,0.006453251018514358
10.112,0.0064510152480223085
10.116,0.006460415100306086
10.120000000000001,0.006464429870974605
10.124,0.006463828857401473
10.128,0.006461424803108947
10.132,0.0064646462358609325
10.136000000000001,0.0064775800479547245
10.14,0.006481666940252019
10.144,0.006470103439104967
10.148,0.006467314736125637
10.152000000000001,0.006481258251022289
10.156,0.006483566143143115
10.16,0.0064723392095970165
10.164,0.006459693884018328
10.168000000000001,0.006448490991015155
10.172,0.0064372880980119816
10.176,0.006441495193023903
10.18,0.006447096639525489
10.184000000000001,0.0064571215459253255
10.188,0.00646668968200958
10.192,0.006468949493044555
10.196,0.006463203803285416
10.200000000000001,0.0064616411679952745
10.204,0.006464766438575559
10.208,0.006467699384812441
10.212,0.006474815385518319
10.216000000000001,0.006486042319064416
10.22,0.006498471279756778
10.224,0.006480609156363307
10.228,0.006460270857048534
10.232000000000001,0.00645161626159544
10.236,0.006454549207832322
10.24,0.00646349228980052
10.244,0.006468204236213871
10.248,0.006474526899003216
10.252,0.0064728921420842975
10.256,0.0064670262496105335
10.26,0.006461569046366499
10.264,0.006456784978324371
10.268,0.006461424803108947
10.272,0.006466016546807673
10.276,0.006467362817211488
10.28,0.006466593519837879
10.284,0.006463203803285416
10.288,0.006465487654863317
10.292,0.006470488087791771
10.296,0.006478974399444389
10.3,0.006482868967398282
10.304,0.0064803447103911295
10.308,0.006474214371945187
10.312,0.00648354210260019
10.316,0.006483494021514339
10.32,0.006470728493221024
10.324,0.0064686129254436005
10.328,0.006468252317299722
10.332,0.006475151953119273
10.336,0.006462867235684463
10.34,0.006446519666495283
10.344,0.006445101274462692
10.348,0.006447457247669368
10.352,0.006452169194082721
10.356,0.0064579870054706345
10.36,0.006459910248904656
10.364,0.006462097938310854
10.368,0.006467843628069993
10.372,0.006473252750228177
10.376,0.00647628185863676
10.38,0.00646262683025521
10.384,0.006456159924208314
10.388,0.006464526033146306
10.392,0.006465992506264747
10.396,0.006471497790594633
10.4,0.006472675777197971
10.404,0.006473276790771102
10.408,0.006465487654863317
10.412,0.006461761370709901
10.416,0.006466256952236925
10.42,0.00646212197885378
10.424,0.006460246816505609
10.428,0.0064651270467194375
10.432,0.006466449276580327
10.436,0.006467050290153459
10.44,0.006464694316946783
10.444,0.006469045655216256
10.448,0.006477387723611322
10.452,0.006488374251728168
10.456,0.006480224507676503
10.46,0.006469766871504014
10.464,0.0064661607900652245
10.468,0.006470103439104967
10.472,0.006482556440340253
10.476,0.006493374684656622
10.48,0.0064835180620572645
10.484,0.006456472451266343
10.488,0.00644536572043487
10.492,0.006448442909929304
10.496,0.006460487221934862
10.5,0.006462073897767929
10.504,0.006472363250139942
10.508000000000001,0.006475680845063629
10.512,0.0064773396425254716
10.516,0.006474550939546141
10.52,0.006477940656098603
10.524000000000001,0.006479286926502418
10.528,0.006480633196906232
10.532,0.00647724348035377
10.536,0.00647806085881323
10.540000000000001,0.006482604521426104
10.544,0.006483902710744068
10.548,0.006483109372827534
10.552,0.006482700683597805
10.556000000000001,0.006481138048307663
10.56,0.006481282291565214
10.564,0.006485321102776659
10.568,0.006491739927737704
10.572000000000001,0.00648948011670273
10.576,0.0064801043049618765
10.58,0.006471930520367287
10.584,0.006469117776845032
10.588000000000001,0.006469262020102583
10.592,0.006470776574306875
10.596,0.006470560209420547
10.6,0.006471810317652661
10.604000000000001,0.006467170492868085
10.608,0.0064656799792067185
10.612,0.006468011911870469
10.616,0.006473012344798924
10.620000000000001,0.0064878694003267364
10.624,0.006491331238507975
10.628,0.006483566143143115
10.632,0.006470079398562042
10.636000000000001,0.006471666074395109
10.64,0.006477099237096219
10.644,0.006480633196906232
10.648,0.006476642466780639
10.652000000000001,0.006470656371592248
10.656,0.006460415100306086
10.66,0.006453347180686059
10.664,0.006454284761860144
10.668000000000001,0.0064651270467194375
10.672,0.0064683003983855725
10.676,0.006468372520014348
10.68,0.006465968465721822
10.684000000000001,0.006472267087968241
10.688,0.006480200467133578
10.692,0.0064805851158203824
10.696,0.006473661439457906
10.700000000000001,0.006465487654863317
10.704,0.006467002209067608
10.708,0.006461520965280648
10.712,0.006456280126922941
10.716000000000001,0.00645897266773057
10.72,0.0064678195875270674
10.724,0.006483806548572367
10.728,0.00648587403526394
10.732000000000001,0.00647673862895234
10.736,0.006466930087438832
10.74,0.006462410465368883
10.744,0.006457145586468251
10.748000000000001,0.006454212640231368
10.752,0.006452313437340273
10.756,0.006455414667377631
10.76,0.006463372087085893
10.764,0.006467963830784619
10.768,0.006465968465721822
10.772,0.006464189465545353
10.776,0.006468661006529451
10.78,0.006474214371945187
10.784,0.006470536168877622
10.788,0.006469237979559657
10.792,0.006471906479824362
10.796,0.006473661439457906
10.8,0.006473348912399878
10.804,0.006479671575189222
10.808,0.006478012777727379
10.812,0.006481258251022289
10.816,0.006486066359607342
10.82,0.006482195832196375
10.824,0.00646668968200958
10.828,0.0064579870054706345
10.832,0.006465295330519915
10.836,0.006462458546454734
10.84,0.0064568811404960725
10.844,0.0064656799792067185
10.848,0.006472820020455522
10.852,0.006472747898826747
10.856,0.006469213939016732
10.86,0.006463372087085893
10.864,0.006461016113879218
10.868,0.006465006844004811
10.872,0.006469814952589864
10.876,0.006468348479471423
10.88,0.00647176223656681
10.884,0.006480873602335485
10.888,0.006482917048484133
10.892,0.006482267953825151
10.896,0.006470824655392725
10.9,0.006467555141554889
10.904,0.006472507493397494
10.908,0.006476546304608938
10.912,0.006470247682362519
10.916,0.006461496924737723
10.92,0.006458491856872065
10.924,0.00646486260074726
10.928,0.006467939790241694
10.932,0.006468757168701152
10.936,0.006468805249787003
10.94,0.006471666074395109
10.944,0.0064805129941916065
10.948,0.006483494021514339
10.952,0.0064776521695834996
10.956,0.00646075166790704
10.96,0.006465030884547736
10.964,0.0064803447103911295
10.968,0.006476353980265536
10.972,0.006471209304079529
10.976,0.006473228709685252
10.98,0.006475031750404646
10.984,0.006474767304432468
10.988,0.006476810750581116
10.992,0.006479190764330717
10.996,0.0064738537638013086
11.0,0.006470944858107352
11.004,0.006473613358372056
11.008000000000001,0.006471401628422932
11.012,0.006470968898650277
11.016,0.006471666074395109
11.02,0.006467290695582712
11.024000000000001,0.006464934722376036
11.028,0.006468204236213871
11.032,0.0064680599929563196
11.036,0.006468372520014348
11.040000000000001,0.006463973100659025
11.044,0.006464213506088278
11.048,0.006467915749698769
11.052,0.006468805249787003
11.056000000000001,0.006474935588232945
11.06,0.006487076062410203
11.064,0.006491691846651854
11.068,0.006487100102953129
11.072000000000001,0.00647491154769002
11.076,0.006467362817211488
11.08,0.006462506627540584
11.084,0.006458443775786214
11.088000000000001,0.00646075166790704
11.092,0.0064609199517075165
11.096,0.006455438707920556
11.1,0.006454188599688443
11.104000000000001,0.006462097938310854
11.108,0.006467170492868085
11.112,0.006473469115114504
11.116,0.006477844493926902
11.120000000000001,0.006478325304785407
11.124,0.0064717862771097355
11.128,0.006474334574659814
11.132,0.006481234210479364
11.136000000000001,0.006492845792712266
11.14,0.006494744995603362
11.144,0.006480488953648681
11.148,0.006478541669671735
11.152000000000001,0.006482051588938823
11.156,0.006490730224934843
11.16,0.0064923169007679105
11.164,0.006478421466957108
11.168000000000001,0.006463396127628819
11.172,0.006456520532352194
11.176,0.006473180628599401
11.18,0.006482340075453927
11.184000000000001,0.0064816188591661685
11.188,0.0064716179933092585
11.192,0.0064609199517075165
11.196,0.006464718357489708
11.200000000000001,0.006465295330519915
11.204,0.0064662329116939995
11.208,0.006467242614496861
11.212,0.006469213939016732
11.216000000000001,0.006468901411958704
11.22,0.006471161222993679
11.224,0.0064856576703776125
11.228,0.006501163820564407
11.232000000000001,0.00650638061837919
11.236,0.006510900240449139
11.24,0.006517751795182839
11.244,0.00651013094307553
11.248000000000001,0.0064853451433195845
11.252,0.006473901844887159
11.256,0.006477459845240098
11.26,0.006473877804344234
11.264,0.00645851589741499
11.268,0.006450654639878429
11.272,0.006463468249257595
11.276,0.006476257818093835
11.28,0.00648359018368604
11.284,0.006480921683421336
11.288,0.006479310967045343
11.292,0.006482340075453927
11.296,0.006481642899709094
11.3,0.006482243913282225
11.304,0.00648536918386251
11.308,0.006490610022220217
11.312,0.006496499955236906
11.316,0.006490874468192394
11.32,0.006484167156716247
11.324,0.006471930520367287
11.328,0.006470271722905444
11.332,0.006474430736831515
11.336,0.006478012777727379
11.34,0.006485729792006388
11.344,0.006485200900062033
11.348,0.00647907056161609
11.352,0.006471930520367287
11.356,0.006470848695935651
11.36,0.006464285627717054
11.364,0.0064690937363021065
11.368,0.006473613358372056
11.372,0.00647404608814471
11.376,0.00647445477737444
11.38,0.006474358615202739
11.384,0.006475248115290973
11.388,0.0064768588316669665
11.392,0.006476570345151863
11.396,0.006477507926325949
11.4,0.006482123710567599
11.404,0.0064920043737098825
11.408,0.006487773238155036
11.412,0.006474262453031038
11.416,0.006464622195318007
11.42,0.006463107641113716
11.424,0.006458563978500841
11.428,0.006461040154422143
11.432,0.006468204236213871
11.436,0.006466857965810056
11.44,0.006470848695935651
11.444,0.006473901844887159
11.448,0.006478661872386361
11.452,0.006484720089203528
11.456,0.006483229575542161
11.46,0.0064725796150262695
11.464,0.006463612492515146
11.468,0.006470968898650277
11.472,0.006490826387106544
11.476,0.006490922549278245
11.48,0.0064680599929563196
11.484,0.006459357316417375
11.488,0.006466930087438832
11.492,0.0064707525337639495
11.496,0.0064703678850771456
11.5,0.006471545871680483
11.504,0.006465728060292569
11.508000000000001,0.006468324438928498
11.512,0.006469310101188433
11.516,0.006478373385871258
11.52,0.006483710386400666
11.524000000000001,0.006478493588585884
11.528,0.006464165425002427
11.532,0.006471281425708305
11.536,0.006479166723787792
11.540000000000001,0.006483806548572367
11.544,0.006487845359783811
11.548,0.006487580913811634
11.552,0.00648536918386251
11.556000000000001,0.006476642466780639
11.56,0.006479310967045343
11.564,0.006484936454089854
11.568,0.0064792388454165675
11.572000000000001,0.006472988304255999
11.576,0.006474382655745664
11.58,0.00647806085881323
11.584,0.006482436237625627
11.588000000000001,0.006481883305138346
11.592,0.00647810893989908
11.596,0.00648039279147698
11.6,0.0064816188591661685
11.604000000000001,0.006479142683244866
11.608,0.006468180195670946
11.612,0.006459525600217852
11.616,0.006464958762918961
11.620000000000001,0.0064685408038148255
11.624,0.006471666074395109
11.628,0.006472940223170148
11.632,0.006472435371768718
11.636000000000001,0.00647623377755091
11.64,0.006477940656098603
11.644,0.006479335007588269
11.648,0.006483926751286994
11.652000000000001,0.006490561941134366
11.656,0.006490585981677292
11.66,0.0064848643324610785
11.664,0.006495610455148672
11.668000000000001,0.006502341807167745
11.672,0.006497942387812422
11.676,0.006472074763624839
11.68,0.0064617132896240504
11.684000000000001,0.006459766005647104
11.688,0.0064656799792067185
11.692,0.006473012344798924
11.696,0.0064744788179173654
11.700000000000001,0.00647587316940703
11.704,0.006473781642172533
11.708,0.006474815385518319
11.712,0.006482556440340253
11.716000000000001,0.006483734426943591
11.72,0.006480537034734532
11.724,0.006481041886135962
11.728,0.006485849994721015
11.732000000000001,0.006483734426943591
11.736,0.0064813784537369155
11.74,0.006484455643231349
11.744,0.006494576711802885
11.748000000000001,0.006497557739125618
11.752,0.006487893440869662
11.756,0.006481883305138346
11.76,0.006476786710038191
11.764000000000001,0.006470055358019117
11.768,0.006468805249787003
11.772,0.006470872736478576
11.776,0.0064731325475135505
11.78,0.006475224074748048
11.784,0.006481258251022289
11.788,0.006485441305491285
11.792,0.006481787142966646
11.796,0.006474334574659814
11.8,0.006478541669671735
11.804,0.0064896964815890565
11.808,0.0064913552790509
11.812,0.0064867875758951
11.816,0.006486595251551698
11.82,0.006485273021690809
11.824,0.006485393224405435
11.828,0.006474214371945187
11.832,0.0064805129941916065
11.836,0.0064946969145175115
11.84,0.00649642783360813
11.844,0.006480224507676503
11.848,0.0064609199517075165
11.852,0.006462602789712285
11.856,0.006467531101011964
11.86,0.006475945291035806
11.864,0.006480921683421336
11.868,0.006482027548395898
11.872,0.006486475048837072
11.876,0.006488855062586673
11.88,0.00648683565698095
11.884,0.0064862106028648935
11.888,0.0064899368870183095
11.892,0.006496860563380785
11.896,0.006496668239037383
11.9,0.006494913279403839
11.904,0.006498134712155824
11.908,0.006495177725376017
11.912,0.006497966428355348
11.916,0.006489648400503206
11.92,0.006483686345857741
11.924,0.006474190331402262
11.928,0.006469382222817209
11.932,0.0064686129254436005
11.936,0.006475440439634376
11.94,0.0064936631711717254
11.944,0.006510323267418933
11.948,0.0065027024153116245
11.952,0.006492461144025462
11.956,0.006492581346740089
11.96,0.006491956292624032
11.964,0.0064888310220437475
11.968,0.006483566143143115
11.972,0.006485729792006388
11.976,0.006491283157422124
11.98,0.006490369616790964
11.984,0.006488013643584288
11.988,0.006486258683950744
11.992,0.006484912413546929
11.996,0.00648911950855885
12.0,0.0064926294278259385
12.004,0.006493350644113697
12.008000000000001,0.006488855062586673
12.012,0.006487797278697961
12.016,0.006492172657510359
12.02,0.006498447239213853
12.024000000000001,0.006493470846828323
12.028,0.00648948011670273
12.032,0.006490730224934843
12.036,0.0064912110357933485
12.040000000000001,0.006488686778786196
12.044,0.00649181204936648
12.048,0.006491427400679675
12.052,0.006483229575542161
12.056000000000001,0.006486042319064416
12.06,0.006492533265654238
12.064,0.0065027024153116245
12.068,0.006497846225640721
12.072000000000001,0.006489167589644701
12.076,0.006492292860224985
12.08,0.006490153251904637
12.084,0.006489960927561235
12.088000000000001,0.006491836089909405
12.092,0.006492533265654238
12.096,0.006491114873621647
12.1,0.006491090833078722
12.104000000000001,0.0064904176978768146
12.108,0.006491451441222601
12.112,0.006491259116879199
12.116,0.006494889238860914
12.120000000000001,0.006496019144378401
12.124,0.006491884170995256
12.128,0.006489792643760758
12.132,0.006491090833078722
12.136000000000001,0.0064909706303640955
12.14,0.006488734859872046
12.144,0.006490922549278245
12.148,0.0065048420236319725
12.152000000000001,0.00650820769964151
12.156,0.006493206400856146
12.16,0.006473733561086682
12.164,0.006468180195670946
12.168000000000001,0.0064699591958474155
12.172,0.006473108506970625
12.176,0.006477628129040574
12.18,0.006481739061880795
12.184000000000001,0.006485753832549314
12.188,0.006489960927561235
12.192,0.006494648833431661
12.196,0.006501428266536585
12.200000000000001,0.006496091266007177
12.204,0.006486907778609726
12.208,0.006481522696994467
12.212,0.00648359018368604
12.216000000000001,0.006495177725376017
12.22,0.0064949373199467645
12.224,0.006487628994897484
12.228,0.006480681277992083
12.232000000000001,0.0064757529666924045
12.236,0.006471954560910213
12.24,0.006477507926325949
12.244,0.006483325737713862
12.248000000000001,0.006492893873798117
12.252,0.006499216536587461
12.256,0.006493206400856146
12.26,0.0064856576703776125
12.264000000000001,0.006482243913282225
12.268,0.006482868967398282
12.272,0.006490850427649469
12.276,0.006493470846828323
12.280000000000001,0.006495177725376017
12.284,0.006495273887547718
12.288,0.006495898941663775
12.292,0.006499673306903041
12.296,0.006502029280109717
12.3,0.006495370049719419
12.304,0.0064799600617043256
12.308,0.00647947925084582
12.312,0.006481017845593037
12.316,0.006492028414252807
12.32,0.006497677941840244
12.324,0.006493783373886352
12.328,0.006480969764507186
12.332,0.006474190331402262
12.336,0.006477483885783023
12.34,0.0064805129941916065
12.344,0.00648363826477189
12.348,0.0064858980758068655
12.352,0.006485273021690809
12.356,0.006489792643760758
12.36,0.006496572076865682
12.364,0.00649637975252228
12.368,0.006492292860224985
12.372,0.006486547170465848
12.376,0.006487845359783811
12.38,0.006498687644643105
12.384,0.006509025078100968
12.388,0.006506933550866471
12.392,0.006488975265301299
12.396,0.0064781329804420055
12.4,0.0064778925750127525
12.404,0.006480296629305279
12.408,0.0064835180620572645
12.412,0.006487604954354559
12.416,0.006487027981324353
12.42,0.006488446373356943
12.424,0.006491619725023078
12.428,0.006494624792888736
12.432,0.006497894306726572
12.436,0.0064949373199467645
12.44,0.006494336306373633
12.444,0.006492701549454714
12.448,0.006490297495162188
12.452,0.006489359913988103
12.456,0.006481162088850589
12.46,0.006476041453207507
12.464,0.006492461144025462
12.468,0.006503423631599382
12.472,0.006504625658745645
12.476,0.006492485184568388
12.48,0.006476474182980162
12.484,0.006471113141907828
12.488,0.006479262885959493
12.492,0.006481089967221813
12.496,0.006472747898826747
12.5,0.006465030884547736
12.504,0.006467723425355366
12.508000000000001,0.006471810317652661
12.512,0.006476185696465059
12.516,0.006480272588762354
12.52,0.006483325737713862
12.524000000000001,0.006489407995073954
12.528,0.0064967644012090845
12.532,0.006496572076865682
12.536,0.0064920043737098825
12.540000000000001,0.006498759766271881
12.544,0.006493927617143903
12.548,0.006484720089203528
12.552,0.00648130633210814
12.556000000000001,0.006475248115290973
12.56,0.006477868534469827
12.564,0.006481330372651065
12.568,0.006483686345857741
12.572000000000001,0.006483109372827534
12.576,0.006488254049013541
12.58,0.00649272558999764
12.584,0.006489888805932459
12.588000000000001,0.0064906581033060675
12.592,0.006492581346740089
12.596,0.006500779171877603
12.6,0.006509001037558043
12.604000000000001,0.006514289957001601
12.608,0.006518785538528625
12.612,0.006501187861107332
12.616,0.0064824843187114775
12.620000000000001,0.006474430736831515
12.624,0.006480681277992083
12.628,0.006478637831843436
12.632,0.006473180628599401
12.636000000000001,0.0064795513724745955
12.64,0.00647719539926792
12.644,0.006464526033146306
12.648,0.006461304600394321
12.652000000000001,0.00647262769611212
12.656,0.006491691846651854
12.66,0.0065040486857154385
12.664,0.006509073159186819
12.668000000000001,0.006512150348681253
12.672,0.006511092564792541
12.676,0.0065130879298553376
12.68,0.006509722253845801
12.684000000000001,0.006510371348504783
12.688,0.006506212334578713
12.692,0.006492124576424508
12.696,0.0064848643324610785
12.700000000000001,0.006487076062410203
12.704,0.006502510090968222
12.708,0.006511044483706691
12.712,0.006504962226346599
12.716000000000001,0.006493687211714651
12.72,0.006478517629128809
12.724,0.006485321102776659
12.728,0.006490081130275861
12.732000000000001,0.006488879103129598
12.736,0.006485561508205911
12.74,0.006486499089379997
12.744,0.006490537900591441
12.748000000000001,0.006492364981853761
12.752,0.006491331238507975
12.756,0.006490369616790964
12.76,0.006491619725023078
12.764000000000001,0.006493494887371248
12.768,0.0064934227657424725
12.772,0.006493374684656622
12.776,0.006499505023102564
12.780000000000001,0.006502293726081894
12.784,0.006510275186333082
12.788,0.006502437969339446
12.792,0.006502125442281418
12.796000000000001,0.00650455353711687
12.8,0.006509722253845801
12.804,0.006504721820917346
12.808,0.006488855062586673
12.812,0.006472651736655045
12.816,0.006471016979736127
12.82,0.006475656804520703
12.824,0.006482604521426104
12.828,0.0064877251570691855
12.832,0.00648998496810416
12.836,0.006489912846475384
12.84,0.006496307630893504
12.844,0.006504673739831495
12.848,0.006500418563733724
12.852,0.006491860130452331
12.856,0.006493542968457099
12.86,0.006493927617143903
12.864,0.006487364548925306
12.868,0.006478469548042959
12.872,0.00648318149445631
12.876,0.006489191630187626
12.88,0.006493494887371248
12.884,0.0064893839545310285
12.888,0.006482917048484133
12.892,0.006478541669671735
12.896,0.006482388156539777
12.9,0.006484359481059648
12.904,0.006487965562498438
12.908,0.006487749197612111
12.912,0.006484888373004004
12.916,0.006489600319417356
12.92,0.006498134712155824
12.924,0.006503375550513532
12.928,0.006497918347269497
12.932,0.006491691846651854
12.936,0.006497100968810038
12.94,0.006504625658745645
12.944,0.006496307630893504
12.948,0.00648587403526394
12.952,0.006489720522131982
12.956,0.006502942820740877
12.96,0.006510611753934036
12.964,0.0065050824290612255
12.968,0.006485128778433257
12.972,0.006477988737184454
12.976,0.006480272588762354
12.98,0.006485681710920538
12.984,0.0064974615769539164
12.988,0.006505346875033403
12.992,0.006499961793418144
12.996,0.006493374684656622
13.0,0.006493398725199547
13.004,0.006495778738949148
13.008000000000001,0.006505346875033403
13.012,0.006514770767860107
13.016,0.006511597416193972
13.02,0.006496139347093028
13.024000000000001,0.006493687211714651
13.028,0.006496451874151056
13.032,0.006493302563027846
13.036,0.006500707050248827
13.040000000000001,0.006516044916635145
13.044,0.006509409726787773
13.048,0.00648815788684184
13.052,0.006470271722905444
13.056000000000001,0.006473060425884775
13.06,0.006483902710744068
13.064,0.006489407995073954
13.068,0.006491667806108928
13.072000000000001,0.006494264184744857
13.076,0.006495947022749625
13.08,0.006493927617143903
13.084,0.006498591482471405
13.088000000000001,0.0065091212402726695
13.092,0.006516165119349771
13.096,0.006519386552101757
13.1,0.00651231863248173
13.104000000000001,0.006509770334931652
13.108,0.006502437969339446
13.112,0.006494408428002409
13.116,0.0064843835216025734
13.120000000000001,0.006489456076159804
13.124,0.006497173090438814
13.128,0.0064902494140763375
13.132,0.006481979467310047
13.136000000000001,0.0064808976428784104
13.14,0.006488085765213064
13.144,0.006493374684656622
13.148,0.006498543401385554
13.152000000000001,0.006501067658392706
13.156,0.006505443037205104
13.16,0.006501957158480941
13.164,0.006498062590527048
13.168000000000001,0.006500875334049304
13.172,0.006505346875033403
13.176,0.0065122945919388045
13.18,0.006504938185803674
13.184000000000001,0.006488999305844225
13.188,0.006496187428178878
13.192,0.006492124576424508
13.196,0.006472747898826747
13.200000000000001,0.0064638528979443985
13.204,0.006472868101541372
13.208,0.006482941089027058
13.212,0.00648765303544041
13.216000000000001,0.006490730224934843
13.22,0.006494504590174109
13.224,0.00649724521206759
13.228,0.0064996973474459666
13.232000000000001,0.00650094745567808
13.236,0.006500707050248827
13.24,0.006507919213126406
13.244,0.006522968592997621
13.248000000000001,0.006524146579600959
13.252,0.006511982064880776
13.256,0.006519458673730533
13.26,0.006530300958589827
13.264000000000001,0.006524555268830688
13.268,0.006501476347622436
13.272,0.0064875568732687084
13.276,0.0064877251570691855
13.280000000000001,0.006488422332814017
13.284,0.006491090833078722
13.288,0.006489504157245655
13.292,0.006492292860224985
13.296000000000001,0.006494504590174109
13.3,0.006495129644290166
13.304,0.006494336306373633
13.308,0.006494624792888736
13.312000000000001,0.006499793509617668
13.316,0.00649907229332991
13.32,0.006497942387812422
13.324,0.006497653901297319
13.328,0.006499505023102564
13.332,0.0065048420236319725
13.336,0.0065130158082265625
13.34,0.006516189159892697
13.344,0.006514506321887928
13.348,0.006515467943604939
13.352,0.00651424187591575
13.356,0.006517343105953109
13.36,0.006516742092379978
13.364,0.00651510733546106
13.368,0.006514362078630377
13.372,0.0065138812677718715
13.376,0.006512102267595402
13.38,0.006504721820917346
13.384,0.006493927617143903
13.388,0.006500442604276649
13.392,0.006501620590879987
13.396,0.006496259549807653
13.4,0.006503159185627204
13.404,0.006515275619261537
13.408,0.006517415227581885
13.412,0.0065067412265230684
13.416,0.00650186099630924
13.42,0.006504914145260748
13.424,0.006502269685538969
13.428,0.006497028847181262
13.432,0.006483806548572367
13.436,0.006482003507852972
13.44,0.00648770111652626
13.444,0.006488782940957897
13.448,0.006493350644113697
13.452,0.006496980766095411
13.456,0.006498471279756778
13.46,0.006499553104188415
13.464,0.006503639996485709
13.468,0.006504241010058841
13.472,0.006503784239743261
13.476,0.006510924280992064
13.48,0.006524987998603344
13.484,0.006526358309550083
13.488,0.00651424187591575
13.492,0.0064854172649483595
13.496,0.006475897209949955
13.5,0.00648404695400162
13.504,0.006492052454795732
13.508000000000001,0.006486643332637548
13.512,0.006488350211185242
13.516,0.006491403360136751
13.52,0.006492220738596209
13.524000000000001,0.006491739927737704
13.528,0.0064917639682806295
13.532,0.006494769036146287
13.536,0.006499817550160592
13.540000000000001,0.006505178591232927
13.544,0.006505659402091432
13.548,0.006509890537646278
13.552,0.0065092895240731466
13.556000000000001,0.006497269252610515
13.56,0.006488133846298915
13.564,0.0064906581033060675
13.568,0.006501259982736108
13.572000000000001,0.006502125442281418
13.576,0.006483926751286994
13.58,0.006484479683774275
13.584,0.006497221171524664
13.588000000000001,0.006495850860577924
13.592,0.006485849994721015
13.596,0.006483494021514339
13.6,0.006492124576424508
13.604000000000001,0.006497581779668543
13.608,0.006499793509617668
13.612,0.006501957158480941
13.616,0.006500370482647874
13.620000000000001,0.0064996973474459666
13.624,0.006502173523367269
13.628,0.00650820769964151
13.632,0.006511693578365673
13.636000000000001,0.0065229926335405464
13.64,0.006523665768742454
13.644,0.006506645064351367
13.648,0.006498230874327525
13.652000000000001,0.006498062590527048
13.656,0.006502389888253596
13.66,0.006512438835196355
13.664,0.006505563239919731
13.668000000000001,0.006490802346563619
13.672,0.006484359481059648
13.676,0.00648815788684184
13.68,0.006490537900591441
13.684000000000001,0.006495538333519896
13.688,0.006498687644643105
13.692,0.006496620157951533
13.696,0.00649729329315344
13.700000000000001,0.006499865631246443
13.704,0.006499312698759162
13.708,0.006501740793594613
13.712,0.006505539199376805
13.716000000000001,0.0065042890911446915
13.72,0.006499721387988892
13.724,0.00650089937459223
13.728,0.006506789307608919
13.732000000000001,0.006510924280992064
13.736,0.006512174389224178
13.74,0.006509529929502399
13.744,0.006504914145260748
13.748000000000001,0.006500995536763931
13.752,0.006501235942193183
13.756,0.006507390321182051
13.76,0.006506068091321161
13.764000000000001,0.006498831887900657
13.768,0.006494576711802885
13.772,0.006495826820034999
13.776,0.006502077361195568
13.780000000000001,0.006505154550690001
13.784,0.006515996835549295
13.788,0.006539989297388708
13.792,0.006547417825152614
13.796000000000001,0.006522704147025443
13.8,0.006494913279403839
13.804,0.006478782075100988
13.808,0.006478541669671735
13.812000000000001,0.0064681321145850955
13.816,0.006472651736655045
13.82,0.006485321102776659
13.824,0.006494336306373633
13.828,0.006498543401385554
13.832,0.0064954902524340455
13.836,0.006490009008647085
13.84,0.006491138914164573
13.844,0.006493927617143903
13.848,0.006496716320123234
13.852,0.006495706617320372
13.856,0.006502197563910194
13.86,0.006510876199906214
13.864,0.006513616821799694
13.868,0.006515660267948341
13.872,0.006515924713920519
13.876,0.006520949187391899
13.88,0.006524386985030212
13.884,0.006514963092203508
13.888,0.006510852159363288
13.892,0.006509049118643894
13.896,0.006512078227052477
13.9,0.006502654334225774
13.904,0.006491018711449946
13.908,0.006495177725376017
13.912,0.006502558172054073
13.916,0.0064989761311582085
13.92,0.006497942387812422
13.924,0.006504000604629589
13.928,0.006515516024690789
13.932,0.0065163334031502484
13.936,0.006512246510852954
13.94,0.0065103953890477085
13.944,0.00650784709149763
13.948,0.0065067412265230684
13.952,0.0065096741727599505
13.956,0.006508135578012734
13.96,0.006508904875386342
13.964,0.0065091212402726695
13.968,0.006507438402267901
13.972,0.006502678374768699
13.976,0.00649861552301433
13.98,0.006502269685538969
13.984,0.006512462875739281
13.988,0.006518016241155017
13.992,0.00652515628240382
13.996,0.006528666201670908
14.0,0.006525901539234503
14.004,0.006524122539058034
14.008000000000001,0.006514386119173302
14.012,0.0065096741727599505
14.016,0.006506717185980143
14.02,0.006507558604982528
14.024000000000001,0.006507197996838648
14.028,0.006509650132217025
14.032,0.006511885902709074
14.036,0.006511837821623224
14.040000000000001,0.0065096741727599505
14.044,0.006511357010764719
14.048,0.006510347307961858
14.052,0.006515660267948341
14.056000000000001,0.006516405524779024
14.06,0.006516141078806846
14.064,0.006515299659804462
14.068,0.006518424930384747
14.072000000000001,0.006525901539234503
14.076,0.00651825664658427
14.08,0.0065122945919388045
14.084,0.006516453605864875
14.088000000000001,0.0065184008898418215
14.092,0.006518905741243252
14.096,0.006511044483706691
14.1,0.006500346442104949
14.104000000000001,0.006488133846298915
14.108,0.006496692279580309
14.112,0.006505587280462656
14.116,0.0065122945919388045
14.120000000000001,0.0065242667823155855
14.124,0.0065352773509753555
14.128,0.006547826514382344
14.132,0.006541335567792522
14.136000000000001,0.0065066691048942926
14.14,0.006486859697523876
14.144,0.006479286926502418
14.148,0.0064962114687218036
14.152000000000001,0.006505755564263133
14.156,0.006496451874151056
14.16,0.006487388589468231
14.164,0.006494648833431661
14.168000000000001,0.006499192496044536
14.172,0.006499336739302087
14.176,0.006499240577130386
14.18,0.00650272645585455
14.184000000000001,0.006504409293859318
14.188,0.006504361212773467
14.192,0.0065092895240731466
14.196,0.0065092895240731466
14.200000000000001,0.006508351942899061
14.204,0.006508928915929267
14.208,0.006512078227052477
14.212,0.00651013094307553
14.216000000000001,0.006517511389753586
14.22,0.00652195889019476
14.224,0.00651282348388316
14.228,0.006491090833078722
14.232000000000001,0.006492100535881583
14.236,0.0064982068337846
14.24,0.006492244779139135
14.244,0.006488806981500822
14.248000000000001,0.00649272558999764
14.252,0.006493086198141519
14.256,0.006498879968986507
14.26,0.006504072726258364
14.264000000000001,0.006518809579071551
14.268,0.006527343971810019
14.272,0.006520468376533394
14.276,0.006511116605335467
14.280000000000001,0.006505755564263133
14.284,0.006512414794653431
14.288,0.006513039848769487
14.292,0.006513039848769487
14.296000000000001,0.006507005672495247
14.3,0.006503159185627204
14.304,0.0065101549836184556
14.308,0.006514001470486498
14.312000000000001,0.006509770334931652
14.316,0.006504625658745645
14.32,0.006494408428002409
14.324,0.006496548036322757
14.328000000000001,0.006506236375121638
14.332,0.0065170546194380065
14.336,0.006519122106129579
14.34,0.006508111537469809
14.344,0.006501163820564407
14.348,0.006507318199553275
14.352,0.006515660267948341
14.356,0.006517727754639914
14.36,0.006507558604982528
14.364,0.006497100968810038
14.368,0.00650597192914946
14.372,0.006511332970221793
14.376,0.006502197563910194
14.38,0.00649866360410018
14.384,0.006500057955589845
14.388,0.006506765267065994
14.392,0.006508832753757566
14.396,0.006514049551572349
14.4,0.006512919646054861
14.404,0.006508111537469809
14.408,0.006519025943957878
14.412,0.006525324566204297
14.416,0.006521261714449928
14.42,0.006518569173642298
14.424,0.006519963525131963
14.428,0.006518977862872028
14.432,0.006510755997191587
14.436,0.006500130077218621
14.44,0.006508904875386342
14.444,0.006525877498691578
14.448,0.006532392485824324
14.452,0.006525444768918923
14.456,0.006508832753757566
14.46,0.006500154117761546
14.464,0.006494168022573156
14.468,0.006488999305844225
14.472,0.006499360779845012
14.476,0.006506596983265517
14.48,0.006504866064174898
14.484,0.00650871255104294
14.488,0.0065168142140087535
14.492,0.006524747593174091
14.496,0.006523497484941977
14.5,0.006517415227581885
14.504,0.006515155416546911
14.508000000000001,0.00652155020096503
14.512,0.006522632025396668
14.516,0.006523449403856126
14.52,0.0065233051605985744
14.524000000000001,0.0065233051605985744
14.528,0.006520684741419721
14.532,0.006526117904120831
14.536,0.006529988431531798
14.540000000000001,0.006524074457972183
14.544,0.006516621889665352
14.548,0.0065195067548163834
14.552,0.006531118337049285
14.556000000000001,0.0065418644597368784
14.56,0.006532128039852147
14.564,0.006517102700523857
14.568,0.006517463308667736
14.572000000000001,0.006526670836608112
14.576,0.0065423452705953835
14.58,0.006546864892665333
14.584,0.006521381917164554
14.588000000000001,0.006501476347622436
14.592,0.006505202631775852
14.596,0.0065188817007003266
14.6,0.00652195889019476
14.604000000000001,0.006509193361901445
14.608,0.006492172657510359
14.612,0.00649871168518603
14.616,0.006517775835725765
14.620000000000001,0.006531887634422894
14.624,0.006535301391518281
14.628,0.006551985528308415
14.632,0.006566818543293302
14.636000000000001,0.006550230568674871
14.64,0.006518929781786177
14.644,0.006504361212773467
14.648,0.0065072220373815735
14.652000000000001,0.006518088362783793
14.656,0.006522656065939592
14.66,0.006524483147201912
14.664,0.006526598714979336
14.668000000000001,0.006522295457795714
14.672,0.006518352808755971
14.676,0.0065192663493871305
14.68,0.006523136876798098
14.684000000000001,0.006527055485294916
14.688,0.0065309260127058835
14.692,0.006536455337578694
14.696,0.006532488647996025
14.700000000000001,0.006526839120408589
14.704,0.006529002769271862
14.708,0.006534700377945149
14.712,0.006533209864283783
14.716000000000001,0.006531671269536566
14.72,0.0065325126885389505
14.724,0.006522487782139116
14.728,0.006512126308138327
14.732000000000001,0.006504385253316393
14.736,0.006503038982912578
14.74,0.006508688510500015
14.744,0.00651693441672338
14.748000000000001,0.006525228404032596
14.752,0.006529603782844994
14.756,0.006522656065939592
14.76,0.006516117038263921
14.764000000000001,0.00652150211987918
14.768,0.006525637093262326
14.772,0.006529555701759143
14.776,0.006526262147378382
14.780000000000001,0.006517415227581885
14.784,0.006518232606041344
14.788,0.006527319931267094
14.792,0.006533450269713036
14.796000000000001,0.00652606982303498
14.8,0.00651195802433785
14.804,0.006507270118467424
14.808,0.0065066691048942926
14.812000000000001,0.006511092564792541
14.816,0.006518689376356924
14.82,0.006517583511382362
14.824,0.0065155400652337145
14.828000000000001,0.00652373789037123
14.832,0.006530084593703499
14.836,0.006530541364019079
14.84,0.006529555701759143
14.844000000000001,0.0065299643909888724
14.848,0.006535229269889506
14.852,0.0065390036351287715
14.856,0.006528906607100161
14.86,0.006512919646054861
14.864,0.006510972362077915
14.868,0.00650825578072736
14.872,0.006500298361019098
14.876,0.006506452740007965
14.88,0.006514217835372826
14.884,0.0065149871327464335
14.888,0.006516357443693174
14.892,0.006518569173642298
14.896,0.006520372214361692
14.9,0.006524483147201912
14.904,0.006527872863754375
14.908,0.006525252444575521
14.912,0.006521309795535778
14.916,0.006523064755169322
14.92,0.006530709647819556
14.924,0.006539292121643875
14.928,0.006541816378651028
14.932,0.006532152080395072
14.936,0.00651231863248173
14.94,0.00651597279500637
14.944,0.006520660700876796
14.948,0.006525300525661372
14.952,0.0065280651880977765
14.956,0.006527704579953898
14.96,0.006530950053248809
14.964,0.006526622755522261
14.968,0.006518184524955494
14.972,0.006515011173289359
14.976,0.006514963092203508
14.98,0.006519867362960262
14.984,0.006529147012529414
14.988,0.006535012905003178
14.992,0.006532272283109698
14.996,0.006521814646937209
15.0,0.006520684741419721
15.004,0.006527007404209065
15.008000000000001,0.006525324566204297
15.012,0.006528041147554852
15.016,0.006526887201494439
15.02,0.006526262147378382
15.024000000000001,0.006526502552807635
15.028,0.0065210934306494505
15.032,0.006524314863401436
15.036,0.006518064322240867
15.040000000000001,0.006514722686774256
15.044,0.006525396687833073
15.048,0.006531695310079491
15.052,0.00653292137776868
15.056000000000001,0.006533594512970587
15.06,0.006530781769448332
15.064,0.0065280651880977765
15.068,0.006528834485471385
15.072000000000001,0.006531863593879968
15.076,0.006532128039852147
15.08,0.00653429168871542
15.084,0.006528209431355328
15.088000000000001,0.0065285459989562825
15.092,0.006535637959119235
15.096,0.006539604648701903
15.1,0.006528401755698731
15.104000000000001,0.006514890970574732
15.108,0.006507991334755182
15.112,0.006498904009529433
15.116,0.006504986266889524
15.120000000000001,0.006509193361901445
15.124,0.0065134004569133664
15.128,0.006517102700523857
15.132,0.006517992200612091
15.136000000000001,0.006519963525131963
15.14,0.0065202279711041415
15.144,0.006530084593703499
15.148,0.00654292224362559
15.152000000000001,0.0065513123931065075
15.156,0.006552947150025425
15.16,0.006536094729434815
15.164,0.00652155020096503
15.168000000000001,0.006525901539234503
15.172,0.006538042013411761
15.176,0.006537200594409377
15.18,0.0065210934306494505
15.184000000000001,0.006507919213126406
15.188,0.006514963092203508
15.192,0.0065218867685659845
15.196,0.006526839120408589
15.200000000000001,0.0065298922693600965
15.204,0.006536214932149441
15.208,0.006538042013411761
15.212,0.006540013337931633
15.216000000000001,0.006540181621732109
15.22,0.006532680972339428
15.224,0.006532152080395072
15.228,0.0065384507026414905
15.232000000000001,0.006541888500279803
15.236,0.006544845487059611
15.24,0.006543787703170899
15.244,0.006545614784433219
15.248000000000001,0.006542201027337832
15.252,0.006539845054131156
15.256,0.006535373513147057
15.26,0.006521237673907002
15.264000000000001,0.006504866064174898
15.268,0.0065098424565604275
15.272,0.006528906607100161
15.276,0.006538258378298089
15.280000000000001,0.006538282418841013
15.284,0.006542537594938785
15.288,0.006547441865695539
15.292,0.006545855189862472
15.296000000000001,0.006543955986971376
15.3,0.006543354973398244
15.304,0.006542249108423682
15.308,0.006538498783727341
15.312000000000001,0.0065371044322376755
15.316,0.006540950919105718
15.32,0.006545734987147845
15.324,0.006547057217008735
15.328000000000001,0.0065451099330317885
15.332,0.006539051716214622
15.336,0.006528425796241656
15.34,0.006529651863930844
15.344000000000001,0.006532224202023848
15.348,0.006532392485824324
15.352,0.006531358742478538
15.356,0.0065341714860007935
15.36,0.006535085026631954
15.364,0.00653479654011685
15.368,0.0065351331077178046
15.372,0.0065351331077178046
15.376,0.006538643026984893
15.38,0.00654657640615023
15.384,0.00654703317646581
15.388,0.006541311527249597
15.392,0.006533690675142288
15.396,0.006533522391341811
15.4,0.006537513121467406
15.404,0.006539917175759932
15.408,0.006546263879092201
15.412,0.006545879230405397
15.416,0.006536695743007946
15.42,0.006542417392224159
15.424,0.0065528269473107996
15.428,0.006554509785315568
15.432,0.0065351331077178046
15.436,0.00651739118703896
15.44,0.006513857227228946
15.444,0.006511525294565196
15.448,0.006520372214361692
15.452,0.006524891836431642
15.456,0.006529868228817171
15.46,0.006532248242566773
15.464,0.006536046648348964
15.468,0.006541215365077896
15.472,0.006545855189862472
15.476,0.006548259244154999
15.48,0.006549389149672486
15.484,0.006551047947134329
15.488,0.006533690675142288
15.492,0.006522632025396668
15.496,0.006524050417429258
15.5,0.006524627390459464
15.504,0.006523617687656603
15.508000000000001,0.006520660700876796
15.512,0.006517006538352156
15.516,0.00651972311970271
15.52,0.00652419466068681
15.524000000000001,0.006535806242919712
15.528,0.00654703317646581
15.532,0.0065413836488783725
15.536,0.0065293393368728156
15.540000000000001,0.00653337814808426
15.544,0.0065421769867949064
15.548,0.006540974959648643
15.552,0.006539941216302857
15.556000000000001,0.006535565837490459
15.56,0.0065312385397639115
15.564,0.006542874162539739
15.568,0.006544292554572329
15.572000000000001,0.006530036512617648
15.576,0.006521694444222582
15.58,0.006520732822505572
15.584,0.006525949620320354
15.588000000000001,0.006522103133452311
15.592,0.0065192663493871305
15.596,0.006527560336696346
15.6,0.006532416526367249
15.604000000000001,0.006531719350622417
15.608,0.0065354456347758326
15.612,0.006539244040558024
15.616,0.0065384507026414905
15.620000000000001,0.006534435931972972
15.624,0.006533402188627186
15.628,0.006538546864813192
15.632,0.006544629122173283
15.636000000000001,0.006544845487059611
15.64,0.006544052149143077
15.644,0.006544508919458657
15.648,0.0065428982030826645
15.652000000000001,0.006543571338284572
15.656,0.006538282418841013
15.66,0.006531166418135136
15.664,0.0065378977701542095
15.668000000000001,0.006541503851592999
15.672,0.006530829850534182
15.676,0.0065170546194380065
15.68,0.006507438402267901
15.684000000000001,0.006516766132922903
15.688,0.006529844188274247
15.692,0.006540662432590615
15.696,0.006544532960001582
15.700000000000001,0.006545061851945938
15.704,0.006539123837843398
15.708,0.006525012039146269
15.712,0.006523184957883949
15.716000000000001,0.006532272283109698
15.72,0.006537921810697135
15.724,0.006536022607806039
15.728,0.006538883432414145
15.732000000000001,0.006545302257375191
15.736,0.00654708125755166
15.74,0.006534435931972972
15.744,0.006526310228464232
15.748000000000001,0.006534435931972972
15.752,0.006537657364724957
15.756,0.006533690675142288
15.76,0.006524314863401436
15.764000000000001,0.0065317914722511925
15.768,0.006537296756581078
15.772,0.006534339769801271
15.776,0.006546864892665333
15.780000000000001,0.006554990596174073
15.784,0.006541287486706671
15.788,0.0065187614979857
15.792,0.006513761065057245
15.796000000000001,0.00652241566051034
15.8,0.0065309260127058835
15.804,0.0065320318776804455
15.808,0.006529748026102546
15.812000000000001,0.006521934849651835
15.816,0.006521934849651835
15.82,0.006526791039322738
15.824,0.006534748459031
15.828000000000001,0.006542128905709056
15.832,0.006550543095732899
15.836,0.006553403920341006
15.84,0.006550807541705077
15.844000000000001,0.006545734987147845
15.848,0.00654073455421939
15.852,0.006550903703876778
15.856,0.006555375244860877
15.860000000000001,0.006542946284168515
15.864,0.006529531661216218
15.868,0.006523810012000006
15.872,0.006522031011823536
15.876,0.006526694877151037
15.88,0.006531430864107314
15.884,0.006531454904650239
15.888,0.006539123837843398
15.892,0.006548163081983297
15.896,0.006555711812461831
15.9,0.006553115433825902
15.904,0.006551480676906985
15.908,0.006543859824799675
15.912,0.006535926445634338
15.916,0.006534940783374402
15.92,0.006540782635305241
15.924,0.006545783068233696
15.928,0.006546360041263902
15.932,0.006538522824270266
15.936,0.006525180322946745
15.94,0.006521237673907002
15.944,0.00654109516236327
15.948,0.006554317460972165
15.952,0.006561385380592193
15.956,0.006567131070351331
15.96,0.006555759893547682
15.964,0.0065509998660484795
15.968,0.006548403487412551
15.972,0.006543258811226543
15.976,0.006535950486177263
15.98,0.006534051283286168
15.984,0.006533257945369634
15.988,0.0065357581618338614
15.992,0.006545061851945938
15.996,0.006550735420076301
16.0,0.006548571771213028
16.004,0.006553019271654201
16.008,0.006550567136275824
16.012,0.0065452782168322655
16.016000000000002,0.006550230568674871
16.02,0.006566265610806021
16.024,0.006576482841549258
16.028,0.006556000298976934
16.032,0.006528137309726552
16.036,0.006514939051660583
16.04,0.006519025943957878
16.044,0.006524867795888717
16.048000000000002,0.006534195526543719
16.052,0.006539628689244828
16.056,0.006535974526720188
16.06,0.006538042013411761
16.064,0.006537248675495227
16.068,0.006538378581012715
16.072,0.006536287053778217
16.076,0.006534892702288552
16.080000000000002,0.006537921810697135
16.084,0.0065419365813656535
16.088,0.0065483554063267
16.092,0.006554365542058016
16.096,0.006552875028396649
16.1,0.006544172351857704
16.104,0.006543306892312394
16.108,0.006545759027690771
16.112000000000002,0.0065456628655190694
16.116,0.006546961054837034
16.12,0.0065381381755834625
16.124,0.006533041580483306
16.128,0.006537176553866451
16.132,0.006538643026984893
16.136,0.0065283055935270295
16.14,0.006530156715332275
16.144000000000002,0.006531839553337043
16.148,0.006530901972162958
16.152,0.00653104621542051
16.156,0.00653561391857631
16.16,0.006535854324005563
16.164,0.00653657554029332
16.168,0.006539195959472174
16.172,0.00653840262155564
16.176000000000002,0.006538234337755164
16.18,0.006540349905532586
16.184,0.006545518622261518
16.188,0.006544124270771853
16.192,0.006550110365960244
16.196,0.006557995664039731
16.2,0.0065542453393433895
16.204,0.006541648094850551
16.208000000000002,0.0065351331077178046
16.212,0.006546408122349753
16.216,0.006535036945546103
16.22,0.006515804511205893
16.224,0.006520468376533394
16.228,0.006534820580659776
16.232,0.006536142810520665
16.236,0.006537392918752779
16.240000000000002,0.006545614784433219
16.244,0.00654525417628934
16.248,0.00654073455421939
16.252,0.0065463840818068275
16.256,0.006553500082512706
16.26,0.006553187555454678
16.264,0.006541263446163747
16.268,0.006538979594585846
16.272000000000002,0.006541215365077896
16.276,0.006536335134864068
16.28,0.006535349472604131
16.284,0.006542946284168515
16.288,0.0065466966088648555
16.292,0.0065388593918712205
16.296,0.006526622755522261
16.3,0.006524651431002389
16.304000000000002,0.006530156715332275
16.308,0.006533642594056438
16.312,0.006533546431884737
16.316,0.006535060986089029
16.32,0.006540205662275035
16.324,0.006547562068410165
16.328,0.006557202326123197
16.332,0.006558716880327489
16.336000000000002,0.006549196825329085
16.34,0.0065460715547487995
16.344,0.006543354973398244
16.348,0.00654571094660492
16.352,0.006541167283992046
16.356,0.006539123837843398
16.36,0.006540902838019867
16.364,0.006537056351151826
16.368000000000002,0.006540349905532586
16.372,0.006541359608335447
16.376,0.0065275122556104955
16.38,0.0065166459302082765
16.384,0.006525060120232119
16.388,0.00653200783713752
16.392,0.006537200594409377
16.396,0.006542273148966608
16.4,0.006545614784433219
16.404,0.0065440040680572265
16.408,0.006543667500456273
16.412,0.006544701243802059
16.416,0.006550831582248002
16.42,0.006564294286286149
16.424,0.006567780165010313
16.428,0.006547778433296493
16.432,0.0065298922693600965
16.436,0.006532849256139905
16.44,0.006539220000015099
16.444,0.0065393161621868
16.448,0.006538282418841013
16.452,0.006539845054131156
16.456,0.006534820580659776
16.46,0.006536407256492844
16.464,0.006540902838019867
16.468,0.006537921810697135
16.472,0.006535469675318758
16.476,0.00654251355439586
16.48,0.006546888933208258
16.484,0.006544508919458657
16.488,0.006541768297565177
16.492,0.0065283055935270295
16.496,0.006518641295271074
16.5,0.006520035646760739
16.504,0.00652967590447377
16.508,0.006537657364724957
16.512,0.006542369311138309
16.516000000000002,0.006538498783727341
16.52,0.006542826081453889
16.524,0.006557875461325104
16.528,0.006561337299506342
16.532,0.0065505190551899736
16.536,0.006538643026984893
16.54,0.00653155106682194
16.544,0.006531743391165342
16.548000000000002,0.006539580608158978
16.552,0.006548475609041327
16.556,0.006548066919811596
16.56,0.006542128905709056
