0.0,-0.002340635340289514
0.004,-0.00230289168789685
0.008,-0.0022814715641504405
0.012,-0.00228005317211785
0.016,-0.002279331955830092
0.02,-0.002235914735307066
0.024,-0.002233943410787194
0.028,-0.0022055034485066074
0.032,-0.002203123434757006
0.036000000000000004,-0.002191391649809478
0.04,-0.002170091728777694
0.044,-0.0021436952126457545
0.048,-0.0021284535084311377
0.052000000000000005,-0.0021142936286481576
0.056,-0.0020968161539414907
0.06,-0.002094291896934338
0.064,-0.0020437827162483593
0.068,-0.0020566444067133755
0.07200000000000001,-0.002049985176323077
0.076,-0.0020565001634558237
0.08,-0.002008130591090193
0.084,-0.0020212086464415366
0.088,-0.0020016156039574465
0.092,-0.0020053178475679372
0.096,-0.0019732958443914863
0.1,-0.0019718293712730453
0.10400000000000001,-0.0019550971533970614
0.108,-0.0019354800703700467
0.112,-0.0019194209876959706
0.116,-0.001898024904492486
0.12,-0.0019012944183303218
0.124,-0.0018891299036101386
0.128,-0.0018746574967691296
0.132,-0.0018651134012278002
0.136,-0.0018462656155743935
0.14,-0.0018488379536673967
0.14400000000000002,-0.001816383220718291
0.148,-0.0017880153800664798
0.152,-0.0017730140812811154
0.156,-0.0017748411625434354
0.16,-0.0017705859864456637
0.164,-0.0017439250243415465
0.168,-0.0017105567507612804
0.17200000000000001,-0.001720461454446489
0.176,-0.0017010847768487267
0.18,-0.001685145896889277
0.184,-0.0016776933285824452
0.188,-0.0016810830451349074
0.192,-0.0016404064465053614
0.196,-0.0016225443231118906
0.2,-0.0016274726344115695
0.20400000000000001,-0.0016116779977096713
0.20800000000000002,-0.001605163010576925
0.212,-0.0015773481024123949
0.216,-0.0015783337646723306
0.22,-0.0015639815605459485
0.224,-0.0015441481126326057
0.228,-0.0015273918542136973
0.232,-0.0015086883118178422
0.23600000000000002,-0.0014968603646986125
0.24,-0.0014965718781835091
0.244,-0.0014748632679219963
0.248,-0.0014593090366493507
0.252,-0.0014542364820921202
0.256,-0.0014304603851390343
0.26,-0.0014093047073648023
0.264,-0.001425604195468131
0.268,-0.001408270964019016
0.272,-0.0013970921115587687
0.276,-0.0013773067447312767
0.28,-0.0013619448378020332
0.28400000000000003,-0.0013683636627630784
0.28800000000000003,-0.0013585551212495707
0.292,-0.0013417988628306623
0.296,-0.0013270620100174757
0.3,-0.0013130223329491217
0.304,-0.0012952082906415013
0.308,-0.0012969392097321203
0.312,-0.001272922707349782
0.316,-0.001255853921872845
0.32,-0.001248209029222611
0.324,-0.0012413815150318361
0.328,-0.0012187353235962378
0.332,-0.0012100566876002176
0.336,-0.0011832034011526984
0.34,-0.001182361982150314
0.34400000000000003,-0.0011749815354722582
0.34800000000000003,-0.001125626300846692
0.352,-0.0011403871942028039
0.356,-0.0011200248543451056
0.36,-0.001110576920975477
0.364,-0.001098460487341144
0.368,-0.0010807666477481502
0.372,-0.0010755017688475173
0.376,-0.0010716793225224006
0.38,-0.0010486484823999979
0.384,-0.0010226846960407134
0.388,-0.0010152561682768067
0.392,-9.97850815198916E-4
0.396,-0.0010136454519008142
0.4,-0.001003332058985876
0.404,-9.828254758706262E-4
0.40800000000000003,-9.697955016051334E-4
0.41200000000000003,-9.656364876790627E-4
0.41600000000000004,-9.529911621003741E-4
0.42,-9.465723371393288E-4
0.424,-9.262580783674809E-4
0.428,-9.277005109429967E-4
0.432,-9.156321583945145E-4
0.436,-8.746189921640149E-4
0.44,-9.132281041019882E-4
0.444,-9.13756996046344E-4
0.448,-8.637286262188703E-4
0.452,-8.584156662323871E-4
0.456,-8.514198682411354E-4
0.46,-8.439432593913785E-4
0.464,-8.299757039518002E-4
0.468,-8.214413112133317E-4
0.47200000000000003,-8.225231356449686E-4
0.47600000000000003,-7.992518900933135E-4
0.48,-7.622294539884075E-4
0.484,-7.315777617586963E-4
0.488,-7.694656574089118E-4
0.492,-7.58719534721319E-4
0.496,-7.198219362682426E-4
0.5,-7.157350439709477E-4
0.504,-6.957573528000536E-4
0.508,-6.85203554455863E-4
0.512,-6.632545387650973E-4
0.516,-6.65057579484492E-4
0.52,-6.588791599526992E-4
0.524,-6.373628740345883E-4
0.528,-6.175294261212459E-4
0.532,-6.530373080218603E-4
0.536,-6.178900342651249E-4
0.54,-6.189958992396871E-4
0.544,-6.169284125481144E-4
0.548,-5.916858424765875E-4
0.552,-5.855795445735706E-4
0.556,-5.732467460529103E-4
0.56,-5.597600014718375E-4
0.5640000000000001,-5.522353115362301E-4
0.5680000000000001,-5.322095392794854E-4
0.5720000000000001,-5.115106318208335E-4
0.5760000000000001,-5.530767305386143E-4
0.58,-5.182660243828325E-4
0.584,-5.070871719225849E-4
0.588,-4.962689276062164E-4
0.592,-4.8167631805058137E-4
0.596,-4.635978297707831E-4
0.6,-4.516977610227776E-4
0.604,-4.4299508448383227E-4
0.608,-4.444134765164228E-4
0.612,-4.103961082771748E-4
0.616,-3.913079171945155E-4
0.62,-3.940725796309208E-4
0.624,-4.2780146135506565E-4
0.628,-3.7940784844651005E-4
0.632,-3.533478999155243E-4
0.636,-3.5491053520566646E-4
0.64,-3.4839554807292E-4
0.644,-3.416641960538462E-4
0.648,-3.2392227537500164E-4
0.652,-3.107480578519572E-4
0.656,-3.038484220324066E-4
0.66,-2.8170708199823884E-4
0.664,-2.6413344511987114E-4
0.668,-2.8656327166914203E-4
0.672,-2.9204451545610216E-4
0.676,-2.6930216184880277E-4
0.68,-2.3076517153960524E-4
0.684,-2.2196633282895877E-4
0.6880000000000001,-2.1881702170574923E-4
0.6920000000000001,-2.2901021190606098E-4
0.6960000000000001,-2.0643614209923846E-4
0.7000000000000001,-1.8737199155950443E-4
0.704,-1.7251493603169155E-4
0.708,-1.6948582762310832E-4
0.712,-1.940071814068772E-4
0.716,-1.5078228522725324E-4
0.72,-1.4450770352375945E-4
0.724,-1.415747572868773E-4
0.728,-1.1190872731710203E-4
0.732,-1.0051350997052709E-4
0.736,-1.1491379518275999E-4
0.74,-1.1587541689977052E-4
0.744,-1.0534565909850506E-4
0.748,-9.036840085606584E-5
0.752,-4.541258558582293E-5
0.756,-6.572684435767066E-5
0.76,-5.834639767961474E-5
0.764,-3.190180046182479E-5
0.768,-1.8967988368032975E-5
0.772,-3.966689582668493E-5
0.776,-3.512323321381011E-5
0.78,-7.95741970826225E-6
0.784,8.63055491016963E-6
0.788,1.271744720746444E-5
0.792,1.5217663671691854E-5
0.796,5.094191045863355E-5
0.8,4.1590139260706014E-5
0.804,3.2526854577881645E-5
0.808,4.817724802222824E-5
0.812,8.255522440535518E-5
0.8160000000000001,9.469569858261329E-5
0.8200000000000001,1.0577838887115982E-4
0.8240000000000001,8.86855628512974E-5
0.8280000000000001,9.277245514859222E-5
0.8320000000000001,1.1986614702536428E-4
0.836,1.323431888035761E-4
0.84,1.366945270730488E-4
0.844,1.7237069277413998E-4
0.848,1.5325846114855543E-4
0.852,1.4551740632662055E-4
0.856,1.5092652848480484E-4
0.86,1.5657605607224178E-4
0.864,1.91891613629454E-4
0.868,1.9179545145775294E-4
0.872,1.890548295642729E-4
0.876,2.0061833071132468E-4
0.88,2.2925061733531366E-4
0.884,2.447327269791834E-4
0.888,2.4877153819062765E-4
0.892,2.358377260968359E-4
0.896,2.6608072909681745E-4
0.9,2.614168637693163E-4
0.904,2.7466320292113657E-4
0.908,2.738698650046029E-4
0.912,2.932225020594401E-4
0.916,3.102432064505267E-4
0.92,2.945206913774043E-4
0.924,3.142579771190457E-4
0.928,3.2757643789964173E-4
0.932,3.683011176150383E-4
0.936,3.4474138554827996E-4
0.9400000000000001,3.398130742486009E-4
0.9440000000000001,3.61257238537936E-4
0.9480000000000001,3.7762884827004055E-4
0.9520000000000001,3.8113876753712906E-4
0.9560000000000001,3.9928937744570305E-4
0.96,6.784481618938638E-4
0.964,6.790251349240702E-4
0.968,6.91502176702282E-4
0.972,7.056860970281876E-4
0.976,7.063832727730202E-4
0.98,7.306161400416858E-4
0.984,7.250868151688753E-4
0.988,7.250387340830248E-4
0.992,7.817022937578711E-4
0.996,7.624938999605855E-4
1.0,7.2551954494153E-4
1.004,7.378042623763397E-4
1.008,7.711004143278297E-4
1.012,7.817022937578711E-4
1.016,7.8526029411081E-4
1.02,8.03218579675982E-4
1.024,8.224269734732675E-4
1.028,8.331009745320847E-4
1.032,8.337741097339921E-4
1.036,8.374523128015574E-4
1.04,8.23292433018577E-4
1.044,8.382696912610163E-4
1.048,8.694983565209338E-4
1.052,8.64978734450984E-4
1.056,8.733929244748264E-4
1.06,8.948611293070868E-4
1.064,8.986595350892783E-4
1.068,9.002462109223457E-4
1.072,9.022175354422173E-4
1.076,9.364993496536432E-4
1.08,9.475339588563393E-4
1.084,9.342395386186684E-4
1.088,9.079391846584302E-4
1.092,9.562125948523595E-4
1.096,9.631362712148353E-4
1.1,9.613572710383658E-4
1.104,9.546259190192922E-4
1.108,9.6037160877843E-4
1.112,9.733535019580724E-4
1.116,9.763104887378797E-4
1.12,9.595301897760458E-4
1.124,9.874893411981273E-4
1.1280000000000001,0.0010170592089962017
1.1320000000000001,0.00100823632974263
1.1360000000000001,0.0010163379927084438
1.1400000000000001,0.001036988819081245
1.1440000000000001,0.0010537691180430792
1.1480000000000001,0.0010579281319691497
1.1520000000000001,0.001057952172512075
1.156,0.0010478311039405388
1.16,0.0010610774430923594
1.164,0.0010748767147314604
1.168,0.0010813195802354312
1.172,0.0011088219613419328
1.176,0.0010883874998554586
1.18,0.0011172601919087002
1.184,0.0011171880702799245
1.188,0.0011258907468188698
1.192,0.001152984438695642
1.196,0.0011627689396662242
1.2,0.0016142022547168241
1.204,0.001626967783010139
1.208,0.0016108606192502123
1.212,0.0016194430930745315
1.216,0.0016232655393996485
1.22,0.0016504794339910467
1.224,0.001655431785833651
1.228,0.001637545621897255
1.232,0.0016539172316293593
1.236,0.0016605043403908814
1.24,0.0016509121637637014
1.244,0.0016697599494171083
1.248,0.001692983113882913
1.252,0.0016853622617756042
1.256,0.001712431913109451
1.26,0.0017106769534759067
1.264,0.0017108692778193089
1.268,0.0017139224267708174
1.272,0.0017167351702930733
1.276,0.001717792954181785
1.28,0.0017202931706460122
1.284,0.001731592225820886
1.288,0.0017626766478232522
1.292,0.0017680857699814364
1.296,0.0017336597125124586
1.3,0.0017570992418645907
1.304,0.001779192500812908
1.308,0.0017757306626316701
1.312,0.0017775817844369152
1.316,0.0017919339885632977
1.32,0.0018090027740402346
1.324,0.0018039061789400788
1.328,0.0018127530987365763
1.332,0.0018212634509321194
1.336,0.001853982629853403
1.34,0.00186008892775642
1.344,0.0018556895084010966
1.348,0.001852059386419382
1.352,0.0018643441038541917
1.356,0.0018618438873899644
1.36,0.001849246642897126
1.364,0.0018726621317063329
1.368,0.001881989862361335
1.372,0.0018978566206920091
1.3760000000000001,0.0018915339579026649
1.3800000000000001,0.0019247099071395286
1.3840000000000001,0.001904131202395503
1.3880000000000001,0.0019173294604614727
1.3920000000000001,0.0019307440834137697
1.3960000000000001,0.0019069439459177588
1.4000000000000001,0.0019352156243978688
1.4040000000000001,0.001962573762246819
1.408,0.001964328721880363
1.412,0.0019688483439503127
1.416,0.0019794021422945033
1.42,0.0019990432658644436
1.424,0.00200144732015697
1.428,0.0019868547106013353
1.432,0.0019791136557794
1.436,0.0020037311717348697
1.44,0.0020110635373270756
1.444,0.002003370563590991
1.448,0.0020019521715584003
1.452,0.0020239252277920914
1.456,0.00205616359585487
1.46,0.0020504659871815826
1.464,0.002052870041474109
1.468,0.0020627987857022427
1.472,0.0020747228949931735
1.476,0.002039070769835008
1.48,0.002063039191131495
1.484,0.0020829447606736137
1.488,0.0020914551128691566
1.492,0.0020714774216982626
1.496,0.002084627598678382
1.5,0.0021166496018548333
1.504,0.0021200633589502204
1.508,0.002120640331980427
1.512,0.0021282852246306606
1.516,0.0021327086845289093
1.52,0.0021048937763643795
1.524,0.002118909412889808
1.528,0.002133886671132247
1.532,0.0021554269975932834
1.536,0.0021717745667824626
1.54,0.002173962256188661
1.544,0.002184948784305507
1.548,0.0021735054858730814
1.552,0.0021890356766028018
1.556,0.002186751825024902
1.56,0.0022189180714589046
1.564,0.002205912137736337
1.568,0.0021978345153134482
1.572,0.0022266110451949887
1.576,0.0022224760718118435
1.58,0.002216057246850798
1.584,0.0022275245858261487
1.588,0.0022273082209398215
1.592,0.00223904000588735
1.596,0.0022496899664032417
1.6,0.002241684465609129
1.604,0.002278129928683829
1.608,0.002260748616148863
1.612,0.0022497861285749425
1.616,0.00224954572314569
1.62,0.002278153969226754
1.624,0.0022914003083785743
1.6280000000000001,0.0023022906743237186
1.6320000000000001,0.0023327260016671025
1.6360000000000001,0.002356478058077263
1.6400000000000001,0.0023299132581448465
1.6440000000000001,0.0023195277436011325
1.6480000000000001,0.002342173935036731
1.6520000000000001,0.0023732343164961714
1.6560000000000001,0.002344457786614631
1.6600000000000001,0.002351573787320509
1.6640000000000001,0.002349506300628936
1.668,0.002360613031460408
1.672,0.00235618957156216
1.676,0.002354290368671064
1.68,0.002758964827732026
1.684,0.002732544271057161
1.688,0.0027140811340905582
1.692,0.0027320394196557306
1.696,0.00274793021852933
1.7,0.0027576425978711365
1.704,0.002766898206897363
1.708,0.0027718505587399672
1.712,0.002782163951654905
1.716,0.0027938476555165828
1.72,0.002779711816276528
1.724,0.002809762494933108
1.728,0.002794544831261416
1.732,0.002778245343158087
1.736,0.002793871696059508
1.74,0.0028011078994800128
1.744,0.002812503116826588
1.748,0.0028369042678957307
1.752,0.002830749888906863
1.756,0.002822407820511797
1.76,0.0028375533625547124
1.764,0.0028594783377025525
1.768,0.002860415918876638
1.772,0.002857314688839279
1.776,0.002849309188045166
1.78,0.0028641181624871285
1.784,0.002864983622032438
1.788,0.002868036770983947
1.792,0.0028836871644282933
1.796,0.0028948179358026906
1.8,0.0028831582724839376
1.804,0.0028753210554903017
1.808,0.0028844083807160513
1.812,0.0029116222753074496
1.816,0.0029318884529934467
1.82,0.0028851776780896596
1.824,0.0029100836805602327
1.828,0.0029346290748869268
1.832,0.002945471359746221
1.836,0.0029464329814632316
1.84,0.0029356387776897875
1.844,0.002966001983404396
1.848,0.002971435146105506
1.852,0.0029818206606492194
1.856,0.00298415259331297
1.86,0.0029989856082978574
1.864,0.002976772146634914
1.868,0.0029663145104624243
1.872,0.002966675118606304
1.8760000000000001,0.002996845999977509
1.8800000000000001,0.0030109818392175637
1.8840000000000001,0.0030144196368558766
1.8880000000000001,0.0029998991489290174
1.8920000000000001,0.003010717393245386
1.8960000000000001,0.003038147652723112
1.9000000000000001,0.0030373543148065783
1.9040000000000001,0.0030371139093773253
1.9080000000000001,0.0030282669895808287
1.9120000000000001,0.0030472830590347125
1.9160000000000001,0.003053172992051402
1.92,0.0030555049247151522
1.924,0.003072934318335968
1.928,0.003071996737161883
1.932,0.0030794973865545653
1.936,0.003071347642502901
1.94,0.003080651332614978
1.944,0.003100460739985395
1.948,0.0031116395924456427
1.952,0.0030969989018041575
1.956,0.00308632490074534
1.96,0.0030971912261475595
1.964,0.0031129858628494572
1.968,0.003110750092357408
1.972,0.0031035619700227543
1.976,0.0031115434302739415
1.98,0.0031259677560291
1.984,0.0031228184449058906
1.988,0.0031347906352826717
1.992,0.0031442385686523003
1.996,0.0031645287868812223
2.0,0.0031400314736403792
2.004,0.003142098960331952
2.008,0.0031399112709257528
2.012,0.0031486379880076233
2.016,0.003159672597210319
2.02,0.003153542258764377
2.024,0.0031581820835489527
2.028,0.0031990269659789763
2.032,0.0032009261688700718
2.036,0.0031880404378621307
2.04,0.00319982030389551
2.044,0.0031939784519646706
2.048,0.003226096617312823
2.052,0.0032356166723112273
2.056,0.003231842307071961
2.06,0.003242468227044927
2.064,0.0032441270245067706
2.068,0.003245809862511539
2.072,0.0032673021078867244
2.076,0.0032665328105131158
2.08,0.0032702590946665317
2.084,0.003279130055005954
2.088,0.0032623978371299706
2.092,0.0032559068905401497
2.096,0.003287760609916124
2.1,0.0032896117317213693
2.104,0.0032794185415210577
2.108,0.003288169299145853
2.112,0.003313315707045679
2.116,0.0033083873957459996
2.12,0.0033004299760377377
2.124,0.00330112715178257
2.128,0.003318460383231685
2.132,0.0033196624103779483
2.136,0.003306127584711025
2.14,0.003313988842247586
2.144,0.0033239897081044968
2.148,0.0033348560335067154
2.152,0.0033544009949049544
2.156,0.0033415152638970134
2.16,0.0033512757243246705
2.164,0.0033737776725027173
2.168,0.003369859064005899
2.172,0.0033748114158485038
2.176,0.0033952458773349775
2.18,0.0033712774560384893
2.184,0.0033899088768055688
2.188,0.003390221403863597
2.192,0.003390990701237206
2.196,0.0034093336354891817
2.2,0.003421041379893785
2.204,0.0034134926494152522
2.208,0.0034110645545798006
2.212,0.0034085883786584984
2.216,0.0034307297186926666
2.22,0.0034484475988285856
2.224,0.00340781908128489
2.228,0.00343654753008058
2.232,0.0034376533950551424
2.236,0.003432340435068659
2.24,0.003430681637606816
2.244,0.0034431827199279527
2.248,0.0034415960440948856
2.2520000000000002,0.0034473657743969485
2.2560000000000002,0.0034610688838643488
2.2600000000000002,0.0034863354944788013
2.2640000000000002,0.0035094624967729046
2.2680000000000002,0.0034873451972816626
2.2720000000000002,0.003488282778455748
2.2760000000000002,0.0035016974014080446
2.2800000000000002,0.0034934755357276044
2.2840000000000003,0.0034935476573563803
2.2880000000000003,0.0034972739415097963
2.2920000000000003,0.0034957593873055047
2.2960000000000003,0.0035168429434509606
2.3000000000000003,0.003532998188296738
2.3040000000000003,0.0035336953640415707
2.308,0.0035288632149135927
2.312,0.0035569666095932252
2.316,0.0035554280148460083
2.32,0.003550812230604358
2.324,0.003530834539433464
2.328,0.003550812230604358
2.332,0.003567688691737893
2.336,0.0035700927460304197
2.34,0.003561943001978755
2.344,0.0035591542989994243
2.348,0.003551269000919938
2.352,0.0035868009233634775
2.356,0.0035964652216194334
2.36,0.003584901720472382
2.364,0.003616971804734683
2.368,0.003600431911202102
2.372,0.003609182668826898
2.376,0.0036083172092815884
2.38,0.003613870574697324
2.384,0.003609591358056627
2.388,0.0036075238713650544
2.392,0.0036258668056170316
2.396,0.003651109375688558
2.4,0.0036662549177314736
2.404,0.0036275256030788745
2.408,0.0036304345087728317
2.412,0.0036446665101845872
2.416,0.003652311402834821
2.42,0.0036598360927704286
2.424,0.0036459646995025516
2.428,0.0036638027823530967
2.432,0.003689333838939727
2.436,0.003699190461539085
2.44,0.003684838257412703
2.444,0.0037111386113729407
2.448,0.003680655202943707
2.452,0.003665533701443716
2.456,0.0036825303652918773
2.46,0.0037146966117258796
2.464,0.0037248657613832667
2.468,0.0037222453422044127
2.472,0.0037077008137346283
2.476,0.0037102731518276312
2.48,0.0037204182609420927
2.484,0.0037242887883530604
2.488,0.003745276182326815
2.492,0.003739242006052574
2.496,0.0037289526536805613
2.5,0.0037375351275048805
2.504,0.003732727018919828
2.508,0.003756887764559717
2.512,0.00376535003566941
2.516,0.0037569839267314184
2.52,0.0037480168042202952
2.524,0.0037573685754182227
2.528,0.0037693407657950046
2.532,0.003791506146372097
2.536,0.00379859810653505
2.54,0.0037576811024762507
2.544,0.003787539456789429
2.548,0.0037973720388458617
2.552,0.0037799186046821205
2.556,0.0037741488743800572
2.56,0.003820186514081937
2.564,0.0038373033806447243
2.568,0.003823407946833922
2.572,0.003813935972921368
2.576,0.0038199701491956096
2.58,0.003858627342219433
2.584,0.0038173256894738308
2.588,0.0038256917984118223
2.592,0.0038605986667393046
2.596,0.003877763614387943
2.6,0.0038701427622806345
2.604,0.0038770183575572597
2.608,0.0038760807763831744
2.612,0.003883966074462661
2.616,0.0038827640473163977
2.62,0.0038614400857416888
2.624,0.003912213712399845
2.628,0.003896875846013527
2.632,0.0038932697645747377
2.636,0.0038656712212965356
2.64,0.003867738707988108
2.644,0.0039026696168585158
2.648,0.003910146225708272
2.652,0.0039058670090675756
2.656,0.0039057227658100243
2.66,0.003928489159960249
2.664,0.003933802119946732
2.668,0.003948202405158965
2.672,0.0039224790242289335
2.676,0.003921829929569951
2.68,0.00394082195848091
2.684,0.003957169527670088
2.688,0.003941735499112069
2.692,0.003944788648063578
2.696,0.003964189366204266
2.7,0.003961448744310785
2.704,0.003954092338175655
2.708,0.003957097406041313
2.712,0.003975151853778186
2.716,0.003962242082227319
2.72,0.003938850633961038
2.724,0.00395269798668599
2.728,0.003970824556051638
2.732,0.003988470314558782
2.736,0.003995610355807585
2.74,0.003991571544596141
2.744,0.004019891304162101
2.748,0.0040345079542606615
2.7520000000000002,0.004006813248810757
2.7560000000000002,0.004014914911776572
2.7600000000000002,0.004030541264677993
2.7640000000000002,0.0040097702355905655
2.7680000000000002,0.004041551833337763
2.7720000000000002,0.004039989198047622
2.7760000000000002,0.004046840752781321
2.7800000000000002,0.00405994284867559
2.7840000000000003,0.004046744590609621
2.7880000000000003,0.004042008603653343
2.7920000000000003,0.0040536923075150215
2.7960000000000003,0.004050182388247933
2.8000000000000003,0.004070640890277333
2.8040000000000003,0.0041149956919744445
2.8080000000000003,0.0040650394437757465
2.8120000000000003,0.004063356605770978
2.816,0.004101605109565073
2.82,0.004081747621108805
2.824,0.00407400656628687
2.828,0.00410415340711515
2.832,0.004107879691268566
2.836,0.004099321257987172
2.84,0.004102254204224054
2.844,0.004142137464937067
2.848,0.004141440289192234
2.852,0.0040916763653369385
2.856,0.004097830744325806
2.86,0.0041273525310380295
2.864,0.004145286776060276
2.868,0.004141031599962505
2.872,0.004139444924129437
2.876,0.004162283439908438
2.88,0.004167836805324174
2.884,0.004155191479745485
2.888,0.004166202048405255
2.892,0.00417394310322719
2.896,0.004176587562948969
2.9,0.00413603116703405
2.904,0.004143363532626255
2.908,0.004168894589212885
2.912,0.004190362794045145
2.916,0.0041751691709163785
2.92,0.004165769318632601
2.924,0.00417978495515803
2.928,0.004193464024082504
2.932,0.004202839835823357
2.936,0.004204065903512545
2.94,0.004198055767781229
2.944,0.004198272132667557
2.948,0.004201709930305869
2.952,0.004199714565243073
2.956,0.004206686322691399
2.96,0.004221543378219212
2.964,0.0042328183928511615
2.968,0.004230871108874215
2.972,0.004233539609138919
2.976,0.004239766109756562
2.98,0.004267556977378167
2.984,0.004284409397968776
2.988,0.004251257489274838
2.992,0.0042528682056508305
2.996,0.004258589854867044
3.0,0.004266691517832858
3.004,0.004268831126153206
3.008,0.004280106140785155
3.012,0.004294626628712013
3.016,0.004295852696401202
3.02,0.004283976668196122
3.024,0.004292030250076085
3.028,0.004304002440452866
3.032,0.004285539303486264
3.036,0.004268374355837626
3.04,0.004304314967510894
3.044,0.004321864563846338
3.048,0.004329052686180991
3.052,0.004311382887130922
3.056,0.004319748996068914
3.06,0.004316599684945704
3.064,0.004319797077154765
3.068,0.004324821550626145
3.072,0.004317633428291491
3.076,0.004325398523656351
3.08,0.004308738427409144
3.084,0.004329124807809767
3.088,0.004346914809574462
3.092,0.0043695850415529855
3.096,0.004377253974746145
3.1,0.004361146810986219
3.104,0.004356002134800211
3.108,0.004359319729723899
3.112,0.0043748258799106935
3.116,0.0043834564348208625
3.12,0.004383889164593518
3.124,0.004373383447335177
3.128,0.004397616314603843
3.132,0.0044107424510410375
3.136,0.004413074383704788
3.14,0.004387302921688905
3.144,0.004407448896660276
3.148,0.004405189085625301
3.152,0.004416704505686503
3.156,0.004407953748061706
3.16,0.0044352397642818805
3.164,0.004476204849426529
3.168,0.0044208875601554985
3.172,0.004423099290104622
3.176,0.004444711738194434
3.18,0.004442379805530684
3.184,0.0044355522913399085
3.188,0.004433340561390785
3.192,0.004445913765340697
3.196,0.004466973280943229
3.2,0.00445935242883592
3.204,0.004449736211665814
3.208,0.004480315782266749
3.212,0.004464761550994104
3.216,0.004483465093389959
3.22,0.004484354593478194
3.224,0.004486590363970243
3.228,0.00449086958061094
3.232,0.004475988484540202
3.236,0.0044954132432238145
3.24,0.004503274500760376
3.244,0.004513876380190418
3.248,0.004507024825456718
3.2520000000000002,0.004499283770634782
3.2560000000000002,0.004480243660637974
3.2600000000000002,0.004477695363087896
3.2640000000000002,0.004507914325544953
3.2680000000000002,0.004499235689548932
3.2720000000000002,0.004496735473084704
3.2760000000000002,0.0045115204069837425
3.2800000000000002,0.004511472325897892
3.2840000000000003,0.0045150062857079055
3.2880000000000003,0.004520607732209492
3.2920000000000003,0.004522723299986915
3.2960000000000003,0.0045530624651585975
3.3000000000000003,0.004542604828986108
3.3040000000000003,0.00454147492346862
3.3080000000000003,0.004577872305457469
3.3120000000000003,0.0045754201700790925
3.3160000000000003,0.004584339211504365
3.3200000000000003,0.004579074332603733
3.3240000000000003,0.004572823791443164
3.3280000000000003,0.004578136751429648
3.332,0.004581670711239661
3.336,0.004579531102919312
3.34,0.004579434940747611
3.344,0.004591960063611674
3.348,0.004547965870058441
3.352,0.004544768477849381
3.356,0.0045694821559765526
3.36,0.004580901413866053
3.364,0.0045920802663263
3.368,0.004585998008966208
3.372,0.0045863586171100874
3.376,0.004595662307222164
3.38,0.004595974834280193
3.384,0.004583281427615654
3.388,0.0046217943773819254
3.392,0.0046262418778230995
3.396,0.004626265918366025
3.4,0.004628838256459028
3.404,0.004631602918895433
3.408,0.004630665337721348
3.412,0.004636362946394635
3.416,0.004623693580273021
3.42,0.004624655201990032
3.424,0.0046297277565472625
3.428,0.004646604217680797
3.432,0.004683746856500331
3.436,0.004666822314280945
3.44,0.00465319132644232
3.444,0.004667134841338973
3.448,0.004660211164976498
3.452,0.004650330501834213
3.456,0.0046543212319598085
3.46,0.0046697793010607525
3.464,0.004690045478746749
3.468,0.0047121146971521415
3.472,0.004690189722004301
3.476,0.004722812738753883
3.48,0.004719350900572646
3.484,0.004685405653962174
3.488,0.004684564234959789
3.492,0.004708436494084576
3.496,0.0047312028882348
3.5,0.0047261543742204955
3.504,0.004709614480687914
3.508,0.004705311223504292
3.512,0.004726635185079001
3.516,0.004725144671417634
3.52,0.004738703537627483
3.524,0.004757695566538441
3.528,0.0047344002804438606
3.532,0.00474166052440729
3.536,0.004735049375102843
3.54,0.004761950742636213
3.544,0.004762527715666419
3.548,0.0047539933229279515
3.552,0.004759931337030491
3.556,0.004759282242371509
3.56,0.004768297445968483
3.564,0.004776182744047969
3.568,0.0047910157590328566
3.572,0.004761493972320633
3.576,0.004783370866382623
3.58,0.004794838205357974
3.584,0.004777408811737158
3.588,0.004790102218401696
3.592,0.004793540016040009
3.596,0.004784044001584531
3.6,0.0047814957040344525
3.604,0.004789236758856387
3.608,0.004797434583993902
3.612,0.004829528708799128
3.616,0.004813060936895323
3.62,0.004788275137139376
3.624,0.004812027193549537
3.628,0.004826715965276873
3.632,0.004829312343912801
3.636,0.004824239789355571
3.64,0.00483241357395016
3.644,0.0048347695471568355
3.648,0.004832485695578936
3.652,0.004824768681299926
3.656,0.0048542423869263
3.66,0.004857487860221211
3.664,0.004831163465718046
3.668,0.004854266427469225
3.672,0.004852968238151261
3.676,0.004851069035260165
3.68,0.0048622959688062635
3.684,0.004849915089199752
3.688,0.004854386630183852
3.692,0.004863738401381779
3.696,0.004871791983261742
3.7,0.004878643537995442
3.704,0.004882321741063007
3.708,0.004877826159535983
3.712,0.004920762569200504
3.716,0.004910593419543118
3.72,0.004894245850353938
3.724,0.004888788647109903
3.728,0.00490799704090719
3.732,0.004926243812987464
3.736,0.004920305798884924
3.74,0.004919272055539138
3.744,0.004919608623140091
3.748,0.004940668138742622
3.7520000000000002,0.004911122311487474
3.7560000000000002,0.004909150986967602
3.7600000000000002,0.004919103771738661
3.7640000000000002,0.004936509124816552
3.7680000000000002,0.004932830921748986
3.7720000000000002,0.004932470313605108
3.7760000000000002,0.004953650031922265
3.7800000000000002,0.004947856261077276
3.7840000000000003,0.004936797611331655
3.7880000000000003,0.004954683775268051
3.7920000000000003,0.004963987465380128
3.7960000000000003,0.004964876965468362
3.8000000000000003,0.004950765166771233
3.8040000000000003,0.004947086963703668
3.8080000000000003,0.004969685074053415
3.8120000000000003,0.004992523589832415
3.8160000000000003,0.004976728953130517
3.8200000000000003,0.004985407589126537
3.8240000000000003,0.004977498250504126
3.8280000000000003,0.004983965156551021
3.8320000000000003,0.005009736618566905
3.8360000000000003,0.004989326197623355
3.84,0.004977906939733855
3.844,0.004997524022760871
3.848,0.005005914172241788
3.852,0.00499295631960507
3.856,0.005026084187756083
3.86,0.0050181748491336725
3.864,0.005009832780738605
3.868,0.005006370942557368
3.872,0.005016083321899174
3.876,0.005033320391176588
3.88,0.0050295941070231725
3.884,0.005011347334942897
3.888,0.005027382377074048
3.892,0.005033344431719513
3.896,0.005031373107199642
3.9,0.005031950080229848
3.904,0.005016756457101082
3.908,0.00501930475465116
3.912,0.0050358446481837404
3.916,0.0050457974329548
3.92,0.005063803799605823
3.924,0.005062986421146364
3.928,0.005048441892676579
3.932,0.005075872152154305
3.936,0.005088373234475442
3.94,0.005091258099626473
3.944,0.005109961642022328
3.948,0.005103470695432507
3.952,0.005095200748666217
3.956,0.005104552519864144
3.96,0.005109360628449197
3.964,0.0051083268851034105
3.968,0.005137536144757605
3.972,0.005097172073186088
3.976,0.005081305314855415
3.98,0.005105514141581154
3.984,0.005101451289826785
3.988,0.0051059468713538095
3.992,0.005117245926528683
3.996,0.005095729640610573
4.0,0.005111957007085125
4.0040000000000004,0.005126814062612938
4.008,0.005138257361045363
4.0120000000000005,0.005152585524628821
4.016,0.005134074306576367
4.0200000000000005,0.005121260697197202
4.024,0.005144027091347426
4.0280000000000005,0.005153234619287803
4.032,0.005118904723990526
4.0360000000000005,0.005134819563407051
4.04,0.005126573657183685
4.0440000000000005,0.005161937295826749
4.048,0.005171697756254406
4.0520000000000005,0.00516578378269479
4.056,0.005175664445837074
4.0600000000000005,0.005193021717829114
4.064,0.005169053296532626
4.0680000000000005,0.005182900649257578
4.072,0.005178356986644703
4.0760000000000005,0.005185713392779834
4.08,0.005200402164507171
4.0840000000000005,0.005197228812841036
4.088,0.00519807023184342
4.0920000000000005,0.005199777110391114
4.096,0.00520629209752386
4.1,0.0052053785568927004
4.104,0.005219370152875203
4.108,0.005188766541731342
4.112,0.005186819257754396
4.116,0.005208888476159789
4.12,0.005208047057157404
4.124,0.0052083115031295825
4.128,0.005223120477571544
4.132,0.0052130715306287845
4.136,0.005225067761548491
4.14,0.0052114848547957175
4.144,0.005221702085538954
4.148,0.00525415681848806
4.152,0.005235381154463429
4.156,0.005229923951219394
4.16,0.005249709318046886
4.164,0.005254012575230508
4.168,0.005245622425749591
4.172,0.005254180859030985
4.176,0.0052482668854713695
4.18,0.005269230238902199
4.184,0.0052671387116677015
4.188,0.005270600549848939
4.192,0.005295795038834617
4.196,0.005270985198535744
4.2,0.005272139144596157
4.204,0.0052778367532694435
4.208,0.005279134942587408
4.212,0.005296732620008702
4.216,0.005334163745343337
4.22,0.005311733918794066
4.224,0.005293102498026987
4.228,0.005289159848987242
4.232,0.0052974297957535344
4.236,0.005286419227093763
4.24,0.005296948984895029
4.244,0.005280577375162924
4.248,0.005291515822193918
4.252,0.0053044015532018604
4.256,0.005320845284562741
4.26,0.005361594004821063
4.264,0.005318176784298036
4.268,0.005298752025614424
4.272,0.005324571568716157
4.276,0.005330124934131892
4.28,0.0053486601927272715
4.284,0.005342145205594525
4.288,0.0053125753377964505
4.292,0.005330004731417266
4.296,0.0053368322456080405
4.3,0.005328682501556377
4.304,0.005340366205418054
4.308,0.0053431068273115355
4.312,0.005341832678536496
4.316,0.005337505380809948
4.32,0.005342241367766226
4.324,0.00535993520735922
4.328,0.005377725209123914
4.332,0.005322383879309957
4.336,0.005349044841414075
4.34,0.0053763308576342496
4.344,0.005362868153596102
4.348,0.005380826439161273
4.352,0.0053990010896127726
4.356,0.005352650922852865
4.36,0.005371474667963346
4.364,0.005389072345384639
4.368,0.005388038602038852
4.372,0.005396044102832965
4.376,0.00538373534485523
4.38,0.0053997944275293065
4.384,0.005400611805988765
4.388,0.005391187913162062
4.392,0.005414002388398137
4.396,0.005424460024570627
4.4,0.005383975750284483
4.404,0.0053878222371525255
4.408,0.005412944604509425
4.412,0.00543114329550385
4.416,0.005435470593230397
4.42,0.005404987184801163
4.424,0.00540469869828606
4.428,0.00543667262037666
4.432,0.005444245391398119
4.436,0.0054384756610960545
4.44,0.0054583091090093985
4.444,0.005437249593406866
4.448,0.005451505635361549
4.452,0.005463117217594451
4.456,0.0054653529880865
4.46,0.0054694879614696455
4.464,0.005473334448337688
4.468,0.0054243638623989255
4.472,0.005443980945425941
4.476,0.005468478258666785
4.48,0.00548864827418108
4.484,0.005484873908941814
4.488,0.005452707662507812
4.492,0.005464872177227995
4.496,0.005495019018056276
4.5,0.005484609462969636
4.5040000000000004,0.005492951531364703
4.508,0.005511991641361512
4.5120000000000005,0.005491172531188234
4.516,0.00549261496376375
4.5200000000000005,0.005495716193801108
4.524,0.005509010614038779
4.5280000000000005,0.005535190765284391
4.532,0.005516583385060237
4.5360000000000005,0.005492230315076945
4.54,0.005514804384883768
4.5440000000000005,0.005512448411677092
4.548,0.00551865087175181
4.5520000000000005,0.005528579615979944
4.556,0.0055072316138623095
4.5600000000000005,0.005519636534011746
4.564,0.005522689682963254
4.5680000000000005,0.005519035520438614
4.572,0.0055283151700077655
4.5760000000000005,0.005567429133347169
4.58,0.0055189633988098384
4.5840000000000005,0.005514876506512544
4.588,0.005522184831561823
4.5920000000000005,0.0055449752662549735
4.596,0.005562236376075312
4.6000000000000005,0.005553798145508545
4.604,0.005536993806003786
4.6080000000000005,0.005548148617921108
4.612,0.005552115307503777
4.616,0.005555841591657192
4.62,0.005565722254799475
4.624,0.005547860131406005
4.628,0.00556656367380186
4.632,0.005570386120126976
4.636,0.005568342673978329
4.64,0.005585675905427444
4.644,0.005615510219197696
4.648,0.005598633758064161
4.652,0.005603850555878944
4.656,0.005597023041688169
4.66,0.0055872145001746604
4.664,0.005616688205801034
4.668,0.005578848391236669
4.672,0.005565073160140493
4.676,0.005606591177772424
4.68,0.005616616084172259
4.684,0.005603441866649214
4.688,0.005615582340826472
4.692,0.005595965257799458
4.696,0.00559707112277402
4.7,0.005624357138994194
4.704,0.005624886030938549
4.708,0.005625030274196101
4.712,0.005640320059496569
4.716,0.005623179152390856
4.72,0.005624837949852699
4.724,0.00563904591072153
4.728,0.005638901667463979
4.732,0.005646113830341558
4.736,0.0056401998567819425
4.74,0.00563731499163091
4.744,0.0056463061546849595
4.748,0.0056750105629377245
4.752,0.005669697602951241
4.756,0.005672750751902749
4.76,0.005659288047864602
4.764,0.005680371604010058
4.768,0.005681333225727068
4.772,0.005681910198757275
4.776,0.00568102069866904
4.78,0.005660778561525968
4.784,0.005647964952146803
4.788,0.0056700101300092695
4.792,0.0056956373487676
4.796,0.00569929151129224
4.8,0.005695396943338348
4.804,0.00565996118306651
4.808,0.005663879791563327
4.812,0.005675779860311332
4.816,0.005681862117671424
4.82,0.005683136266446463
4.824,0.005687199118200832
4.828,0.005660441993925015
4.832,0.005688689631862199
4.836,0.00568695871277158
4.84,0.00569609411908318
4.844,0.005711359863840722
4.848,0.005698113524688902
4.852,0.005685420118024363
4.856,0.005706191147111791
4.86,0.00572071163503865
4.864,0.00572857289257521
4.868,0.005735352325680135
4.872,0.005713066742388416
4.876,0.005727515108686499
4.88,0.005738453555717495
4.884,0.005739655582863758
4.888,0.005737780420515587
4.892,0.005740713366752469
4.896,0.005713571593789846
4.9,0.005710614607010039
4.904,0.005726072676110984
4.908,0.00575208454355612
4.912,0.005770667883237348
4.916,0.005724293675934514
4.92,0.00573080866306726
4.924,0.005759224584804923
4.928,0.00578675100645435
4.932,0.005789635871605381
4.936,0.005782183303298548
4.94,0.005749920894692845
4.944,0.005770932329209525
4.948,0.005790309006807289
4.952,0.005793746804445601
4.956,0.005814782279505206
4.96,0.005783529573702363
4.964,0.00575583486825246
4.968,0.005753599097760411
4.972,0.005770138991292992
4.976,0.005786678884825574
4.98,0.005809204873546546
4.984,0.0057588880172039685
4.988,0.005791030223095047
4.992,0.005801944629583116
4.996,0.00581918169886053
5.0,0.005832812686699154
5.0040000000000004,0.00581095983318009
5.008,0.0057896599121483065
5.0120000000000005,0.005814782279505206
5.016,0.0058319953082396955
5.0200000000000005,0.005830985605436834
5.024,0.005836130281622841
5.0280000000000005,0.005827091037482942
5.032,0.005825480321106949
5.0360000000000005,0.0058146380362476555
5.04,0.005843126079614092
5.0440000000000005,0.005861372851694367
5.048,0.005875172123333468
5.0520000000000005,0.00582379748310218
5.056,0.005839351714374826
5.0600000000000005,0.005865002973676082
5.064,0.005855242513248425
5.0680000000000005,0.005856396459308837
5.072,0.005842501025498035
5.0760000000000005,0.005830817321636358
5.08,0.005857117675596595
5.0840000000000005,0.005879283056173688
5.088,0.005876398191022657
5.0920000000000005,0.005888706949000393
5.096,0.0058625989193835555
5.1000000000000005,0.005863248014042538
5.104,0.005864954892590231
5.1080000000000005,0.005880052353547297
5.112,0.005912507086496403
5.1160000000000005,0.0058965441659940285
5.12,0.005878225272284977
5.124,0.005891471611436798
5.128,0.005887216435339026
5.132,0.005874138379987682
5.136,0.00591226668106715
5.14,0.005889596449088627
5.144,0.005870388055291341
5.148,0.005892433233153808
5.152,0.0058982029634558715
5.156,0.005894669003645858
5.16,0.0059346003454447205
5.164,0.005913011937897833
5.168,0.005904020774843785
5.172,0.005893274652156192
5.176,0.005905463207419301
5.18,0.00594500990053136
5.184,0.005942702008410535
5.188,0.005899645396031387
5.192,0.005929864358488443
5.196,0.005921089560320722
5.2,0.005929335466544087
5.204,0.005948447698169672
5.208,0.0059243590741585575
5.212,0.005935201359017852
5.216,0.00596104494266251
5.22,0.005953087522954249
5.224,0.005958905334342162
5.228,0.0059795561607149635
5.232,0.005931378912692735
5.236,0.005925248574246793
5.24,0.005953928941956632
5.244,0.005956861888193514
5.248,0.0059689302407419965
5.252,0.005945490711389865
5.256,0.005937196724080649
5.26,0.005955731982676027
5.264,0.005972175714036907
5.268,0.005975228862988416
5.272,0.005993716040497943
5.276,0.005953207725668875
5.28,0.005978786863341355
5.284,0.005980950512204628
5.288,0.005980734147318301
5.292,0.005998427986911295
5.296,0.006004510244271386
5.3,0.005970781362547242
5.304,0.005980325458088571
5.308,0.0059867683235925425
5.312,0.00600342841983975
5.316,0.006031531814519383
5.32,0.0059905667293747335
5.324,0.005981575566320685
5.328,0.006012996555924004
5.332,0.006014294745241969
5.336,0.006016049704875513
5.34,0.006037229423192671
5.344,0.006012684028865976
5.348,0.006027156435706984
5.352,0.006007347028336567
5.356,0.006025834205846095
5.36,0.0060409316668031615
5.364,0.006015568894017008
5.368,0.005985878823504307
5.372,0.006011650285520189
5.376,0.006023766719154522
5.38,0.0060375900313365495
5.384,0.006040498937030506
5.388,0.005998067378767416
5.392,0.0060049189335011155
5.396,0.006021819435177576
5.4,0.006012323420722097
5.404,0.006021530948662473
5.408,0.0060452108834438585
5.412,0.006030233625201418
5.416,0.006029704733257062
5.42,0.006014102420898566
5.424,0.006041604802005069
5.428,0.00608317090072285
5.432,0.006067304142392175
5.436,0.006022492570379483
5.44,0.006041172072232414
5.444,0.0060577360063079205
5.448,0.006068530210081364
5.452,0.006075429845900914
5.456,0.006049153532483601
5.46,0.006072376696949405
5.464,0.006081968873576587
5.468,0.0060827141304072695
5.472,0.0060946141991552755
5.476,0.006103629402752249
5.48,0.00608860406342396
5.484,0.006085190306328572
5.488,0.006084252725154487
5.492,0.00609321984766561
5.496,0.006128992175538401
5.5,0.006094662280241126
5.5040000000000004,0.006080430278829369
5.508,0.0060861278875026575
5.5120000000000005,0.006113582187523308
5.516,0.006138343946736329
5.5200000000000005,0.006138969000852386
5.524,0.006110841565629828
5.5280000000000005,0.006123438810122666
5.532,0.00612793439164969
5.5360000000000005,0.006131564513631405
5.54,0.006138223744021703
5.5440000000000005,0.00615305675900659
5.548,0.006109855903369892
5.5520000000000005,0.006116443012131414
5.556,0.006120986674744289
5.5600000000000005,0.006130771175714872
5.564,0.006151878772403252
5.5680000000000005,0.006111586822460511
5.572,0.006110288633142547
5.5760000000000005,0.006131059662229974
5.58,0.006137382325019319
5.5840000000000005,0.0061488256234517435
5.588,0.006165221273726773
5.5920000000000005,0.006148585218022491
5.596,0.006164980868297521
5.6000000000000005,0.006143536704008186
5.604,0.006134040689552707
5.6080000000000005,0.006161470949030432
5.612,0.006155989705243473
5.6160000000000005,0.0061514460426305975
5.62,0.006146782177303097
5.6240000000000006,0.006172433436604352
5.628,0.006186905843445362
5.632,0.006185439370326921
5.636,0.006145099339298328
5.64,0.006163249949206901
5.644,0.006180895707714046
5.648,0.006183996937751405
5.652,0.006200272385311808
5.656,0.0062043352370661775
5.66,0.006168899476794339
5.664,0.006173755666465242
5.668,0.006176279923472395
5.672,0.006190584046512927
5.676,0.006223567671406388
5.68,0.00620224370983168
5.684,0.00617361142320769
5.688,0.00618402097829433
5.692,0.006201209966485894
5.696,0.0062162353058141835
5.7,0.006225731320269662
5.704,0.006185896140642501
5.708,0.006202772601776036
5.712,0.00622056260354073
5.716,0.0062023639125463065
5.72,0.0062119560891734866
5.724,0.006202892804490662
5.728,0.006213037913605123
5.732,0.00621462458943819
5.736,0.006200632993455687
5.74,0.0062043352370661775
5.744,0.006236429361871405
5.748,0.006214360143466013
5.752,0.006233352172376971
5.756,0.006238953618878558
5.76,0.006243160713890479
5.764,0.006252488444545481
5.768,0.006252536525631331
5.772,0.006228063252933413
5.776,0.006243377078776807
5.78,0.006258450499190946
5.784,0.006251166214684592
5.788,0.006265037607952469
5.792,0.006247656295417503
5.796,0.006228159415105114
5.8,0.006228159415105114
5.804,0.0062305875099405664
5.808,0.0062496516604803
5.812,0.006281144771712395
5.816,0.006249242971250571
5.82,0.006243064551718778
5.824,0.006267177216272817
5.828,0.006270590973368204
5.832,0.006275519284667883
5.836,0.006274870190008901
5.84,0.006263282648318924
5.844,0.006284991258580437
5.848,0.006285904799211597
5.852,0.006276961717243399
5.856,0.0063040073280343206
5.86,0.006292684232316522
5.864,0.006291698570056585
5.868,0.0062792696093642245
5.872,0.0062681628785327525
5.876,0.006299271341078044
5.88,0.006322398343372147
5.884,0.0062825872042879104
5.888,0.006290232096938145
5.892,0.006305089152465957
5.896,0.006315426585923821
5.9,0.00631487365343654
5.904,0.006300954179082812
5.908,0.006298333759903958
5.912,0.006326365032954815
5.916,0.006319826005279143
5.92,0.006327855546616181
5.924,0.006334634979721106
5.928,0.0062987664896766125
5.932,0.006314176477691707
5.936,0.006309272206934953
5.94,0.00632629291132604
5.944,0.0063475207107290465
5.948,0.006330259600908708
5.952,0.006317686396958795
5.956,0.006348001521587552
5.96,0.0063597573470780076
5.964,0.006347881318872926
5.968,0.006378196443501685
5.972,0.006367618604614569
5.976,0.006366729104526334
5.98,0.006358459157760043
5.984,0.006353747211346692
5.988,0.006354949238492955
5.992,0.006364228888062107
5.996,0.006355622373694862
6.0,0.006362401806799787
6.0040000000000004,0.00634877081896116
6.008,0.006371176604967508
6.0120000000000005,0.006388125187729818
6.016,0.0063688687128466825
6.0200000000000005,0.006334947506779134
6.024,0.0063613440229110755
6.0280000000000005,0.0063599977525072605
6.032,0.006372066105055743
6.0360000000000005,0.006395649877665426
6.04,0.006369253361533487
6.0440000000000005,0.0063775954299285535
6.048,0.006379710997705976
6.0520000000000005,0.006367979212758448
6.056,0.0063856009307226656
6.0600000000000005,0.0064104107710215375
6.064,0.006384062335975449
6.0680000000000005,0.006386730836240153
6.072,0.006392644809799768
6.0760000000000005,0.006413175433457942
6.08,0.006432479989426929
6.0840000000000005,0.006402573554027902
6.088,0.006414810190376861
6.0920000000000005,0.00642937875938957
6.096,0.006435917787065242
6.1000000000000005,0.00643983639556206
6.104,0.006454525167289397
6.1080000000000005,0.006431590489338695
6.112,0.006435196570777484
6.1160000000000005,0.00643755254398416
6.12,0.006430099975677328
6.1240000000000006,0.006447553409841069
6.128,0.00646075166790704
6.132000000000001,0.006418993244845857
6.136,0.006423609029087507
6.140000000000001,0.006433922422002445
6.144,0.00645344334285776
6.148,0.006477219439810845
6.152,0.006438442044072394
6.156,0.00645486173489035
6.16,0.0064670262496105335
6.164,0.0064659203846359715
6.168,0.006466761803638356
6.172,0.006470151520190818
6.176,0.006442408733655063
6.18,0.0064574340729833535
6.184,0.006465463614320392
6.188,0.006482027548395898
6.192,0.0064962114687218036
6.196,0.006477003074924517
6.2,0.006473421034028653
6.204,0.006473973966515935
6.208,0.006477796412841051
6.212,0.006475680845063629
6.216,0.006482844926855357
6.22,0.0064617132896240504
6.224,0.006487076062410203
6.228,0.006497894306726572
6.232,0.006498879968986507
6.236,0.006496644198494458
6.24,0.006485273021690809
6.244,0.006479262885959493
6.248,0.006492172657510359
6.252,0.006476930953295742
6.256,0.006506140212949937
6.26,0.0065438838653426
6.264,0.006504313131687617
6.268,0.0064816188591661685
6.272,0.006521454038793329
6.276,0.006522295457795714
6.28,0.006520444335990468
6.284,0.006525180322946745
6.288,0.006487773238155036
6.292,0.006518569173642298
6.296,0.006537753526896658
6.3,0.006523954255257557
6.304,0.006541023040734494
6.308,0.006537825648525434
6.312,0.0065275122556104955
6.316,0.006531334701935613
6.32,0.006520997268477749
6.324,0.006535301391518281
6.328,0.006555952217891083
6.332,0.006516573808579501
6.336,0.006530877931620033
6.34,0.006537801607982508
6.344,0.006542729919282187
6.348,0.006548163081983297
6.352,0.006541503851592999
6.356,0.006544869527602536
6.36,0.006560495880503958
6.364,0.0065646308538871035
6.368,0.006543691540999198
6.372,0.006569607246272633
6.376,0.0065747759630015645
6.38,0.006552274014823518
6.384,0.006561745988736072
6.388,0.0065686696650985475
6.392,0.006573357570968974
6.396,0.006598023168010294
6.4,0.0065558320151764575
6.404,0.00654753802786724
6.408,0.006563236502397438
6.412,0.00656850138129807
6.416,0.0065697755300731095
6.42,0.006568597543469772
6.424,0.006558067785668507
6.428,0.006565376110717787
6.432,0.006564366407914925
6.436,0.0065769876929506884
6.44,0.0065965807354347785
6.444,0.0065860269370905875
6.448,0.00659170050522095
6.452,0.006592325559337007
6.456,0.006600908033161326
6.46,0.00660403330374161
6.464,0.006607206655407745
6.468,0.006576771328064362
6.472,0.006587180883151
6.476,0.006588190585953862
6.48,0.006597662559866415
6.484,0.006615668926517437
6.488,0.006604249668627937
6.492,0.00659033019427421
6.496,0.006615380440002334
6.5,0.006613072547881509
6.5040000000000004,0.006609009696127139
6.508,0.00664651294309055
6.5120000000000005,0.006624371603056382
6.516,0.006603480371254329
6.5200000000000005,0.006588767558984068
6.524,0.00661682287257785
6.5280000000000005,0.006645118591600885
6.532,0.006644060807712173
6.5360000000000005,0.00661321679113906
6.54,0.006624179278712981
6.5440000000000005,0.0066267756573489085
6.548,0.006623914832740802
6.5520000000000005,0.006654975214200245
6.556,0.006637425617864801
6.5600000000000005,0.006629492238699464
6.564,0.0066203568323878635
6.5680000000000005,0.006627304549293265
6.572,0.0066658896206883145
6.5760000000000005,0.006673606634967324
6.58,0.006629756684671642
6.5840000000000005,0.006634829239228872
6.588,0.006655768552116779
6.5920000000000005,0.006651369132761455
6.596,0.006662379701421226
6.6000000000000005,0.006668317715523766
6.604,0.006651248930046829
6.6080000000000005,0.006667860945208186
6.612,0.0066632692015094605
6.6160000000000005,0.006662668187936329
6.62,0.006658773619982437
6.6240000000000006,0.006649590132584986
6.628,0.006681131324902931
6.632000000000001,0.006692694826049983
6.636,0.006691949569219299
6.640000000000001,0.006709330881754265
6.644,0.006712215746905297
6.648000000000001,0.006654806930399768
6.652,0.006656417646775761
6.656000000000001,0.006678823432782106
6.66,0.006700820529558722
6.664,0.00670844138166603
6.668,0.006674712499941886
6.672,0.006658485133467333
6.676,0.006684064271139814
6.68,0.006699402137526131
6.684,0.006678871513867956
6.688,0.006702719732449818
6.692,0.0066781743381231235
6.696,0.006705893084115952
6.7,0.00671072523324393
6.704,0.0066869010552049945
6.708,0.006688463690495136
6.712,0.006709042395239162
6.716,0.006697070204862381
6.72,0.006703248624394174
6.724,0.006714355355225645
6.728,0.006710749273786855
6.732,0.00671159069278924
6.736,0.006690867744787663
6.74,0.006709378962840115
6.744,0.006741929857960922
6.748,0.006732337681333742
6.752,0.006724067734567451
6.756,0.0067464494800308725
6.76,0.0067228897479641135
6.764,0.006732746370563472
6.768,0.006723274396650917
6.772,0.0067343090058536136
6.776,0.0067627008870483505
6.78,0.0067289960458671305
6.784,0.006700508002500693
6.788,0.006719139423267772
6.792,0.0067441415879100465
6.796,0.006759431373210514
6.8,0.006766042522514962
6.804,0.006736496695259812
6.808,0.006752892345534843
6.812,0.006751329710244701
6.816,0.006756907116203362
6.82,0.006756762872945811
6.824,0.006754166494309882
6.828,0.006733131019250276
6.832,0.006748468885636595
6.836,0.0067611142112152835
6.84,0.0067813323078154296
6.844,0.0067928236873337055
6.848,0.006783616159393329
6.852,0.006751185466987149
6.856,0.006786236578572183
6.86,0.006784794145996667
6.864,0.006782822821476795
6.868,0.006800420498898088
6.872,0.00678635678128681
6.876,0.006808474080778052
6.88,0.006795371984883784
6.884,0.006773759536793972
6.888,0.006793665106336089
6.892,0.006808450040235127
6.896,0.006804026580336878
6.9,0.006805565175084095
6.904,0.006805396891283618
6.908,0.006805036283139739
6.912,0.0068088346889219305
6.916,0.006787150119203343
6.92,0.0067854913217415
6.924,0.006810277121497447
6.928,0.0068210472847279645
6.932,0.00680970014846724
6.936,0.006805757499427497
6.94,0.006793328538735136
6.944,0.006821504055043544
6.948,0.006801261917900473
6.952,0.00678594809205708
6.956,0.006830903907327322
6.96,0.006835327367225571
6.964,0.006815109270625425
6.968,0.00683066350189807
6.972,0.006826624690686626
6.976,0.006833067556190596
6.98,0.006844390651908396
6.984,0.006808161553720023
6.988,0.0068238119471643694
6.992,0.006839414259522865
6.996,0.006842178921959271
7.0,0.006851698976957676
7.0040000000000004,0.006862469140188194
7.008,0.0068484775442056904
7.0120000000000005,0.006886028872254952
7.016,0.006868671600262912
7.0200000000000005,0.006862925910503774
7.024,0.006882062182672284
7.0280000000000005,0.0068627576267032975
7.032,0.006862397018559418
7.0360000000000005,0.006863839451134934
7.04,0.006832803110218418
7.0440000000000005,0.006852299990530808
7.048,0.006871652627585645
7.0520000000000005,0.006824028312050697
7.056,0.006841049016441784
7.0600000000000005,0.006853021206818566
7.064,0.006848693909092018
7.0680000000000005,0.006858093761375796
7.072,0.006856266680113476
7.0760000000000005,0.0068568196126007576
7.08,0.006873143141247011
7.0840000000000005,0.0068553050583964655
7.088,0.006869248573293118
7.0920000000000005,0.006916319956340784
7.096,0.006880307223038739
7.1000000000000005,0.006861194991413155
7.104,0.006868647559719987
7.1080000000000005,0.00689913096814922
7.112,0.006922762821844754
7.1160000000000005,0.006905766157996593
7.12,0.006872494046588028
7.1240000000000006,0.006882951682760518
7.128,0.006904179482163526
7.132000000000001,0.006907160509486259
7.136,0.006898986724891669
7.140000000000001,0.00689040425106735
7.144,0.006885403818138895
7.148000000000001,0.006868647559719987
7.152,0.006866916640629368
7.156000000000001,0.0068843219937072585
7.16,0.00688766362917387
7.164000000000001,0.006871917073557822
7.168,0.006879826412180234
7.172,0.006891077386269258
7.176,0.006906823941885304
7.18,0.006943966580704839
7.184,0.006918195118688954
7.188,0.006879369641864654
7.192,0.006901294617012495
7.196,0.006908242333917895
7.2,0.0068976404544878545
7.204,0.0069219694839282205
7.208,0.006926368903283544
7.212,0.006919781794522022
7.216,0.006923532119218363
7.22,0.006911103158526001
7.224,0.006923363835417886
7.228,0.006952044203127727
7.232,0.00692466202473585
7.236,0.00692608041676844
7.24,0.006930864484810568
7.244,0.006944182945591166
7.248,0.006943966580704839
7.252,0.00692557556536701
7.256,0.0069176902672875235
7.26,0.006934638850049834
7.264,0.0069448320402501484
7.268,0.0069245899031070745
7.272,0.006947668824315329
7.276,0.006929542254949679
7.28,0.006936441890769229
7.284,0.006940120093836794
7.288,0.006942884756273202
7.292,0.006958583230803399
7.296,0.006960698798580822
7.3,0.0069314895389266246
7.304,0.006945288810565728
7.308,0.00695512139262216
7.312,0.006963511542103077
7.316,0.006977623340800207
7.32,0.006958366865917071
7.324,0.006957958176687342
7.328,0.006971108353667461
7.332,0.006968415812859831
7.336,0.006967117623541867
7.34,0.006996615369711165
7.344,0.006969137029147589
7.348,0.006968584096660308
7.352,0.006971420880725489
7.356,0.006971252596925013
7.36,0.007008731803345498
7.364,0.006991134125924205
7.368,0.006952308649099905
7.372,0.006976517475825645
7.376,0.006976204948767616
7.38,0.006974113421533119
7.384,0.006991783220583187
7.388,0.006982816098072064
7.392,0.007000389734950431
7.396,0.0069943795992191155
7.4,0.006976373232568093
7.404,0.006999404072690496
7.408,0.00701440537147586
7.412,0.006968680258832009
7.416,0.0069832007467588685
7.42,0.006983633476531523
7.424,0.0069927929233860485
7.428,0.007023829264302563
7.432,0.007008539479002096
7.436,0.006993009288272375
7.44,0.006996350923738987
7.444,0.007006664316653925
7.448,0.007011400303610202
7.452,0.007027579588998904
7.456,0.007009092411489377
7.46,0.007027291102483801
7.464,0.007030825062293814
7.468,0.007021112682952009
7.472,0.0070338541707023975
7.476,0.00705404822675962
7.48,0.007009645343976658
7.484,0.007003707329874118
7.488,0.007023059966928954
7.492,0.007034623468076006
7.496,0.007057798551455961
7.5,0.007010919492751697
7.5040000000000004,0.0070007984241801605
7.508,0.007009308776375704
7.5120000000000005,0.007031402035324021
7.516,0.007038445914401123
7.5200000000000005,0.007039263292860582
7.524,0.007025656345564883
7.5280000000000005,0.007033036792242939
7.532,0.007022747439870926
7.5360000000000005,0.007032892548985387
7.54,0.007071549742009212
7.5440000000000005,0.007051187402151514
7.548,0.007018852871917033
7.5520000000000005,0.007044792617733393
7.556,0.007064746268361362
7.5600000000000005,0.007070708323006827
7.564,0.007077175229053724
7.5680000000000005,0.007043566550044205
7.572,0.007059216943488551
7.5760000000000005,0.007052461550926553
7.58,0.007049576685775521
7.5840000000000005,0.007077319472311275
7.588,0.0070882579193422696
7.5920000000000005,0.007058904416430523
7.596,0.007067438809168992
7.6000000000000005,0.007051596091381243
7.604,0.007061019984207946
7.6080000000000005,0.00709876363660061
7.612,0.007085180729847836
7.6160000000000005,0.007071669944723838
7.62,0.007068496593057703
7.6240000000000006,0.007074314404445617
7.628,0.007079410999545773
7.632000000000001,0.007083425770214292
7.636,0.007061428673437676
7.640000000000001,0.007089652270831935
7.644,0.007097826055426524
7.648000000000001,0.007101167690893136
7.652,0.007110351178290586
7.656000000000001,0.007103956393872467
7.66,0.00708561345962049
7.664000000000001,0.007082079499810477
7.668,0.007087584784140362
7.672000000000001,0.0070882579193422696
7.676,0.007099124244744489
7.68,0.007082728594469459
7.684,0.007085661540706341
7.688,0.007097705852711898
7.692,0.007120664571205524
7.696,0.00711753930062524
7.7,0.007116457476193603
7.704,0.007057293700054531
7.708,0.0070890512572588035
7.712,0.007094075730730183
7.716,0.007093354514442426
7.72,0.007119702949488514
7.724,0.007118332638541774
7.728,0.007111649367608551
7.732,0.007101840826095043
7.736,0.007118068192569596
7.74,0.007134175356329523
7.744,0.007152782736553677
7.748,0.0071139332191864505
7.752,0.007108644299742893
7.756,0.007109149151144323
7.76,0.007110543502633989
7.764,0.007127756531368477
7.768,0.00712439085535894
7.772,0.0071087885430004445
7.776,0.0071330454508120355
7.78,0.007130497153261957
7.784,0.007126049652820783
7.788,0.007145642695304874
7.792,0.007114221705701554
7.796,0.007126554504222214
7.8,0.007132877167011558
7.804,0.007134007072529046
7.808,0.007146003303448753
7.812,0.0071707169815759236
7.816,0.007127299761052897
7.82,0.007131891504751622
7.824,0.007158336101969413
7.828,0.007167134940680059
7.832,0.007157254277537776
7.836,0.007156581142335869
7.84,0.007136507288993273
7.844,0.007145137843903444
7.848,0.007133454140041765
7.852,0.007140714384005195
7.856,0.007171005468091027
7.86,0.007155908007133962
7.864,0.007151700912122041
7.868,0.007152806777096603
7.872,0.007169563035515511
7.876,0.007176727117307239
7.88,0.007174106698128385
7.884,0.007139680640659409
7.888,0.007142950154497244
7.892,0.007165548264846992
7.896,0.007179708144629972
7.9,0.007186151010133942
7.904,0.007155042547588652
7.908,0.007166101197334273
7.912,0.00718591060470469
7.916,0.007185766361447138
7.92,0.007186992429136327
7.924,0.007222812838094969
7.928,0.007178674401284186
7.932,0.0071657165486474685
7.936,0.007166149278420124
7.94,0.007185309591131559
7.944,0.007187545361623608
7.948,0.007199685835800866
7.952,0.0071654040215894405
7.956,0.007200767660232503
7.96,0.007202282214436795
7.964,0.007177472374137923
7.968,0.007199685835800866
7.972,0.007193267010839821
7.976,0.0072040131335274135
7.98,0.0072030515118104025
7.984,0.00718225644218005
7.988,0.00719646440304888
7.992,0.007232308852550448
7.996,0.007185477874932036
8.0,0.007178914806713438
8.004,0.007174539427901041
8.008000000000001,0.007195094092102141
8.012,0.0072074990122515765
8.016,0.007193795902784177
8.02,0.0071902138618883124
8.024000000000001,0.007206513349991641
8.028,0.007210864688261113
8.032,0.007203484241583058
8.036,0.007216995026707055
8.040000000000001,0.007206729714877968
8.044,0.007217764324080664
8.048,0.0072050468768732
8.052,0.0072005753358891
8.056000000000001,0.00724646873233343
8.06,0.007242910731980491
8.064,0.007195166213730916
8.068,0.007195118132645065
8.072000000000001,0.007212763891152209
8.076,0.007219567364800059
8.08,0.007243800232068726
8.084,0.007221346364976528
8.088000000000001,0.007226010230304029
8.092,0.00724550711061642
8.096,0.007242886691437566
8.1,0.007239833542486058
8.104000000000001,0.007256541719819116
8.108,0.0072261304330186555
8.112,0.007254017462811963
8.116,0.007239593137056805
8.120000000000001,0.0072250966896728695
8.124,0.007262792260979684
8.128,0.007254209787155365
8.132,0.007243079015780968
8.136000000000001,0.007254305949327066
8.14,0.007248488137939152
8.144,0.007250892192231679
8.148,0.007265100153100509
8.152000000000001,0.0072333425958962345
8.156,0.007241107691261096
8.16,0.00725875344976824
8.164,0.007255387773758703
8.168000000000001,0.007271927667291284
8.172,0.007275485667644223
8.176,0.007237910299052037
8.18,0.007244112759126754
8.184000000000001,0.007248656421739629
8.188,0.007253007760009102
8.192,0.007282289141292073
8.196,0.007257455260450275
8.2,0.0072465168134192804
8.204,0.007276182843389056
8.208,0.007289693628513054
8.212,0.007290006155571082
8.216,0.007304574724583792
8.22,0.00727113432937475
8.224,0.007280462060029753
8.228,0.007272889289008295
8.232,0.007265484801787314
8.236,0.007290751412401765
8.24,0.00729387668298205
8.244,0.007264306815183976
8.248,0.007271855545662508
8.252,0.007270725640145021
8.256,0.007267287842506708
8.26,0.0072919534395480285
8.264,0.007275942437959803
8.268,0.007255580098102105
8.272,0.007261301747318318
8.276,0.0072906792907729895
8.28,0.007296569223789679
8.284,0.007304743008384269
8.288,0.00726743208576426
8.292,0.007289092614939922
8.296,0.007298684791567102
8.3,0.007294117088411302
8.304,0.00730721918430557
8.308,0.007303997751553585
8.312,0.0072882271553946125
8.316,0.007280173573514649
8.32,0.007297074075191109
8.324,0.007313205279493961
8.328,0.007339601795625901
8.332,0.007287602101278556
8.336,0.007288828168967744
8.34,0.007319119253053576
8.344,0.007326980510590137
8.348,0.007328543145880279
8.352,0.007321018455944671
8.356,0.007306017157159307
8.36,0.00733549086278568
8.364,0.0073257304023580236
8.368,0.007310007887284901
8.372,0.0073395296739971255
8.376,0.007331091443430357
8.38,0.007313085076779335
8.384,0.007322797456121141
8.388,0.007348905485737978
8.392,0.007329384564882664
8.396,0.007330899119086955
8.4,0.007318422077308743
8.404,0.007330225983885047
8.408,0.007351598026545608
8.412,0.007353377026722077
8.416,0.007357800486620325
8.42,0.007352776013148946
8.424,0.007322821496664066
8.428,0.007345804255700619
8.432,0.007339577755082976
8.436,0.007349770945283288
8.44,0.007374869272097262
8.444,0.007358401500193457
8.448,0.007345756174614768
8.452,0.007344818593440683
8.456,0.007351549945459757
8.46,0.007373426839521746
8.464,0.007363041324978033
8.468,0.007332509835462947
8.472,0.007362632635748303
8.476,0.007372801785405689
8.48,0.007367681149762609
8.484,0.0073629932438921825
8.488,0.007358834229966112
8.492,0.007358281297478831
8.496,0.007363233649321435
8.5,0.007365854068500289
8.504,0.007357944729877877
8.508000000000001,0.0073720324880320815
8.512,0.007357632202819849
8.516,0.007355348351241949
8.52,0.007366527203702196
8.524000000000001,0.0073830430566918515
8.528,0.007377056961503461
8.532,0.007370830460885818
8.536,0.0073509248913437
8.540000000000001,0.007359363121910468
8.544,0.007355156026898547
8.548,0.00736183929783177
8.552,0.007377489691276116
8.556000000000001,0.007389197435680719
8.56,0.00738239396203287
8.564,0.007381264056515382
8.568,0.0073648203251545025
8.572000000000001,0.007376768474988358
8.576,0.007417973965562259
8.58,0.007378066664306323
8.584,0.007379148488737959
8.588000000000001,0.007395351814669587
8.592,0.007400472450312667
8.596,0.007407949059162425
8.6,0.007395928787699793
8.604000000000001,0.007386841462474043
8.608,0.007411603221687065
8.612,0.007396457679644149
8.616,0.007405713288670375
8.620000000000001,0.007427878669247468
8.624,0.007404342977723635
8.628,0.007397467382447009
8.632,0.0073952556524978855
8.636000000000001,0.007396818287788028
8.64,0.0074316530344867345
8.644,0.007435211034839674
8.648,0.007384245083838115
8.652000000000001,0.0073958085849851665
8.656,0.0074026360991759415
8.66,0.007409559775538417
8.664,0.007415497789640957
8.668000000000001,0.007403525599264176
8.672,0.007401626396373081
8.676,0.007421556006458123
8.68,0.007416940222216473
8.684000000000001,0.007426628561015354
8.688,0.007439466210937446
8.692,0.007411531100058289
8.696,0.007422253182202956
8.700000000000001,0.007418791344021718
8.704,0.007422517628175134
8.708,0.007453626090720426
8.712,0.007444202197893723
8.716,0.00738559135424193
8.72,0.007413598586749862
8.724,0.00741441596520932
8.728,0.007417733560133007
8.732,0.007450500820140141
8.736,0.007425282290611539
8.74,0.007441822184144122
8.744,0.0074662233352132635
8.748,0.0074531452798619205
8.752,0.007442567440974805
8.756,0.007449202630822178
8.76,0.007412372519060673
8.764,0.007439706616366698
8.768,0.007450741225569394
8.772,0.0074489381848499995
8.776,0.00747136801139927
8.78,0.007444923414181481
8.784,0.007424897641924735
8.788,0.0074424472382601786
8.792,0.007457929347904048
8.796,0.007454996401667166
8.8,0.007456967726187038
8.804,0.007428575844992301
8.808,0.007473219133204516
8.812,0.007466992632586872
8.816,0.007453674171806276
8.82,0.00747680117410038
8.824,0.0074896869051083205
8.828,0.0074486256577919715
8.832,0.007463723118749036
8.836,0.0074581457127903756
8.84,0.007459203496679087
8.844,0.00747776279581739
8.848,0.007450020009281636
8.852,0.007450332536339665
8.856,0.007475382782067789
8.86,0.007477834917446166
8.864,0.007474156714378601
8.868,0.007464107767435841
8.872,0.007455621455783223
8.876,0.007473820146777647
8.88,0.007483965255892108
8.884,0.007475310660439013
8.888,0.007495432594867459
8.892,0.007506443163527229
8.896,0.007474877930666359
8.9,0.007470262146424708
8.904,0.007474349038722003
8.908,0.007493677635233915
8.912,0.007520482840595583
8.916,0.007470334268053483
8.92,0.007474421160350779
8.924,0.007473796106234722
8.928,0.0074806476609684215
8.932,0.007478652295905625
8.936,0.0074934131892617365
8.94,0.007489831148365872
8.944,0.0075060344742975
8.948,0.007491898635057445
8.952,0.007472954687232337
8.956,0.007513198556089228
8.96,0.007503414055118646
8.964,0.007503966987605927
8.968,0.0075142563399779394
8.972,0.00750105808191197
8.976,0.007516011299611484
8.98,0.007507476906873016
8.984,0.007473579741348394
8.988,0.007513174515546303
8.992,0.007537383342272045
8.996,0.007531926139028008
9.0,0.007544547424063773
9.004,0.0075431530725741085
9.008000000000001,0.007505890231039948
9.012,0.007513054312831676
9.016,0.007502668798287963
9.02,0.0075149775562656975
9.024000000000001,0.007571472832140069
9.028,0.00753461867983564
9.032,0.007493773797405615
9.036,0.007511539758627385
9.040000000000001,0.0075301230983086135
9.044,0.007538825774847561
9.048,0.007528800868447724
9.052,0.00749237944591595
9.056000000000001,0.007515891096896858
9.06,0.007522550327287156
9.064,0.007519473137792722
9.068,0.007528728746818948
9.072000000000001,0.007535243733951697
9.076,0.00753416190952006
9.08,0.0075498123029644065
9.084,0.007556976384756135
9.088000000000001,0.007558899628190155
9.092,0.007566472399211614
9.096,0.007525603476238664
9.1,0.007531757855227531
9.104000000000001,0.007538032436931027
9.108,0.0075463985458690186
9.112,0.007556639817155181
9.116,0.007543633883432614
9.120000000000001,0.007535796666438978
9.124,0.007579935103249761
9.128,0.007571088183453264
9.132,0.007555029100779188
9.136000000000001,0.0075506777625097155
9.14,0.0075426001400868276
9.144,0.0075498844245931816
9.148,0.007560774790538326
9.152000000000001,0.007558010128101921
9.156,0.007567097453327671
9.16,0.007588373333816528
9.164,0.007525579435695738
9.168000000000001,0.007525387111352337
9.172,0.00756618391269651
9.176,0.007561520047369009
9.18,0.007554283843948505
9.184000000000001,0.007539739315478721
9.188,0.007534714842007341
9.192,0.007567217656042297
9.196,0.007558298614617024
9.200000000000001,0.007556904263127359
9.204,0.007591787090911916
9.208,0.007593518010002535
9.212,0.00758440664423386
9.216000000000001,0.007576809832669477
9.22,0.0075944315506336945
9.224,0.007615418944607449
9.228,0.00760856738987375
9.232,0.007560390141851522
9.236,0.007563010561030376
9.24,0.007595465293979481
9.244,0.007596547118411118
9.248,0.007599095415961196
9.252,0.007581449657454053
9.256,0.0075660637099818845
9.26,0.007591546685482663
9.264,0.007579887022163911
9.268,0.007584623009120188
9.272,0.007614866012120168
9.276,0.007575367400093961
9.28,0.007578372467959619
9.284,0.007572746980915107
9.288,0.007587579995899995
9.292,0.007617847039442901
9.296,0.0076164767284961615
9.3,0.007581497738539903
9.304,0.0075884935365311545
9.308,0.007592147699055795
9.312,0.0075881810094731265
9.316,0.007593758415431787
9.32,0.007595248929093154
9.324,0.007601451389167872
9.328,0.007598710767274391
9.332,0.007582844008943718
9.336,0.0075859452389810764
9.34,0.0076071970789270095
9.344,0.0075756558866090645
9.348,0.0075810409682243235
9.352,0.007582844008943718
9.356,0.007610346390050219
9.36,0.007622631107485028
9.364,0.00763957969024734
9.368,0.007595873983209211
9.372,0.007603735240745772
9.376,0.007612053268597913
9.38,0.007630468324478664
9.384,0.007653282799714741
9.388,0.007625540013178986
9.392,0.007624914959062929
9.396,0.0076241697022322455
9.4,0.0076230638372576836
9.404,0.007625540013178986
9.408,0.007626405472724295
9.412,0.007583781590117803
9.416,0.0076041920110613516
9.42,0.007631165500223497
9.424,0.007635252392520793
9.428,0.0076656155982354
9.432,0.0076453494205494035
9.436,0.007634122487003306
9.44,0.007636502500752907
9.444,0.007621260796538289
9.448,0.007619073107132089
9.452,0.007645084974577225
9.456,0.007643931028516813
9.46,0.007640637474136052
9.464,0.007629098013531925
9.468,0.00764597447466546
9.472,0.007657081205496932
9.476,0.007646287001723488
9.48,0.007628400837787092
9.484,0.007642152028340343
9.488,0.007656384029752099
9.492,0.007668236017414254
9.496,0.00767287584219883
9.5,0.007639435446989789
9.504,0.007639892217305369
9.508000000000001,0.007664750138690091
9.512,0.007667058030810916
9.516,0.007663716395344304
9.52,0.007681193870050971
9.524000000000001,0.007655758975636043
9.528,0.0076629470979706965
9.532,0.007652345218540655
9.536,0.007659942030105039
9.540000000000001,0.007680568815934914
9.544,0.00766830813904303
9.548,0.007638257460386451
9.552,0.007652152894197253
9.556000000000001,0.00766241820602634
9.56,0.00765734565146911
9.564,0.007670832396050182
9.568,0.007644772447519197
9.572000000000001,0.007662995179056546
9.576,0.00766926976076004
9.58,0.007671649774509641
9.584,0.007681265991679747
9.588000000000001,0.007695305668748101
9.592,0.0076675388416694214
9.596,0.0076745105991177474
9.6,0.007667995611985001
9.604000000000001,0.007666793584838738
9.608,0.007691819790023937
9.612,0.007675279896491356
9.616,0.007661264259965927
9.620000000000001,0.007670928558221883
9.624,0.0076720584637393705
9.628,0.007672154625911072
9.632,0.00768566541103507
9.636000000000001,0.007646359123352264
9.64,0.007662658611455593
9.644,0.00767515969377673
9.648,0.007679607194217904
9.652000000000001,0.007700979236878462
9.656,0.007694560411917417
9.66,0.007678837896844295
9.664,0.007689920587132842
9.668000000000001,0.007696844263495317
9.672,0.007718504792670979
9.676,0.0077249957392608
9.68,0.007704657439946028
9.684000000000001,0.00770069075036336
9.688,0.007701580250451594
9.692,0.007713360116484973
9.696,0.007731943456166203
9.700000000000001,0.0077337464968855974
9.704,0.007691435141337133
9.708,0.007692324641425368
9.712,0.007694199803773539
9.716000000000001,0.007689079168130457
9.72,0.007701339845022342
9.724,0.007712759102911842
9.728,0.0077056671427488885
9.732,0.007703671777686092
9.736,0.007695546074177353
9.74,0.0076966278986089895
9.744,0.007729347077530273
9.748,0.007690473519620123
9.752,0.007683910451401526
9.756,0.007709345345816454
9.76,0.007713720724628852
9.764,0.007713768805714703
9.768,0.0077305731452194625
9.772,0.007693190100970677
9.776,0.007725452509576381
9.78,0.007734323469915804
9.784,0.0077308135506487154
9.788,0.007754421363801324
9.792,0.0077317511318228
9.796,0.007718889441357783
9.8,0.007721942590309292
9.804,0.007726245847492914
9.808,0.007740429767818821
9.812,0.007736390956607377
9.816,0.007705715223834739
9.82,0.007727616158439654
9.824,0.007730308699247285
9.828,0.007714682346345862
9.832,0.007735789943034245
9.836,0.007723505225599434
9.84,0.0077147063868887875
9.844,0.007737256416152686
9.848,0.0077390594568720805
9.852,0.0077374006594102375
9.856,0.007765672337890347
9.86,0.007738819051442828
9.864,0.00773627075389275
9.868,0.007742761700482571
9.872,0.007734828321317234
9.876,0.007749252647072392
9.88,0.007753243377197986
9.884,0.007716845995209136
9.888,0.007752233674395125
9.892,0.0077584842155556935
9.896,0.007753195296112136
9.9,0.0077885348942122725
9.904,0.007758123607411814
9.908,0.007741920281480187
9.912,0.007755503188232961
9.916,0.007748771836213887
9.92,0.007760768067133593
9.924,0.007779952420387953
9.928,0.007753459742084313
9.932,0.0077497574984738225
9.936,0.007731150118249669
9.94,0.0077635567701129235
9.944,0.0077889195428990764
9.948,0.007766994567751237
9.952,0.007736607321493704
9.956,0.007750695079647908
9.96,0.0077563446072353446
9.964,0.00775636864777827
9.968,0.007759445837272704
9.972,0.007750622958019132
9.976,0.007748002538840278
9.98,0.007761104634734547
9.984,0.007763989499885579
9.988,0.007777139676865698
9.992,0.007804089125484918
9.996,0.0077603112968180135
10.0,0.007761946053736931
10.004,0.0077737018792273845
10.008000000000001,0.007761705648307678
10.012,0.0077779810958680815
10.016,0.007776298257863313
10.02,0.007780433231246458
10.024000000000001,0.007796901003150264
10.028,0.007803656395712263
10.032,0.007784472042457903
10.036,0.007791179353934051
10.040000000000001,0.007766754162321984
10.044,0.007776899271436445
10.048,0.0077787744337846155
10.052,0.007769999635616895
10.056000000000001,0.0077841835559428
10.06,0.007790818745790172
10.064,0.007765239608117693
10.068,0.007767475378609742
10.072000000000001,0.007787597313038187
10.076,0.007790818745790172
10.08,0.007796083624690805
10.084,0.007777139676865698
10.088000000000001,0.00775910926967175
10.092,0.00778879934018445
10.096,0.007802790936166953
10.1,0.007815893032061223
10.104000000000001,0.007833971520341022
10.108,0.007795458570574748
10.112,0.00779199673239351
10.116,0.007799857989930071
10.120000000000001,0.007816013234775848
10.124,0.007820508816302873
10.128,0.007810700274789365
10.132,0.0077888474212703005
10.136000000000001,0.007798054949210677
10.14,0.007802213963136747
10.144,0.0078016129495636155
10.148,0.007818537491783
10.152000000000001,0.007799353138528641
10.156,0.0077975741383521716
10.16,0.007803920841684441
10.164,0.007799930111558847
10.168000000000001,0.007803752557883964
10.172,0.007828778763069165
10.176,0.00779839151681163
10.18,0.007804810341772676
10.184000000000001,0.007821662762363285
10.188,0.007847698670351348
10.192,0.007865055942343387
10.196,0.00783332242568204
10.200000000000001,0.0078119984641073295
10.204,0.007823057113852951
10.208,0.007817960518752795
10.212,0.007812695639852162
10.216000000000001,0.007834428290656602
10.22,0.007818970221555656
10.224,0.007819282748613684
10.228,0.007818874059383954
10.232000000000001,0.007803992963313217
10.236,0.007836832344949128
10.24,0.007859334293127174
10.244,0.007839572966842609
10.248,0.007840606710188394
10.252,0.007837793966666139
10.256,0.007830004830758354
10.26,0.007851376873418912
10.264,0.007820412654131172
10.268,0.007818513451240076
10.272,0.007837216993635933
10.276,0.007852025968077894
10.28,0.0078502229273585
10.284,0.00787337397019553
10.288,0.00784418875108426
10.292,0.007843756021311604
10.296,0.007844861886286166
10.3,0.007840246102044516
10.304,0.007861065212217794
10.308,0.007859742982356904
10.312,0.007818825978298104
10.316,0.007822624384080296
10.32,0.00782844219546821
10.324,0.007829812506414952
10.328,0.007861882590677252
10.332,0.007837000628749605
10.336,0.00784149621027663
10.34,0.007868277375095373
10.344,0.007858228428152612
10.348,0.00786219511773528
10.352,0.007853901130426066
10.356,0.007834356169027825
10.36,0.007864815536914135
10.364,0.00785524740082988
10.368,0.007857603374036556
10.372,0.00788452878211285
10.376,0.007859526617470577
10.38,0.007833923439255172
10.384,0.0078410875210469
10.388,0.00785753125240778
10.392,0.00785834863086724
10.396,0.007867772523693943
10.4,0.007835870723232118
10.404,0.007866858983062781
10.408,0.007876066511003157
10.412,0.007863036536737665
10.416,0.007872700834993621
10.42,0.007895226823714593
10.424,0.007882485335964202
10.428,0.007901597567589787
10.432,0.00789138033684655
10.436,0.00788996194481396
10.44,0.007918305744922846
10.444,0.007892221755848935
10.448,0.00787722045706357
10.452,0.00787803783552303
10.456,0.007895298945343368
10.46,0.00789457772905561
10.464,0.007905708500430007
10.468,0.00786661857763353
10.472,0.007864166442255153
10.476,0.007880345727643855
10.48,0.007880946741216987
10.484,0.007902030297362443
10.488,0.007882268971077876
10.492,0.007882677660307605
10.496,0.007882365133249577
10.5,0.00787027274015817
10.504,0.007893712269510302
10.508000000000001,0.007913545717423644
10.512,0.007853083751966606
10.516,0.007864527050399032
10.52,0.007892967012679619
10.524000000000001,0.007901958175733666
10.528,0.007902390905506321
10.532,0.00788452878211285
10.536,0.00786580119917407
10.540000000000001,0.007892726607250366
10.544,0.007896525013032557
10.548,0.007871066078074702
10.552,0.007872051740334639
10.556000000000001,0.007867652320979315
10.56,0.007875994389374382
10.564,0.007879119659954666
10.568,0.007877701267922076
10.572000000000001,0.00790005897284257
10.576,0.007924003353596132
10.58,0.007891163971960224
10.584,0.007892726607250366
10.588000000000001,0.007911574392903771
10.592,0.007922488799391841
10.596,0.007922777285906945
10.6,0.007915036231085009
10.604000000000001,0.007893880553310778
10.608,0.00790686244649042
10.612,0.00789645289140378
10.616,0.007897919364522223
10.620000000000001,0.007920613637043671
10.624,0.00790594890585926
10.628,0.007893087215394244
10.632,0.007900227256643048
10.636000000000001,0.00791325723090854
10.64,0.00792609488083063
10.644,0.007931864611132695
10.648,0.007914098649910925
10.652000000000001,0.007926311245716957
10.656,0.00792864317838071
10.66,0.007942754977077839
10.664,0.007939773949755107
10.668000000000001,0.007912776420050035
10.672,0.007923594664366403
10.676,0.007932970476107257
10.68,0.007907126892462597
10.684000000000001,0.007912463892992007
10.688,0.007959895884183553
10.692,0.007920830001929998
10.696,0.007909290541325872
10.700000000000001,0.00792809024589343
10.704,0.007940182638984836
10.708,0.007966338749687522
10.712,0.007941264463416474
10.716000000000001,0.007898712702438755
10.72,0.007913569757966568
10.724,0.007930422178557179
10.728,0.007933523408594538
10.732000000000001,0.007949678653440316
10.736,0.00793539857094271
10.74,0.007934893719541277
10.744,0.00792294556970742
10.748000000000001,0.007907295176263075
10.752,0.007922464758848917
10.756,0.007939461422697079
10.76,0.007914050568825074
10.764,0.007909194379154171
10.768,0.007906189311288513
10.772,0.00792655165114621
10.776,0.007937874746864011
10.78,0.007922657083192319
10.784,0.007897029864433988
10.788,0.007925109218570694
10.792,0.007955352221570677
10.796,0.00794655338286003
10.8,0.007971291101530126
10.804,0.007944413774539683
10.808,0.007972637371933941
10.812,0.007975882845228852
10.816,0.00794340407173682
10.82,0.007976171331743956
10.824,0.007985090373169228
10.828,0.007930085610956225
10.832,0.00793147996244589
10.836,0.007968911087780526
10.84,0.007967084006518205
10.844,0.007963646208879894
10.848,0.007930398138014254
10.852,0.00792727286743397
10.856,0.007957059100118371
10.86,0.00795696293794667
10.864,0.007953453018679581
10.868,0.007965064600912484
10.872,0.007937105449490403
10.876,0.007963093276392611
10.88,0.007951794221217738
10.884,0.007955857072972108
10.888,0.00799249486039021
10.892,0.00797157958804523
10.896,0.007941312544502324
10.9,0.007963742371051593
10.904,0.007971555547502304
10.908,0.007985883711085762
10.912,0.007981796818788467
10.916,0.007939725868669256
10.92,0.007960737303185935
10.924,0.007978815791465733
10.928,0.007986244319229641
10.932,0.007972228682704212
10.936,0.008006510496915637
10.94,0.00798172469715969
10.944,0.007975666480342525
10.948,0.00796746865520501
10.952,0.00795970355984015
10.956,0.007988456049178765
10.96,0.007988600292436317
10.964,0.007973382628764625
10.968,0.007975546277627898
10.972,0.007987662711262231
10.976,0.007981844899874318
10.98,0.008000428239555546
10.984,0.007964800154940306
10.988,0.007976916588574638
10.992,0.007982325710732822
10.996,0.007975786683057151
11.0,0.007985162494798003
11.004,0.007995668212056344
11.008000000000001,0.00798980231958258
11.012,0.007989129184380672
11.016,0.007985162494798003
11.02,0.007999803185439488
11.024000000000001,0.008007375956460948
11.028,0.007968790885065899
11.032,0.007973070101706597
11.036,0.007982421872904523
11.040000000000001,0.00800816929437748
11.044,0.008015213173454582
11.048,0.00801958855226698
11.052,0.00798573946782821
11.056000000000001,0.007990571616956188
11.06,0.00800401028045141
11.064,0.00799711064463186
11.068,0.008009587686410071
11.072000000000001,0.008021391592986375
11.076,0.007979561048296417
11.08,0.007991701522473676
11.084,0.008002447645161267
11.088000000000001,0.008029204769437087
11.092,0.008045263852111163
11.096,0.007994730630882258
11.1,0.007994177698394977
11.104000000000001,0.008014251551737572
11.108,0.008011583051472869
11.112,0.00799994742869704
11.116,0.008006774942887816
11.120000000000001,0.007996437509429952
11.124,0.008017232579060304
11.128,0.008032570445446623
11.132,0.00801401114630832
11.136000000000001,0.00802314655261992
11.14,0.008013746700336142
11.144,0.007999634901639012
11.148,0.008007616361890199
11.152000000000001,0.00800588544279958
11.156,0.00803040679658335
11.16,0.008048918014635803
11.164,0.007986965535517398
11.168000000000001,0.007988335846464138
11.172,0.00799670195540213
11.176,0.008015381457255059
11.18,0.00802355524184965
11.184000000000001,0.008030719323641378
11.188,0.008002712091133447
11.192,0.00801629499788622
11.196,0.008036104405256638
11.200000000000001,0.008031128012871107
11.204,0.008043677176278095
11.208,0.008019035619779699
11.212,0.008014347713909274
11.216000000000001,0.008031488621014988
11.22,0.008033003175219279
11.224,0.008040551905697812
11.228,0.008036224607971263
11.232000000000001,0.008007135551031695
11.236,0.008036056324170787
11.24,0.008057524529003048
11.244,0.008042667473475235
11.248000000000001,0.008036729459372694
11.252,0.008043340608677141
11.256,0.008048317001062672
11.26,0.008067717719203359
11.264,0.008064376083736747
11.268,0.008052716420417995
11.272,0.00806827065169064
11.276,0.0080280748639196
11.28,0.00804091251384169
11.284,0.00804716305500226
11.288,0.00803918159475107
11.292,0.00804766790640369
11.296,0.008070602584354391
11.3,0.008037378554031676
11.304,0.008037378554031676
11.308,0.008040936554384615
11.312,0.008031031850699408
11.316,0.008036224607971263
11.32,0.008041104838185093
11.324,0.008046658203600829
11.328,0.008054856028738342
11.332,0.008047475582060287
11.336,0.008053846325935482
11.34,0.008048317001062672
11.344,0.008020982903756645
11.348,0.008042763635646936
11.352,0.008048317001062672
11.356,0.008056779272172365
11.36,0.008076324233570603
11.364,0.00806512134056743
11.368,0.00806050555632578
11.372,0.008075891503797948
11.376,0.00806786196246091
11.38,0.008067741759746285
11.384,0.00808425761273594
11.388,0.008063582745820213
11.392,0.008074593314479983
11.396,0.00806238071867395
11.4,0.00806954480046568
11.404,0.00807553089565407
11.408,0.008083488315362332
11.412,0.008057260083030869
11.416,0.008069881368066632
11.42,0.008084642261422744
11.424,0.008101206195498251
11.428,0.008093128573075361
11.432,0.008074280787421955
11.436,0.0080508172175269
11.44,0.008079593747408438
11.444,0.008061731624014969
11.448,0.008067477313774106
11.452,0.00810709612851494
11.456,0.008075194328053115
11.46,0.00809115724855549
11.464,0.00809654233017075
11.468,0.008096374046370272
11.472,0.008093417059590465
11.476,0.008073920179278077
11.48,0.008051514393271732
11.484,0.00807877636894898
11.488,0.00809284008656026
11.492,0.008095628789539589
11.496,0.008091133208012566
11.5,0.008075867463255023
11.504,0.008083921045134987
11.508000000000001,0.008088104099603982
11.512,0.008103009236217646
11.516,0.008116399818627017
11.52,0.008122962886845614
11.524000000000001,0.008102432263187439
11.528,0.008122241670557856
11.532,0.00809796072220334
11.536,0.0081057258175682
11.540000000000001,0.008120630954181864
11.544,0.008117385480886953
11.548,0.008097335668087282
11.552,0.00810577389865405
11.556000000000001,0.008107384615030043
11.56,0.008106567236570585
11.564,0.008119957818979956
11.568,0.00807776666614612
11.572000000000001,0.008101085992783624
11.576,0.008118323062061037
11.58,0.008104235303906833
11.584,0.008115005467137351
11.588000000000001,0.008136016901654034
11.592,0.008103009236217646
11.596,0.008096037478769318
11.6,0.008094474843479176
11.604000000000001,0.008102408222644514
11.608,0.008145440794480737
11.612,0.008117625886316206
11.616,0.008087719450917177
11.620000000000001,0.008110173318009374
11.624,0.008108129871860726
11.628,0.008109139574663587
11.632,0.00811983761626533
11.636000000000001,0.008103730452505403
11.64,0.00812125600829792
11.644,0.0081260881574259
11.648,0.008125703508739096
11.652000000000001,0.008141041375125413
11.656,0.008147508281172309
11.66,0.00810435550662146
11.664,0.008111423426241488
11.668000000000001,0.008134334063649265
11.672,0.008136738117941791
11.676,0.00815573014685275
11.68,0.008133372441932255
11.684000000000001,0.008119501048664376
11.688,0.008127073819685835
11.692,0.008121231967754996
11.696,0.008131401117412384
11.700000000000001,0.008156331160425882
11.704,0.008145657159367064
11.708,0.008150080619265313
11.712,0.008136930442285193
11.716000000000001,0.008134983158308247
11.72,0.008125919873625423
11.724,0.008112793737188227
11.728,0.008103754493048329
11.732000000000001,0.00810038881703879
11.736,0.008100965790068998
11.74,0.008122914805759763
11.744,0.008143205023988687
11.748000000000001,0.008104523790421937
11.752,0.008115991129397288
11.756,0.008129958684836867
11.76,0.008136040942196958
11.764000000000001,0.008143229064531613
11.768,0.008152412551929063
11.772,0.008117890332288383
11.776,0.008119092359434647
11.78,0.008107673101545147
11.784,0.008115342034738305
11.788,0.008164216458505368
11.792,0.008134911036679472
11.796,0.008131473239041159
11.8,0.008134213860934639
11.804,0.008153133768216822
11.808,0.008165154039679453
11.812,0.008176933905712832
11.816,0.008146931308142103
11.82,0.008144190686248623
11.824,0.008134694671793145
11.828,0.008133372441932255
11.832,0.008139142172234317
11.836,0.00814928728134878
11.84,0.008141209658925891
11.844,0.008153398214188999
11.848,0.008145104226879783
11.852,0.008136113063825735
11.856,0.008150633551752594
11.86,0.008114933345508576
11.864,0.008117673967402055
11.868,0.008152196187042736
11.872,0.008156162876625404
11.876,0.008169601540120626
11.88,0.00816943325632015
11.884,0.008151066281525248
11.888,0.008178640784260525
11.892,0.008173231662102341
11.896,0.008161788363669915
11.9,0.008168904364375795
11.904,0.008165851215424286
11.908,0.008153854984504579
11.912,0.008160153606750998
11.916,0.008154816606221589
11.92,0.008173880756761323
11.924,0.008190757217894858
11.928,0.00815070567338137
11.932,0.008169865986092805
11.936,0.00819090146115241
11.94,0.008185131730850347
11.944,0.00816907264817627
11.948,0.00815536953870887
11.952,0.008150128700351164
11.956,0.008161644120412365
11.96,0.008160562295980727
11.964,0.008144887861993456
11.968,0.008172438324185807
11.972,0.008168832242747018
11.976,0.008169793864464028
11.98,0.008173327824274042
11.984,0.008176164608339224
11.988,0.00817272681070091
11.992,0.008196214421138893
11.996,0.008164673228820947
12.0,0.008169673661749402
12.004,0.008183112325244624
12.008000000000001,0.008172294080928256
12.012,0.00817541935150854
12.016,0.0081785205815459
12.02,0.008193473799245413
12.024000000000001,0.008191742880154795
12.028,0.008161139269010935
12.032,0.008161355633897261
12.036,0.00821967799103395
12.040000000000001,0.0081763328921397
12.044,0.00815582630902445
12.048,0.00816440878284877
12.052,0.00816678879659837
12.056000000000001,0.00820744135468499
12.06,0.008213836139103111
12.064,0.008165394445108705
12.068,0.00818130928452523
12.072000000000001,0.008180179379007743
12.076,0.008176068446167523
12.08,0.008186261636367834
12.084,0.008161043106839233
12.088000000000001,0.008173327824274042
12.092,0.008190997623324111
12.096,0.008191670758526018
12.1,0.008206191246452877
12.104000000000001,0.008224077410389274
12.108,0.008191839042326494
12.112,0.00818085251420965
12.116,0.008181237162896454
12.120000000000001,0.008194771988563377
12.124,0.00821150420643936
12.128,0.008205229624735867
12.132,0.008154287714277234
12.136000000000001,0.008188737812289137
12.14,0.008209532881919489
12.144,0.008195276839964807
12.148,0.008199724340405981
12.152000000000001,0.00818354505501728
12.156,0.008204316084104707
12.16,0.008217682625971152
12.164,0.008217874950314554
12.168000000000001,0.008222058004783551
12.172,0.008235208181763671
12.176,0.008194940272363853
12.18,0.008204412246276408
12.184000000000001,0.00819597401570964
12.188,0.008221312747952868
12.192,0.00823638616836701
12.196,0.008191334190925064
12.200000000000001,0.008191502474725542
12.204,0.008219197180175445
12.208,0.008213956341817737
12.212,0.008210807030694527
12.216000000000001,0.008234895654705643
12.22,0.008228597032459223
12.224,0.008220351126235858
12.228,0.008204027597589604
12.232000000000001,0.008210157936035545
12.236,0.008222610937270834
12.24,0.008232707965299443
12.244,0.008217514342170676
12.248000000000001,0.008227635410742213
12.252,0.008241651047267642
12.256,0.008239968209262873
12.26,0.008252637575384487
12.264000000000001,0.008225447721336014
12.268,0.008215446855479104
12.272,0.00823191462738291
12.276,0.008227034397169082
12.280000000000001,0.008236963141397215
12.284,0.008246459155852695
12.288,0.008205373867993419
12.292,0.008217730707057003
12.296,0.008219485666690547
12.3,0.008234895654705643
12.304,0.008248670885801819
12.308,0.008217225855655572
12.312,0.008188641650117436
12.316,0.008217706666514078
12.32,0.0082309530056659
12.324,0.008229750978519636
12.328,0.00824780542625651
12.332,0.008216913328597544
12.336,0.008227491167484662
12.34,0.008235280303392446
12.344,0.008220399207321708
12.348,0.008238477695601506
12.352,0.008260522873463972
12.356,0.008243694493416288
12.36,0.008232683924756519
12.364,0.008221529112839195
12.368,0.008233116654529173
12.372,0.008249608466975904
12.376,0.008224822667219958
12.38,0.008228548951373373
12.384,0.008255738805421846
12.388,0.008260955603236628
12.392,0.00824364641233044
12.396,0.008258984278716757
12.4,0.008241651047267642
12.404,0.008268360090457609
12.408,0.008280067834862213
12.412,0.008266340684851887
12.416,0.00826485017119052
12.42,0.008263359657529154
12.424,0.008244127223188943
12.428,0.008247973710056986
12.432,0.008253623237644423
12.436,0.008260306508577646
12.44,0.008272855671984634
12.444,0.008235833235879729
12.448,0.00823729970899817
12.452,0.00826388854947351
12.456,0.008249392102089576
12.46,0.008243670452873364
12.464,0.008249127656117398
12.468,0.008224582261790705
12.472,0.008247781385713584
12.476,0.00823729970899817
12.48,0.008242492466270025
12.484,0.008263479860243781
12.488,0.008271701725924221
12.492,0.008259465089575261
12.496,0.008233597465387679
12.5,0.008248959372316922
12.504,0.008285140389419443
12.508000000000001,0.008302016850552978
12.512,0.008264321279246164
12.516,0.008236314046738233
12.52,0.008256339818994977
12.524000000000001,0.008264104914359837
12.528,0.00827449042890355
12.532,0.008275788618221515
12.536,0.008243862777216766
12.540000000000001,0.008265595428021204
12.544,0.00825749376505539
12.548,0.008259585292289888
12.552,0.008286799186881286
12.556000000000001,0.008275788618221515
12.56,0.008240569222836005
12.564,0.008240569222836005
12.568,0.008268191806657133
12.572000000000001,0.008281390064723101
12.576,0.0082880492951134
12.58,0.008258383265143625
12.584,0.008251627872581626
12.588000000000001,0.008258671751658729
12.592,0.008267927360684954
12.596,0.00827165364483837
12.6,0.008267638874169852
12.604000000000001,0.008268119685028356
12.608,0.008286847267967136
12.612,0.008264369360332015
12.616,0.008270860306921837
12.620000000000001,0.008307474053797012
12.624,0.008278264794142818
12.628,0.008259849738262066
12.632,0.008259441049032337
12.636000000000001,0.008266653211909916
12.64,0.008286294335479855
12.644,0.00827576457767859
12.648,0.008253575156558573
12.652000000000001,0.008286246254394005
12.656,0.008291222646779534
12.66,0.008288457984343129
12.664,0.00830362756692897
12.668000000000001,0.008301872607295426
12.672,0.008298218444770786
12.676,0.008302425539782707
12.68,0.008296006714821662
12.684000000000001,0.00830124755317937
12.688,0.00831728259531052
12.692,0.008283145024356646
12.696,0.008277351253511657
12.700000000000001,0.008296487525680168
12.704,0.008304781512989383
12.708,0.008305791215792243
12.712,0.008270956469093538
12.716000000000001,0.008243357925815336
12.72,0.008265186738791475
12.724,0.008272663347641231
12.728,0.008284875943447265
12.732000000000001,0.008318292298113381
12.736,0.008282111281010859
12.74,0.008266941698425019
12.744,0.008274129820759672
12.748000000000001,0.008275379928991786
12.752,0.00831596036544963
12.756,0.008325023650132456
12.76,0.008291655376552189
12.764000000000001,0.008292496795554574
12.768,0.008297497228483029
12.772,0.008291078403521984
12.776,0.00830170432349495
12.780000000000001,0.00829357861998621
12.784,0.008284707659646787
12.788,0.00830682495913803
12.792,0.008310238716233417
12.796000000000001,0.008314421770702414
12.8,0.00832819700179859
12.804,0.008311825392066485
12.808,0.008305454648191291
12.812,0.008298386728571262
12.816,0.008319013514401138
12.82,0.00832865377211417
12.824,0.008334303299701607
12.828,0.008318773108971885
12.832,0.008327499826053757
12.836,0.008328317204513217
12.84,0.008311801351523559
12.844,0.008306680715880478
12.848,0.008292088106324844
12.852,0.008307570215968714
12.856,0.00833240409681051
12.86,0.008308099107913068
12.864,0.008295646106677783
12.868,0.008322234947153125
12.872,0.008290357187234225
12.876,0.008290958200807356
12.88,0.00830728172945361
12.884,0.00831261872998302
12.888,0.00832627375836457
12.892,0.00831093589197825
12.896,0.008281630470152354
12.9,0.008296295201336765
12.904,0.008296199039165064
12.908,0.00830261786412611
12.912,0.008315840162735004
12.916,0.008297978039341533
12.92,0.008319999176661074
12.924,0.00832865377211417
12.928,0.008318364419742156
12.932,0.008329278826230227
12.936,0.008331250150750098
12.94,0.008306704756423405
12.944,0.008312474486725467
12.948,0.008295622066134857
12.952,0.008328437407227843
12.956,0.008342573246467897
12.96,0.008310334878405119
12.964,0.008288457984343129
12.968,0.008315383392419424
12.972,0.00834007303000367
12.976,0.008341154854435307
12.98,0.008346948625280296
12.984,0.008300358053091135
12.988,0.008318965433315288
12.992,0.008321730095751694
12.996,0.008308988608001304
13.0,0.008312089838038663
13.004,0.008325480420448035
13.008000000000001,0.008310190635147567
13.012,0.00831367651387173
13.016,0.00829540570124853
13.02,0.008323028285069659
13.024000000000001,0.00834449648990192
13.028,0.008316296933050584
13.032,0.00831672966282324
13.036,0.008336370786393179
13.040000000000001,0.008348919949800167
13.044,0.00833911140828666
13.048,0.008343030016783477
13.052,0.00831596036544963
13.056000000000001,0.008348342976769962
13.06,0.008344159922300965
13.064,0.00832367737972864
13.068,0.008337308367567265
13.072000000000001,0.008349424801201598
13.076,0.008331538637265202
13.08,0.008326033352935316
13.084,0.008326850731394775
13.088000000000001,0.008333365718527521
13.092,0.00835103551757759
13.096,0.008316345014136434
13.1,0.008330745299348668
13.104000000000001,0.008345361949447228
13.108,0.00833454370513086
13.112,0.008342693449182524
13.116,0.00834322234112688
13.120000000000001,0.008319446244173793
13.124,0.00833276470495439
13.128,0.00833038469120479
13.132,0.008338486354170603
13.136000000000001,0.008364979032474244
13.14,0.00834911227414357
13.144,0.008341010611177755
13.148,0.008350434504004458
13.152000000000001,0.008336106340421002
13.156,0.008330144285775536
13.16,0.008368104303054527
13.164,0.008345193665646752
13.168000000000001,0.008361589315921781
13.172,0.008379643763658653
13.176,0.00836884955988521
13.18,0.008366998438079965
13.184000000000001,0.00837971588528743
13.188,0.008370796843862157
13.192,0.008366084897448806
13.196,0.008348078530797783
13.200000000000001,0.008345073462932125
13.204,0.008386663602192831
13.208,0.008351876936579974
13.212,0.008329807718174582
13.216000000000001,0.008339856665117343
13.22,0.0083610363834345
13.224,0.008373080695440056
13.228,0.008363200032297773
13.232000000000001,0.008319061595486989
13.236,0.008337548772996518
13.24,0.008347189030709547
13.244,0.00833911140828666
13.248000000000001,0.0083634163971841
13.252,0.008362142248409062
13.256,0.008359521829230209
13.26,0.008361973964608586
13.264000000000001,0.008374595249644349
13.268,0.008391952521636388
13.272,0.0084135649697262
13.276,0.008360771937462323
13.280000000000001,0.00836368084315628
13.284,0.008372191195351823
13.288,0.008373753830641964
13.292,0.008381446804378048
13.296000000000001,0.008381807412521928
13.3,0.00838981291331604
13.304,0.00839159191349251
13.308,0.00839666446804974
13.312000000000001,0.008379908209630832
13.316,0.008378946587913822
13.32,0.008366205100163431
13.324,0.008375340506475032
13.328,0.008362815383610969
13.332,0.008345073462932125
13.336,0.00836839278956963
13.34,0.008406521090649098
13.344,0.008364017410757232
13.348,0.008361973964608586
13.352,0.008384475912786632
13.356,0.008386351075134801
13.36,0.008374114438785843
13.364,0.00834774196319683
13.368,0.008346203368449613
13.372,0.0083815910476356
13.376,0.008374090398242919
13.38,0.008386759764364532
13.384,0.008395462440903476
13.388,0.008356661004622103
13.392,0.00835596382887727
13.396,0.008361156586149126
13.4,0.008386038548076773
13.404,0.008396832751850217
13.408,0.008389019575399507
13.412,0.008365483883875674
13.416,0.008389019575399507
13.42,0.008406136441962293
13.424,0.008410247374802515
13.428,0.008411449401948778
13.432,0.008381470844920974
13.436,0.008390077359288218
13.44,0.008417459537680094
13.444,0.008403227536268336
13.448,0.008386134710248475
13.452,0.008417267213336691
13.456,0.008379547601486953
13.46,0.008386206831877251
13.464,0.008393443035297755
13.468,0.008405920077075966
13.472,0.008422484011151475
13.476,0.008401737022606971
13.48,0.00836925824911494
13.484,0.008389067656485357
13.488,0.00839337091366898
13.492,0.00837880234465627
13.496,0.00838067750700444
13.5,0.008384211466814454
13.504,0.008381518926006824
13.508000000000001,0.008383802777584725
13.512,0.008374162519871694
13.516,0.008383442169440845
13.52,0.008429119200998848
13.524000000000001,0.008399669535915397
13.528,0.008393731521812858
13.532,0.008397145278908245
13.536,0.008408516455711895
13.540000000000001,0.008419118335141937
13.544,0.008397265481622871
13.548,0.008382119939579956
13.552,0.008399381049400296
13.556000000000001,0.008411545564120477
13.56,0.008408732820598222
13.564,0.008420753092060855
13.568,0.008396448103163413
13.572000000000001,0.008396375981534638
13.576,0.008404309360699974
13.58,0.008401015806319212
13.584,0.008406809577164201
13.588000000000001,0.008418829848626833
13.592,0.00837428272258632
13.596,0.008387264615765963
13.6,0.008397746292481377
13.604000000000001,0.0084044295634146
13.608,0.008428830714483745
13.612,0.008409598280143532
13.616,0.0083976741708526
13.620000000000001,0.00840310733355371
13.624,0.008403660266040992
13.628,0.008410656064032244
13.632,0.00841041565860299
13.636000000000001,0.008399621454829547
13.64,0.008408925144941624
13.644,0.008404766131015554
13.648,0.008405920077075966
13.652000000000001,0.00842214744355052
13.656,0.008426811308878021
13.66,0.008393394954211904
13.664,0.008400390752203156
13.668000000000001,0.00841077626674687
13.672,0.008418060551253225
13.676,0.008418132672882
13.68,0.008393971927242111
13.684000000000001,0.008415175686102193
13.688,0.008432388714836684
13.692,0.008421714713777867
13.696,0.008431042444432869
13.700000000000001,0.008443351202410604
13.704,0.00841087242891857
13.708,0.008409982928830335
13.712,0.008418373078311253
13.716000000000001,0.008438927742512354
13.72,0.008467992758908999
13.724,0.008451524987005193
13.728,0.00841717105116499
13.732000000000001,0.008417339334965466
13.736,0.008420296321745275
13.74,0.008409117469285026
13.744,0.008422676335494877
13.748000000000001,0.008401881265864521
13.752,0.00842342159232556
13.756,0.008438735418168954
13.76,0.008434937012386762
13.764000000000001,0.00843301376895274
13.768,0.008456958149706302
13.772,0.008429287484799325
13.776,0.008433446498725395
13.780000000000001,0.008437413188308063
13.784,0.008443230999695977
13.788,0.008460083420286587
13.792,0.008437244904507587
13.796000000000001,0.00842474382218645
13.8,0.008435874593560846
13.804,0.00842570544390346
13.808,0.008424984227615702
13.812000000000001,0.008445418689102176
13.816,0.00841493528067294
13.82,0.00844301463480965
13.824,0.008432893566238114
13.828,0.008419502983828743
13.832,0.008434239836641929
13.836,0.00844133179680488
13.84,0.008425609281731758
13.844,0.008443687770011556
13.848,0.008438711377626027
13.852,0.008452486608722203
13.856,0.00847676755707672
13.86,0.00842383028155529
13.864,0.008421041578575959
13.868,0.008440490377802498
13.872,0.008447462135250824
13.876,0.008451957716777848
13.88,0.008449962351715051
13.884,0.008427244038650677
13.888,0.008451909635691998
13.892,0.008447822743394702
13.896,0.008443615648382781
13.9,0.008469579434742065
13.904,0.00845950644725638
13.908,0.00844128371571903
13.912,0.008428758592854968
13.916,0.008436451566591053
13.92,0.008451621149176894
13.924,0.00846224706914986
13.928,0.008414286186013958
13.932,0.008433206093296142
13.936,0.008453760757497243
13.94,0.008454962784643506
13.944,0.00845251064926513
13.948,0.00843844693165385
13.952,0.008424647660014748
13.956,0.008458568866082296
13.96,0.008459314122912977
13.964,0.008456789865905825
13.968,0.008489917734056837
13.972,0.008462223028606934
13.976,0.008435586107045744
13.98,0.008431475174205524
13.984,0.008458064014680864
13.988,0.00847215177283507
13.992,0.008480037070914555
13.996,0.008443351202410604
14.0,0.00844758233796545
14.004,0.0084636173800966
14.008000000000001,0.008460612312230942
14.012,0.008465540623530622
14.016,0.008439288350656235
14.02,0.00844498595932952
14.024000000000001,0.00846585315058865
14.028,0.0084498181084575
14.032,0.008458352501195967
14.036,0.008492417950521065
14.040000000000001,0.008457655325451134
14.044,0.008464675163985311
14.048,0.00847534916504413
14.052,0.008466430123618855
14.056000000000001,0.008473233597266705
14.06,0.008488619544738875
14.064,0.008456525419933648
14.068,0.0084750366379861
14.072000000000001,0.008487633882478939
14.076,0.008470757421345404
14.08,0.00848818681496622
14.084,0.008467007096649062
14.088000000000001,0.008460804636574344
14.092,0.008460852717660195
14.096,0.008463136569238095
14.1,0.008477080084134747
14.104000000000001,0.00848970136917051
14.108,0.00845352035206799
14.112,0.008475445327215829
14.116,0.008474844313642697
14.120000000000001,0.008474026935183239
14.124,0.008484412449726954
14.128,0.008481311219689595
14.132,0.00845265489252268
14.136000000000001,0.00848357103072457
14.14,0.008499750316113271
14.144,0.008479051408654618
14.148,0.008486215490446349
14.152000000000001,0.008480037070914555
14.156,0.008481527584575922
14.16,0.008479628381684826
14.164,0.008471911367405816
14.168000000000001,0.008497803032136325
14.172,0.008535282238556811
14.176,0.00847316147563793
14.18,0.008477512813907403
14.184000000000001,0.00849184097749086
14.188,0.008492946842465422
14.192,0.008513381303951895
14.196,0.008492538153235692
14.200000000000001,0.008474219259526641
14.204,0.008493187247894675
14.208,0.008484244165926476
14.212,0.00848184011163395
14.216000000000001,0.008493619977667328
14.22,0.008476647354362092
14.224,0.008493908464182432
14.228,0.008475733813730933
14.232000000000001,0.008478041705851758
14.236,0.008500952343259534
14.24,0.008508116425051263
14.244,0.008479748584399451
14.248000000000001,0.008495519180558424
14.252,0.008498836775482112
14.256,0.008486528017504377
14.26,0.0085025390190926
14.264000000000001,0.00846731962370709
14.268,0.008474483705498819
14.272,0.008482369003578306
14.276,0.00848361911181042
14.280000000000001,0.00847991686819993
14.284,0.008517997088193547
14.288,0.00850381316786764
14.292,0.008502130329862871
14.296000000000001,0.0085047267084988
14.3,0.00850148123520389
14.304,0.008526844007990043
14.308,0.008504077613839818
14.312000000000001,0.008481455462947145
14.316,0.008490855315230923
14.32,0.008511674425404202
14.324,0.008527445021563175
14.328000000000001,0.008527012291790521
14.332,0.008486528017504377
14.336,0.008515953642044898
14.34,0.008524584196955069
14.344,0.00850645762758942
14.348,0.008498548288967008
14.352,0.008502971748865256
14.356,0.008493187247894675
14.36,0.00849503836969992
14.364,0.008481407381861296
14.368,0.008502130329862871
14.372,0.008534488900640277
14.376,0.008512179276805632
14.38,0.008497899194308026
14.384,0.00850417377601152
14.388,0.008499726275570345
14.392,0.008501192748688787
14.396,0.008502130329862871
14.4,0.008482152638691978
14.404,0.008508861681881946
14.408,0.008506241262703091
14.412,0.008489941774599764
14.416,0.008498668491681634
14.42,0.008489533085370034
14.424,0.008485830841759544
14.428,0.008486383774246825
14.432,0.008498115559194353
14.436,0.00850523155990023
14.44,0.008519679926198315
14.444,0.008485734679587843
14.448,0.008496480802275434
14.452,0.0085342244546681
14.456,0.008523646615780983
14.46,0.008514992020327888
14.464,0.008529175940653794
14.468,0.008500639816201506
14.472,0.008507851979079085
14.476,0.008505880654559213
14.48,0.008496240396846183
14.484,0.008519824169455866
14.488,0.008513573628295298
14.492,0.008498836775482112
14.496,0.008504245897640296
14.5,0.008500687897287355
14.504,0.008491408247718204
14.508000000000001,0.008511169574002771
14.512,0.008497682829421697
14.516,0.008510135830656984
14.52,0.008499125261997214
14.524000000000001,0.008507803897993235
14.528,0.008532685859920883
14.532,0.008536123657559196
14.536,0.008508717438624394
14.540000000000001,0.008519824169455866
14.544,0.008523141764379552
14.548,0.008528815332509916
14.552,0.008542133793290512
14.556000000000001,0.00853148383277462
14.56,0.008516410412360478
14.564,0.00850924633056875
14.568,0.008532854143721359
14.572000000000001,0.008535522643986064
14.576,0.00854194146894711
14.58,0.008496312518474958
14.584,0.008524560156412144
14.588000000000001,0.008535450522357288
14.592,0.008546677455903385
14.596,0.008558385200307989
14.6,0.008539609536283358
14.604000000000001,0.008530329886714207
14.608,0.008548384334451079
14.612,0.008536532346788925
14.616,0.008524127426639489
14.620000000000001,0.00854203763111881
14.624,0.008513982317525027
14.628,0.00852569006192963
14.632,0.008512371601149035
14.636000000000001,0.008514655452726934
14.64,0.008514246763497204
14.644,0.008518429817966201
14.648,0.008482104557606127
14.652000000000001,0.008499822437742046
14.656,0.0085161459663883
14.66,0.008503668924610089
14.664,0.008533334954579865
14.668000000000001,0.00853052221105761
14.672,0.008519992453256344
14.676,0.008544946536812767
14.68,0.008561390268173647
14.684000000000001,0.00856350583595107
14.688,0.00856396260626665
14.692,0.008528815332509916
14.696,0.008546509172102909
14.700000000000001,0.008556365794702267
14.704,0.008567135957932785
14.708,0.008565669484814345
14.712,0.008558625605737242
14.716000000000001,0.008558337119222138
14.72,0.008572761444977296
14.724,0.008552278902404972
14.728,0.008535763049415316
14.732000000000001,0.008568386066164899
14.736,0.008552807794349328
14.74,0.008561005619486842
14.744,0.008558192875964587
14.748000000000001,0.008553288605207833
14.752,0.008564443417125155
14.756,0.008582882513548832
14.76,0.008531604035489245
14.764000000000001,0.00854295117174997
14.768,0.008549850807569521
14.772,0.008559370862567925
14.776,0.008565957971329446
14.780000000000001,0.008549057469652987
14.784,0.008556077308187164
14.788,0.008564082808981277
14.792,0.008552807794349328
14.796000000000001,0.00855016333462755
14.8,0.00857716086433262
14.804,0.008562904822377938
14.808,0.008552158699690346
14.812000000000001,0.008555211848641855
14.816,0.008558289038136288
14.82,0.008564635741468558
14.824,0.008559250659853298
14.828000000000001,0.008527156535048073
14.832,0.008551966375346944
14.836,0.008567400403904963
14.84,0.00856944385005361
14.844000000000001,0.008569467890596535
14.848,0.008557375497505128
14.852,0.00855756782184853
14.856,0.008557688024563156
14.86,0.00855629367307349
14.864,0.00857497317492642
14.868,0.00859908583948046
14.872,0.008553601132265862
14.876,0.008551076875258709
14.88,0.008558625605737242
14.884,0.008561871079032153
14.888,0.008574684688411318
14.892,0.008559467024739626
14.896,0.008526892089075894
14.9,0.008561943200660928
14.904,0.008558168835421662
14.908,0.008556221551444716
14.912,0.008586416473358846
14.916,0.008566943633589383
14.92,0.008580165932198278
14.924,0.008581007351200662
14.928,0.008565020390155362
14.932,0.008557207213704652
14.936,0.008573122053121175
14.94,0.008550692226571904
14.944,0.008551389402316737
14.948,0.00855309628086443
14.952,0.0085661983767587
14.956,0.008590743771085393
14.96,0.00856040460591371
14.964,0.008552735672720552
14.968,0.008576680053474114
14.972,0.008582618067576655
14.976,0.008577329148133096
14.98,0.008583699892008292
14.984,0.008564996349612436
14.988,0.00859456621741051
14.992,0.008579060067223716
14.996,0.008572376796290491
15.0,0.008587762743762661
15.004,0.008599398366538488
15.008000000000001,0.008572160431404165
15.012,0.008578987945594939
15.016,0.008570068904169666
15.02,0.008572833566606073
15.024000000000001,0.008582906554091758
15.028,0.008551774051003542
15.032,0.008545715834186375
15.036,0.008549634442683193
15.040000000000001,0.008553216483579058
15.044,0.008558769848994794
15.048,0.008584156662323872
15.052,0.008565957971329446
15.056000000000001,0.008561342187087796
15.06,0.008557784186734857
15.064,0.008555452254071108
15.068,0.008565188673955839
15.072000000000001,0.008566126255129924
15.076,0.008552591429463
15.08,0.008567280201190337
15.084,0.008583940297437543
15.088000000000001,0.008598388663735627
15.092,0.008619207773908906
15.096,0.008595599960756296
15.1,0.008590383162941514
15.104000000000001,0.008590238919683963
15.108,0.008588844568194297
15.112,0.008593316109178397
15.116,0.008595167230983641
15.120000000000001,0.00858136795934454
15.124,0.008588195473535315
15.128,0.0085776176346482
15.132,0.008587065568017829
15.136000000000001,0.00860913478642322
15.14,0.008577906121163303
15.144,0.00855345688900831
15.148,0.008582425743233252
15.152000000000001,0.008560332484284935
15.156,0.008571415174573481
15.16,0.008578555215822285
15.164,0.008552254861862047
15.168000000000001,0.008570044863626742
15.172,0.008588003149191913
15.176,0.008568241822907347
15.18,0.008575646310128329
15.184000000000001,0.008574155796466962
15.188,0.008550644145486055
15.192,0.008562976944006715
15.196,0.008567039795761084
15.200000000000001,0.008582305540518627
15.204,0.008607548110590153
15.208,0.008583387364950262
15.212,0.008570116985255517
15.216000000000001,0.00857720894541847
15.22,0.008583651810922441
15.224,0.008595215312069492
15.228,0.008598292501563926
15.232000000000001,0.008590214879141038
15.236,0.008615337246497937
15.24,0.008606322042900964
15.244,0.008593917122751529
15.248000000000001,0.008621804152544835
15.252,0.008638151721734013
15.256,0.008603292934492381
15.26,0.008598845434051207
15.264000000000001,0.008596922190617187
15.268,0.008601081204543257
15.272,0.008626732463844513
15.276,0.008588916689823074
15.280000000000001,0.008586680919331024
15.284,0.00860954347565295
15.288,0.008605336380641029
15.292,0.008601754339745164
15.296000000000001,0.008594830663382689
15.3,0.008573482661265055
15.304,0.008601105245086182
15.308,0.008593580555150575
15.312000000000001,0.008573867309951858
15.316,0.00860360546155041
15.32,0.00859913392056631
15.324,0.008597931893420048
15.328000000000001,0.008593628636236425
15.332,0.008593965203837378
15.336,0.008603341015578232
15.34,0.008610216610854857
15.344000000000001,0.008571006485343752
15.348,0.008585334648927209
15.352,0.00859547975804167
15.356,0.008598797352965357
15.36,0.008599157961109235
15.364,0.00860584123204246
15.368,0.00858858012222212
15.372,0.008621275260600478
15.376,0.008609303070223697
15.38,0.008601658177573463
15.384,0.008628896112707788
15.388,0.00860588931312831
15.392,0.008601610096487612
15.396,0.008607379826789675
15.4,0.008621659909287283
15.404,0.008621058895714151
15.408,0.008628295099134656
15.412,0.008620169395625916
15.416,0.008632742599575829
15.42,0.008629112477594115
15.424,0.00863375230237869
15.428,0.008636420802643395
15.432,0.0086073077051609
15.436,0.00861146671908697
15.44,0.008618606760335774
15.444,0.008599614731424815
15.448,0.008622357085032116
15.452,0.008648705520078204
15.456,0.008608846299908117
15.46,0.008619832828024964
15.464,0.008619784746939113
15.468,0.008642286695117159
15.472,0.00864558024949792
15.476,0.008612716827319084
15.48,0.008584541311010675
15.484,0.008600720596399377
15.488,0.008606923056474095
15.492,0.008604855569782523
15.496,0.008615962300613995
15.5,0.008591849636059955
15.504,0.008589157095252325
15.508000000000001,0.008591513068459003
15.512,0.00859685006898841
15.516,0.008610264691940707
15.52,0.008634737964638626
15.524000000000001,0.008594085406552005
15.528,0.008615962300613995
15.532,0.008639425870509053
15.536,0.00865466757472367
15.540000000000001,0.008657384156074224
15.544,0.00861141863800112
15.548,0.008589613865567907
15.552,0.00861502471943991
15.556000000000001,0.008616419070929575
15.56,0.008616515233101276
15.564,0.00863694969458775
15.568,0.008626660342215738
15.572000000000001,0.008627477720675196
15.576,0.008617500895361212
15.58,0.008617284530474886
15.584,0.008632237748174398
15.588000000000001,0.008623318706749126
15.592,0.008603365056121156
15.596,0.008613101476005889
15.6,0.008620674247027347
15.604000000000001,0.00862822297750588
15.608,0.008652191398802368
15.612,0.008622597490461369
15.616,0.008595095109354866
15.620000000000001,0.008627621963932748
15.624,0.008643440641177572
15.628,0.008644931154838938
15.632,0.008639786478652932
15.636000000000001,0.008623078301319873
15.64,0.008637791113590134
15.644,0.00862913651813704
15.648,0.008635338978211757
15.652000000000001,0.008656855264129869
15.656,0.008650508560797599
15.66,0.008625290031268999
15.664,0.008644690749409685
15.668000000000001,0.008645291762982817
15.672,0.008641950127516205
15.676,0.008657552439874702
15.68,0.008623847598693482
15.684000000000001,0.008636012113413666
15.688,0.00866445207569425
15.692,0.008663778940492344
15.696,0.008657047588473271
15.700000000000001,0.008642527100546412
15.704,0.008610481056827034
15.708,0.008632309869803175
15.712,0.008636757370244347
15.716000000000001,0.008645724492755472
15.72,0.008670510292511417
15.724,0.008656735061415241
15.728,0.008612957232748337
15.732000000000001,0.008627213274703019
15.736,0.00863644484318632
15.74,0.00865421080440809
15.744,0.008669428468079781
15.748000000000001,0.008617284530474886
15.752,0.008624136085208584
15.756,0.00864654187121493
15.76,0.008629977937139424
15.764000000000001,0.008642671343803964
15.768,0.008661783575429547
15.772,0.008619928990196663
15.776,0.008628126815334178
15.780000000000001,0.008629665410081396
15.784,0.008641589519372326
15.788,0.008663875102664045
15.792,0.008640219208425587
15.796000000000001,0.008636300599928768
15.8,0.008647142884788062
15.804,0.008658465980505861
15.808,0.008668082197675966
15.812000000000001,0.008667168657044807
15.816,0.00864009900571096
15.82,0.008645796614384247
15.824,0.00865618212892796
15.828000000000001,0.008661543170000294
15.832,0.008689334037621899
15.836,0.008681304496284861
15.84,0.008660942156427162
15.844000000000001,0.008660172859053555
15.848,0.008656374453271363
15.852,0.008660196899596479
15.856,0.008687939686132233
15.860000000000001,0.0086551724261251
15.864,0.008630290464197452
15.868,0.008650340276997123
15.872,0.008660004575253078
15.876,0.008650316236454196
15.88,0.008654090601693464
15.884,0.008619472219881083
15.888,0.0086483208713914
15.892,0.008627405599046421
15.896,0.008624088004122735
15.9,0.008671808481829382
15.904,0.008645051357553564
15.908,0.008623342747292052
15.912,0.008649066128222083
15.916,0.00866014881851063
15.92,0.008645147519725265
15.924,0.008642118411316683
15.928,0.008620722328113197
15.932,0.008659427602222871
15.936,0.008670366049253867
15.94,0.008662600953889005
15.944,0.008662865399861185
15.948,0.008676304063356406
15.952,0.008655701318069456
15.956,0.008672770103546393
15.96,0.008661999940315874
15.964,0.008666231075870721
15.968,0.008693444970462118
15.972,0.008671736360200607
15.976,0.008631492491343715
15.98,0.008654138682779314
15.984,0.008668490886905696
15.988,0.008666567643471675
15.992,0.0086734432387483
15.996,0.008634617761924
16.0,0.008633776342921616
16.004,0.00866303368366166
16.008,0.008643488722263422
16.012,0.008635507262012235
16.016000000000002,0.008649883506681543
16.02,0.008656061926213335
16.024,0.00865594172349871
16.028,0.008646878438815885
16.032,0.008646181263071052
16.036,0.008663153886376288
16.04,0.008656230210013811
16.044,0.008656783142501092
16.048000000000002,0.008655557074811904
16.052,0.00868659341572842
16.056,0.008695223970638589
16.06,0.00866101427805594
16.064,0.008634497559209373
16.068,0.008661326805113967
16.072,0.008665606021754663
16.076,0.008648849763335756
16.080000000000002,0.00867151999531428
16.084,0.008671952725086933
16.088,0.008670053522195837
16.092,0.008681953590943843
16.096,0.008676063657927153
16.1,0.008696065389640973
16.104,0.008685944321069438
16.108,0.008661831656515398
16.112000000000002,0.008667745630075012
16.116,0.008665557940668814
16.12,0.008671087265541624
16.124,0.008684285523607593
16.128,0.008659595886023348
16.132,0.008645363884611592
16.136,0.008672577779202991
16.14,0.008660581548283284
16.144000000000002,0.008665389656868337
16.148,0.00869993591705194
16.152,0.008661879737601248
16.156,0.008674693346980414
16.16,0.008681088131398534
16.164,0.008685078861524127
16.168,0.008693517092090895
16.172,0.008699863795423163
16.176000000000002,0.008664091467550372
16.18,0.008690824551283265
16.184,0.00867567900924035
16.188,0.008676977198558315
16.192,0.008679982266423972
16.196,0.008665822386640992
16.2,0.008676424266071032
16.204,0.008686521294099643
16.208000000000002,0.008683468145148135
16.212,0.008672457576488364
16.216,0.008702460174059092
16.22,0.008656759101958168
16.224,0.008673082630604421
16.228,0.008674693346980414
16.232,0.008676255982270556
16.236,0.008707941417846053
16.240000000000002,0.008698373281761798
16.244,0.008659451642765797
16.248,0.00869577690312587
16.252,0.008710706080282458
16.256,0.008706667269071013
16.26,0.008699623389993912
16.264,0.008676808914757837
16.268,0.008680150550224449
16.272000000000002,0.008687867564503458
16.276,0.008673130711690272
16.28,0.008668803413963724
16.284,0.008693805578605999
16.288,0.008664956927095683
16.292,0.008688877267306319
16.296,0.008706619187985163
16.3,0.00869481528140886
16.304000000000002,0.008708927080105988
16.308,0.00868846857807659
16.312,0.00866563006229759
16.316,0.008681112171941459
16.32,0.008690055253909658
16.324,0.008687627159074205
16.328,0.008698878133163229
16.332,0.008683588347862762
16.336000000000002,0.008709480012593269
16.34,0.008697051051900908
16.344,0.008680463077282477
16.348,0.008687699280702982
16.352,0.008712244675029675
16.356,0.008676231941727631
16.36,0.00867248161703129
16.364,0.008693613254262596
16.368000000000002,0.00869678660592873
16.372,0.008724697676264964
16.376,0.008702892903831748
16.38,0.008693709416434298
16.384,0.008722726351745091
16.388,0.008715153580723634
16.392,0.008702532295687869
16.396,0.008695632659868318
16.4,0.0086665916840146
16.404,0.008678131144618727
16.408,0.008674501022637011
16.412,0.008685583712925557
16.416,0.008704984431066246
16.42,0.00871796632424589
16.424,0.008691233240512995
16.428,0.008695584578782467
16.432,0.00870678747178564
16.436,0.008721812811113932
16.44,0.008720178054195013
16.444,0.008694646997608382
16.448,0.00870907132336354
16.452,0.008724745757350813
16.456,0.008725947784497076
16.46,0.008716860459271327
16.464,0.008725058284408843
16.468,0.008711739823628245
16.472,0.00872714981164334
16.476,0.008715922878097242
16.48,0.008697796308731591
16.484,0.008722005135457334
16.488,0.008715538229410439
16.492,0.00868075156379758
16.496,0.008688853226763394
16.5,0.008695680740954169
16.504,0.008700224403567044
16.508,0.008715033378009008
16.512,0.008683227739718882
16.516000000000002,0.00869724337624431
16.52,0.00868988697010918
16.524,0.008706619187985163
16.528,0.008713879431948592
16.532,0.008706643228528089
16.536,0.008687915645589309
16.54,0.008699142579135406
16.544,0.008694070024578176
16.548000000000002,0.0086962817545273
