0.0,-0.017485456166917823
0.004,-0.017482162612537062
0.008,-0.017484614747915437
0.012,-0.01748622546429143
0.016,-0.01748555232908952
0.02,-0.01748449454520081
0.024,-0.017486297585920206
0.028,-0.017488389113154704
0.032,-0.01748663415352116
0.036000000000000004,-0.01748723516709429
0.04,-0.017487812140124497
0.044,-0.01748911032944246
0.048,-0.017490985491790633
0.052000000000000005,-0.01749069700527553
0.056,-0.017489663261929744
0.06,-0.017491995194593494
0.064,-0.017489951748444844
0.068,-0.017485744653432923
0.07200000000000001,-0.017489663261929744
0.076,-0.017491658626992538
0.08,-0.017488701640212732
0.084,-0.01748896608618491
0.088,-0.017493750154227036
0.092,-0.01749069700527553
0.096,-0.017487619815781095
0.1,-0.017487283248180142
0.10400000000000001,-0.017487956383382047
0.108,-0.01748749961306647
0.112,-0.017490913370161856
0.116,-0.017492451964909072
0.12,-0.017492235600022745
0.124,-0.017489062248356613
0.128,-0.017491322059391586
0.132,-0.017491923072964717
0.136,-0.017491538424277912
0.14,-0.017493245302825606
0.14400000000000002,-0.017494158843456765
0.148,-0.017494663694858196
0.152,-0.017494206924542618
0.156,-0.01749211539730812
0.16,-0.017491586505363765
0.164,-0.017492427924366147
0.168,-0.0174928606541388
0.17200000000000001,-0.017496106127433714
0.176,-0.017495793600375686
0.18,-0.01749545703277473
0.184,-0.017495168546259626
0.188,-0.017493461667711933
0.192,-0.017493557829883634
0.196,-0.017492187518936896
0.2,-0.017492812573052952
0.20400000000000001,-0.017491033572876482
0.20800000000000002,-0.01749146630264914
0.212,-0.017489591140300968
0.216,-0.017491634586449614
0.22,-0.01748978346464437
0.224,-0.01749124993776281
0.228,-0.017492596208166625
0.232,-0.017493774194769964
0.23600000000000002,-0.017492283681108597
0.24,-0.01749170670807839
0.244,-0.017490264275502876
0.248,-0.017491586505363765
0.252,-0.017489855586273143
0.256,-0.01749079316744723
0.26,-0.017490120032245322
0.264,-0.017491923072964717
0.268,-0.017492692370338327
0.272,-0.017494471370514797
0.276,-0.01749379823531289
0.28,-0.017493173181196833
0.28400000000000003,-0.017492307721651522
0.28800000000000003,-0.01749060084310383
0.292,-0.01749201923513642
0.296,-0.01749338954608316
0.3,-0.017491682667535466
0.304,-0.017491033572876482
0.308,-0.01749211539730812
0.312,-0.017493293383911458
0.316,-0.017494375208343096
0.32,-0.017494615613772347
0.324,-0.01749338954608316
0.328,-0.017495120465173777
0.332,-0.017494230965085542
0.336,-0.01749175478916424
0.34,-0.017491826910793016
0.34400000000000003,-0.01749201923513642
0.34800000000000003,-0.017488942045641984
0.352,-0.017492427924366147
0.356,-0.017492283681108597
0.36,-0.017494086721827992
0.364,-0.017496659059920993
0.368,-0.017497813005981407
0.372,-0.01749567339766106
0.376,-0.01749338954608316
0.38,-0.017495793600375686
0.384,-0.017495120465173777
0.388,-0.0174949521813733
0.392,-0.017495937843633236
0.396,-0.017495889762547387
0.4,-0.017491081653962334
0.404,-0.017490360437674574
0.40800000000000003,-0.017493678032598263
0.41200000000000003,-0.017493774194769964
0.41600000000000004,-0.017494471370514797
0.42,-0.017495937843633236
0.424,-0.01749800533032481
0.428,-0.0174973321951229
0.432,-0.01749824573575406
0.436,-0.017498894830413045
0.44,-0.01749814957358236
0.444,-0.01749764472218093
0.448,-0.017497885127610184
0.452,-0.017499135235842296
0.456,-0.017496755222092694
0.46,-0.01749348570825486
0.464,-0.017493726113684112
0.468,-0.017494687735401124
0.47200000000000003,-0.01749312510011098
0.47600000000000003,-0.017490552762017976
0.48,-0.01749252408653785
0.484,-0.01749394247857044
0.488,-0.017490456599846275
0.492,-0.017489711343015593
0.496,-0.01749074508636138
0.5,-0.01749221155947982
0.504,-0.017493678032598263
0.508,-0.01748968730247267
0.512,-0.017491899032421793
0.516,-0.017490721045818454
0.52,-0.017491874991878868
0.524,-0.017493509748797785
0.528,-0.017492235600022745
0.532,-0.017489494978129266
0.536,-0.01749120185667696
0.54,-0.017491923072964717
0.544,-0.017493653992055335
0.548,-0.017491730748621315
0.552,-0.01748987962681607
0.556,-0.017494158843456765
0.56,-0.01749348570825486
0.5640000000000001,-0.01749146630264914
0.5680000000000001,-0.017492307721651522
0.5720000000000001,-0.017494519451600646
0.5760000000000001,-0.017495192586802554
0.58,-0.017497115830236575
0.584,-0.01749490410028745
0.588,-0.017494880059744526
0.592,-0.017496202289605415
0.596,-0.017495048343545
0.6,-0.017494255005628467
0.604,-0.017491730748621315
0.608,-0.01748942285650049
0.612,-0.017490095991702398
0.616,-0.0174903844782175
0.62,-0.017489999829530697
0.624,-0.017490552762017976
0.628,-0.0174901921538741
0.632,-0.01748850931586933
0.636,-0.017489543059215115
0.64,-0.017489470937586342
0.644,-0.01749079316744723
0.648,-0.01748891800509906
0.652,-0.01748918245107124
0.656,-0.017492043275679343
0.66,-0.017496250370691264
0.664,-0.017495336830060104
0.668,-0.01749389439748459
0.672,-0.01749271641088125
0.676,-0.017494880059744526
0.68,-0.017495168546259626
0.684,-0.017494759857029897
0.6880000000000001,-0.017494759857029897
0.6920000000000001,-0.017496707141006845
0.6960000000000001,-0.017496009965262013
0.7000000000000001,-0.017497284114037052
0.704,-0.017494206924542618
0.708,-0.017492307721651522
0.712,-0.017490769126904306
0.716,-0.01749134609993451
0.72,-0.017492283681108597
0.724,-0.017493557829883634
0.728,-0.01749531278951718
0.732,-0.017493269343368534
0.736,-0.0174901921538741
0.74,-0.017491057613419406
0.744,-0.017494759857029897
0.748,-0.017497019668064873
0.752,-0.017494110762370917
0.756,-0.017492187518936896
0.76,-0.01749185095133594
0.764,-0.017493966519113363
0.768,-0.017494206924542618
0.772,-0.01749185095133594
0.776,-0.01749079316744723
0.78,-0.0174901921538741
0.784,-0.017491514383734988
0.788,-0.017490144072788247
0.792,-0.017489639221386816
0.796,-0.01748749961306647
0.8,-0.017490071951159473
0.804,-0.01748983154573022
0.808,-0.017491273978305737
0.812,-0.017494327127257243
0.8160000000000001,-0.01749194711350764
0.8200000000000001,-0.01748896608618491
0.8240000000000001,-0.01748951901867219
0.8280000000000001,-0.017493245302825606
0.8320000000000001,-0.01749170670807839
0.836,-0.017490624883646753
0.84,-0.017490071951159473
0.844,-0.017489999829530697
0.848,-0.017490264275502876
0.852,-0.017491394181020362
0.856,-0.017489639221386816
0.86,-0.017490168113331175
0.864,-0.017494255005628467
0.868,-0.017492403883823223
0.872,-0.017491923072964717
0.876,-0.017495937843633236
0.88,-0.017493509748797785
0.884,-0.017491177816134035
0.888,-0.017493317424454383
0.892,-0.01749146630264914
0.896,-0.017490216194417024
0.9,-0.01749235580273737
0.904,-0.01749134609993451
0.908,-0.017490071951159473
0.912,-0.01748915841052831
0.916,-0.017491273978305737
0.92,-0.017492836613595877
0.924,-0.01749298085685343
0.928,-0.01749225964056567
0.932,-0.017490624883646753
0.936,-0.017489663261929744
0.9400000000000001,-0.017494086721827992
0.9440000000000001,-0.017496803303178547
0.9480000000000001,-0.017496130167976638
0.9520000000000001,-0.017494327127257243
0.9560000000000001,-0.017491586505363765
0.96,-0.01748891800509906
0.964,-0.01748627354537728
0.968,-0.017487667896866947
0.972,-0.017490769126904306
0.976,-0.017491394181020362
0.98,-0.017490672964732605
0.984,-0.017491177816134035
0.988,-0.01749129801884866
0.992,-0.0174901921538741
0.996,-0.01748915841052831
1.0,-0.017490071951159473
1.004,-0.017491586505363765
1.008,-0.017495625316575208
1.012,-0.017495048343545
1.016,-0.01749288469468173
1.02,-0.01749312510011098
1.024,-0.017494831978658674
1.028,-0.01749175478916424
1.032,-0.01749144226210621
1.036,-0.01749252408653785
1.04,-0.017493702073141187
1.044,-0.017492307721651522
1.048,-0.017491514383734988
1.052,-0.017494279046171395
1.056,-0.017493653992055335
1.06,-0.017492307721651522
1.064,-0.017492283681108597
1.068,-0.017493269343368534
1.072,-0.01749480793811575
1.076,-0.017494856019201598
1.08,-0.01749463965431527
1.084,-0.017491634586449614
1.088,-0.017490264275502876
1.092,-0.01749069700527553
1.096,-0.01748968730247267
1.1,-0.01749216347839397
1.104,-0.01749069700527553
1.108,-0.017492403883823223
1.112,-0.017492043275679343
1.116,-0.017492788532510028
1.12,-0.01749338954608316
1.124,-0.017493317424454383
1.1280000000000001,-0.01749074508636138
1.1320000000000001,-0.0174879083022962
1.1360000000000001,-0.0174879083022962
1.1400000000000001,-0.017490240234959948
1.1440000000000001,-0.01748978346464437
1.1480000000000001,-0.017487427491437692
1.1520000000000001,-0.01748814870772545
1.156,-0.017489567099758043
1.16,-0.017486706275149935
1.164,-0.017485792734518776
1.168,-0.017488028505010824
1.172,-0.01748786022121035
1.176,-0.017486297585920206
1.18,-0.017485456166917823
1.184,-0.01748454262628666
1.188,-0.017486658194064086
1.192,-0.017489470937586342
1.196,-0.017484783031715915
1.2,-0.017484927274973465
1.204,-0.017486513950806533
1.208,-0.01748874972129858
1.212,-0.017491995194593494
1.216,-0.0174923798432803
1.22,-0.01749194711350764
1.224,-0.01749144226210621
1.228,-0.017490312356588725
1.232,-0.01748733132926599
1.236,-0.01748774001849572
1.24,-0.01749033639713165
1.244,-0.017489711343015593
1.248,-0.01748927861324294
1.252,-0.017487667896866947
1.256,-0.017486537991349457
1.26,-0.017487475572523545
1.264,-0.017490504680932127
1.268,-0.017488797802384434
1.272,-0.01749216347839397
1.276,-0.017494014600199215
1.28,-0.017491033572876482
1.284,-0.01749093741070478
1.288,-0.017490672964732605
1.292,-0.017490865289076007
1.296,-0.01748968730247267
1.3,-0.017492956816310502
1.304,-0.017489543059215115
1.308,-0.017485696572347074
1.312,-0.01748874972129858
1.316,-0.017492331762194446
1.32,-0.017494567532686495
1.324,-0.017494351167800168
1.328,-0.017493870356941665
1.332,-0.017493149140653905
1.336,-0.017492956816310502
1.34,-0.017492187518936896
1.344,-0.01749403864074214
1.348,-0.01749206731622227
1.352,-0.017493605910969486
1.356,-0.017493149140653905
1.36,-0.017490504680932127
1.364,-0.01749069700527553
1.368,-0.017492644289252474
1.372,-0.017495769559832758
1.3760000000000001,-0.01749673118154977
1.3800000000000001,-0.017498173614125284
1.3840000000000001,-0.017498317857382838
1.3880000000000001,-0.017497019668064873
1.3920000000000001,-0.017496562897749292
1.3960000000000001,-0.017497764924895555
1.4000000000000001,-0.017498726546612567
1.4040000000000001,-0.017496442695034666
1.408,-0.017492307721651522
1.412,-0.017494062681285064
1.416,-0.01749531278951718
1.42,-0.017495432992231805
1.424,-0.0174972360329512
1.428,-0.017498966952041818
1.432,-0.01749769280326678
1.436,-0.017496803303178547
1.44,-0.017495336830060104
1.444,-0.017494831978658674
1.448,-0.017493581870426562
1.452,-0.01749413480291384
1.456,-0.017496298451777116
1.46,-0.017495192586802554
1.464,-0.01749536087060303
1.468,-0.01749480793811575
1.472,-0.017494351167800168
1.476,-0.01749699562752195
1.48,-0.01749918331692815
1.484,-0.017499207357471073
1.488,-0.01749891887095597
1.492,-0.017497284114037052
1.496,-0.017495649357118132
1.5,-0.017494880059744526
1.504,-0.017494591573229423
1.508,-0.017496250370691264
1.512,-0.017495889762547387
1.516,-0.017495769559832758
1.52,-0.01749617824906249
1.524,-0.017494230965085542
1.528,-0.01749307701902513
1.532,-0.017494086721827992
1.536,-0.017492908735224653
1.54,-0.017491322059391586
1.544,-0.01749302893793928
1.548,-0.017493966519113363
1.552,-0.01749865442498379
1.556,-0.017498942911498894
1.56,-0.01749627441123419
1.564,-0.017500481506246113
1.568,-0.017500120898102232
1.572,-0.01749927947909985
1.576,-0.017499231398013997
1.58,-0.017495481073317658
1.584,-0.01749336550554023
1.588,-0.017496442695034666
1.592,-0.017498678465526718
1.596,-0.01749531278951718
1.6,-0.01749632249232004
1.604,-0.017497716843809706
1.608,-0.01749507238408793
1.612,-0.017495481073317658
1.616,-0.017496803303178547
1.62,-0.01749774088435263
1.624,-0.01749555319494643
1.6280000000000001,-0.017491394181020362
1.6320000000000001,-0.017491826910793016
1.6360000000000001,-0.01749225964056567
1.6400000000000001,-0.017496755222092694
1.6440000000000001,-0.017497043708607798
1.6480000000000001,-0.01749774088435263
1.6520000000000001,-0.01750033726298856
1.6560000000000001,-0.017499616046700802
1.6600000000000001,-0.017494831978658674
1.6640000000000001,-0.017496034005804937
1.668,-0.01749697158697902
1.672,-0.017493870356941665
1.676,-0.01749394247857044
1.68,-0.017497716843809706
1.684,-0.017496514816663443
1.688,-0.017496394613948817
1.692,-0.017498125533039435
1.696,-0.01749697158697902
1.7,-0.017497813005981407
1.704,-0.01749915927638522
1.708,-0.017497211992408276
1.712,-0.017492788532510028
1.716,-0.017493726113684112
1.72,-0.017491538424277912
1.724,-0.017489230532157087
1.728,-0.017492788532510028
1.732,-0.017494711775944048
1.736,-0.017494279046171395
1.74,-0.017496779262635622
1.744,-0.017498894830413045
1.748,-0.017497380276208754
1.752,-0.017495288748974255
1.756,-0.017496923505893172
1.76,-0.017498269776296985
1.764,-0.017498173614125284
1.768,-0.01749338954608316
1.772,-0.01749379823531289
1.776,-0.017496394613948817
1.78,-0.017498870789870117
1.784,-0.017499592006157878
1.788,-0.017500144938645157
1.792,-0.01749988049267298
1.796,-0.017501491209048974
1.8,-0.017500313222445635
1.804,-0.017498293816839913
1.808,-0.01749901503312767
1.812,-0.017494928140830375
1.816,-0.017498534222269164
1.82,-0.01749824573575406
1.824,-0.017494567532686495
1.828,-0.017496130167976638
1.832,-0.017498125533039435
1.836,-0.017496250370691264
1.84,-0.01749622633014834
1.844,-0.01749927947909985
1.848,-0.017499375641271547
1.852,-0.017499856452130053
1.856,-0.017499808371044204
1.86,-0.01750052958733196
1.864,-0.017496875424807323
1.868,-0.017499207357471073
1.872,-0.017501322925248496
1.8760000000000001,-0.01749925543855692
1.8800000000000001,-0.017500890195475842
1.8840000000000001,-0.017501972019907476
1.8880000000000001,-0.017500818073847065
1.8920000000000001,-0.017500457465703185
1.8960000000000001,-0.017498942911498894
1.9000000000000001,-0.017496947546436097
1.9040000000000001,-0.01749911119529937
1.9080000000000001,-0.01750266919565231
1.9120000000000001,-0.01750202010099333
1.9160000000000001,-0.017500914236018766
1.92,-0.01749947180344325
1.924,-0.01749988049267298
1.928,-0.01749915927638522
1.932,-0.017500818073847065
1.936,-0.017499640087243726
1.94,-0.017497524519466304
1.944,-0.017498846749327193
1.948,-0.017498197654668212
1.952,-0.017499495843986176
1.956,-0.017499495843986176
1.96,-0.017502332628051356
1.964,-0.01750440011474293
1.968,-0.017507164777179333
1.972,-0.017505145371573612
1.976,-0.01750478476342973
1.98,-0.01750673204740668
1.984,-0.01750490496614436
1.988,-0.017501635452306524
1.992,-0.01750276535782401
1.996,-0.017506948412293007
2.0,-0.017508775493555326
2.004,-0.01750480880397266
2.008,-0.017505578101346266
2.012,-0.01750678012849253
2.016,-0.01750774175020954
2.02,-0.01750504920940191
2.024,-0.01750581850677552
2.028,-0.017505698304060895
2.032,-0.01750454435800048
2.036,-0.01750110656036217
2.04,-0.017502741317281086
2.044,-0.017501803736107
2.048,-0.01750377506062687
2.052,-0.017504664560715106
2.056,-0.017502284546965508
2.06,-0.01749927947909985
2.064,-0.017502500911851834
2.068,-0.017503702938998097
2.072,-0.017501034438733392
2.076,-0.017502981722710337
2.08,-0.01750358273628347
2.084,-0.0175016114117636
2.088,-0.017504472236371704
2.092,-0.017504159709313676
2.096,-0.01750002473593053
2.1,-0.017500505546789037
2.104,-0.01750202010099333
2.108,-0.017502044141536253
2.112,-0.01750019301973101
2.116,-0.017500505546789037
2.12,-0.01750185181719285
2.124,-0.017502573033480608
2.128,-0.017502188384793806
2.132,-0.017503847182255648
2.136,-0.017504664560715106
2.14,-0.017502933641624488
2.144,-0.017502404749680133
2.148,-0.017504424155285855
2.152,-0.017509496709843086
2.156,-0.017507453263694437
2.16,-0.01750572234460382
2.164,-0.017504832844515584
2.168,-0.017504977087773134
2.172,-0.017506587804149126
2.176,-0.017507693669123692
2.18,-0.017506804169035457
2.184,-0.017507260939351035
2.188,-0.017506948412293007
2.192,-0.017507405182608588
2.196,-0.017507573466409063
2.2,-0.017506587804149126
2.204,-0.017508871655727027
2.208,-0.01751129975056248
2.212,-0.017508871655727027
2.216,-0.017507861952924166
2.22,-0.017510266007216693
2.224,-0.01750586658786137
2.228,-0.01750403950659905
2.232,-0.017506131033833548
2.236,-0.017504015466056125
2.24,-0.017505698304060895
2.244,-0.017507669628580764
2.248,-0.01750490496614436
2.2520000000000002,-0.017505698304060895
2.2560000000000002,-0.017506924371750082
2.2600000000000002,-0.017504929006687285
2.2640000000000002,-0.01750480880397266
2.2680000000000002,-0.017502500911851834
2.2720000000000002,-0.01750336637139714
2.2760000000000002,-0.017504015466056125
2.2800000000000002,-0.017505145371573612
2.2840000000000003,-0.017504327993114153
2.2880000000000003,-0.017506251236548174
2.2920000000000003,-0.017508174479982194
2.2960000000000003,-0.01750714073663641
2.3000000000000003,-0.017507164777179333
2.3040000000000003,-0.01750454435800048
2.308,-0.017504376074200002
2.312,-0.017507429223151513
2.316,-0.017507357101522736
2.32,-0.017506900331207158
2.324,-0.017504616479629257
2.328,-0.0175041837498566
2.332,-0.017507044574464708
2.336,-0.017508030236724644
2.34,-0.017509304385499684
2.344,-0.017507669628580764
2.348,-0.017507573466409063
2.352,-0.017507693669123692
2.356,-0.01750860720975485
2.36,-0.0175086552908407
2.364,-0.017508222561068047
2.368,-0.017507164777179333
2.372,-0.01750841488541145
2.376,-0.01750759750695199
2.38,-0.017505145371573612
2.384,-0.01750444819582878
2.388,-0.01750339041194007
2.392,-0.017506659925777903
2.396,-0.01750673204740668
2.4,-0.017506948412293007
2.404,-0.01750932842604261
2.408,-0.017509761155815262
2.412,-0.017509400547671385
2.416,-0.017509689034186485
2.42,-0.017509785196358187
2.424,-0.017507260939351035
2.428,-0.017509785196358187
2.432,-0.01751428077788521
2.436,-0.01751194884522146
2.44,-0.017506539723063277
2.444,-0.017507669628580764
2.448,-0.017511227628933704
2.452,-0.017513559561597454
2.456,-0.017514473102228614
2.46,-0.01751185268304976
2.464,-0.017513463399425753
2.468,-0.017515675129374877
2.472,-0.0175156030077461
2.476,-0.017515170277973446
2.48,-0.017517622413351825
2.484,-0.017515482805031474
2.488,-0.01751464138602909
2.492,-0.017517189683579168
2.496,-0.01751805514312448
2.5,-0.017516997359235766
2.504,-0.017514400980599837
2.508,-0.017512814304766772
2.512,-0.017513992291370108
2.516,-0.017512381574994115
2.52,-0.017511179547847852
2.524,-0.017512069047936087
2.528,-0.01751002560178744
2.532,-0.017508775493555326
2.536,-0.017510722777532274
2.54,-0.017508294682696823
2.544,-0.017508078317810493
2.548,-0.01751175652087806
2.552,-0.017512838345309697
2.556,-0.01751428077788521
2.56,-0.01751430481842814
2.564,-0.01751505007525882
2.568,-0.01751343935888283
2.572,-0.017510145804502067
2.576,-0.017508366804325597
2.58,-0.01750983327744404
2.584,-0.017509352466585533
2.588,-0.017508487007040222
2.592,-0.01750942458821431
2.596,-0.01751002560178744
2.6,-0.017509616912557712
2.604,-0.017508943777355804
2.608,-0.017508270642153895
2.612,-0.017506443560891576
2.616,-0.017507405182608588
2.62,-0.01750605891220477
2.624,-0.017503462533568843
2.628,-0.01750449627691463
2.632,-0.017505890628404297
2.636,-0.017505770425689668
2.64,-0.01750649164197743
2.644,-0.01750622719600525
2.648,-0.017506900331207158
2.652,-0.01750791003401002
2.656,-0.01750952075038601
2.66,-0.017509496709843086
2.664,-0.01750839084486852
2.668,-0.017508991858441653
2.672,-0.017509544790928935
2.676,-0.017509496709843086
2.68,-0.017511636318163434
2.684,-0.01751480966982957
2.688,-0.01751267006150922
2.692,-0.017512597939880442
2.696,-0.017511179547847852
2.7,-0.017513198953453574
2.704,-0.017513415318339904
2.708,-0.017509304385499684
2.712,-0.017509376507128457
2.716,-0.01750947266930016
2.72,-0.01751170843979221
2.724,-0.017514473102228614
2.728,-0.017513799967026705
2.732,-0.017512309453365342
2.736,-0.017511660358706358
2.74,-0.017512141169564864
2.744,-0.01751358360214038
2.748,-0.017509616912557712
2.7520000000000002,-0.01750839084486852
2.7560000000000002,-0.017515434723945626
2.7600000000000002,-0.017514112494084737
2.7640000000000002,-0.017511419953277107
2.7680000000000002,-0.017511468034362956
2.7720000000000002,-0.01751480966982957
2.7760000000000002,-0.017514232696799362
2.7800000000000002,-0.017514833710372494
2.7840000000000003,-0.017515627048289028
2.7880000000000003,-0.017512597939880442
2.7920000000000003,-0.017511468034362956
2.7960000000000003,-0.017510217926130844
2.8000000000000003,-0.01750687629066423
2.8040000000000003,-0.017509280344956756
2.8080000000000003,-0.017511323791105406
2.8120000000000003,-0.017513319156168203
2.816,-0.01751627614294801
2.82,-0.017515314521231
2.824,-0.017512549858794593
2.828,-0.017517838778238152
2.832,-0.01751819938638203
2.836,-0.017518848481041013
2.84,-0.017520002427101423
2.844,-0.017518968683755638
2.848,-0.017517189683579168
2.852,-0.017514208656256438
2.856,-0.017511876723592685
2.86,-0.0175109391424186
2.864,-0.017512381574994115
2.868,-0.01751404037245596
2.872,-0.01751394421028426
2.876,-0.017513607642683306
2.88,-0.017516588670006036
2.884,-0.01751394421028426
2.888,-0.017512549858794593
2.892,-0.017511876723592685
2.896,-0.017513824007569633
2.9,-0.01751404037245596
2.904,-0.017514617345486167
2.908,-0.01751673291326359
2.912,-0.017516444426748486
2.916,-0.01751591553480413
2.92,-0.01751824746746788
2.924,-0.017519088886470264
2.928,-0.01751545876448855
2.932,-0.017511732480335135
2.936,-0.017511227628933704
2.94,-0.017513799967026705
2.944,-0.017514881791458343
2.948,-0.017517718575523526
2.952,-0.017518487872897132
2.956,-0.01751906484592734
2.96,-0.01751723776466502
2.964,-0.017518776359412236
2.968,-0.017518367670182507
2.972,-0.01751646846729141
2.976,-0.017516516548377263
2.98,-0.01751824746746788
2.984,-0.01752413740048457
2.988,-0.017521108292075985
2.992,-0.017522045873250073
2.996,-0.017520555359588706
3.0,-0.017519136967556116
3.004,-0.017520002427101423
3.008,-0.017522959413881233
3.012,-0.01752149294076279
3.016,-0.017516588670006036
3.02,-0.01751495391308712
3.024,-0.017512838345309697
3.028,-0.017516997359235766
3.032,-0.017520531319045782
3.036,-0.01751880039995516
3.04,-0.017517622413351825
3.044,-0.01751916100809904
3.048,-0.01751870423778346
3.052,-0.017517886859324
3.056,-0.01751687715652114
3.06,-0.017517430089008423
3.064,-0.017515530886117327
3.068,-0.01751663675109189
3.072,-0.017514112494084737
3.076,-0.017512285412822414
3.08,-0.017514665426572016
3.084,-0.017516805034892363
3.088,-0.017519401413528292
3.092,-0.017518367670182507
3.096,-0.017516300183490933
3.1,-0.017513006629110175
3.104,-0.017510867020789824
3.108,-0.017514376940056912
3.112,-0.017513751885940856
3.116,-0.017516925237606992
3.12,-0.017517718575523526
3.124,-0.017516997359235766
3.128,-0.017518127264753255
3.132,-0.017516516548377263
3.136,-0.017515675129374877
3.14,-0.017516901197064064
3.144,-0.017517766656609375
3.148,-0.017518343629639582
3.152,-0.017518175345839104
3.156,-0.017521156373161838
3.16,-0.01751824746746788
3.164,-0.01752341618419681
3.168,-0.017525026900572806
3.172,-0.017522694967909053
3.176,-0.017520122629816053
3.18,-0.017519257170270742
3.184,-0.017518271508010805
3.188,-0.017518007062038626
3.192,-0.017520363035245304
3.196,-0.017520675562303332
3.2,-0.017520266873073603
3.204,-0.0175199783865585
3.208,-0.017518872521583937
3.212,-0.017517766656609375
3.216,-0.017517093521407467
3.22,-0.017516107859147534
3.224,-0.01751870423778346
3.228,-0.017516708872720665
3.232,-0.01751682907543529
3.236,-0.017521709305649117
3.24,-0.01752199779216422
3.244,-0.017521685265106193
3.248,-0.017518007062038626
3.2520000000000002,-0.017518584035068833
3.2560000000000002,-0.017521516981305718
3.2600000000000002,-0.017520771724475033
3.2640000000000002,-0.017522238197593475
3.2680000000000002,-0.01752134869750524
3.2720000000000002,-0.017519689900043395
3.2760000000000002,-0.017518007062038626
3.2800000000000002,-0.0175201707109019
3.2840000000000003,-0.017521709305649117
3.2880000000000003,-0.0175221660759647
3.2920000000000003,-0.017519401413528292
3.2960000000000003,-0.017517670494437674
3.3000000000000003,-0.01751755029172305
3.3040000000000003,-0.01751839171072543
3.3080000000000003,-0.01751851191344006
3.3120000000000003,-0.017515891494261204
3.3160000000000003,-0.017514929872544195
3.3200000000000003,-0.017515482805031474
3.3240000000000003,-0.017517093521407467
3.3280000000000003,-0.01751682907543529
3.332,-0.017515651088831952
3.336,-0.01751632422403386
3.34,-0.017519040805384415
3.344,-0.017520050508187276
3.348,-0.01752250264356565
3.352,-0.017523608508540213
3.356,-0.017520651521760407
3.36,-0.017519040805384415
3.364,-0.017517934940409853
3.368,-0.0175177906971523
3.372,-0.017515939575347056
3.376,-0.017519088886470264
3.38,-0.017519882224386798
3.384,-0.01751572321046073
3.388,-0.01751865615669761
3.392,-0.017517766656609375
3.396,-0.017517165643036244
3.4,-0.01751839171072543
3.404,-0.017518367670182507
3.408,-0.017518127264753255
3.412,-0.01751855999452591
3.416,-0.017518992724298563
3.42,-0.01752144485967694
3.424,-0.017521781427277894
3.428,-0.017519882224386798
3.432,-0.017521420819134017
3.436,-0.01751865615669761
3.44,-0.01751851191344006
3.444,-0.017518343629639582
3.448,-0.017521036170447212
3.452,-0.017521324656962316
3.456,-0.017521565062391567
3.46,-0.01752358446799729
3.464,-0.017520771724475033
3.468,-0.017518944643212714
3.472,-0.017516155940233383
3.476,-0.017516155940233383
3.48,-0.017518367670182507
3.484,-0.01751855999452591
3.488,-0.017518728278326387
3.492,-0.017517454129551347
3.496,-0.017517309886293797
3.5,-0.017519689900043395
3.504,-0.017519641818957547
3.508,-0.017520795765017957
3.512,-0.017520723643389184
3.516,-0.017521012129904284
3.52,-0.01752149294076279
3.524,-0.01752495477894403
3.528,-0.017525579833060086
3.532,-0.017523728711254842
3.536,-0.017520651521760407
3.54,-0.017521324656962316
3.544,-0.017523151738224635
3.548,-0.017521516981305718
3.552,-0.017520459197417005
3.556,-0.0175200745487302
3.56,-0.017520363035245304
3.564,-0.01752048323795993
3.568,-0.017520795765017957
3.572,-0.017522646886823205
3.576,-0.017523896995055317
3.58,-0.017522190116507623
3.584,-0.017521276575876463
3.588,-0.01752252668410858
3.592,-0.01752555579251716
3.596,-0.017527503076494106
3.6,-0.017525772157403488
3.604,-0.01752519518437328
3.608,-0.017524738414057703
3.612,-0.017524377805913822
3.616,-0.017524738414057703
3.62,-0.017528488738754042
3.624,-0.017524209522113345
3.628,-0.017518872521583937
3.632,-0.01752048323795993
3.636,-0.01752108425153306
3.64,-0.017521637184020344
3.644,-0.017518535953982985
3.648,-0.01752202183270715
3.652,-0.017522743048994906
3.656,-0.017521541021848643
3.66,-0.01751851191344006
3.664,-0.017519641818957547
3.668,-0.017522334359765177
3.672,-0.017520194751444826
3.676,-0.01752048323795993
3.68,-0.01752317577876756
3.684,-0.017523320022025113
3.688,-0.017521132332618913
3.692,-0.01752317577876756
3.696,-0.01752363254908314
3.7,-0.017523151738224635
3.704,-0.01752281517062368
3.708,-0.017523103657138783
3.712,-0.017523392143653886
3.716,-0.017523728711254842
3.72,-0.017522694967909053
3.724,-0.01752084384610381
3.728,-0.017520627481217483
3.732,-0.017523488305825587
3.736,-0.017524401846456747
3.74,-0.017524257603199197
3.744,-0.017521781427277894
3.748,-0.017526541454777098
3.7520000000000002,-0.017527983887352612
3.7560000000000002,-0.017525579833060086
3.7600000000000002,-0.01752363254908314
3.7640000000000002,-0.017524305684285046
3.7680000000000002,-0.01752620488717614
3.7720000000000002,-0.01752678186020635
3.7760000000000002,-0.017529137833413026
3.7800000000000002,-0.017531734212048955
3.7840000000000003,-0.01753074854978902
3.7880000000000003,-0.017527166508893154
3.7920000000000003,-0.01752779156300921
3.7960000000000003,-0.01752774348192336
3.8000000000000003,-0.017526902062920974
3.8040000000000003,-0.01752762327920873
3.8080000000000003,-0.017528584900925744
3.8120000000000003,-0.017525844279032265
3.8160000000000003,-0.017524161441027496
3.8200000000000003,-0.017524113359941643
3.8240000000000003,-0.01752404123831287
3.8280000000000003,-0.01752317577876756
3.8320000000000003,-0.017524522049171376
3.8360000000000003,-0.01752661357640587
3.84,-0.017524522049171376
3.844,-0.017522214157050547
3.848,-0.01752134869750524
3.852,-0.01752368063016899
3.856,-0.017523103657138783
3.86,-0.017522238197593475
3.864,-0.017521781427277894
3.868,-0.01752300749496708
3.872,-0.017523199819310484
3.876,-0.017518487872897132
3.88,-0.017517958980952777
3.884,-0.017523392143653886
3.888,-0.01752344022473974
3.892,-0.01752413740048457
3.896,-0.017522550724651503
3.9,-0.01752084384610381
3.904,-0.017520651521760407
3.908,-0.01752519518437328
3.912,-0.017527262671064855
3.916,-0.017528176211696014
3.92,-0.017533152604081545
3.924,-0.017532695833765963
3.928,-0.017527575198122883
3.932,-0.01753038794164514
3.936,-0.017533513212225422
3.94,-0.017529786928072007
3.944,-0.01752627700880492
3.948,-0.01752596448174689
3.952,-0.01753007541458711
3.956,-0.017533152604081545
3.96,-0.01753546049620237
3.964,-0.017532431387793784
3.968,-0.01752870510364037
3.972,-0.01752738287377948
3.976,-0.017528945509069624
3.98,-0.017530820671417792
3.984,-0.0175292099550418
3.988,-0.017528007927895536
3.992,-0.01752764731975166
3.996,-0.017528873387440847
4.0,-0.01752916187395595
4.0040000000000004,-0.017531133198475823
4.008,-0.017528729144183297
4.0120000000000005,-0.01752820025223894
4.016,-0.017531109157932896
4.0200000000000005,-0.017533032401366916
4.024,-0.01753505180697264
4.0280000000000005,-0.017533897860912227
4.032,-0.017534018063626852
4.0360000000000005,-0.017534306550141956
4.04,-0.017534474833942434
4.0440000000000005,-0.017534739279914613
4.048,-0.017533753617654677
4.0520000000000005,-0.01753485948262924
4.056,-0.017535123928601414
4.0600000000000005,-0.017534378671770733
4.064,-0.017534739279914613
4.0680000000000005,-0.017533994023083928
4.072,-0.01753519605023019
4.0760000000000005,-0.017534931604258012
4.08,-0.017533633414940047
4.0840000000000005,-0.017533753617654677
4.088,-0.017533368968967872
4.0920000000000005,-0.01753423442851318
4.096,-0.017534787361000462
4.1,-0.017533657455482975
4.104,-0.017531974617478206
4.108,-0.017532647752680115
4.112,-0.017531469766076776
4.116,-0.01752997925241541
4.12,-0.017532431387793784
4.124,-0.017534378671770733
4.128,-0.017531950576935282
4.132,-0.01752856086038282
4.136,-0.017536566361176932
4.14,-0.017537095253121287
4.144,-0.0175335853338542
4.148,-0.01753291219865229
4.152,-0.017535893225975024
4.156,-0.01753714333420714
4.16,-0.017535676861088697
4.164,-0.017533513212225422
4.168,-0.017534306550141956
4.172,-0.017537359699093466
4.176,-0.017535532617831143
4.18,-0.01753413826634148
4.184,-0.0175336814960259
4.188,-0.017534907563715087
4.192,-0.017531830374220653
4.196,-0.017531950576935282
4.2,-0.01753094087413242
4.204,-0.017533224725710318
4.208,-0.017536638482805705
4.212,-0.017537263536921765
4.216,-0.017533032401366916
4.22,-0.01753394594199808
4.224,-0.0175335853338542
4.228,-0.017533152604081545
4.232,-0.017535436455659442
4.236,-0.01753190249584943
4.24,-0.017530700468703166
4.244,-0.01753433059068488
4.248,-0.017533393009510796
4.252,-0.017534907563715087
4.256,-0.017534931604258012
4.26,-0.017535123928601414
4.264,-0.017535628780002845
4.268,-0.017531734212048955
4.272,-0.017532190982364533
4.276,-0.017536999090949586
4.28,-0.01753555665837407
4.284,-0.017535075847515565
4.288,-0.01753464311774291
4.292,-0.017532719874308888
4.296,-0.017534474833942434
4.3,-0.017534979685343864
4.304,-0.017533344928424947
4.308,-0.017536398077376454
4.312,-0.017536446158462306
4.316,-0.017532984320281067
4.32,-0.017535268171858968
4.324,-0.01753464311774291
4.328,-0.017529642684814457
4.332,-0.01752824833332479
4.336,-0.01752896954961255
4.34,-0.01752906571178425
4.344,-0.01753125340119045
4.348,-0.01753074854978902
4.352,-0.017529786928072007
4.356,-0.01753300836082399
4.36,-0.017536662523348633
4.364,-0.017537335658550538
4.368,-0.017535580698916996
4.372,-0.01753089279304657
4.376,-0.017531830374220653
4.38,-0.017532936239195218
4.384,-0.017533873820369302
4.388,-0.01753231118507916
4.392,-0.01753012349567296
4.396,-0.017531133198475823
4.4,-0.017532094820192832
4.404,-0.01753098895521827
4.408,-0.017528272373867716
4.412,-0.01752769540083751
4.416,-0.01752839257658234
4.42,-0.01753007541458711
4.424,-0.017529041671241325
4.428,-0.017527983887352612
4.432,-0.017530460063273915
4.436,-0.017531037036304122
4.44,-0.017527767522466285
4.444,-0.017525651954688862
4.448,-0.017526853981835126
4.452,-0.017526565495320022
4.456,-0.01752413740048457
4.46,-0.017524762454600627
4.464,-0.0175267337791205
4.468,-0.01752596448174689
4.472,-0.0175267337791205
4.476,-0.01752875318472622
4.48,-0.017529426319928126
4.484,-0.017527863684637986
4.488,-0.017526156806090293
4.492,-0.017528104090067238
4.496,-0.017527983887352612
4.5,-0.017527719441380433
4.5040000000000004,-0.0175245460897143
4.508,-0.01752185354890667
4.5120000000000005,-0.017524522049171376
4.516,-0.017527262671064855
4.5200000000000005,-0.0175293061172135
4.524,-0.01753017157675881
4.5280000000000005,-0.01752961864427153
4.532,-0.017531133198475823
4.5360000000000005,-0.017532840077023517
4.54,-0.017527983887352612
4.5440000000000005,-0.01753058026598854
4.548,-0.017532046739106983
4.5520000000000005,-0.01753317664462447
4.556,-0.017532960279738143
4.5600000000000005,-0.017530556225445616
4.564,-0.017532215022907457
4.5680000000000005,-0.017533368968967872
4.572,-0.017532383306707935
4.5760000000000005,-0.017535628780002845
4.58,-0.017535724942174546
4.5840000000000005,-0.017533465131139573
4.588,-0.017530027333501258
4.5920000000000005,-0.01753276795539474
4.596,-0.017534378671770733
4.6000000000000005,-0.017536542320634008
4.604,-0.017538177077552924
4.6080000000000005,-0.017533609374397123
4.612,-0.01753125340119045
4.616,-0.017532118860735756
4.62,-0.01753546049620237
4.624,-0.017537984753209522
4.628,-0.017539595469585514
4.632,-0.017537455861265167
4.636,-0.01753714333420714
4.64,-0.017535268171858968
4.644,-0.017535268171858968
4.648,-0.017533994023083928
4.652,-0.01753546049620237
4.656,-0.017538489604610952
4.66,-0.017538321320810474
4.664,-0.017535268171858968
4.668,-0.017537071212578362
4.672,-0.017536999090949586
4.676,-0.01753815303701
4.68,-0.017539331023613335
4.684,-0.017538994456012383
4.688,-0.01754017244261572
4.692,-0.017543562159168184
4.696,-0.017541566794105387
4.7,-0.017537984753209522
4.704,-0.017535436455659442
4.708,-0.01753661444226278
4.712,-0.017535532617831143
4.716,-0.01753793667212367
4.72,-0.017540412848044973
4.724,-0.017539355064156263
4.728,-0.017537720307237343
4.732,-0.017539234861441634
4.736,-0.01754012436152987
4.74,-0.017540917699446403
4.744,-0.01754038880750205
4.748,-0.017540028199358168
4.752,-0.017541831240077563
4.756,-0.017540004158815244
4.76,-0.017539739712843064
4.764,-0.017539787793928917
4.768,-0.01753916273981286
4.772,-0.017537263536921765
4.776,-0.01753764818560857
4.78,-0.017541686996820013
4.784,-0.01754428337545594
4.788,-0.017544355497084718
4.792,-0.017542576496908248
4.796,-0.017538994456012383
4.8,-0.017540773456188853
4.804,-0.017540917699446403
4.808,-0.017540557091302526
4.812,-0.01753856172623973
4.816,-0.017541614875191236
4.82,-0.017539643550671363
4.824,-0.017538080915381223
4.828,-0.01753815303701
4.832,-0.017539234861441634
4.836,-0.01754123022650443
4.84,-0.017539907996643542
4.844,-0.017540725375103
4.848,-0.017542744780708722
4.852,-0.017542840942880424
4.856,-0.017540701334560076
4.86,-0.017541326388676132
4.864,-0.017542456294193622
4.868,-0.01754103790216103
4.872,-0.01754098982107518
4.876,-0.017537672226151494
4.88,-0.017539355064156263
4.884,-0.017537311618007614
4.888,-0.017536902928777885
4.892,-0.01753897041546946
4.896,-0.017542961145595053
4.9,-0.01754587005128901
4.904,-0.01754373044296866
4.908,-0.017541446591390758
4.912,-0.01754007628044402
4.916,-0.01754368236188281
4.92,-0.01754596621346071
4.924,-0.017543754483511587
4.928,-0.017545485402602205
4.932,-0.017545028632286623
4.936,-0.01754373044296866
4.94,-0.017544499740342268
4.944,-0.017546038335089484
4.948,-0.017543249632110153
4.952,-0.017543129429395527
4.956,-0.017543153469938455
4.96,-0.01754185528062049
4.964,-0.01754250437527947
4.968,-0.017543898726769137
4.972,-0.017540509010216674
4.976,-0.017542985186137977
4.98,-0.017543129429395527
4.984,-0.01754267265907995
4.988,-0.01754637490269044
4.992,-0.017547360564950376
4.996,-0.01754464398359982
5.0,-0.017544619943056894
5.0040000000000004,-0.017545677726945607
5.008,-0.01754264861853702
5.0120000000000005,-0.01754250437527947
5.016,-0.01754546136205928
5.0200000000000005,-0.017544115091655463
5.024,-0.017542552456365323
5.0280000000000005,-0.017542432253650694
5.032,-0.01754392276731206
5.0360000000000005,-0.0175429130645092
5.04,-0.017543610240254033
5.0440000000000005,-0.017546807632463093
5.048,-0.017546447024319213
5.0520000000000005,-0.017546134497261185
5.056,-0.017548730875897114
5.0600000000000005,-0.017549932903043377
5.064,-0.0175451007539154
5.0680000000000005,-0.01754555752423098
5.072,-0.017546326821604587
5.0760000000000005,-0.01754611045671826
5.08,-0.017545076713372475
5.0840000000000005,-0.017546759551377245
5.088,-0.017548177943409835
5.0920000000000005,-0.017549884821957528
5.096,-0.017547745213637177
5.1000000000000005,-0.017548754916440038
5.104,-0.017547408646036225
5.1080000000000005,-0.017548995321869293
5.112,-0.01755216867353543
5.1160000000000005,-0.017551423416704744
5.12,-0.01755099068693209
5.124,-0.017550413713901883
5.128,-0.017547817335265954
5.132,-0.017547961578523508
5.136,-0.017548730875897114
5.14,-0.017548682794811265
5.144,-0.017545052672829548
5.148,-0.01754433145654179
5.152,-0.0175450045917437
5.156,-0.017548250065038608
5.16,-0.017547913497437655
5.164,-0.017548322186667385
5.168,-0.017551447457247668
5.172,-0.017550053105758003
5.176,-0.017550822403131612
5.18,-0.017552336957335903
5.184,-0.0175544284845704
5.188,-0.01755250524113638
5.192,-0.017553106254709513
5.196,-0.017553803430454346
5.2,-0.01755358706556802
5.204,-0.01755510161977231
5.208,-0.017556183444203947
5.212,-0.017550918565303313
5.216,-0.0175498607814146
5.22,-0.01755048583553066
5.224,-0.017551928268106174
5.228,-0.017552072511363728
5.232,-0.017548322186667385
5.236,-0.017546831673006018
5.24,-0.01754906744349807
5.244,-0.017547576929836703
5.248,-0.01754546136205928
5.252,-0.01754601429454656
5.256,-0.017548081781238133
5.26,-0.017548177943409835
5.264,-0.017547600970379627
5.268,-0.01754788945689473
5.272,-0.017546567227033842
5.276,-0.017544571861971045
5.28,-0.01754601429454656
5.284,-0.017547480767665
5.288,-0.017548923200240516
5.292,-0.017548610673182488
5.296,-0.01755089452476039
5.3,-0.017547865416351806
5.304,-0.017546062375632412
5.308,-0.01754925976784147
5.312,-0.017547600970379627
5.316,-0.017548875119154667
5.32,-0.017548682794811265
5.324,-0.017549404011099022
5.328,-0.01755113493018964
5.332,-0.017550245430101405
5.336,-0.017549524213813648
5.34,-0.01755058199770236
5.344,-0.017548995321869293
5.348,-0.017546158537804113
5.352,-0.017547360564950376
5.356,-0.017546495105405065
5.36,-0.017547504808207926
5.364,-0.01755058199770236
5.368,-0.017550606038245285
5.372,-0.01754264861853702
5.376,-0.017544812267400296
5.38,-0.017543898726769137
5.384,-0.017548730875897114
5.388,-0.017548875119154667
5.392,-0.017547240362235747
5.396,-0.017546302781061663
5.4,-0.017543297713196005
5.404,-0.017547240362235747
5.408,-0.017549235727298544
5.412,-0.017550870484217464
5.416,-0.01754661530811969
5.42,-0.017549428051641947
5.424,-0.017549283808384396
5.428,-0.01755053391661651
5.432,-0.01755291393036611
5.436,-0.01755301009253781
5.44,-0.017553947673711896
5.444,-0.017553659187196792
5.448,-0.017552433119507604
5.452,-0.01755231291679298
5.456,-0.017553899592626047
5.46,-0.01755464484945673
5.464,-0.017554019795340672
5.468,-0.017551471497790596
5.472,-0.0175544284845704
5.476,-0.017552697565479784
5.48,-0.017547336524407448
5.484,-0.017549500173270723
5.488,-0.017551567659962297
5.492,-0.017554789092714282
5.496,-0.017556351728004422
5.5,-0.01755281776819441
5.5040000000000004,-0.017553130295252437
5.508,-0.017554572727827955
5.5120000000000005,-0.01755139937616182
5.516,-0.017547576929836703
5.5200000000000005,-0.017550293511187257
5.524,-0.017553611106110943
5.5280000000000005,-0.017553803430454346
5.532,-0.017552745646565632
5.5360000000000005,-0.017548009659609357
5.54,-0.01754574984857438
5.5440000000000005,-0.017549932903043377
5.548,-0.017555894957688844
5.5520000000000005,-0.017553130295252437
5.556,-0.017551976349192026
5.5600000000000005,-0.017550774322045763
5.564,-0.017553803430454346
5.5680000000000005,-0.01755728930917851
5.572,-0.017558996187726203
5.5760000000000005,-0.017558491336324773
5.58,-0.01755625556583272
5.5840000000000005,-0.01755894810664035
5.588,-0.01755769799840824
5.5920000000000005,-0.01755820284980967
5.596,-0.017559741444556885
5.6000000000000005,-0.017559909728357363
5.604,-0.017558515376867697
5.6080000000000005,-0.017557625876779462
5.612,-0.017557145065920956
5.6160000000000005,-0.017558491336324773
5.62,-0.017559164471526677
5.6240000000000006,-0.01755779416057994
5.628,-0.017557649917322386
5.632,-0.017557625876779462
5.636,-0.017559885687814438
5.64,-0.017563539850339076
5.644,-0.017559645282385183
5.648,-0.01755976548509981
5.652,-0.017558659620125247
5.656,-0.01756012609324369
5.66,-0.017559741444556885
5.664,-0.017560102052700765
5.668,-0.017561688728533833
5.672,-0.01756063094464512
5.676,-0.017562265701564037
5.68,-0.01756397258011173
5.684,-0.017562866715137168
5.688,-0.01755976548509981
5.692,-0.017557361430807283
5.696,-0.017560510741930494
5.7,-0.017559597201299335
5.704,-0.017555967079317617
5.708,-0.017559044268812052
5.712,-0.017559789525642737
5.716,-0.01756204933667771
5.72,-0.017565943904631603
5.724,-0.01756027033650124
5.728,-0.01755894810664035
5.732,-0.017559669322928108
5.736,-0.017560342458130016
5.74,-0.017563539850339076
5.744,-0.01756140024201873
5.748,-0.017560150133786614
5.752,-0.01755921255261253
5.756,-0.017561857012334307
5.76,-0.017561881052877232
5.764,-0.017562025296134785
5.768,-0.017563563890882
5.772,-0.017566592999290587
5.776,-0.017567650783179296
5.78,-0.017569165337383588
5.784,-0.017566352593861332
5.788,-0.017565895823545754
5.792,-0.017569141296840663
5.796,-0.017568732607610934
5.8,-0.01756743441829297
5.804,-0.017564405309884387
5.808,-0.0175608953906173
5.812,-0.017561568525819204
5.816,-0.017563251363823973
5.82,-0.01756510248562922
5.824,-0.017565799661374053
5.828,-0.017564212985540985
5.832,-0.017567458458835894
5.836,-0.017568251796752428
5.84,-0.01756921341846944
5.844,-0.017567602702093447
5.848,-0.017568732607610934
5.852,-0.01756945382389869
5.856,-0.01756712189123494
5.86,-0.017564044701740507
5.864,-0.017563948539568806
5.868,-0.017565679458659424
5.872,-0.01756551117485895
5.876,-0.017563900458482957
5.88,-0.01756392449902588
5.884,-0.01756159256636213
5.888,-0.017559525079670558
5.892,-0.017561111755503626
5.896,-0.017560991552789
5.9,-0.01756406874228343
5.904,-0.017562385904278666
5.908,-0.017560751147359745
5.912,-0.01756459763422779
5.916,-0.017562626309707917
5.92,-0.017562265701564037
5.924,-0.01756332348545275
5.928,-0.017561712769076757
5.932,-0.017562770552965467
5.936,-0.017563203282738124
5.94,-0.01756039053921587
5.944,-0.01756358793142493
5.948,-0.01756423702608391
5.952,-0.017563203282738124
5.956,-0.01756250610699329
5.96,-0.017561472363647503
5.964,-0.01756315520165227
5.968,-0.017565631377573575
5.972,-0.017563203282738124
5.976,-0.01756341964762445
5.98,-0.01756450147205609
5.984,-0.017565631377573575
5.988,-0.01756743441829297
5.992,-0.017565463093773097
5.996,-0.01756341964762445
6.0,-0.017565126526172144
6.0040000000000004,-0.01756382833685418
6.008,-0.017561977215048933
6.0120000000000005,-0.01756500632345752
6.016,-0.017565871783002826
6.0200000000000005,-0.01756726613449249
6.024,-0.017567770985893922
6.0280000000000005,-0.017565318850515547
6.032,-0.017564958242371666
6.0360000000000005,-0.01756231378264989
6.04,-0.017561063674417773
6.0440000000000005,-0.01756190509342016
6.048,-0.017561520444733355
6.0520000000000005,-0.017561328120389953
6.056,-0.01756140024201873
6.0600000000000005,-0.017565463093773097
6.064,-0.017568371999467054
6.0680000000000005,-0.01756661703983351
6.072,-0.01756500632345752
6.0760000000000005,-0.017566184310060854
6.08,-0.01756716997232079
6.0840000000000005,-0.017569069175211886
6.088,-0.0175701269591006
6.0920000000000005,-0.01757195404036292
6.096,-0.017571497270047337
6.1000000000000005,-0.01756753058046467
6.104,-0.017566136228975005
6.1080000000000005,-0.017565991985717455
6.112,-0.017564958242371666
6.1160000000000005,-0.01756450147205609
6.12,-0.017565871783002826
6.1240000000000006,-0.01756753058046467
6.128,-0.017565991985717455
6.132000000000001,-0.017564958242371666
6.136,-0.01756726613449249
6.140000000000001,-0.017564910161285818
6.144,-0.017559909728357363
6.148,-0.017564164904455132
6.152,-0.017566881485805687
6.156,-0.017569165337383588
6.16,-0.017568275837295352
6.164,-0.01756450147205609
6.168,-0.017560823268988522
6.172,-0.017564261066626834
6.176,-0.017566232391146706
6.18,-0.017564549553141937
6.184,-0.01756519864780092
6.188,-0.017566881485805687
6.192,-0.01756743441829297
6.196,-0.0175658477424599
6.2,-0.01756875664815386
6.204,-0.01757118474298931
6.208,-0.017568636445439233
6.212,-0.01756839604000998
6.216,-0.017568828769782635
6.22,-0.017567891188608548
6.224,-0.01756909321575481
6.228,-0.017569141296840663
6.232,-0.017567915229151475
6.236,-0.01756676128309106
6.24,-0.01756767482372222
6.244,-0.017568924931954336
6.248,-0.017569838472585496
6.252,-0.017570415445615703
6.256,-0.01757072797267373
6.26,-0.01757195404036292
6.264,-0.01757164151330489
6.268,-0.017568900891411412
6.272,-0.0175702231212723
6.276,-0.017570655851044954
6.28,-0.0175701269591006
6.284,-0.01756868452652508
6.288,-0.017570439486158627
6.292,-0.017571569391676114
6.296,-0.01757087221593128
6.3,-0.017568876850868484
6.304,-0.017566208350603782
6.308,-0.01756591986408868
6.312,-0.01756808351295195
6.316,-0.017567650783179296
6.32,-0.017566592999290587
6.324,-0.017565727539745276
6.328,-0.017569021094126037
6.332,-0.0175724108106785
6.336,-0.01757265121610775
6.34,-0.01757195404036292
6.344,-0.01757534375691538
6.348,-0.017574622540627624
6.352,-0.017572434851221425
6.356,-0.01757447829737007
6.36,-0.017575031229857353
6.364,-0.017570992418645907
6.368,-0.01756921341846944
6.372,-0.01756849220218168
6.376,-0.01757154535113319
6.38,-0.017575415878544158
6.384,-0.017573348391852584
6.388,-0.01757205020253462
6.392,-0.017572362729592648
6.396,-0.017572579094478975
6.4,-0.01757209828362047
6.404,-0.017571088580817608
6.408,-0.017571208783532237
6.412,-0.017570920297017133
6.416,-0.0175724108106785
6.42,-0.0175724108106785
6.424,-0.01757229060796387
6.428,-0.017571929999819994
6.432,-0.0175726992971936
6.436,-0.017573636878367688
6.44,-0.01757640154080409
6.444,-0.01757849306803859
6.448,-0.017578469027495665
6.452,-0.017575175473114903
6.456,-0.017570247161815225
6.46,-0.01756849220218168
6.464,-0.017568876850868484
6.468,-0.01756875664815386
6.472,-0.017569742310413795
6.476,-0.017570343323986926
6.48,-0.01757053564833033
6.484,-0.017575560121801708
6.488,-0.01757601689211729
6.492,-0.01757690639220552
6.496,-0.01757548800017293
6.5,-0.017571473229504413
6.5040000000000004,-0.0175723146485068
6.508,-0.01757464658117055
6.5120000000000005,-0.01757342051348136
6.516,-0.017575367797458306
6.5200000000000005,-0.01757529567582953
6.524,-0.017574862946056875
6.5280000000000005,-0.017573516675653062
6.532,-0.017573588797281835
6.5360000000000005,-0.017572843540451154
6.54,-0.017574935067685652
6.5440000000000005,-0.017574093648683266
6.548,-0.01757373304053939
6.5520000000000005,-0.01757548800017293
6.556,-0.017574261932483744
6.5600000000000005,-0.017573612837824763
6.564,-0.017572987783708704
6.5680000000000005,-0.017577098716548924
6.572,-0.01757757952740743
6.5760000000000005,-0.017579526811384378
6.58,-0.017578733473467844
6.5840000000000005,-0.017578805595096617
6.588,-0.017574766783885174
6.5920000000000005,-0.017572386770135572
6.596,-0.017575824567773887
6.6000000000000005,-0.017578661351839067
6.604,-0.01757921428432635
6.6080000000000005,-0.017577146797634776
6.612,-0.017575584162344633
6.6160000000000005,-0.01757438213519837
6.62,-0.017576449621889943
6.6240000000000006,-0.01757921428432635
6.628,-0.017577387203064027
6.632000000000001,-0.01757733912197818
6.636,-0.017574935067685652
6.640000000000001,-0.017574911027142728
6.644,-0.01757589668940266
6.648000000000001,-0.01757443021628422
6.652,-0.01757676214894797
6.656000000000001,-0.01757560820288756
6.66,-0.017577146797634776
6.664,-0.01757753144632158
6.668,-0.01758051247364431
6.672,-0.017579574892470227
6.676,-0.017579238324869274
6.68,-0.01757753144632158
6.684,-0.017575632243430485
6.688,-0.01757849306803859
6.692,-0.017579238324869274
6.696,-0.017577627608493282
6.7,-0.017575776486688035
6.704,-0.017575055270400278
6.708,-0.01757702659492015
6.712,-0.01757748336523573
6.716,-0.017577916095008386
6.72,-0.017577218919263553
6.724,-0.017574574459541772
6.728,-0.01757301182425163
6.732,-0.01757332435130966
6.736,-0.01757712275709185
6.74,-0.01757757952740743
6.744,-0.017573612837824763
6.748,-0.017573396472938433
6.752,-0.017575127392029054
6.756,-0.017574814864971026
6.76,-0.017575175473114903
6.764,-0.017573300310766732
6.768,-0.017572122324163397
6.772,-0.017574862946056875
6.776,-0.01757702659492015
6.78,-0.017574935067685652
6.784,-0.017576714067862122
6.788,-0.017576377500261166
6.792,-0.017575319716372457
6.796,-0.017575031229857353
6.8,-0.01757849306803859
6.804,-0.017575415878544158
6.808,-0.01757392536488279
6.812,-0.017575824567773887
6.816,-0.017575079310943202
6.82,-0.01757387728379694
6.824,-0.01757616113537484
6.828,-0.017578829635639545
6.832,-0.017579430649212677
6.836,-0.01757611305428899
6.84,-0.017574261932483744
6.844,-0.017573853243254015
6.848,-0.017574093648683266
6.852,-0.017573901324339863
6.856,-0.017577387203064027
6.86,-0.017576690027319194
6.864,-0.017576834270576748
6.868,-0.017578132459894712
6.872,-0.017577603567950354
6.876,-0.01757798821663716
6.88,-0.017579382568126824
6.884,-0.017579526811384378
6.888,-0.01758087308178819
6.892,-0.017581065406131594
6.896,-0.017578709432924916
6.9,-0.017579190243783422
6.904,-0.01757909408161172
6.908,-0.017581257730474996
6.912,-0.01758118560884622
6.916,-0.01757875751401077
6.92,-0.017579695095184852
6.924,-0.01758017590604336
6.928,-0.017579382568126824
6.932,-0.01757991146007118
6.936,-0.017579238324869274
6.94,-0.017578637311296143
6.944,-0.017579791257356554
6.948,-0.0175794546897556
6.952,-0.01757962297355608
6.956,-0.01758346946042412
6.96,-0.017580656716901864
6.964,-0.017580584595273088
6.968,-0.017581209649389144
6.972,-0.01757995954115703
6.976,-0.017578829635639545
6.98,-0.017581618338618876
6.984,-0.01758053651418724
6.988,-0.01758077691961649
6.992,-0.01757875751401077
6.996,-0.017579647014099004
7.0,-0.017580849041245267
7.0040000000000004,-0.01757693043274845
7.008,-0.01758003166278581
7.0120000000000005,-0.017581762581876426
7.016,-0.017580392270929685
7.0200000000000005,-0.01757986337898533
7.024,-0.017580055703328733
7.0280000000000005,-0.01758010378441458
7.032,-0.017581522176447175
7.0360000000000005,-0.017579647014099004
7.04,-0.017579695095184852
7.0440000000000005,-0.017580993284502817
7.048,-0.017580199946586283
7.0520000000000005,-0.01758017590604336
7.056,-0.017580488433101386
7.0600000000000005,-0.01757940660866975
7.064,-0.017581978946762753
7.0680000000000005,-0.017585585028201543
7.072,-0.017583757946939223
7.0760000000000005,-0.01758003166278581
7.08,-0.01758022398712921
7.0840000000000005,-0.01758214723056323
7.088,-0.017576089013746063
7.0920000000000005,-0.017577002554377223
7.096,-0.017581065406131594
7.1000000000000005,-0.017580969243959892
7.104,-0.0175794546897556
7.1080000000000005,-0.017579238324869274
7.112,-0.017582628041421737
7.1160000000000005,-0.01758310885228024
7.12,-0.017579935500614107
7.1240000000000006,-0.017577507405778653
7.128,-0.017578829635639545
7.132000000000001,-0.017580849041245267
7.136,-0.01758027206821506
7.140000000000001,-0.017580945203416968
7.144,-0.017580560554730163
7.148000000000001,-0.017581113487217442
7.152,-0.01758205106839153
7.156000000000001,-0.017583830068568
7.16,-0.017584310879426503
7.164000000000001,-0.017582483798164183
7.168,-0.01758387814965385
7.172,-0.01758726786620631
7.176,-0.01758731594729216
7.18,-0.01758875837986768
7.184,-0.017587460190549714
7.188,-0.017585873514716646
7.192,-0.017585609068744467
7.196,-0.01758498401462841
7.2,-0.017583301176623642
7.204,-0.01758087308178819
7.208,-0.017582219352192008
7.212,-0.01758438300105528
7.216,-0.017587147663491686
7.22,-0.017589551717784212
7.224,-0.017585945636345423
7.228,-0.01758726786620631
7.232,-0.017587243825663387
7.236,-0.017585464825486917
7.24,-0.017583589663138745
7.244,-0.01758245975762126
7.248,-0.0175816423791618
7.252,-0.017582267433277857
7.256,-0.01758159429807595
7.26,-0.017581762581876426
7.264,-0.01758320501445194
7.268,-0.01757995954115703
7.272,-0.01758178662241935
7.276,-0.017583349257709494
7.28,-0.01758351754150997
7.284,-0.017585873514716646
7.288,-0.01758337329825242
7.292,-0.017582315514363706
7.296,-0.017585224420057666
7.3,-0.017586089879602973
7.304,-0.017584358960512355
7.308,-0.017580296108757984
7.312,-0.017578276703152262
7.316,-0.017581209649389144
7.32,-0.0175842147172548
7.324,-0.017581257730474996
7.328,-0.017579334487040976
7.332,-0.01757950277084145
7.336,-0.017580993284502817
7.34,-0.017582435717078335
7.344,-0.01758113752776037
7.348,-0.017583950271282626
7.352,-0.017583397338795343
7.356,-0.017582507838707108
7.36,-0.017584863811913785
7.364,-0.017586186041774674
7.368,-0.017587868879779443
7.372,-0.017587556352721415
7.376,-0.017587388068920937
7.38,-0.017582676122507586
7.384,-0.017581498135904247
7.388,-0.017583445419881195
7.392,-0.01758351754150997
7.396,-0.01758483977137086
7.4,-0.017584527244312833
7.404,-0.017584358960512355
7.408,-0.017583661784767522
7.412,-0.01758245975762126
7.416,-0.01758113752776037
7.42,-0.01758270016305051
7.424,-0.017583180973909016
7.428,-0.017585633109287395
7.432,-0.01758474360919916
7.436,-0.017587195744577535
7.44,-0.01758844585280965
7.444,-0.017588109285208695
7.448,-0.017589527677241285
7.452,-0.017587965041951144
7.456,-0.017585440784943993
7.46,-0.01758539270385814
7.464,-0.017583998352368475
7.468,-0.017582315514363706
7.472,-0.01758529654168644
7.476,-0.017581978946762753
7.48,-0.017580752879073566
7.484,-0.017579574892470227
7.488,-0.0175794546897556
7.492,-0.01758548886602984
7.496,-0.017585681190373244
7.5,-0.01758356562259582
7.5040000000000004,-0.017581065406131594
7.508,-0.017581474095361323
7.5120000000000005,-0.017579791257356554
7.516,-0.017582868446850988
7.5200000000000005,-0.017585008055171335
7.524,-0.017582483798164183
7.5280000000000005,-0.017581618338618876
7.532,-0.01757757952740743
7.5360000000000005,-0.01757748336523573
7.54,-0.01758027206821506
7.5440000000000005,-0.017580921162874043
7.548,-0.01758447916322698
7.5520000000000005,-0.017583854109110925
7.556,-0.01758320501445194
7.5600000000000005,-0.017581666419704725
7.564,-0.017581738541333502
7.5680000000000005,-0.017584190676711877
7.572,-0.017582075108934454
7.5760000000000005,-0.017581618338618876
7.58,-0.017577627608493282
7.5840000000000005,-0.017579671054641928
7.588,-0.01758003166278581
7.5920000000000005,-0.017582579960335885
7.596,-0.01758524846060059
7.6000000000000005,-0.017587243825663387
7.604,-0.017586089879602973
7.6080000000000005,-0.017584671487570383
7.612,-0.017583806028025072
7.6160000000000005,-0.017586474528289778
7.62,-0.017586402406661
7.6240000000000006,-0.01758178662241935
7.628,-0.017585272501143515
7.632000000000001,-0.017585032095714263
7.636,-0.01758370986585337
7.640000000000001,-0.01758479169028501
7.644,-0.017583180973909016
7.648000000000001,-0.017584719568656232
7.652,-0.0175863062444893
7.656000000000001,-0.017585368663315216
7.66,-0.017585969676888347
7.664000000000001,-0.017585032095714263
7.668,-0.017586234122860527
7.672000000000001,-0.01758488785245671
7.676,-0.017585464825486917
7.68,-0.01758515229842889
7.684,-0.01758671493371903
7.688,-0.01758606583906005
7.692,-0.01758606583906005
7.696,-0.017585993717431272
7.7,-0.017584142595626028
7.704,-0.017584190676711877
7.708,-0.01758784483923652
7.712,-0.01758772463652189
7.716,-0.017586354325575152
7.72,-0.01758479169028501
7.724,-0.017583661784767522
7.728,-0.017587604433807264
7.732,-0.017591090312531428
7.736,-0.017587916960865292
7.74,-0.017589215150183257
7.744,-0.01758991232592809
7.748,-0.017589479596155436
7.752,-0.017589046866382782
7.756,-0.017588710298781826
7.76,-0.0175863062444893
7.764,-0.01758625816340345
7.768,-0.017589720001584687
7.772,-0.017586690893176105
7.776,-0.017583397338795343
7.78,-0.017582868446850988
7.784,-0.017581930865676904
7.788,-0.01758534462277229
7.792,-0.01758479169028501
7.796,-0.01758310885228024
7.8,-0.01758137793318962
7.804,-0.017581017325045745
7.808,-0.01758051247364431
7.812,-0.017583637744224598
7.816,-0.01758332521716657
7.82,-0.01758423875779773
7.824,-0.017583036730651466
7.828,-0.017581401973732546
7.832,-0.017585008055171335
7.836,-0.01758539270385814
7.84,-0.017586113920145897
7.844,-0.017586859176976583
7.848,-0.017587508271635563
7.852,-0.017587195744577535
7.856,-0.017585368663315216
7.86,-0.017583806028025072
7.864,-0.01758580139308787
7.868,-0.017585993717431272
7.872,-0.01758438300105528
7.876,-0.017584551284855757
7.88,-0.017586642812090256
7.884,-0.01758423875779773
7.888,-0.017584719568656232
7.892,-0.017587364028378013
7.896,-0.017588157366294547
7.9,-0.017590152731357344
7.904,-0.01759133071796068
7.908,-0.01759137879904653
7.912,-0.01759003252864272
7.916,-0.01758702746077706
7.92,-0.01758782079869359
7.924,-0.01759246062347817
7.928,-0.017592845272164974
7.932,-0.017588061204122846
7.936,-0.01758991232592809
7.94,-0.01758690725806243
7.944,-0.017587123622948758
7.948,-0.017589143028554483
7.952,-0.017587700595978965
7.956,-0.01758702746077706
7.96,-0.017585825433630797
7.964,-0.01758370986585337
7.968,-0.017581978946762753
7.972,-0.01758351754150997
7.976,-0.017584142595626028
7.98,-0.017584142595626028
7.984,-0.017583830068568
7.988,-0.0175837339063963
7.992,-0.017585681190373244
7.996,-0.017585032095714263
8.0,-0.01758498401462841
8.004,-0.017588205447380396
8.008000000000001,-0.017587796758150667
8.012,-0.01758832565009502
8.016,-0.01758854201498135
8.02,-0.017589431515069587
8.024000000000001,-0.01758642644720393
8.028,-0.017585440784943993
8.032,-0.01758642644720393
8.036,-0.017589840204299316
8.040000000000001,-0.017589215150183257
8.044,-0.017587556352721415
8.048,-0.01758808524466577
8.052,-0.017589311312354958
8.056000000000001,-0.0175908739476451
8.06,-0.017590056569185643
8.064,-0.017591835569362113
8.068,-0.017591907690990886
8.072000000000001,-0.01759423962365464
8.076,-0.01759462427234144
8.08,-0.017591835569362113
8.084,-0.017590946069273878
8.088000000000001,-0.0175886862582389
8.092,-0.01759123455578898
8.096,-0.017589816163756388
8.1,-0.017589840204299316
8.104000000000001,-0.0175930616370513
8.108,-0.017591811528819185
8.112,-0.017591907690990886
8.116,-0.01759000848809979
8.120000000000001,-0.01758976808267054
8.124,-0.017589888285385165
8.128,-0.017590801826016324
8.132,-0.017591114353074352
8.136000000000001,-0.017592580826192795
8.14,-0.017591571123389934
8.144,-0.01759356648845273
8.148,-0.017597557218578325
8.152000000000001,-0.017594768515598994
8.156,-0.017592268299134767
8.16,-0.017590994150359727
8.164,-0.017591571123389934
8.168000000000001,-0.017590970109816802
8.172,-0.0175906816233017
8.176,-0.017595177204828723
8.18,-0.01759580225894478
8.184000000000001,-0.017595008921028246
8.188,-0.017595081042657022
8.192,-0.01759621094817451
8.196,-0.01759621094817451
8.2,-0.01759529740754335
8.204,-0.017592124055877213
8.208,-0.017589816163756388
8.212,-0.017588373731180874
8.216,-0.017590465258415372
8.22,-0.017593229920851775
8.224,-0.017592580826192795
8.228,-0.01759219617750599
8.232,-0.0175928693127079
8.236,-0.017594672353427293
8.24,-0.017591499001761157
8.244,-0.01758895070421108
8.248,-0.017592412542392317
8.252,-0.01759154708284701
8.256,-0.01759205193424844
8.26,-0.017593133758680074
8.264,-0.017592436582935245
8.268,-0.017592268299134767
8.272,-0.017592773150536197
8.276,-0.017593494366823954
8.28,-0.01759255678564987
8.284,-0.017592124055877213
8.288,-0.01759565801568723
8.292,-0.01759909581332554
8.296,-0.017599312178211868
8.3,-0.017599672786355748
8.304,-0.017599047732239692
8.308,-0.017597797624007577
8.312,-0.017599889151242075
8.316,-0.017599552583641122
8.32,-0.01759832651595193
8.324,-0.017597004286091043
8.328,-0.017596042664374034
8.332,-0.017598398637580708
8.336,-0.01759676388066179
8.34,-0.01759873520518166
8.344,-0.01759621094817451
8.348,-0.017592917393793747
8.352,-0.01759448002908389
8.356,-0.01759589842111648
8.36,-0.017593229920851775
8.364,-0.017595177204828723
8.368,-0.017594720434513142
8.372,-0.017594335785826337
8.376,-0.01759640327251791
8.38,-0.017598013988893903
8.384,-0.017597605299664174
8.388,-0.0175977255023788
8.392,-0.01759914389441139
8.396,-0.017596018623831106
8.4,-0.017594576191255592
8.404,-0.017595441650800903
8.408,-0.01759503296157117
8.412,-0.017593278001937628
8.416,-0.017593590528995656
8.42,-0.01759411942094001
8.424,-0.017594696393970218
8.428,-0.01759387901551076
8.432,-0.017592244258591842
8.436,-0.017589816163756388
8.44,-0.017590561420587073
8.444,-0.017588638177153053
8.448,-0.017590393136786595
8.452,-0.017591306677417755
8.456,-0.017591114353074352
8.46,-0.017594504069626815
8.464,-0.017592340420763544
8.468,-0.01758890262312523
8.472,-0.017589695961041762
8.476,-0.01759027293407197
8.48,-0.017590609501672922
8.484,-0.01759104223144558
8.488,-0.0175886862582389
8.492,-0.017590729704387548
8.496,-0.01758986424484224
8.5,-0.01758895070421108
8.504,-0.01759265294782157
8.508000000000001,-0.01759717256989152
8.512,-0.017595730137316003
8.516,-0.017594672353427293
8.52,-0.017595417610257975
8.524000000000001,-0.01759512912374287
8.528,-0.017597533178035397
8.532,-0.017597364894234923
8.536,-0.01759924005658309
8.540000000000001,-0.017600634408072757
8.544,-0.01759681196174764
8.548,-0.01759640327251791
8.552,-0.017597412975320772
8.556000000000001,-0.01759808611052268
8.56,-0.017597052367176895
8.564,-0.017593638610081508
8.568,-0.01759169132610456
8.572000000000001,-0.017594600231798516
8.576,-0.017595465691343827
8.58,-0.017595682056230154
8.584,-0.017594864677770695
8.588000000000001,-0.017593590528995656
8.592,-0.017594576191255592
8.596,-0.017593037596508376
8.6,-0.017593806893881982
8.604000000000001,-0.017597340853691995
8.608,-0.017597244691520297
8.612,-0.017596956205005194
8.616,-0.017596787921204716
8.620000000000001,-0.0175955378129726
8.624,-0.017599312178211868
8.628,-0.017600706529701533
8.632,-0.017598783286267513
8.636000000000001,-0.017595369529172126
8.64,-0.01759657155631839
8.644,-0.017599288137668943
8.648,-0.017598927529525063
8.652000000000001,-0.01759722065097737
8.656,-0.01759818227269438
8.66,-0.017597052367176895
8.664,-0.017595730137316003
8.668000000000001,-0.017595778218401855
8.672,-0.017595225285914572
8.676,-0.01759640327251791
8.68,-0.017597148529348596
8.684000000000001,-0.01759748509694955
8.688,-0.017597124488805668
8.692,-0.017596932164462266
8.696,-0.017597340853691995
8.700000000000001,-0.017600658448615684
8.704,-0.017600033394499625
8.708,-0.017599119853868465
8.712,-0.017600033394499625
8.716,-0.017596932164462266
8.72,-0.01759452811016974
8.724,-0.01759411942094001
8.728,-0.017595441650800903
8.732,-0.01759640327251791
8.736,-0.017593927096596608
8.74,-0.017593734772253206
8.744,-0.017593229920851775
8.748,-0.01759351840736688
8.752,-0.017592773150536197
8.756,-0.017592749109993273
8.76,-0.017593999218225385
8.764,-0.01759387901551076
8.768,-0.017592941434336675
8.772,-0.01759464831288437
8.776,-0.017598422678123633
8.78,-0.017597893786179278
8.784,-0.017596355191432062
8.788,-0.01759498488048532
8.792,-0.017592628907278644
8.796,-0.01759113839361728
8.8,-0.017592075974791364
8.804,-0.017593999218225385
8.808,-0.01759361456953858
8.812,-0.017591210515246054
8.816,-0.017592340420763544
8.82,-0.01759589842111648
8.824,-0.0175952493264575
8.828,-0.017591811528819185
8.832,-0.017591090312531428
8.836,-0.017588638177153053
8.84,-0.01758940747452666
8.844,-0.01758991232592809
8.848,-0.01759178748827626
8.852,-0.017593326083023476
8.856,-0.017594407907455114
8.86,-0.017593854974967835
8.864,-0.01759301355596545
8.868,-0.017592316380220616
8.872,-0.017591474961218233
8.876,-0.017595850340030632
8.88,-0.017594335785826337
8.884,-0.017592773150536197
8.888,-0.017593398204652253
8.892,-0.017594455988540966
8.896,-0.01759371073171028
8.9,-0.01759351840736688
8.904,-0.017595970542745257
8.908,-0.01759835055649486
8.912,-0.01759767742129295
8.916,-0.017596547515775465
8.92,-0.017598206313237306
8.924,-0.017598278434866083
8.928,-0.01759548973188675
8.932,-0.017595177204828723
8.936,-0.017594335785826337
8.94,-0.01759152304230408
8.944,-0.01759195577207674
8.948,-0.017595321448086274
8.952,-0.01759717256989152
8.956,-0.017593686691167357
8.96,-0.01759387901551076
8.964,-0.017594359826369265
8.968,-0.017593638610081508
8.972,-0.017592893353250823
8.976,-0.017596090745459883
8.98,-0.017597893786179278
8.984,-0.01759616286708866
8.988,-0.01759411942094001
8.992,-0.01759657155631839
8.996,-0.017598975610610915
9.0,-0.01759986511069915
9.004,-0.017598542880838258
9.008000000000001,-0.017600201678300103
9.012,-0.01760347119213794
9.016,-0.017597124488805668
9.02,-0.017596427313060835
9.024000000000001,-0.01760077865133031
9.028,-0.017599985313413776
9.032,-0.017600995016216637
9.036,-0.01760036996210058
9.040000000000001,-0.017601043097302486
9.044,-0.017599937232327924
9.048,-0.01759859096192411
9.052,-0.017597605299664174
9.056000000000001,-0.017600586326986908
9.06,-0.017599312178211868
9.064,-0.01759657155631839
9.068,-0.017598566921381186
9.072000000000001,-0.017598687124095812
9.076,-0.017598615002467035
9.08,-0.017599552583641122
9.084,-0.01759859096192411
9.088000000000001,-0.017599913191785
9.092,-0.01759940834038357
9.096,-0.017595561853515528
9.1,-0.017595609934601377
9.104000000000001,-0.017593590528995656
9.108,-0.017595850340030632
9.112,-0.017598062069979756
9.116,-0.017596138826545732
9.120000000000001,-0.01759940834038357
9.124,-0.017600225718843027
9.128,-0.017598062069979756
9.132,-0.01759479255614192
9.136000000000001,-0.01759575417785893
9.14,-0.01759666771849009
9.144,-0.01759529740754335
9.148,-0.01759640327251791
9.152000000000001,-0.017597364894234923
9.156,-0.017596691759033015
9.16,-0.017601115218931263
9.164,-0.017599288137668943
9.168000000000001,-0.017598566921381186
9.172,-0.017599288137668943
9.176,-0.01760142774598929
9.18,-0.01760479342199883
9.184000000000001,-0.01760452897602665
9.188,-0.017605586759915363
9.192,-0.0176043847327691
9.196,-0.017604553016569574
9.200000000000001,-0.017604913624713454
9.204,-0.01760347119213794
9.208,-0.0176000093539567
9.212,-0.0176000093539567
9.216000000000001,-0.01759565801568723
9.22,-0.01759443194799804
9.224,-0.017599696826898673
9.228,-0.01759885540789629
9.232,-0.017600562286443983
9.236,-0.017603783719195968
9.24,-0.017604913624713454
9.244,-0.01760255765150678
9.248,-0.017600081475585477
9.252,-0.0176043847327691
9.256,-0.017606019489688016
9.26,-0.017604192408425697
9.264,-0.017600850772959087
9.268,-0.017601547948703916
9.272,-0.017598975610610915
9.276,-0.017600634408072757
9.28,-0.017605081908513932
9.284,-0.017605346354486108
9.288,-0.017607846570950336
9.292,-0.017608111016922515
9.296,-0.017605779084258765
9.3,-0.017605779084258765
9.304,-0.017603687557024267
9.308,-0.017598518840295334
9.312,-0.017601571989246844
9.316,-0.017604865543627606
9.32,-0.0176022932055346
9.324,-0.017597965907808055
9.328,-0.01759758125912125
9.332,-0.01759945642146942
9.336,-0.017599191975497242
9.34,-0.017602004719019498
9.344,-0.017603134624536984
9.348,-0.017601259462188816
9.352,-0.01759926409712602
9.356,-0.017601547948703916
9.36,-0.01759996127287085
9.364,-0.017598470759209485
9.368,-0.01760092289458786
9.372,-0.01760041804318643
9.376,-0.017600730570244458
9.38,-0.01760068248915861
9.384,-0.017601235421645888
9.388,-0.017598374597037784
9.392,-0.017598975610610915
9.396,-0.017599071772782617
9.4,-0.017599576624184047
9.404,-0.017600201678300103
9.408,-0.017601091178388338
9.412,-0.0176022932055346
9.416,-0.017603399070509163
9.42,-0.01760193259739072
9.424,-0.017599384299840645
9.428,-0.017599817029613298
9.432,-0.017600995016216637
9.436,-0.017599528543098195
9.44,-0.017600995016216637
9.444,-0.01760265381367848
9.448,-0.017604264530054474
9.452,-0.017605057867971008
9.456,-0.017606019489688016
9.46,-0.017605226151771482
9.464,-0.017606500300546522
9.468,-0.017603903921910594
9.472,-0.017603783719195968
9.476,-0.017602990381279434
9.48,-0.01760421644896862
9.484,-0.017604456854397876
9.488,-0.01760397604353937
9.492,-0.01760397604353937
9.496,-0.017602389367706302
9.5,-0.017603927962453518
9.504,-0.01760630797620312
9.508000000000001,-0.01760570696262999
9.512,-0.017606500300546522
9.516,-0.01760625989511727
9.52,-0.017605755043715837
9.524000000000001,-0.017608351422351766
9.528,-0.017603591394852566
9.532,-0.017603927962453518
9.536,-0.017602894219107733
9.540000000000001,-0.017603447151595012
9.544,-0.017606019489688016
9.548,-0.017603447151595012
9.552,-0.017606500300546522
9.556000000000001,-0.017603423111052088
9.56,-0.01760402412462522
9.564,-0.01760462513819835
9.568,-0.017605514638286586
9.572000000000001,-0.017602918259650657
9.576,-0.01760337502996624
9.58,-0.017604144327339845
9.584,-0.017605105949056857
9.588000000000001,-0.017606933030319176
9.592,-0.01760570696262999
9.596,-0.017605226151771482
9.6,-0.017607702327692785
9.604000000000001,-0.017608447584523467
9.608,-0.017610250625242862
9.612,-0.017609361125154627
9.616,-0.017606740705975774
9.620000000000001,-0.017603591394852566
9.624,-0.017603278867794538
9.628,-0.01760722151683428
9.632,-0.017608303341265917
9.636000000000001,-0.01760712535466258
9.64,-0.017607293638463056
9.644,-0.01760722151683428
9.648,-0.0176069570708621
9.652000000000001,-0.01760681282760455
9.656,-0.01760621181403142
9.66,-0.017605322313943184
9.664,-0.017603399070509163
9.668000000000001,-0.017601812394676095
9.672,-0.01759974490798452
9.676,-0.017601259462188816
9.68,-0.01760133158381759
9.684000000000001,-0.017601091178388338
9.688,-0.01760452897602665
9.692,-0.017600850772959087
9.696,-0.017600249759385955
9.700000000000001,-0.017603495232680864
9.704,-0.017603783719195968
9.708,-0.017601812394676095
9.712,-0.017600394002643505
9.716000000000001,-0.017603639475938414
9.72,-0.017603903921910594
9.724,-0.017604456854397876
9.728,-0.01760462513819835
9.732,-0.017604264530054474
9.736,-0.017602581692049705
9.74,-0.017604048165168144
9.744,-0.01760498574634223
9.748,-0.017605250192314407
9.752,-0.017605057867971008
9.756,-0.017605827165344614
9.76,-0.017605370395029036
9.764,-0.017602509570420928
9.768,-0.01760493766525638
9.772,-0.01760606757077387
9.776,-0.01760722151683428
9.78,-0.01760347119213794
9.784,-0.01760311058399406
9.788,-0.017606788787061626
9.792,-0.017608760111581495
9.796,-0.017607101314119654
9.8,-0.01760565888154414
9.804,-0.017609072638639527
9.808,-0.017608303341265917
9.812,-0.017606476260003598
9.816,-0.0176067647465187
9.82,-0.017606500300546522
9.824,-0.017605418476114885
9.828,-0.017606332016746044
9.832,-0.01760640413837482
9.836,-0.017604673219284203
9.84,-0.01760335098942331
9.844,-0.017606668584347
9.848,-0.0176042885705974
9.852,-0.017605779084258765
9.856,-0.017607750408778634
9.86,-0.017604264530054474
9.864,-0.017605827165344614
9.868,-0.01761032274687164
9.872,-0.017604264530054474
9.876,-0.0176042885705974
9.88,-0.017605418476114885
9.884,-0.01760924092244
9.888,-0.017610707395558443
9.892,-0.01760890435483905
9.896,-0.01761015446307116
9.9,-0.017607918692579112
9.904,-0.01760955344949803
9.908,-0.017607798489864487
9.912,-0.017605105949056857
9.916,-0.017603927962453518
9.92,-0.017603952002996442
9.924,-0.017602533610963852
9.928,-0.01760443281385495
9.932,-0.01760371159756719
9.936,-0.017601307543274665
9.94,-0.017601355624360517
9.944,-0.017602533610963852
9.948,-0.017602629773135554
9.952,-0.01760503382742808
9.956,-0.017604697259827128
9.96,-0.01760243744879215
9.964,-0.017606668584347
9.968,-0.0176067647465187
9.972,-0.017608471625066395
9.976,-0.01760854374669517
9.98,-0.017604913624713454
9.984,-0.017606187773488494
9.988,-0.017606788787061626
9.992,-0.01760503382742808
9.996,-0.0176069570708621
10.0,-0.01760553867882951
10.004,-0.017608159098008364
10.008000000000001,-0.017607437881720606
10.012,-0.017606860908690403
10.016,-0.01760813505746544
10.02,-0.017608038895293738
10.024000000000001,-0.017611476692932053
10.028,-0.017609433246783403
10.032,-0.017609120719725375
10.036,-0.017610082341442387
10.040000000000001,-0.01760690898977625
10.044,-0.017604553016569574
10.048,-0.017604697259827128
10.052,-0.017606596462718224
10.056000000000001,-0.017607702327692785
10.06,-0.01760772636823571
10.064,-0.017606644543804072
10.068,-0.017609072638639527
10.072000000000001,-0.01760926496298293
10.076,-0.01760996213872776
10.08,-0.017611572855103754
10.084,-0.017612991247136344
10.088000000000001,-0.01761005830089946
10.092,-0.017612486395734914
10.096,-0.01760996213872776
10.1,-0.017608784152124423
10.104000000000001,-0.017611572855103754
10.108,-0.017609024557553674
10.112,-0.017608351422351766
10.116,-0.017608159098008364
10.120000000000001,-0.017606933030319176
10.124,-0.017609361125154627
10.128,-0.017607029192490877
10.132,-0.017605226151771482
10.136000000000001,-0.017605586759915363
10.14,-0.017605731003172913
10.144,-0.017608159098008364
10.148,-0.017611068003702324
10.152000000000001,-0.01761015446307116
10.156,-0.017608687989952722
10.16,-0.017609986179270686
10.164,-0.017610082341442387
10.168000000000001,-0.017613832666138727
10.172,-0.01761337589582315
10.176,-0.017611957503790555
10.18,-0.017613688422881177
10.184000000000001,-0.017611644976732527
10.188,-0.01761219790921981
10.192,-0.017611717098361304
10.196,-0.01761101992261647
10.200000000000001,-0.017610635273929667
10.204,-0.017608784152124423
10.208,-0.017610034260356535
10.212,-0.017613327814737297
10.216000000000001,-0.017612077706505185
10.22,-0.01761101992261647
10.224,-0.017613087409308045
10.228,-0.017613399936366073
10.232000000000001,-0.017613592260709476
10.236,-0.017612077706505185
10.24,-0.01761015446307116
10.244,-0.01760823121963714
10.248,-0.017608399503437618
10.252,-0.017609024557553674
10.256,-0.01761032274687164
10.26,-0.01760890435483905
10.264,-0.017609337084611702
10.268,-0.01760955344949803
10.272,-0.017608808192667347
10.276,-0.017611957503790555
10.28,-0.017612919125507567
10.284,-0.017612486395734914
10.288,-0.01761005830089946
10.292,-0.017609289003525853
10.296,-0.017612630638992464
10.3,-0.017612967206593416
10.304,-0.017612967206593416
10.308,-0.01761479428785574
10.312,-0.017615371260885943
10.316,-0.017615563585229345
10.32,-0.017616693490746835
10.324,-0.017615347220343018
10.328,-0.017610947800987695
10.332,-0.017614746206769887
10.336,-0.017618712896352556
10.34,-0.01761275084170709
10.344,-0.017607942733122037
10.348,-0.017614409639168934
10.352,-0.017616236720431253
10.356,-0.017616669450203907
10.36,-0.017618448450380377
10.364,-0.017617558950292142
10.368,-0.017616477125860508
10.372,-0.017615251058171317
10.376,-0.017613808625595802
10.38,-0.017615467423057644
10.384,-0.01761777531517847
10.388,-0.017618424409837453
10.392,-0.017618857139610106
10.396,-0.017616429044774656
10.4,-0.01761448176079771
10.404,-0.017614409639168934
10.408,-0.01761219790921981
10.412,-0.01761219790921981
10.416,-0.01761462600405526
10.42,-0.017613784585052878
10.424,-0.017611572855103754
10.428,-0.017612967206593416
10.432,-0.017613327814737297
10.436,-0.017613952868853353
10.44,-0.017615563585229345
10.444,-0.01761695793671901
10.448,-0.017616068436630775
10.452,-0.017612726801164165
10.456,-0.01761116416587402
10.46,-0.017609890017098985
10.464,-0.017611909422704707
10.468,-0.017615202977085468
10.472,-0.017615467423057644
10.476,-0.017613448017451922
10.48,-0.01761315953093682
10.484,-0.01761275084170709
10.488,-0.01761513085545669
10.492,-0.01761671753128976
10.496,-0.017612077706505185
10.5,-0.017607918692579112
10.504,-0.017610803557730145
10.508000000000001,-0.017613808625595802
10.512,-0.017613039328222193
10.516,-0.01761477024731281
10.52,-0.01761337589582315
10.524000000000001,-0.017617534909749218
10.528,-0.017619265828839836
10.532,-0.017619938964041744
10.536,-0.017614409639168934
10.540000000000001,-0.01761549146360057
10.544,-0.01761604439608785
10.548,-0.017616236720431253
10.552,-0.017616885815090237
10.556000000000001,-0.01761763107192092
10.56,-0.017617919558436022
10.564,-0.017617534909749218
10.568,-0.017615779950115675
10.572000000000001,-0.017616765612375608
10.576,-0.017616429044774656
10.58,-0.01761671753128976
10.584,-0.017616116517716628
10.588000000000001,-0.01761462600405526
10.592,-0.017612630638992464
10.596,-0.017611909422704707
10.6,-0.01761210174704811
10.604000000000001,-0.017614193274282607
10.608,-0.017617006017804863
10.612,-0.01761840036929453
10.616,-0.017616573288032206
10.620000000000001,-0.017618159963865274
10.624,-0.01761924178829691
10.628,-0.0176206601803295
10.632,-0.017618688855809632
10.636000000000001,-0.01761731854486289
10.64,-0.017618929261238883
10.644,-0.01761736662594874
10.648,-0.017619169666668134
10.652000000000001,-0.017616885815090237
10.656,-0.017614746206769887
10.66,-0.017611765179447153
10.664,-0.017610755476644292
10.668000000000001,-0.017613568220166548
10.672,-0.017613952868853353
10.676,-0.01761549146360057
10.68,-0.017615876112287376
10.684000000000001,-0.017615563585229345
10.688,-0.01761347205799485
10.692,-0.01761544338251472
10.696,-0.017617751274635544
10.700000000000001,-0.01761960239644079
10.704,-0.017618809058524258
10.708,-0.017618616734180855
10.712,-0.01761681369346146
10.716000000000001,-0.017619530274812015
10.72,-0.017621405437160186
10.724,-0.01762005916675637
10.728,-0.017620636139786577
10.732000000000001,-0.017621453518246035
10.736,-0.0176228478697357
10.74,-0.017619890882955895
10.744,-0.017620275531642696
10.748000000000001,-0.017624410505025844
10.752,-0.017623569086023458
10.756,-0.0176249393969702
10.76,-0.017625828897058434
10.764,-0.017623040194079103
10.768,-0.01762224685616257
10.772,-0.017625155761856526
10.776,-0.017626069302487685
10.78,-0.017624963437513123
10.784,-0.01762118907227386
10.788,-0.01762207857236209
10.792,-0.017621261193902633
10.796,-0.017623424842765908
10.8,-0.017619025423410584
10.804,-0.017618953301781808
10.808,-0.017622535342677673
10.812,-0.017619482193726166
10.816,-0.01762092462630168
10.82,-0.017621501599331887
10.824,-0.017620539977614876
10.828,-0.01762198241019039
10.832,-0.01762193432910454
10.836,-0.017620035126213445
10.84,-0.017622030491276242
10.844,-0.017624747072626797
10.848,-0.017622944031907402
10.852,-0.017623689288738087
10.856,-0.017621669883132362
10.86,-0.017617294504319966
10.864,-0.017617294504319966
10.868,-0.0176206601803295
10.872,-0.017622222815619645
10.876,-0.017619217747753987
10.88,-0.017617799355721397
10.884,-0.017619337950468612
10.888,-0.01762142947770311
10.892,-0.017621213112816784
10.896,-0.017621261193902633
10.9,-0.017621910288561617
10.904,-0.017623400802222983
10.908,-0.017623448883308832
10.912,-0.017621044829016306
10.916,-0.017618448450380377
10.92,-0.017619361991011537
10.924,-0.01761924178829691
10.928,-0.01762174200476114
10.932,-0.017622655545392298
10.936,-0.01762366524819516
10.94,-0.017625973140315984
10.944,-0.017625876978144283
10.948,-0.017620179369470995
10.952,-0.017623376761680055
10.956,-0.017623088275164955
10.96,-0.017622871910278625
10.964,-0.017622487261591824
10.968,-0.017619530274812015
10.972,-0.017621453518246035
10.976,-0.017622823829192776
10.98,-0.01762224685616257
10.984,-0.01762258342376352
10.988,-0.017626333748459868
10.992,-0.017626453951174494
10.996,-0.01762671839714667
11.0,-0.017626934762033
11.004,-0.017627030924204697
11.008000000000001,-0.01762657415388912
11.012,-0.017625612532172107
11.016,-0.017627103045833474
11.02,-0.01762457878882632
11.024000000000001,-0.017622535342677673
11.028,-0.017620612099243652
11.032,-0.01762224685616257
11.036,-0.017625227883485303
11.040000000000001,-0.01762376141036686
11.044,-0.017623304640051282
11.048,-0.01762311231570788
11.052,-0.01762316039679373
11.056000000000001,-0.01762320847787958
11.06,-0.017624867275341422
11.064,-0.01762782426212123
11.068,-0.017628112748636335
11.072000000000001,-0.017628545478408992
11.076,-0.017628809924381168
11.08,-0.017628521437866064
11.084,-0.01762772809994953
11.088000000000001,-0.0176272232485481
11.092,-0.01762691072149007
11.096,-0.01763215155984778
11.1,-0.017629170532525048
11.104000000000001,-0.017621261193902633
11.108,-0.017625780815972582
11.112,-0.0176272232485481
11.116,-0.01762325655896543
11.120000000000001,-0.017625780815972582
11.124,-0.017626934762033
11.128,-0.01762570869434381
11.132,-0.017625155761856526
11.136000000000001,-0.017627006883661773
11.14,-0.017626285667374016
11.144,-0.01762479515371265
11.148,-0.017622150693990868
11.152000000000001,-0.017622126653447943
11.156,-0.017625780815972582
11.16,-0.017627704059406606
11.164,-0.01762558849162918
11.168000000000001,-0.017625876978144283
11.172,-0.017623809491452713
11.176,-0.017622944031907402
11.18,-0.017623424842765908
11.184000000000001,-0.017623905653624414
11.188,-0.01762260746430645
11.192,-0.01762234301833427
11.196,-0.017623376761680055
11.200000000000001,-0.017626189505202314
11.204,-0.017625251924028227
11.208,-0.01762301615353618
11.212,-0.017623545045480533
11.216000000000001,-0.017622487261591824
11.22,-0.01762142947770311
11.224,-0.017622126653447943
11.228,-0.01762320847787958
11.232000000000001,-0.017624650910455095
11.236,-0.017625612532172107
11.24,-0.017622559383220597
11.244,-0.01762417009959659
11.248000000000001,-0.01762657415388912
11.252,-0.01762429030231122
11.256,-0.017623400802222983
11.26,-0.01762376141036686
11.264,-0.017626862640404223
11.268,-0.01762717516746225
11.272,-0.01762320847787958
11.276,-0.01762174200476114
11.28,-0.017623785450909785
11.284,-0.01762640587008864
11.288,-0.017627271329633952
11.292,-0.01762753577560613
11.296,-0.017625828897058434
11.3,-0.017625107680770677
11.304,-0.017626453951174494
11.308,-0.017625780815972582
11.312,-0.017623953734710263
11.316,-0.017624410505025844
11.32,-0.017625780815972582
11.324,-0.01762517980239945
11.328,-0.01762426626176829
11.332,-0.017623232518422505
11.336,-0.01762174200476114
11.34,-0.01761909754503936
11.344,-0.01761924178829691
11.348,-0.017622511302134748
11.352,-0.017622535342677673
11.356,-0.017620371693814398
11.36,-0.01761950623426909
11.364,-0.01761960239644079
11.368,-0.017617919558436022
11.372,-0.017620275531642696
11.376,-0.017619842801870043
11.38,-0.017617294504319966
11.384,-0.01761477024731281
11.388,-0.017613784585052878
11.392,-0.017617414707034592
11.396,-0.01761960239644079
11.4,-0.017623448883308832
11.404,-0.017625107680770677
11.408,-0.01762477111316972
11.412,-0.01762097270738753
11.416,-0.01762133331553141
11.42,-0.01762229493724842
11.424,-0.017625227883485303
11.428,-0.017623929694167338
11.432,-0.017622895950821553
11.436,-0.017622655545392298
11.44,-0.017621886248018692
11.444,-0.017622174734533792
11.448,-0.017622126653447943
11.452,-0.017621910288561617
11.456,-0.017623496964394685
11.46,-0.01762426626176829
11.464,-0.01762133331553141
11.468,-0.017623232518422505
11.472,-0.017620996747930457
11.476,-0.0176228478697357
11.48,-0.017624146059053665
11.484,-0.017625925059230135
11.488,-0.017624410505025844
11.492,-0.017624819194255573
11.496,-0.017624506667197545
11.5,-0.01762489131588435
11.504,-0.01762457878882632
11.508000000000001,-0.017622174734533792
11.512,-0.01762123715335971
11.516,-0.017621862207475764
11.52,-0.017622679585935223
11.524000000000001,-0.017623328680594207
11.528,-0.0176205640181578
11.532,-0.017621405437160186
11.536,-0.01762142947770311
11.540000000000001,-0.017623328680594207
11.544,-0.017624386464482916
11.548,-0.017623905653624414
11.552,-0.01762015532892807
11.556000000000001,-0.01761832824766575
11.56,-0.017621261193902633
11.564,-0.01762229493724842
11.568,-0.017623689288738087
11.572000000000001,-0.017622054531819167
11.576,-0.017620948666844605
11.58,-0.017624987478056048
11.584,-0.01762640587008864
11.588000000000001,-0.017624314342854143
11.592,-0.017621501599331887
11.596,-0.017623328680594207
11.6,-0.017628064667550486
11.604000000000001,-0.017626189505202314
11.608,-0.017626742437689597
11.612,-0.017628064667550486
11.616,-0.017626598194432044
11.620000000000001,-0.017626742437689597
11.624,-0.01762558849162918
11.628,-0.01762570869434381
11.632,-0.017626742437689597
11.636000000000001,-0.017627559816149056
11.64,-0.017626357789002792
11.644,-0.01762698284311885
11.648,-0.01762804062700756
11.652000000000001,-0.01762604526194476
11.656,-0.017623280599508354
11.66,-0.017624194140139517
11.664,-0.017626093343030613
11.668000000000001,-0.017628112748636335
11.672,-0.017626333748459868
11.676,-0.01762621354574524
11.68,-0.01762258342376352
11.684000000000001,-0.01762183816693284
11.688,-0.017625372126742853
11.692,-0.01762580485651551
11.696,-0.01762477111316972
11.700000000000001,-0.017625660613257956
11.704,-0.017624314342854143
11.708,-0.017625348086199928
11.712,-0.017627776181035382
11.716000000000001,-0.017629651343383554
11.72,-0.017629026289267494
11.724,-0.01762808870809341
11.728,-0.017628617600037765
11.732000000000001,-0.017628016586464634
11.736,-0.01763018023532791
11.74,-0.017630396600214236
11.744,-0.017629627302840626
11.748000000000001,-0.017629483059583076
11.752,-0.017631887113875602
11.756,-0.017631742870618052
11.76,-0.01763027639749961
11.764000000000001,-0.01762945901904015
11.768,-0.017633233384279415
11.772,-0.017631766911160977
11.776,-0.01763429116816813
11.78,-0.0176317909517039
11.784,-0.01763155054627465
11.788,-0.01763513258717051
11.792,-0.017633089141021865
11.796,-0.01763306510047894
11.8,-0.017631502465188797
11.804,-0.017630035992070355
11.808,-0.01762844931623729
11.812,-0.017628016586464634
11.816,-0.01762818487026511
11.82,-0.017627752140492458
11.824,-0.017626477991717418
11.828,-0.017630300438042534
11.832,-0.017630757208358116
11.836,-0.01762585293760136
11.84,-0.017624506667197545
11.844,-0.017627607897234904
11.848,-0.017630060032613283
11.852,-0.017627247289091028
11.856,-0.017624747072626797
11.86,-0.017627872343207084
11.864,-0.017627920424292932
11.868,-0.0176271270863764
11.872,-0.01762667031606082
11.876,-0.017626021221401836
11.88,-0.017625780815972582
11.884,-0.01762885800546702
11.888,-0.017628305072979737
11.892,-0.01762717516746225
11.896,-0.0176315986273605
11.9,-0.017635733600743643
11.904,-0.017633762276223774
11.908,-0.017631863073332678
11.912,-0.01763087741107274
11.916,-0.017629434978497224
11.92,-0.01763082932998689
11.924,-0.017627872343207084
11.928,-0.017630396600214236
11.932,-0.017632752573420913
11.936,-0.017633642073509145
11.94,-0.017635685519657794
11.944,-0.017632824695049686
11.948,-0.01763145438410295
11.952,-0.01763123801921662
11.956,-0.01762967538392648
11.96,-0.017632319843648256
11.964,-0.017636190371059225
11.968,-0.017633762276223774
11.972,-0.017633762276223774
11.976,-0.01763296893830724
11.98,-0.017630396600214236
11.984,-0.017632223681476555
11.988,-0.01763118993813077
11.992,-0.017630035992070355
11.996,-0.017631165897587845
12.0,-0.017630108113699132
12.004,-0.017630156194784984
12.008000000000001,-0.017629483059583076
12.012,-0.01763001195152743
12.016,-0.01763210347876193
12.02,-0.017630997613787367
12.024000000000001,-0.017629338816325526
12.028,-0.01762895416763872
12.032,-0.017634868141198336
12.036,-0.01763306510047894
12.040000000000001,-0.017628882046009944
12.044,-0.017631069735416144
12.048,-0.01763301701939309
12.052,-0.017633449749165746
12.056000000000001,-0.01763018023532791
12.06,-0.01763347378970867
12.064,-0.01763498834391296
12.068,-0.017632031357133152
12.072000000000001,-0.017631502465188797
12.076,-0.017632223681476555
12.08,-0.017630949532701518
12.084,-0.01762991578935573
12.088000000000001,-0.017631478424645873
12.092,-0.017632536208534583
12.096,-0.017632632370706284
12.1,-0.01763448349251153
12.104000000000001,-0.017634916222284185
12.108,-0.01763347378970867
12.112,-0.017633834397852547
12.116,-0.017631406303017096
12.120000000000001,-0.017635108546627587
12.124,-0.01763443541142568
12.128,-0.01763453157359738
12.132,-0.017633954600567176
12.136000000000001,-0.01763270449233506
12.14,-0.017629122451439196
12.144,-0.017632391965277033
12.148,-0.017633257424822343
12.152000000000001,-0.017631887113875602
12.156,-0.017633401668079893
12.16,-0.017636791384632356
12.164,-0.017637464519834264
12.168000000000001,-0.017635974006172898
12.172,-0.017637200073862085
12.176,-0.017637392398205488
12.18,-0.01763604612780167
12.184000000000001,-0.017633593992423296
12.188,-0.017636382695402627
12.192,-0.017637921290149843
12.196,-0.017639123317296106
12.200000000000001,-0.017638209776664946
12.204,-0.01763515662771344
12.208,-0.017634868141198336
12.212,-0.017636478857574328
12.216000000000001,-0.017637368357662563
12.22,-0.017635685519657794
12.224,-0.017634507533054455
12.228,-0.01763676734408943
12.232000000000001,-0.017635877844001197
12.236,-0.01763260833016336
12.24,-0.017633834397852547
12.244,-0.017633449749165746
12.248000000000001,-0.017635012384455886
12.252,-0.01763371419513792
12.256,-0.017635180668256364
12.26,-0.01763479601956956
12.264000000000001,-0.01763215155984778
12.268,-0.017629723465012327
12.272,-0.017631382262474172
12.276,-0.017633834397852547
12.280000000000001,-0.017633281465365268
12.284,-0.017633786316766698
12.288,-0.017634723897940782
12.292,-0.017634555614140308
12.296,-0.017635517235857316
12.3,-0.01763575764128657
12.304,-0.017636094208887523
12.308,-0.017634002681653025
12.312,-0.017632848735592614
12.316,-0.017634363289796905
12.32,-0.017635372992599766
12.324,-0.017632944897764315
12.328,-0.017631117816501993
12.332,-0.017632752573420913
12.336,-0.017632848735592614
12.34,-0.01763494026282711
12.344,-0.01763356995188037
12.348,-0.017633041059936013
12.352,-0.01763371419513792
12.356,-0.01763443541142568
12.36,-0.017633353586994045
12.364,-0.01763219964093363
12.368,-0.017633642073509145
12.372,-0.01763118993813077
12.376,-0.017630997613787367
12.38,-0.017631069735416144
12.384,-0.017631718830075124
12.388,-0.017633545911337447
12.392,-0.01763244004636288
12.396,-0.017629627302840626
12.4,-0.01763143034356002
12.404,-0.017631670748989275
12.408,-0.017631069735416144
12.412,-0.01763320934373649
12.416,-0.017634868141198336
12.42,-0.017635421073685615
12.424,-0.017634243087082276
12.428,-0.01763707987114746
12.432,-0.01763544511422854
12.436,-0.017636118249430448
12.44,-0.017633738235680846
12.444,-0.017632247722019483
12.448,-0.017634868141198336
12.452,-0.017633593992423296
12.456,-0.017632848735592614
12.46,-0.017633858438395475
12.464,-0.017633401668079893
12.468,-0.017632079438219005
12.472,-0.017630997613787367
12.476,-0.0176315986273605
12.48,-0.017632920857221387
12.484,-0.01763371419513792
12.488,-0.01763371419513792
12.492,-0.017633954600567176
12.496,-0.017632728532877985
12.5,-0.017631670748989275
12.504,-0.017634459451968607
12.508000000000001,-0.01763772896580644
12.512,-0.01763732027657671
12.516,-0.017637368357662563
12.52,-0.01763554127640024
12.524000000000001,-0.017636022087258747
12.528,-0.01763676734408943
12.532,-0.017638209776664946
12.536,-0.017637656844177667
12.540000000000001,-0.017637103911690384
12.544,-0.017634675816854933
12.548,-0.017639195438924882
12.552,-0.017638281898293723
12.556000000000001,-0.01763667118191773
12.56,-0.017634868141198336
12.564,-0.01763352187079452
12.568,-0.017635324911513914
12.572000000000001,-0.017636118249430448
12.576,-0.017636887546804057
12.58,-0.01763832997937957
12.584,-0.01763832997937957
12.588000000000001,-0.017637464519834264
12.592,-0.017636358654859702
12.596,-0.017638810790238078
12.6,-0.01763982049304094
12.604000000000001,-0.017639892614669715
12.608,-0.01763443541142568
12.612,-0.01763205539767608
12.616,-0.017638209776664946
12.620000000000001,-0.0176383540199225
12.624,-0.017636094208887523
12.628,-0.01763474793848371
12.632,-0.017634459451968607
12.636000000000001,-0.017634964303370037
12.64,-0.01763402672219595
12.644,-0.017632992978850164
12.648,-0.01763215155984778
12.652000000000001,-0.01763251216799166
12.656,-0.01763087741107274
12.66,-0.01763042064075716
12.664,-0.017630300438042534
12.668000000000001,-0.017628617600037765
12.672,-0.017629699424469403
12.676,-0.017629507100126
12.68,-0.017629939829898657
12.684000000000001,-0.01763479601956956
12.688,-0.017633233384279415
12.692,-0.01763412288436765
12.696,-0.017633545911337447
12.700000000000001,-0.017626934762033
12.704,-0.017628930127095793
12.708,-0.017633906519481324
12.712,-0.01763414692491058
12.716000000000001,-0.01763676734408943
12.72,-0.017635637438571942
12.724,-0.01763145438410295
12.728,-0.017633185303193567
12.732000000000001,-0.017633666114052073
12.736,-0.017634363289796905
12.74,-0.017634315208711053
12.744,-0.01763337762753697
12.748000000000001,-0.017635998046715822
12.752,-0.01763539703314269
12.756,-0.017633593992423296
12.76,-0.01763311318156479
12.764000000000001,-0.017635637438571942
12.768,-0.017635084506084663
12.772,-0.017634964303370037
12.776,-0.017635469154771467
12.780000000000001,-0.017635324911513914
12.784,-0.01763525278988514
12.788,-0.017634074803281802
12.792,-0.017634243087082276
12.796000000000001,-0.017635685519657794
12.8,-0.0176360701683446
12.804,-0.01763498834391296
12.808,-0.01763534895205684
12.812,-0.017637921290149843
12.816,-0.017637777046892292
12.82,-0.01763580572237242
12.824,-0.017637560682005966
12.828,-0.01763763280363474
12.832,-0.01763914735783903
12.836,-0.01763986857412679
12.84,-0.01764001281738434
12.844,-0.017642008182447138
12.848,-0.01764361889882313
12.852,-0.01764498920976987
12.856,-0.017641623533760333
12.86,-0.017638450182094197
12.864,-0.017643426574479728
12.868,-0.01764580658822933
12.872,-0.01764616719637321
12.876,-0.017645974872029808
12.88,-0.01764443627728259
12.884,-0.01764193606081836
12.888,-0.01764412375022456
12.892,-0.01764635952071661
12.896,-0.01764352273665143
12.9,-0.017641719695932034
12.904,-0.017639988776841416
12.908,-0.017641070601273054
12.912,-0.017643450615022652
12.916,-0.01764051766878577
12.92,-0.01764032534444237
12.924,-0.017641479290502783
12.928,-0.017642488993305644
12.932,-0.01764159949321741
12.936,-0.017639796452498014
12.94,-0.01764179181756081
12.944,-0.017645157493570346
12.948,-0.017642488993305644
12.952,-0.017639387763268285
12.956,-0.017638041492864468
12.96,-0.017640493628242847
12.964,-0.017641623533760333
12.968,-0.01764244091221979
12.972,-0.017639315641639508
12.976,-0.0176385463442659
12.98,-0.017639123317296106
12.984,-0.017638041492864468
12.988,-0.017637007749518683
12.992,-0.0176385463442659
12.996,-0.01764229666896224
13.0,-0.017643763142080684
13.004,-0.017641503331045708
13.008000000000001,-0.017640253222813592
13.012,-0.017641455249959855
13.016,-0.017645013250312796
13.02,-0.017644003547509935
13.024000000000001,-0.017643691020451907
13.028,-0.017646263358544908
13.032,-0.01764128696615938
13.036,-0.017639483925439986
13.040000000000001,-0.01764244091221979
13.044,-0.01764544598008545
13.048,-0.01764388334479531
13.052,-0.017642801520363672
13.056000000000001,-0.017641767777017887
13.06,-0.017641671614846186
13.064,-0.01764183989864666
13.068,-0.017641118682358903
13.072000000000001,-0.017644580520540142
13.076,-0.01764708073700437
13.08,-0.017647008615375593
13.084,-0.017646912453203892
13.088000000000001,-0.017648475088494035
13.092,-0.017647008615375593
13.096,-0.017644652642168916
13.1,-0.017641503331045708
13.104000000000001,-0.017641575452674484
13.108,-0.01764260919602027
13.112,-0.017644604561083067
13.116,-0.01764585466931518
13.120000000000001,-0.017645421939542525
13.124,-0.01764397950696701
13.128,-0.017645205574656198
13.132,-0.01764732114243362
13.136000000000001,-0.01764722498026192
13.14,-0.01764818660197893
13.144,-0.01764941266966812
13.148,-0.01764813852089308
13.152000000000001,-0.017649028020981315
13.156,-0.01764924438586764
13.16,-0.017648811656094988
13.164,-0.017650037723784175
13.168000000000001,-0.01765116762930166
13.172,-0.01764859529120866
13.176,-0.017649845399440773
13.18,-0.017648715493923287
13.184000000000001,-0.017649941561612474
13.188,-0.0176496771156403
13.192,-0.017648715493923287
13.196,-0.017650085804870028
13.200000000000001,-0.017651912886132347
13.204,-0.01764910014261009
13.208,-0.017649172264238868
13.212,-0.01765078298061486
13.216000000000001,-0.017647056696461442
13.22,-0.01764429203402504
13.224,-0.017643402533936803
13.228,-0.017645470020628377
13.232000000000001,-0.017645686385514704
13.236,-0.017644171831310413
13.24,-0.017644340115110888
13.244,-0.017644171831310413
13.248000000000001,-0.017644340115110888
13.252,-0.017645758507143477
13.256,-0.01764640760180246
13.26,-0.017644580520540142
13.264000000000001,-0.017645229615199123
13.268,-0.017645590223343003
13.272,-0.0176453017368279
13.276,-0.017646263358544908
13.280000000000001,-0.017647297101890697
13.284,-0.017646936493746816
13.288,-0.017646648007231713
13.292,-0.017647922156006753
13.296000000000001,-0.017648787615552063
13.3,-0.017649172264238868
13.304,-0.01764982135889785
13.308,-0.017648667412837434
13.312000000000001,-0.017648523169579884
13.316,-0.01764489304759817
13.32,-0.017643282331222178
13.324,-0.01764556618280008
13.328,-0.0176453017368279
13.332,-0.01764388334479531
13.336,-0.01764296980416415
13.34,-0.017640950398558425
13.344,-0.017641912020275437
13.348,-0.017644724763797692
13.352,-0.017644820925969393
13.356,-0.01764513345302742
13.36,-0.017646191236916135
13.364,-0.017645253655742047
13.368,-0.01764397950696701
13.372,-0.017643426574479728
13.376,-0.017644556479997214
13.38,-0.01764287364199245
13.384,-0.01764284960144952
13.388,-0.01764193606081836
13.392,-0.017645373858456676
13.396,-0.01764698457483267
13.4,-0.01764462860162599
13.404,-0.017646623966688788
13.408,-0.017645373858456676
13.412,-0.01764388334479531
13.416,-0.01764402758805286
13.42,-0.017644267993482114
13.424,-0.017645325777370824
13.428,-0.017645325777370824
13.432,-0.017644772844883545
13.436,-0.017645662344971776
13.44,-0.017645662344971776
13.444,-0.017645518101714226
13.448,-0.017646095074744433
13.452,-0.017645085371941573
13.456,-0.017644508398911365
13.46,-0.017644604561083067
13.464,-0.017642224547333465
13.468,-0.017644724763797692
13.472,-0.017644003547509935
13.476,-0.017643138087964624
13.48,-0.017647874074920904
13.484,-0.017647537507319948
13.488,-0.017643138087964624
13.492,-0.01764337849339388
13.496,-0.01764462860162599
13.5,-0.017644412236739664
13.504,-0.017642681317649046
13.508000000000001,-0.017644676682711843
13.512,-0.01764513345302742
13.516,-0.01764210434461884
13.52,-0.0176386425064376
13.524000000000001,-0.01763823381720787
13.528,-0.01763926756055366
13.532,-0.017640758074215026
13.536,-0.017644412236739664
13.540000000000001,-0.017644724763797692
13.544,-0.0176453017368279
13.548,-0.017643450615022652
13.552,-0.01764337849339388
13.556000000000001,-0.017646022953115657
13.56,-0.01764722498026192
13.564,-0.017646503763974163
13.568,-0.01764645568288831
13.572000000000001,-0.01764681629103219
13.576,-0.017642777479820747
13.58,-0.01764443627728259
13.584,-0.017643546777194354
13.588000000000001,-0.017641070601273054
13.592,-0.017641503331045708
13.596,-0.017640589790414548
13.6,-0.017641359087788158
13.604000000000001,-0.0176410225201872
13.608,-0.01764196010136129
13.612,-0.017645686385514704
13.616,-0.01764397950696701
13.620000000000001,-0.017643041925792923
13.624,-0.017641527371588632
13.628,-0.017641407168874006
13.632,-0.017642681317649046
13.636000000000001,-0.017644340115110888
13.64,-0.017642801520363672
13.644,-0.01764196010136129
13.648,-0.017643666979908983
13.652000000000001,-0.017644676682711843
13.656,-0.017640397466071146
13.66,-0.017635108546627587
13.664,-0.017637296236033786
13.668000000000001,-0.017639171398381958
13.672,-0.01764174373647496
13.676,-0.01764325829067925
13.68,-0.017640854236386724
13.684000000000001,-0.01764133504724523
13.688,-0.01763768088472059
13.692,-0.017639556047068763
13.696,-0.017640854236386724
13.700000000000001,-0.01763895503349563
13.704,-0.017639483925439986
13.708,-0.017639435844354134
13.712,-0.01763840210100835
13.716000000000001,-0.017639532006525835
13.72,-0.017641046560730126
13.724,-0.017641863939189588
13.728,-0.017643955466424083
13.732000000000001,-0.01764438819619674
13.736,-0.01764229666896224
13.74,-0.017641142722901827
13.744,-0.01764260919602027
13.748000000000001,-0.017642128385161764
13.752,-0.017641070601273054
13.756,-0.01764123888507353
13.76,-0.017641623533760333
13.764000000000001,-0.017641527371588632
13.768,-0.017642320709505166
13.772,-0.01764284960144952
13.776,-0.017641887979732512
13.780000000000001,-0.017642897682535373
13.784,-0.017642152425704688
13.788,-0.017639532006525835
13.792,-0.01763991665521264
13.796000000000001,-0.017642176466247616
13.8,-0.01763936372272536
13.804,-0.017641262925616456
13.808,-0.017645590223343003
13.812000000000001,-0.017640060898470193
13.816,-0.01763832997937957
13.82,-0.01764159949321741
13.824,-0.017640349384985293
13.828,-0.017641118682358903
13.832,-0.01763950796598291
13.836,-0.01763960412815461
13.84,-0.017639387763268285
13.844,-0.017636358654859702
13.848,-0.01763667118191773
13.852,-0.01763900311458148
13.856,-0.017639700290326313
13.86,-0.0176385463442659
13.864,-0.017639796452498014
13.868,-0.01764109464181598
13.872,-0.017643234250136326
13.876,-0.017644724763797692
13.88,-0.01764210434461884
13.884,-0.01764544598008545
13.888,-0.017647297101890697
13.892,-0.017646936493746816
13.896,-0.01764809043980723
13.9,-0.017652586021334255
13.904,-0.017650542575185606
13.908,-0.017649124183153016
13.912,-0.017645782547686405
13.916,-0.017648859737180837
13.92,-0.01764621527745906
13.924,-0.01764782599383505
13.928,-0.017649268426410566
13.932,-0.017646022953115657
13.936,-0.017646768209946342
13.94,-0.017647874074920904
13.944,-0.017647850034377976
13.948,-0.01764657588560294
13.952,-0.017645470020628377
13.956,-0.017645494061171302
13.96,-0.01764402758805286
13.964,-0.017644412236739664
13.968,-0.017646335480173685
13.972,-0.017642008182447138
13.976,-0.017642681317649046
13.98,-0.017642801520363672
13.984,-0.017647032655918517
13.988,-0.01765102338604411
13.992,-0.01764840296686526
13.996,-0.017646383561259537
14.0,-0.017644700723254768
14.004,-0.01764385930425238
14.008000000000001,-0.017642921723078298
14.012,-0.01764397950696701
14.016,-0.017643306371765102
14.02,-0.01764193606081836
14.024000000000001,-0.017644003547509935
14.028,-0.017644340115110888
14.032,-0.017644676682711843
14.036,-0.017644147790767485
14.040000000000001,-0.01764621527745906
14.044,-0.01764270535819197
14.048,-0.017641383128331082
14.052,-0.01764284960144952
14.056000000000001,-0.017641359087788158
14.06,-0.01764352273665143
14.064,-0.017648619331751585
14.068,-0.017646431642345386
14.072000000000001,-0.01764717689917607
14.076,-0.017649388629125195
14.08,-0.017648066399264303
14.084,-0.017648378926322334
14.088000000000001,-0.01764503729085572
14.092,-0.017642272628419317
14.096,-0.017643811223166533
14.1,-0.017641527371588632
14.104000000000001,-0.01764128696615938
14.108,-0.01764109464181598
14.112,-0.01764169565538911
14.116,-0.01764210434461884
14.120000000000001,-0.01764229666896224
14.124,-0.017643282331222178
14.128,-0.017643041925792923
14.132,-0.017643402533936803
14.136000000000001,-0.017642993844707074
14.14,-0.0176432102095934
14.144,-0.017644243952939186
14.148,-0.01764032534444237
14.152000000000001,-0.01763950796598291
14.156,-0.017642488993305644
14.16,-0.017642537074391493
14.164,-0.01764337849339388
14.168000000000001,-0.017643498696108505
14.172,-0.01764448435836844
14.176,-0.017645421939542525
14.18,-0.017645421939542525
14.184000000000001,-0.01764371506099483
14.188,-0.017644917088141095
14.192,-0.017648787615552063
14.196,-0.01764818660197893
14.200000000000001,-0.01764823468306478
14.204,-0.01764513345302742
14.208,-0.017642176466247616
14.212,-0.017643642939366055
14.216000000000001,-0.01764655184506001
14.22,-0.017648835696637912
14.224,-0.017651383994187992
14.228,-0.017651047426587036
14.232000000000001,-0.01765032621029928
14.236,-0.017649076102067167
14.24,-0.017649869439983697
14.244,-0.017650302169756354
14.248000000000001,-0.01764991752106955
14.252,-0.017648066399264303
14.256,-0.017646191236916135
14.26,-0.017648306804693557
14.264000000000001,-0.017650855102243634
14.268,-0.017652057129389897
14.272,-0.01764914822369594
14.276,-0.017645686385514704
14.280000000000001,-0.01764717689917607
14.284,-0.017643642939366055
14.288,-0.01764193606081836
14.292,-0.01764256111493442
14.296000000000001,-0.017640637871500397
14.3,-0.01764388334479531
14.304,-0.01764604699365858
14.308,-0.01764696053428974
14.312000000000001,-0.01764696053428974
14.316,-0.017646335480173685
14.32,-0.017644267993482114
14.324,-0.01764717689917607
14.328000000000001,-0.017647200939718995
14.332,-0.017645638304428852
14.336,-0.017645421939542525
14.34,-0.017646840331575115
14.344,-0.017646888412660967
14.348,-0.017648354885779406
14.352,-0.017648330845236482
14.356,-0.017644652642168916
14.36,-0.017641527371588632
14.364,-0.017642320709505166
14.368,-0.017643739101537756
14.372,-0.01764494112868402
14.376,-0.017645013250312796
14.38,-0.01764388334479531
14.384,-0.017641407168874006
14.388,-0.01764123888507353
14.392,-0.01764244091221979
14.396,-0.017645998912572732
14.4,-0.017645205574656198
14.404,-0.017643402533936803
14.408,-0.01764388334479531
14.412,-0.017648667412837434
14.416,-0.017649172264238868
14.42,-0.017648859737180837
14.424,-0.017648451047951107
14.428,-0.017645421939542525
14.432,-0.017646479723431238
14.436,-0.01764746538569117
14.44,-0.017648931858809613
14.444,-0.017646768209946342
14.448,-0.01764772983166335
14.452,-0.017645638304428852
14.456,-0.017643739101537756
14.46,-0.017645686385514704
14.464,-0.017647008615375593
14.468,-0.01764585466931518
14.472,-0.017645494061171302
14.476,-0.017644772844883545
14.48,-0.017648018318178454
14.484,-0.017651504196902618
14.488,-0.017650302169756354
14.492,-0.01765078298061486
14.496,-0.017649460750753968
14.5,-0.017646768209946342
14.504,-0.017649292466953494
14.508000000000001,-0.017650350250842203
14.512,-0.0176475855884058
14.516,-0.017649460750753968
14.52,-0.017645734466600553
14.524000000000001,-0.017645061331398645
14.528,-0.017645494061171302
14.532,-0.01764357081773728
14.536,-0.017644652642168916
14.540000000000001,-0.017643426574479728
14.544,-0.01764402758805286
14.548,-0.01764631143963076
14.552,-0.01764352273665143
14.556000000000001,-0.017643426574479728
14.56,-0.017642080304075915
14.564,-0.017643594858280206
14.568,-0.017644412236739664
14.572000000000001,-0.017641527371588632
14.576,-0.017640157060641894
14.58,-0.017643090006878775
14.584,-0.017640950398558425
14.588000000000001,-0.01763909927675318
14.592,-0.017638305938836647
14.596,-0.017639291601096584
14.6,-0.017640806155300875
14.604000000000001,-0.017641479290502783
14.608,-0.017640637871500397
14.612,-0.017642729398734895
14.616,-0.01764672012886049
14.620000000000001,-0.017647249020804844
14.624,-0.017644003547509935
14.628,-0.017643811223166533
14.632,-0.017643907385338234
14.636000000000001,-0.01764448435836844
14.64,-0.017644219912396262
14.644,-0.017644772844883545
14.648,-0.017641815858103736
14.652000000000001,-0.01764234475004809
14.656,-0.0176432102095934
14.66,-0.017645614263885927
14.664,-0.01764905206152424
14.668000000000001,-0.017648066399264303
14.672,-0.017645013250312796
14.676,-0.017645085371941573
14.68,-0.01764717689917607
14.684000000000001,-0.017644700723254768
14.688,-0.017640157060641894
14.692,-0.017644652642168916
14.696,-0.01764712881809022
14.700000000000001,-0.017645782547686405
14.704,-0.017646383561259537
14.708,-0.01764640760180246
14.712,-0.017646095074744433
14.716000000000001,-0.017644652642168916
14.72,-0.017644171831310413
14.724,-0.017642320709505166
14.728,-0.017642128385161764
14.732000000000001,-0.017644676682711843
14.736,-0.01764503729085572
14.74,-0.017645686385514704
14.744,-0.01764347465556558
14.748000000000001,-0.017645782547686405
14.752,-0.017644917088141095
14.756,-0.017643330412308027
14.76,-0.017640301303899444
14.764000000000001,-0.01763905119566733
14.768,-0.017640205141727743
14.772,-0.01764128696615938
14.776,-0.017643450615022652
14.780000000000001,-0.017645229615199123
14.784,-0.01764494112868402
14.788,-0.01764143120941693
14.792,-0.017640902317472576
14.796000000000001,-0.017639291601096584
14.8,-0.017639556047068763
14.804,-0.0176383540199225
14.808,-0.01763799341177862
14.812000000000001,-0.01764335445285095
14.816,-0.01764595083148688
14.82,-0.01764448435836844
14.824,-0.017642176466247616
14.828000000000001,-0.017641912020275437
14.832,-0.017640205141727743
14.836,-0.017642633236563194
14.84,-0.017643138087964624
14.844000000000001,-0.017640734033672098
14.848,-0.017638930992952703
14.852,-0.017641166763444755
14.856,-0.017641166763444755
14.86,-0.017640950398558425
14.864,-0.017640469587699922
14.868,-0.01764078211475795
14.872,-0.017643186169050477
14.876,-0.017642392831133943
14.88,-0.01764174373647496
14.884,-0.01764448435836844
14.888,-0.017644099709681636
14.892,-0.01764337849339388
14.896,-0.017642537074391493
14.9,-0.017641527371588632
14.904,-0.017645013250312796
14.908,-0.0176474894262341
14.912,-0.017647152858633143
14.916,-0.017644604561083067
14.92,-0.017643090006878775
14.924,-0.017641311006702305
14.928,-0.017643739101537756
14.932,-0.017643763142080684
14.936,-0.01764220050679054
14.94,-0.017640950398558425
14.944,-0.01763832997937957
14.948,-0.01764027726335652
14.952,-0.01764229666896224
14.956,-0.017642128385161764
14.96,-0.017640060898470193
14.964,-0.017639315641639508
14.968,-0.01763941180381121
14.972,-0.0176409263580155
14.976,-0.017641575452674484
14.98,-0.017638882911866854
14.984,-0.01764123888507353
14.988,-0.01764256111493442
14.992,-0.01764123888507353
14.996,-0.017642945763621222
15.0,-0.017645662344971776
15.004,-0.01764489304759817
15.008000000000001,-0.0176408301958438
15.012,-0.017640445547156994
15.016,-0.017642681317649046
15.02,-0.01763849826318005
15.024000000000001,-0.017640637871500397
15.028,-0.017642416871676867
15.032,-0.017641527371588632
15.036,-0.017637801087435217
15.040000000000001,-0.01763876270915223
15.044,-0.017641166763444755
15.048,-0.017640133020098966
15.052,-0.01764169565538911
15.056000000000001,-0.01764068595258625
15.06,-0.01764183989864666
15.064,-0.01764905206152424
15.068,-0.017645325777370824
15.072000000000001,-0.017644724763797692
15.076,-0.017648619331751585
15.08,-0.01764260919602027
15.084,-0.01764109464181598
15.088000000000001,-0.017642128385161764
15.092,-0.017644099709681636
15.096,-0.017643691020451907
15.1,-0.017644147790767485
15.104000000000001,-0.017645205574656198
15.108,-0.017644844966512318
15.112,-0.017645758507143477
15.116,-0.01764818660197893
15.120000000000001,-0.017647008615375593
15.124,-0.01764681629103219
15.128,-0.017643426574479728
15.132,-0.017646095074744433
15.136000000000001,-0.017648811656094988
15.14,-0.017648018318178454
15.144,-0.01764965307509737
15.148,-0.017652946629478132
15.152000000000001,-0.017651263791473363
15.156,-0.01764544598008545
15.16,-0.017646792250489266
15.164,-0.017647850034377976
15.168000000000001,-0.017649076102067167
15.172,-0.017649172264238868
15.176,-0.017648042358721378
15.18,-0.017646239318001983
15.184000000000001,-0.017642008182447138
15.188,-0.017641575452674484
15.192,-0.017642777479820747
15.196,-0.017642585155477345
15.200000000000001,-0.017642416871676867
15.204,-0.017645085371941573
15.208,-0.017640637871500397
15.212,-0.017637464519834264
15.216000000000001,-0.017640613830957472
15.22,-0.017643787182623608
15.224,-0.017643306371765102
15.228,-0.017644075669138712
15.232000000000001,-0.01764306596633585
15.236,-0.017645277696284975
15.24,-0.0176432102095934
15.244,-0.017643186169050477
15.248000000000001,-0.017642032222990062
15.252,-0.01764357081773728
15.256,-0.017645157493570346
15.26,-0.01764361889882313
15.264000000000001,-0.017643642939366055
15.268,-0.01764556618280008
15.272,-0.01764397950696701
15.276,-0.01764657588560294
15.280000000000001,-0.017649436710211044
15.284,-0.017649725196726147
15.288,-0.017646623966688788
15.292,-0.017645734466600553
15.296000000000001,-0.017646623966688788
15.3,-0.01764556618280008
15.304,-0.01764453243945429
15.308,-0.01764429203402504
15.312000000000001,-0.017646648007231713
15.316,-0.01764799427763553
15.32,-0.017647609628948725
15.324,-0.017646503763974163
15.328000000000001,-0.01764616719637321
15.332,-0.017648306804693557
15.336,-0.017647777912749203
15.34,-0.01764782599383505
15.344000000000001,-0.01764982135889785
15.348,-0.017649076102067167
15.352,-0.017647922156006753
15.356,-0.017645782547686405
15.36,-0.017646095074744433
15.364,-0.017646888412660967
15.368,-0.017648258723607705
15.372,-0.017649701156183223
15.376,-0.017648475088494035
15.38,-0.017650133885955877
15.384,-0.017647297101890697
15.388,-0.01764640760180246
15.392,-0.01764941266966812
15.396,-0.01764746538569117
15.4,-0.017651143588758737
15.404,-0.017650133885955877
15.408,-0.01764873953446621
15.412,-0.0176500617643271
15.416,-0.01765169652124602
15.42,-0.0176499656021554
15.424,-0.017650590656271458
15.428,-0.017654701589111678
15.432,-0.017651864805046494
15.436,-0.0176522494537333
15.44,-0.01765087914278656
15.444,-0.017652081169932825
15.448,-0.017653283197079088
15.452,-0.017651864805046494
15.456,-0.017649629034554446
15.46,-0.017651816723960646
15.464,-0.01765047045355683
15.468,-0.017649460750753968
15.472,-0.01764854721012281
15.476,-0.017648763575009135
15.48,-0.017647898115463828
15.484,-0.01764607103420151
15.488,-0.017649460750753968
15.492,-0.017648427007408183
15.496,-0.01764698457483267
15.5,-0.017646479723431238
15.504,-0.01764635952071661
15.508000000000001,-0.017648114480350155
15.512,-0.017647345182976545
15.516,-0.01764873953446621
15.52,-0.01764635952071661
15.524000000000001,-0.017645253655742047
15.528,-0.017644556479997214
15.532,-0.017644316074567963
15.536,-0.017645734466600553
15.540000000000001,-0.017646840331575115
15.544,-0.01764489304759817
15.548,-0.017644965169226947
15.552,-0.017641575452674484
15.556000000000001,-0.01764236879059102
15.56,-0.017646191236916135
15.564,-0.01764849912903696
15.568,-0.017649532872382745
15.572000000000001,-0.017648811656094988
15.576,-0.017645782547686405
15.58,-0.017642777479820747
15.584,-0.017646383561259537
15.588000000000001,-0.017647200939718995
15.592,-0.017643162128507552
15.596,-0.01764256111493442
15.6,-0.017645253655742047
15.604000000000001,-0.01764799427763553
15.608,-0.017646503763974163
15.612,-0.017648114480350155
15.616,-0.01764782599383505
15.620000000000001,-0.01764585466931518
15.624,-0.017644724763797692
15.628,-0.017644171831310413
15.632,-0.017644412236739664
15.636000000000001,-0.017643691020451907
15.64,-0.017644099709681636
15.644,-0.017645061331398645
15.648,-0.017644051628595784
15.652000000000001,-0.017645181534113274
15.656,-0.01764388334479531
15.66,-0.01764385930425238
15.664,-0.017643090006878775
15.668000000000001,-0.017642777479820747
15.672,-0.017645974872029808
15.676,-0.017646792250489266
15.68,-0.0176474894262341
15.684000000000001,-0.017647297101890697
15.688,-0.01764604699365858
15.692,-0.017647970237092605
15.696,-0.01764681629103219
15.700000000000001,-0.017645277696284975
15.704,-0.017647537507319948
15.708,-0.017648883777723764
15.712,-0.01765042237247098
15.716000000000001,-0.017649869439983697
15.72,-0.01765107146712996
15.724,-0.017651311872559215
15.728,-0.017651528237445542
15.732000000000001,-0.017648931858809613
15.736,-0.01765184076450357
15.74,-0.017649532872382745
15.744,-0.017648931858809613
15.748000000000001,-0.017650085804870028
15.752,-0.01765169652124602
15.756,-0.017651672480703092
15.76,-0.01765270622404888
15.764000000000001,-0.017652033088846972
15.768,-0.017651888845589422
15.772,-0.017649773277812
15.776,-0.017651263791473363
15.780000000000001,-0.01765402845390977
15.784,-0.0176544371431395
15.788,-0.017655999778429642
15.792,-0.017651504196902618
15.796000000000001,-0.017648715493923287
15.8,-0.01764900398043839
15.804,-0.01765179268341772
15.808,-0.017652561980791327
15.812000000000001,-0.017649749237269072
15.816,-0.01765083106170071
15.82,-0.017651383994187992
15.824,-0.01765066277790023
15.828000000000001,-0.01764950883183982
15.832,-0.017648811656094988
15.836,-0.017648811656094988
15.84,-0.017650758940071933
15.844000000000001,-0.017651383994187992
15.848,-0.017651504196902618
15.852,-0.017652393696990853
15.856,-0.017655158359427256
15.860000000000001,-0.017655591089199913
15.864,-0.01765398037282392
15.868,-0.01765037429138513
15.872,-0.017650230048127578
15.876,-0.01765047045355683
15.88,-0.01764772983166335
15.884,-0.017648667412837434
15.888,-0.017648354885779406
15.892,-0.017648258723607705
15.896,-0.017651215710387514
15.9,-0.01764813852089308
15.904,-0.017647032655918517
15.908,-0.01764873953446621
15.912,-0.01764864337229451
15.916,-0.01765042237247098
15.92,-0.017648523169579884
15.924,-0.017648354885779406
15.928,-0.017648955899352538
15.932,-0.01764640760180246
15.936,-0.017647609628948725
15.94,-0.017652033088846972
15.944,-0.017649580953468597
15.948,-0.01764873953446621
15.952,-0.017650037723784175
15.956,-0.017652586021334255
15.96,-0.01765426885933902
15.964,-0.017657153724490053
15.968,-0.017654653508025826
15.972,-0.017654461183682423
15.976,-0.01765539876485651
15.98,-0.017654148656624395
15.984,-0.01765325915653616
15.988,-0.017651864805046494
15.992,-0.017652874507849355
15.996,-0.01765412461608147
16.0,-0.017654340980967798
16.004,-0.017652153291561598
16.008,-0.017653836129566367
16.012,-0.01765371592685174
16.016000000000002,-0.01765388421065222
16.02,-0.017656119981144268
16.024,-0.017649340548039343
16.028,-0.017652393696990853
16.032,-0.017657297967747607
16.036,-0.017656937359603726
16.04,-0.017655663210828686
16.044,-0.017655494927028212
16.048000000000002,-0.017652033088846972
16.052,-0.01765301875110691
16.056,-0.01765393229173807
16.06,-0.017656672913631547
16.064,-0.017658427873265093
16.068,-0.01765782685969196
16.072,-0.01765655271091692
16.076,-0.017657153724490053
16.080000000000002,-0.017656432508202296
16.084,-0.017657081602861276
16.088,-0.017657297967747607
16.092,-0.01765631230548767
16.096,-0.01765535068377066
16.1,-0.017653307237622012
16.104,-0.01765270622404888
16.108,-0.01765539876485651
16.112000000000002,-0.017655615129742838
16.116,-0.017651624399617243
16.12,-0.01765119166984459
16.124,-0.01765184076450357
16.128,-0.017650398331928056
16.132,-0.017648667412837434
16.136,-0.01764686437211804
16.14,-0.017649725196726147
16.144000000000002,-0.0176476817505775
16.148,-0.017645638304428852
16.152,-0.017647753872206275
16.156,-0.017646888412660967
16.16,-0.017646744169403414
16.164,-0.017649580953468597
16.168,-0.017651888845589422
16.172,-0.01765265814296303
16.176000000000002,-0.017652129251018674
16.18,-0.017655062197255555
16.184,-0.01765595169734379
16.188,-0.017650614696814382
16.192,-0.017651624399617243
16.196,-0.017650302169756354
16.2,-0.01764859529120866
16.204,-0.01765068681844316
16.208000000000002,-0.01765001368324125
16.212,-0.01765001368324125
16.216,-0.017650206007584653
16.22,-0.017650133885955877
16.224,-0.01765119166984459
16.228,-0.01765128783201629
16.232,-0.017652874507849355
