0.0,-0.011557226565348295
0.004,-0.011549653794326837
0.008,-0.011550423091700445
0.012,-0.011555567767886452
0.016,-0.011565400349942884
0.02,-0.011566289850031119
0.024,-0.011558741119552586
0.028,-0.011553524321737804
0.032,-0.011545374577686139
0.036000000000000004,-0.01154816328066547
0.04,-0.01155729868697707
0.044,-0.011559726781812522
0.048,-0.011562635687506479
0.052000000000000005,-0.01156561671482921
0.056,-0.011568381377265617
0.06,-0.011574824242769588
0.064,-0.01157766102683477
0.068,-0.011574223229196457
0.07200000000000001,-0.011568092890750514
0.076,-0.011561842349589945
0.08,-0.01156374155248104
0.084,-0.011557515051863398
0.088,-0.011559943146698849
0.092,-0.011562395282077226
0.096,-0.011558885362810137
0.1,-0.011558644957380885
0.10400000000000001,-0.011559366173668643
0.108,-0.011562948214564507
0.112,-0.011568645823237795
0.116,-0.01156054416027198
0.12,-0.011546720848089954
0.124,-0.011541936780047828
0.128,-0.01154679296971873
0.132,-0.011553860889338758
0.136,-0.011554990794856244
0.14,-0.011551985726990587
0.14400000000000002,-0.011546167915602673
0.148,-0.011546360239946075
0.152,-0.011550615416043847
0.156,-0.01154258587470681
0.16,-0.011543932145110623
0.164,-0.011549221064554182
0.168,-0.011556313024717135
0.17200000000000001,-0.01155907768715354
0.176,-0.011554077254225085
0.18,-0.011549942280841939
0.184,-0.011547994996864994
0.188,-0.011552370375677391
0.192,-0.011561794268504094
0.196,-0.01156515994451363
0.2,-0.011557779497835576
0.20400000000000001,-0.011551985726990587
0.20800000000000002,-0.01154455719922668
0.212,-0.01154349941533797
0.216,-0.011541840617876126
0.22,-0.011545038010085187
0.224,-0.0115486681320669
0.228,-0.011554125335310935
0.232,-0.011558548795209183
0.23600000000000002,-0.011557587173492173
0.24,-0.01155131259178868
0.244,-0.011554630186712366
0.248,-0.011553115632508075
0.252,-0.01155775545729265
0.256,-0.011563621349766415
0.26,-0.011562876092935732
0.264,-0.011552202091876915
0.268,-0.011544268712711577
0.272,-0.011549509551069285
0.276,-0.011546768929175805
0.28,-0.011543908104567699
0.28400000000000003,-0.011543186888279941
0.28800000000000003,-0.011538066252636859
0.292,-0.011539797171727479
0.296,-0.011543932145110623
0.3,-0.011544220631625727
0.304,-0.011544773564113008
0.308,-0.011551985726990587
0.312,-0.011561625984703618
0.316,-0.011554750389426991
0.32,-0.011547682469806964
0.324,-0.011546480442660701
0.328,-0.01154501396954226
0.332,-0.01154405234782525
0.336,-0.011541239604302995
0.34,-0.011544773564113008
0.34400000000000003,-0.011549245105097108
0.34800000000000003,-0.011548187321208395
0.352,-0.011552490578392017
0.356,-0.011552129970248138
0.36,-0.011548331564465946
0.364,-0.011552466537849092
0.368,-0.011553981092053384
0.372,-0.011560472038643205
0.376,-0.011564703174198051
0.38,-0.011557923741093127
0.384,-0.011549004699667855
0.388,-0.011542105063848304
0.392,-0.011540133739328433
0.396,-0.011543451334252119
0.4,-0.011543667699138446
0.404,-0.011540590509644013
0.40800000000000003,-0.01153948464466945
0.41200000000000003,-0.011533931279253715
0.41600000000000004,-0.011539268279783122
0.42,-0.011543403253166268
0.424,-0.011547634388721114
0.428,-0.011555255240828424
0.432,-0.011564438728225874
0.436,-0.011561866390132871
0.44,-0.011557154443719518
0.444,-0.011556721713946864
0.448,-0.0115532358352227
0.452,-0.011556697673403938
0.456,-0.011557106362633669
0.46,-0.01154989419975609
0.464,-0.011541960820590752
0.468,-0.011534700576627322
0.47200000000000003,-0.011539508685212375
0.47600000000000003,-0.011540951117787891
0.48,-0.011542802239593137
0.484,-0.011541480009732248
0.488,-0.011541095361045443
0.492,-0.011540975158330816
0.496,-0.011544725483027157
0.5,-0.011548475807723498
0.504,-0.011550423091700445
0.508,-0.011548788334781526
0.512,-0.011545158212799812
0.516,-0.011542994563936539
0.52,-0.011545326496600289
0.524,-0.011547850753607442
0.528,-0.011550302888985819
0.532,-0.011547970956322068
0.536,-0.011542393550363407
0.54,-0.01154304264502239
0.544,-0.011550014402470716
0.548,-0.011549341267268807
0.552,-0.01154359557750967
0.556,-0.011537032509291074
0.56,-0.011539725050098702
0.5640000000000001,-0.011540205860957208
0.5680000000000001,-0.011536888266033522
0.5720000000000001,-0.0115371527120057
0.5760000000000001,-0.011542922442307762
0.58,-0.01154816328066547
0.584,-0.011551384713417455
0.588,-0.011551120267445278
0.592,-0.011543283050451643
0.596,-0.011536936347119373
0.6,-0.011539628887927002
0.604,-0.01154547073985784
0.608,-0.011547874794150367
0.612,-0.011545278415514438
0.616,-0.01153866726620999
0.62,-0.011539316360868973
0.624,-0.011542441631449258
0.628,-0.011533907238710788
0.632,-0.011529652062613017
0.636,-0.011540085658242582
0.64,-0.011540638590729863
0.644,-0.011545735185830018
0.648,-0.011545206293885663
0.652,-0.011541335766474696
0.656,-0.011535758360516034
0.66,-0.011536431495717942
0.664,-0.011540302023128909
0.668,-0.011537320995806176
0.672,-0.011534940982056575
0.676,-0.011534123603597117
0.68,-0.011532296522334796
0.684,-0.011535301590200454
0.6880000000000001,-0.011540326063671833
0.6920000000000001,-0.011542754158507286
0.6960000000000001,-0.011545374577686139
0.7000000000000001,-0.01154258587470681
0.704,-0.011533835117082013
0.708,-0.011520588777930192
0.712,-0.011523281318737822
0.716,-0.011536768063318895
0.72,-0.011534940982056575
0.724,-0.01152724800832049
0.728,-0.011523738089053402
0.732,-0.01152349768362415
0.736,-0.01152938761664084
0.74,-0.011541720415161499
0.744,-0.011535758360516034
0.748,-0.011526863359633687
0.752,-0.011522223534849111
0.756,-0.011526767197461986
0.76,-0.011531551265504113
0.764,-0.011529267413926214
0.768,-0.011530301157271999
0.772,-0.011538835550010468
0.776,-0.011537224833634476
0.78,-0.011533017738622555
0.784,-0.011533161981880105
0.788,-0.011536118968659912
0.792,-0.01153619109028869
0.796,-0.011530493481615401
0.8,-0.011529267413926214
0.804,-0.011531767630390441
0.808,-0.011533738954910312
0.812,-0.011532104197991394
0.8160000000000001,-0.011527824981350698
0.8200000000000001,-0.011526166183888855
0.8240000000000001,-0.011528546197638455
0.8280000000000001,-0.011537417157977877
0.8320000000000001,-0.0115440042667394
0.836,-0.011540710712358638
0.84,-0.011530541562701252
0.844,-0.011525228602714769
0.848,-0.011525300724343544
0.852,-0.011526142143345929
0.856,-0.011527223967777566
0.86,-0.011529724184241794
0.864,-0.01153450825228392
0.868,-0.011540782833987415
0.872,-0.011542657996335585
0.876,-0.011542393550363407
0.88,-0.011539148077068496
0.884,-0.011537513320149578
0.888,-0.011531791670933366
0.892,-0.011536575738975494
0.896,-0.011543884064024774
0.9,-0.011535590076715558
0.904,-0.011533762995453237
0.908,-0.011545566902029542
0.912,-0.011545206293885663
0.916,-0.011535469874000932
0.92,-0.011531142576274384
0.924,-0.011531094495188533
0.928,-0.011532104197991394
0.932,-0.011534748657713173
0.936,-0.011536311293003315
0.9400000000000001,-0.011534171684682968
0.9440000000000001,-0.011534147644140041
0.9480000000000001,-0.011537441198520803
0.9520000000000001,-0.011539869293356254
0.9560000000000001,-0.011538330698609038
0.96,-0.01153679210386182
0.964,-0.011540782833987415
0.968,-0.011541888698961977
0.972,-0.011535590076715558
0.976,-0.011536359374089165
0.98,-0.01153455633336977
0.984,-0.011531022373559758
0.988,-0.011526142143345929
0.992,-0.011526334467689331
0.996,-0.011528786603067708
1.0,-0.011529988630213971
1.004,-0.01153034923835785
1.008,-0.011530301157271999
1.012,-0.0115325850088499
1.016,-0.011538523022952439
1.02,-0.011537777766121757
1.024,-0.01153263308993575
1.028,-0.01152989246804227
1.032,-0.011525493048686946
1.036,-0.011523690007967552
1.04,-0.011538955752725094
1.044,-0.011545542861486617
1.048,-0.011538859590553393
1.052,-0.01152994054912812
1.056,-0.011534652495541472
1.06,-0.011538090293179785
1.064,-0.011530469441072477
1.068,-0.01152477183239919
1.072,-0.011526839319090761
1.076,-0.011527656697550221
1.08,-0.011519290588612228
1.084,-0.011514386317855476
1.088,-0.011519074223725901
1.092,-0.01152527668380062
1.096,-0.01152842599492383
1.1,-0.011525997900088377
1.104,-0.01151974735892781
1.108,-0.011524651629684564
1.112,-0.011523665967424627
1.116,-0.011525685373030349
1.12,-0.011523521724167075
1.124,-0.01151532389902956
1.1280000000000001,-0.011511886101391249
1.1320000000000001,-0.011520276250872164
1.1360000000000001,-0.011527945184065323
1.1400000000000001,-0.011526262346060556
1.1440000000000001,-0.011525180521628918
1.1480000000000001,-0.011521814845619382
1.1520000000000001,-0.011518809777753724
1.156,-0.011518761696667873
1.16,-0.01151710289920603
1.164,-0.011517223101920656
1.168,-0.011521069588788698
1.172,-0.011527849021893622
1.176,-0.011530373278900776
1.18,-0.011524531426969936
1.184,-0.01152308899439442
1.188,-0.011532272481791872
1.192,-0.011527945184065323
1.196,-0.01152212737267741
1.2,-0.011522247575392037
1.204,-0.011517920277665489
1.208,-0.011509217601126543
1.212,-0.01151700673703433
1.216,-0.011525877697373751
1.22,-0.011519314629155154
1.224,-0.011516453804547048
1.228,-0.0115143141962267
1.232,-0.011513592979938942
1.236,-0.01151217458790635
1.24,-0.011509698411985049
1.244,-0.011505467276430202
1.248,-0.011508688709182188
1.252,-0.01151481904762813
1.256,-0.011510828317502537
1.26,-0.011512631358221932
1.264,-0.011519050183182977
1.268,-0.011526863359633687
1.272,-0.011532440765592348
1.276,-0.011527272048863417
1.28,-0.011520492615758491
1.284,-0.011513977628625745
1.288,-0.01151664612889045
1.292,-0.011517223101920656
1.296,-0.011510227303929406
1.3,-0.011512511155507305
1.304,-0.011513160250166287
1.308,-0.011506068290003333
1.312,-0.011499457140698886
1.316,-0.011501404424675832
1.32,-0.011507654965836401
1.324,-0.011514073790797446
1.328,-0.011514338236769625
1.332,-0.011513184290709213
1.336,-0.011516862493776777
1.34,-0.011520396453586792
1.344,-0.011530036711299822
1.348,-0.011533402387309358
1.352,-0.01152431506208361
1.356,-0.011511838020305398
1.36,-0.011500490884044673
1.364,-0.011508640628096338
1.368,-0.011514795007085205
1.372,-0.011507222236063748
1.3760000000000001,-0.01150563556023068
1.3800000000000001,-0.01151481904762813
1.3840000000000001,-0.011521935048334007
1.3880000000000001,-0.011521526359104278
1.3920000000000001,-0.011525493048686946
1.3960000000000001,-0.01153501310368535
1.4000000000000001,-0.01153066176541588
1.4040000000000001,-0.011522007169962784
1.408,-0.01151892998046835
1.412,-0.011520276250872164
1.416,-0.011523810210682179
1.42,-0.01152025221032924
1.424,-0.011515347939572486
1.428,-0.011521285953675025
1.432,-0.011522223534849111
1.436,-0.011522608183535916
1.44,-0.011519338669698079
1.444,-0.011509674371442123
1.448,-0.011503832519511285
1.452,-0.01150979457415675
1.456,-0.011518401088523995
1.46,-0.011517126939748955
1.464,-0.011513160250166287
1.468,-0.01151171781759077
1.472,-0.011515804709888066
1.476,-0.011517319264092357
1.48,-0.011512871763651183
1.484,-0.011507847290179804
1.488,-0.011504048884397612
1.492,-0.011502726654536723
1.496,-0.011499961992100318
1.5,-0.011497245410749762
1.504,-0.011498471478438951
1.508,-0.01151267943930778
1.512,-0.011523930413396805
1.516,-0.011516213399117795
1.52,-0.011519963723814136
1.524,-0.011517126939748955
1.528,-0.0115120303446488
1.532,-0.011510395587729882
1.536,-0.01150751072257885
1.54,-0.01150852042538171
1.544,-0.011511597614876145
1.548,-0.011509866695785525
1.552,-0.011508183857780758
1.556,-0.011507654965836401
1.56,-0.011511886101391249
1.564,-0.011519170385897603
1.568,-0.01152409869719728
1.572,-0.011517920277665489
1.576,-0.011500058154272018
1.58,-0.011500010073186169
1.584,-0.011519603115670258
1.588,-0.011515420061201261
1.592,-0.01150614041163211
1.596,-0.011505900006202857
1.6,-0.011507270317149597
1.604,-0.011503327668109855
1.608,-0.011502342005849918
1.612,-0.011506765465748166
1.616,-0.011508592547010487
1.62,-0.011506212533260885
1.624,-0.011507270317149597
1.6280000000000001,-0.011507582844207626
1.6320000000000001,-0.011510275385015254
1.6360000000000001,-0.011510948520217163
1.6400000000000001,-0.01150705395226327
1.6440000000000001,-0.011508135776694907
1.6480000000000001,-0.011512150547363426
1.6520000000000001,-0.01151207842573465
1.6560000000000001,-0.011508760830810963
1.6600000000000001,-0.011513160250166287
1.6640000000000001,-0.011510635993159135
1.668,-0.011518833818296648
1.672,-0.011517944318208415
1.676,-0.011509433966012872
1.68,-0.011506861627919867
1.684,-0.01150609233054626
1.688,-0.011504625857427819
1.692,-0.011501813113905563
1.696,-0.011496476113376154
1.7,-0.011494552869942134
1.704,-0.011498495518981876
1.708,-0.011505996168374558
1.712,-0.01150147654630461
1.716,-0.011494624991570909
1.72,-0.011494192261798254
1.724,-0.011493471045510496
1.728,-0.011491547802076476
1.732,-0.01148832636932449
1.736,-0.011497173289120987
1.74,-0.011502390086935769
1.744,-0.011496067424146425
1.748,-0.011496331870118602
1.752,-0.011499673505585215
1.756,-0.01150440949254149
1.76,-0.011501212100332432
1.764,-0.011492581545422261
1.768,-0.011490682342531165
1.772,-0.011493591248225122
1.776,-0.011500803411102701
1.78,-0.011498976329840382
1.784,-0.011495394288944517
1.788,-0.01149472115374261
1.792,-0.011491716085876952
1.796,-0.011490706383074091
1.8,-0.011489432234299051
1.804,-0.011488927382897621
1.808,-0.011491283356104297
1.812,-0.011487629193579657
1.816,-0.011486258882632917
1.82,-0.011498976329840382
1.824,-0.011504938384485847
1.828,-0.011505347073715576
1.832,-0.01151267943930778
1.836,-0.011519723318384884
1.84,-0.011504457573627341
1.844,-0.011486547369148021
1.848,-0.011485970396117814
1.852,-0.011483518260739437
1.856,-0.011485465544716383
1.86,-0.0114870041394636
1.864,-0.011481330571333239
1.868,-0.011482748963365829
1.872,-0.011486379085347543
1.8760000000000001,-0.011489456274841978
1.8800000000000001,-0.01149279791030859
1.8840000000000001,-0.011495105802429415
1.8880000000000001,-0.011496115505232276
1.8920000000000001,-0.011494480748313357
1.8960000000000001,-0.011490081328958034
1.9000000000000001,-0.011492918113023215
1.9040000000000001,-0.011507919411808579
1.9080000000000001,-0.011515948953145618
1.9120000000000001,-0.011505924046745783
1.9160000000000001,-0.011489720720814155
1.92,-0.011485321301458832
1.924,-0.011492677707593962
1.928,-0.011481138246989837
1.932,-0.011479503490070918
1.936,-0.011489792842442932
1.94,-0.01149198053184913
1.944,-0.01148969668027123
1.948,-0.011492293058907158
1.952,-0.011489312031584426
1.956,-0.011488110004438163
1.96,-0.01149101891013212
1.964,-0.011490994869589195
1.968,-0.011489480315384902
1.972,-0.011490321734387287
1.976,-0.011492845991394439
1.98,-0.011492725788679813
1.984,-0.011492244977821307
1.988,-0.011500659167845149
1.992,-0.011511549533790294
1.996,-0.011507847290179804
2.0,-0.011494528829399208
2.004,-0.011480777638845958
2.008,-0.011486379085347543
2.012,-0.011490682342531165
2.016,-0.0114891918288698
2.02,-0.011496019343060574
2.024,-0.011494240342884104
2.028,-0.011483999071597943
2.032,-0.01148325381476726
2.036,-0.011490393856016063
2.04,-0.011493471045510496
2.044,-0.011490225572215585
2.048,-0.011482941287709231
2.052,-0.011478902476497787
2.056,-0.011477219638493017
2.06,-0.011472050921764086
2.064,-0.011476017611346754
2.068,-0.011487436869236254
2.072,-0.01149883208658283
2.076,-0.011499529262327663
2.08,-0.011494697113199684
2.084,-0.01150106785707488
2.088,-0.011496283789032752
2.092,-0.011488302328781565
2.096,-0.011488807180182995
2.1,-0.011489456274841978
2.104,-0.01148594635557489
2.108,-0.011487749396294284
2.112,-0.011491042950675044
2.116,-0.011486739693491423
2.12,-0.01148594635557489
2.124,-0.01148522513928713
2.128,-0.011476714787091587
2.132,-0.01147411840845566
2.136,-0.011481739260562968
2.14,-0.011484600085171074
2.144,-0.011485056855486654
2.148,-0.0114893841532132
2.152,-0.011496211667403977
2.156,-0.011494552869942134
2.16,-0.011490033247872183
2.164,-0.01148695605837775
2.168,-0.011481330571333239
2.172,-0.011479791976586022
2.176,-0.011488855261268846
2.18,-0.011501500586847534
2.184,-0.011502822816708424
2.188,-0.011486932017834824
2.192,-0.011478662071068534
2.196,-0.011470368083759315
2.2,-0.011464069461512898
2.204,-0.01147171435416313
2.208,-0.011479936219843574
2.212,-0.011481739260562968
2.216,-0.011481907544363444
2.22,-0.011484239477027196
2.224,-0.011486331004261692
2.228,-0.011487100301635302
2.232,-0.011486306963718768
2.236,-0.011481090165903986
2.24,-0.011482773003908753
2.244,-0.011486018477203664
2.248,-0.011499457140698886
2.2520000000000002,-0.011505010506114622
2.2560000000000002,-0.011484912612229102
2.2600000000000002,-0.01147604165188968
2.2640000000000002,-0.011478445706182207
2.2680000000000002,-0.01147553680048825
2.2720000000000002,-0.011467387056436584
2.2760000000000002,-0.011462290461336427
2.2800000000000002,-0.011465848461689366
2.2840000000000003,-0.011471281624390477
2.2880000000000003,-0.011474142448998585
2.2920000000000003,-0.011472531732622592
2.2960000000000003,-0.011470969097332447
2.3000000000000003,-0.011469214137698903
2.3040000000000003,-0.011469406462042305
2.308,-0.011470007475615437
2.312,-0.011470824854074897
2.316,-0.011474454976056613
2.32,-0.011478662071068534
2.324,-0.011475055989629744
2.328,-0.011468949691726725
2.332,-0.011480248746901602
2.336,-0.011484527963542298
2.34,-0.011474935786915118
2.344,-0.011473012543481096
2.348,-0.011467915948380938
2.352,-0.011464333907485075
2.356,-0.011466954326663928
2.36,-0.011473493354339602
2.364,-0.011473445273253752
2.368,-0.011469478583671082
2.372,-0.011463300164139288
2.376,-0.011460944190932612
2.38,-0.011462170258621802
2.384,-0.011464742596714804
2.388,-0.011464550272371402
2.392,-0.011466281191462022
2.396,-0.011477484084465197
2.4,-0.011482147949792697
2.404,-0.0114688294890121
2.408,-0.011458251650124984
2.412,-0.011465127245401609
2.416,-0.011464694515628954
2.42,-0.011462747231652007
2.424,-0.01146293955599541
2.428,-0.011459117109670293
2.432,-0.011457554474380151
2.436,-0.01145714578515042
2.44,-0.011452770406338023
2.444,-0.011450005743901618
2.448,-0.011454741730857894
2.452,-0.011458468015011311
2.456,-0.011462218339707652
2.46,-0.011465127245401609
2.464,-0.011472219205564564
2.468,-0.011477219638493017
2.472,-0.011465872502232292
2.476,-0.01146760342132291
2.48,-0.011466762002320526
2.484,-0.011457554474380151
2.488,-0.011466545637434199
2.492,-0.011477243679035944
2.496,-0.011467122610464406
2.5,-0.011457338109493823
2.504,-0.011461304799076491
2.508,-0.011467531299694135
2.512,-0.011461184596361865
2.516,-0.011455511028231504
2.52,-0.011449813419558216
2.524,-0.011450294230416722
2.528,-0.011459453677271247
2.532,-0.01145426091999939
2.536,-0.011447890176124196
2.54,-0.011450895243989853
2.544,-0.011463540569568541
2.548,-0.011463829056083645
2.552,-0.011461352880162342
2.556,-0.011464886839972356
2.56,-0.01147380588139763
2.564,-0.011474479016599539
2.568,-0.011468925651183801
2.572,-0.011461545204505744
2.576,-0.011461304799076491
2.58,-0.01146243470459398
2.584,-0.011454789811943745
2.588,-0.011446471784091604
2.592,-0.01144517359477364
2.596,-0.011455607190403205
2.6,-0.011462963596538336
2.604,-0.011466954326663928
2.608,-0.01146856504303992
2.612,-0.011463588650654392
2.616,-0.01145690537972117
2.62,-0.011459814285415126
2.624,-0.011460150853016078
2.628,-0.011458900744783965
2.632,-0.01145714578515042
2.636,-0.01146060762333166
2.64,-0.011469310299870604
2.644,-0.011472916381309397
2.648,-0.011460198934101929
2.652,-0.011456280325605112
2.656,-0.011463660772283168
2.66,-0.01145938155564247
2.664,-0.011457578514923076
2.668,-0.011458107406867432
2.672,-0.01145567931203198
2.676,-0.011454140717284763
2.68,-0.011454044555113063
2.684,-0.011455871636375382
2.688,-0.011460174893559005
2.692,-0.01146440602911385
2.696,-0.011464598353457253
2.7,-0.011455030217372998
2.704,-0.011448947960012907
2.708,-0.011458708420440564
2.712,-0.011463829056083645
2.716,-0.011461136515276015
2.72,-0.011454140717284763
2.724,-0.011457290028407972
2.728,-0.011470464245931017
2.732,-0.011472651935337218
2.736,-0.011462362582965204
2.74,-0.011454429203799866
2.744,-0.011451207771047881
2.748,-0.011449044122184608
2.7520000000000002,-0.01144471682445806
2.7560000000000002,-0.011440221242931037
2.7600000000000002,-0.01143791335081021
2.7640000000000002,-0.011435557377603534
2.7680000000000002,-0.011435773742489863
2.7720000000000002,-0.01143786526972436
2.7760000000000002,-0.01144010104021641
2.7800000000000002,-0.011443418635140095
2.7840000000000003,-0.01144430813522833
2.7880000000000003,-0.011437023850721977
2.7920000000000003,-0.01144065397270369
2.7960000000000003,-0.011451231811590806
2.8000000000000003,-0.011450967365618629
2.8040000000000003,-0.01145325121719653
2.8080000000000003,-0.011455054257915924
2.8120000000000003,-0.011455967798547084
2.816,-0.011449404730328487
2.82,-0.011453924352398436
2.824,-0.01146070378550336
2.828,-0.011445245716402416
2.832,-0.011434691918058225
2.836,-0.0114346678775153
2.84,-0.011437216175065379
2.844,-0.01143877881035552
2.848,-0.011433634134169514
2.852,-0.011434499593714823
2.856,-0.011441351148448523
2.86,-0.011435869904661564
2.864,-0.0114301963365312
2.868,-0.011440461648360288
2.872,-0.01144928452761386
2.876,-0.011454982136287147
2.88,-0.011453131014481902
2.884,-0.011448491189697327
2.888,-0.011451159689962031
2.892,-0.01145349162262578
2.896,-0.011451231811590806
2.9,-0.011446760270606707
2.904,-0.011439764472615455
2.908,-0.011439980837501784
2.912,-0.011441471351163149
2.916,-0.011443226310796695
2.92,-0.011446423703005753
2.924,-0.011447890176124196
2.928,-0.011443586918940573
2.932,-0.011438249918411164
2.936,-0.01143690364800735
2.94,-0.011441976202564581
2.944,-0.011455126379544699
2.948,-0.011456737095920691
2.952,-0.011456328406690962
2.956,-0.01145791508252403
2.96,-0.011455607190403205
2.964,-0.01144796229775297
2.968,-0.011447745932866644
2.972,-0.011450294230416722
2.976,-0.011445197635316566
2.98,-0.01143822587786824
2.984,-0.011438971134698923
2.988,-0.011440389526731513
2.992,-0.011441303067362673
2.996,-0.011444668743372209
3.0,-0.011446135216490651
3.004,-0.011446688148977932
3.008,-0.011447842095038345
3.012,-0.011449717257386515
3.016,-0.011452169392764892
3.02,-0.011454164757827689
3.024,-0.01145714578515042
3.028,-0.011466569677977125
3.032,-0.011465848461689366
3.036,-0.01145791508252403
3.04,-0.011458804582612265
3.044,-0.011467242813179032
3.048,-0.011472171124478714
3.052,-0.011471041218961224
3.056,-0.011459141150213218
3.06,-0.011440461648360288
3.064,-0.011431710890735493
3.068,-0.011437095972350752
3.072,-0.011444692783915135
3.076,-0.011453058892853127
3.08,-0.011457674677094777
3.084,-0.011458059325781582
3.088,-0.01145476577140082
3.092,-0.011452602122537547
3.096,-0.011453227176653603
3.1,-0.011459694082700499
3.104,-0.011462050055907174
3.108,-0.0114619779342784
3.112,-0.01146293955599541
3.116,-0.011452409798194145
3.12,-0.011449813419558216
3.124,-0.011451376054848358
3.128,-0.011458251650124984
3.132,-0.011456664974291916
3.136,-0.011450005743901618
3.14,-0.011448443108611477
3.144,-0.011447769973409568
3.148,-0.011447433405808616
3.152,-0.01145329929828238
3.156,-0.011458227609582058
3.16,-0.011453419500997005
3.164,-0.011449068162727533
3.168,-0.011448154622096373
3.172,-0.011448779676212429
3.176,-0.011450582716931824
3.18,-0.01145152029810591
3.184,-0.01145527062280225
3.188,-0.011458347812296684
3.192,-0.01145928539347077
3.196,-0.011462194299164726
3.2,-0.011466762002320526
3.204,-0.011466810083406376
3.208,-0.011462050055907174
3.212,-0.011450125946616244
3.216,-0.011449573014128963
3.22,-0.01145618416343341
3.224,-0.011457722758180628
3.228,-0.011447649770694943
3.232,-0.011441182864648047
3.236,-0.011443106108082067
3.24,-0.011448515230240252
3.244,-0.011449957662815768
3.248,-0.011447048757121811
3.2520000000000002,-0.011445918851604323
3.2560000000000002,-0.011446808351692558
3.2600000000000002,-0.011446976635493034
3.2640000000000002,-0.011446399662462829
3.2680000000000002,-0.011445606324546295
3.2720000000000002,-0.011445389959659968
3.2760000000000002,-0.011449573014128963
3.2800000000000002,-0.011450174027702095
3.2840000000000003,-0.011446591986806231
3.2880000000000003,-0.011449885541186991
3.2920000000000003,-0.011452049190050266
3.2960000000000003,-0.011450847162904003
3.3000000000000003,-0.011461040353104314
3.3040000000000003,-0.011464237745313374
3.3080000000000003,-0.011457482352751375
3.3120000000000003,-0.01144526975694534
3.3160000000000003,-0.011440076999673485
3.3200000000000003,-0.011439427905014503
3.3240000000000003,-0.01143873072926967
3.3280000000000003,-0.011439427905014503
3.332,-0.01144111074301927
3.336,-0.011442745499938189
3.34,-0.011444524500114657
3.344,-0.011448130581553447
3.348,-0.0114506548385606
3.352,-0.011451496257562985
3.356,-0.011450799081818152
3.36,-0.01144553420291752
3.364,-0.011444067729799078
3.368,-0.011452818487423874
3.372,-0.011465559975174263
3.376,-0.011464598353457253
3.38,-0.011454982136287147
3.384,-0.011447769973409568
3.388,-0.011441663675506551
3.392,-0.011437480621037556
3.396,-0.011439259621214025
3.4,-0.011439548107729128
3.404,-0.011440870337590017
3.408,-0.011440798215961242
3.412,-0.011440004878044708
3.416,-0.011440389526731513
3.42,-0.011441519432249
3.424,-0.011441783878221179
3.428,-0.011441086702476346
3.432,-0.011439355783385726
3.436,-0.011447649770694943
3.44,-0.011466209069833245
3.444,-0.011472627894794293
3.448,-0.011455414866059803
3.452,-0.011440629932160766
3.456,-0.011439283661756951
3.46,-0.011435845864118638
3.464,-0.011428008647125003
3.468,-0.011424090038628184
3.472,-0.011427479755180646
3.476,-0.011427960566039152
3.48,-0.011429811687844398
3.484,-0.011433369688197336
3.488,-0.011431710890735493
3.492,-0.011430220377074127
3.496,-0.011432504228652026
3.5,-0.011433465850369038
3.504,-0.011431734931278418
3.508,-0.011438899013070146
3.512,-0.011450871203446927
3.516,-0.011459141150213218
3.52,-0.011451183730504955
3.524,-0.011447289162551064
3.528,-0.011446591986806231
3.532,-0.011440365486188587
3.536,-0.011439211540128174
3.54,-0.011438490323840417
3.544,-0.01143137432313454
3.548,-0.01142288801148192
3.552,-0.01141634898380625
3.556,-0.01142288801148192
3.56,-0.011435653539775235
3.564,-0.011442721459395263
3.568,-0.011437144053436602
3.572,-0.011432624431366653
3.576,-0.011431638769106717
3.58,-0.011432768674624205
3.584,-0.011433057161139307
3.588,-0.01143380241796999
3.592,-0.011440942459218794
3.596,-0.011440461648360288
3.6,-0.011439980837501784
3.604,-0.011445558243460444
3.608,-0.011446279459748201
3.612,-0.011440678013246617
3.616,-0.011441351148448523
3.62,-0.011436470918234696
3.624,-0.011427047025407991
3.628,-0.011424594890029616
3.632,-0.011423368822340426
3.636,-0.01142187830867906
3.64,-0.011430052093273649
3.644,-0.011422286997908789
3.648,-0.011417863538010541
3.652,-0.011422527403338042
3.656,-0.011425171863059821
3.66,-0.01142457084948669
3.664,-0.011424979538716419
3.668,-0.011423945795370634
3.672,-0.011424234281885735
3.676,-0.011426686417264112
3.68,-0.011429378958071742
3.684,-0.011434812120772853
3.688,-0.011438370121125791
3.692,-0.01143050886358923
3.696,-0.011425316106317373
3.7,-0.011421830227593209
3.704,-0.01142192638976491
3.708,-0.01142512378197397
3.712,-0.011432672512452504
3.716,-0.011428369255268881
3.72,-0.011415195037745837
3.724,-0.01141538736208924
3.728,-0.011411492794135347
3.732,-0.011406540442292742
3.736,-0.011410242685903233
3.74,-0.011411108145448542
3.744,-0.011413175632140116
3.748,-0.01141634898380625
3.7520000000000002,-0.011423032254739472
3.7560000000000002,-0.011420604159904021
3.7600000000000002,-0.011409858037216428
3.7640000000000002,-0.01141223805096603
3.7680000000000002,-0.011418031821811017
3.7720000000000002,-0.011419834862530412
3.7760000000000002,-0.011413464118655217
3.7800000000000002,-0.011412021686079701
3.7840000000000003,-0.011414858470144883
3.7880000000000003,-0.01141771929475299
3.7920000000000003,-0.011425604592832476
3.7960000000000003,-0.011427960566039152
3.8000000000000003,-0.0114187770786417
3.8040000000000003,-0.011414497862001004
3.8080000000000003,-0.011413175632140116
3.8120000000000003,-0.011413440078112293
3.8160000000000003,-0.011410026321016906
3.8200000000000003,-0.011408295401926286
3.8240000000000003,-0.011419113646242655
3.8280000000000003,-0.011420748403161573
3.8320000000000003,-0.011416709591950128
3.8360000000000003,-0.011409064699299894
3.84,-0.011404184469086066
3.844,-0.01139985717135952
3.848,-0.011402333347280821
3.852,-0.011409257023643296
3.856,-0.011418608794841224
3.86,-0.011423368822340426
3.864,-0.011420820524790348
3.868,-0.011418993443528029
3.872,-0.011414714226887331
3.876,-0.011406828928807846
3.88,-0.011402525671624223
3.884,-0.011416156659462847
3.888,-0.011422359119537566
3.892,-0.011417959700182242
3.896,-0.011413416037569367
3.9,-0.011400482225475576
3.904,-0.011394832697888138
3.908,-0.011403535374427084
3.912,-0.011409809956130577
3.916,-0.011412790983453311
3.92,-0.011414377659286379
3.924,-0.01141731060552326
3.928,-0.011417551010952513
3.932,-0.011414353618743453
3.936,-0.011414065132228349
3.94,-0.011422359119537566
3.944,-0.011432576350280802
3.948,-0.011432720593538354
3.952,-0.011429523201329294
3.956,-0.011417983740725168
3.96,-0.011413632402455695
3.964,-0.011418079902896868
3.968,-0.011416925956836455
3.972,-0.011417166362265708
3.976,-0.011415868172947744
3.98,-0.011408968537128195
3.984,-0.011404040225828515
3.988,-0.011399688887559042
3.992,-0.011401564049907213
3.996,-0.011404641239401646
4.0,-0.011401876576965241
4.0040000000000004,-0.011405073969174302
4.008,-0.011411901483365076
4.0120000000000005,-0.01141512291611706
4.016,-0.0114163009027204
4.0200000000000005,-0.011422166795194163
4.024,-0.011424715092744241
4.0280000000000005,-0.011421253254563004
4.032,-0.011421181132934227
4.0360000000000005,-0.0114209647680479
4.04,-0.011416589389235503
4.0440000000000005,-0.011412887145625012
4.048,-0.0114185847542983
4.0520000000000005,-0.011421565781621032
4.056,-0.011408752172241866
4.0600000000000005,-0.011405530739489881
4.064,-0.011413824726799096
4.0680000000000005,-0.011413824726799096
4.072,-0.01140771842889608
4.0760000000000005,-0.011406300036863489
4.08,-0.01140807903703996
4.0840000000000005,-0.01140853580735554
4.088,-0.011414353618743453
4.0920000000000005,-0.011419522335472384
4.096,-0.0114141132133142
4.1,-0.011405001847545525
4.104,-0.011404136388000216
4.108,-0.011407381861295127
4.112,-0.011402573752710074
4.116,-0.011402333347280821
4.12,-0.011410386929160785
4.124,-0.011412646740195759
4.128,-0.011413055429425488
4.132,-0.011421517700535181
4.136,-0.011428176930925479
4.14,-0.011424955498173494
4.144,-0.01141949829492946
4.148,-0.011408439645183838
4.152,-0.011405963469262537
4.156,-0.011412815023996235
4.16,-0.011412622699652833
4.164,-0.011406324077406415
4.168,-0.01139771756303917
4.172,-0.011402020820222793
4.176,-0.0114049778070026
4.18,-0.011403439212255383
4.184,-0.011401852536422315
4.188,-0.01139644341426413
4.192,-0.011395169265489093
4.196,-0.01140077071199068
4.2,-0.011403487293341234
4.204,-0.011403895982570963
4.208,-0.011406179834148863
4.212,-0.011417983740725168
4.216,-0.011421806187050285
4.22,-0.011421806187050285
4.224,-0.011427407633551871
4.228,-0.011415603726975566
4.232,-0.011402116982394494
4.236,-0.011393173900426296
4.24,-0.011381898885794347
4.244,-0.011389255291929478
4.248,-0.01139442400865841
4.252,-0.011397068468380189
4.256,-0.011395650076347599
4.26,-0.01139644341426413
4.264,-0.011399929292988295
4.268,-0.011399640806473191
4.272,-0.01139853494149863
4.276,-0.011399184036157611
4.28,-0.011406828928807846
4.284,-0.01141324775376889
4.288,-0.011408680050613091
4.292,-0.011403727698770487
4.296,-0.01140812711812581
4.3,-0.011413872807884947
4.304,-0.01141274290236746
4.308,-0.011408848334413567
4.312,-0.011396779981865085
4.316,-0.011389183170300701
4.32,-0.011387764778268111
4.324,-0.011391154494820574
4.328,-0.011395650076347599
4.332,-0.011397356954895292
4.336,-0.011399472522672715
4.34,-0.011400626468733127
4.344,-0.011401540009364287
4.348,-0.011402934360853953
4.352,-0.011406059631434236
4.356,-0.01141077157784759
4.36,-0.01141370452408447
4.364,-0.011414906551230734
4.368,-0.011415459483718015
4.372,-0.011403895982570963
4.376,-0.011393390265312622
4.38,-0.011401612130993064
4.384,-0.01141324775376889
4.388,-0.011398727265842032
4.392,-0.011380937264077337
4.396,-0.011378965939557464
4.4,-0.011392476724681463
4.404,-0.011397837765753796
4.408,-0.011394159562686232
4.412,-0.011391467021878602
4.416,-0.011396587657521683
4.42,-0.011401564049907213
4.424,-0.01140223718510912
4.428,-0.011401564049907213
4.432,-0.01140228526619497
4.436,-0.011405867307090835
4.44,-0.011409761875044727
4.444,-0.011416998078465232
4.448,-0.01141466614580148
4.452,-0.011396876144036786
4.456,-0.011405049928631375
4.46,-0.01141096390219099
4.464,-0.01141101198327684
4.468,-0.011416036456748222
4.472,-0.011414017051142498
4.476,-0.0114072616585805
4.48,-0.011401804455336464
4.484,-0.011397453117066993
4.488,-0.011394303805943784
4.492,-0.01139442400865841
4.496,-0.0113935585491131
4.5,-0.01139442400865841
4.5040000000000004,-0.011395601995261748
4.508,-0.011397260792723591
4.5120000000000005,-0.0114003139416751
4.516,-0.011404328712343618
4.5200000000000005,-0.0114071654964088
4.524,-0.011407093374780023
4.5280000000000005,-0.011412911186167937
4.532,-0.011409208942557446
4.5360000000000005,-0.01140223718510912
4.54,-0.011407982874868258
4.5440000000000005,-0.01141461806471563
4.548,-0.011408487726269689
4.5520000000000005,-0.01140593942871961
4.556,-0.011406444280121041
4.5600000000000005,-0.011399256157786388
4.564,-0.011396130887206103
4.5680000000000005,-0.011389688021702133
4.572,-0.011393414305855548
4.5760000000000005,-0.011395866441233925
4.58,-0.011396323211549505
4.5840000000000005,-0.011400241820046323
4.588,-0.011405170131346003
4.5920000000000005,-0.011404641239401646
4.596,-0.01140324688791198
4.6000000000000005,-0.011401540009364287
4.604,-0.011399015752357135
4.6080000000000005,-0.01140173233370769
4.612,-0.011402381428366672
4.616,-0.01141005036155983
4.62,-0.011410819658933438
4.624,-0.011408415604640912
4.628,-0.011415723929690192
4.632,-0.01142091668696205
4.636,-0.011412382294223582
4.64,-0.011400482225475576
4.644,-0.011391515102964453
4.648,-0.01138629830514967
4.652,-0.011388606197270496
4.656,-0.011391467021878602
4.66,-0.01139177954893663
4.664,-0.011393197940969222
4.668,-0.011394712495173513
4.672,-0.011396082806120252
4.676,-0.011397765644125021
4.68,-0.011401660212078914
4.684,-0.01140690105043662
4.688,-0.011410170564274458
4.692,-0.01141456998362978
4.696,-0.011408944496585268
4.7,-0.011400434144389725
4.704,-0.01139538563037542
4.708,-0.011395866441233925
4.712,-0.01140182849587939
4.716,-0.011402477590538373
4.72,-0.011397020387294338
4.724,-0.01139254884631024
4.728,-0.011390914089391321
4.732,-0.011391515102964453
4.736,-0.011389976508217235
4.74,-0.011381153628963664
4.744,-0.011384206777915172
4.748,-0.011387981143154438
4.752,-0.011391346819163976
4.756,-0.011392813292282417
4.76,-0.011391106413734723
4.764,-0.011393342184226773
4.768,-0.011398919590185434
4.772,-0.01140360749605586
4.776,-0.011395553914175897
4.78,-0.011387836899896888
4.784,-0.011391875711108331
4.788,-0.011394856738431065
4.792,-0.011396515535892908
4.796,-0.011395770279062224
4.8,-0.011389712062245058
4.804,-0.011385096278003408
4.808,-0.011381778683079722
4.812,-0.011385504967233137
4.816,-0.011383293237284013
4.82,-0.011380744939733935
4.824,-0.01138406253465762
4.828,-0.01138665891329355
4.832,-0.011385264561803884
4.836,-0.01138406253465762
4.84,-0.01138528860234681
4.844,-0.01139036115690404
4.848,-0.011390289035275265
4.852,-0.011384567386059051
4.856,-0.011383822129228368
4.86,-0.011390264994732339
4.864,-0.011396227049377804
4.868,-0.01140420850962899
4.872,-0.011407333780209276
4.876,-0.011397308873809442
4.88,-0.011387428210667157
4.884,-0.011385529007776063
4.888,-0.011400842833619454
4.892,-0.011407694388353155
4.896,-0.011399184036157611
4.9,-0.011389279332472402
4.904,-0.011383918291400069
4.908,-0.011386947399808653
4.912,-0.011385601129404838
4.916,-0.011379518872044747
4.92,-0.01137701865558052
4.924,-0.011370984479306278
4.928,-0.011368556384470827
4.932,-0.011376850371780042
4.936,-0.0113843269806298
4.94,-0.011388341751298318
4.944,-0.011394111481600381
4.948,-0.011401588090450138
4.952,-0.011405699023290358
4.956,-0.011406468320663967
4.96,-0.011403054563568578
4.964,-0.011398102211725976
4.968,-0.011386875278179876
4.972,-0.011381802723622646
4.976,-0.011383798088685443
4.98,-0.011381610399279244
4.984,-0.011387235886323756
4.988,-0.011391587224593228
4.992,-0.01138793306206859
4.996,-0.011386466588950147
5.0,-0.01138305283185476
5.0040000000000004,-0.011381730601993871
5.008,-0.011384567386059051
5.0120000000000005,-0.011387860940439812
5.016,-0.011390986211020096
5.0200000000000005,-0.011391755508393706
5.024,-0.011391707427307855
5.0280000000000005,-0.011392861373368268
5.032,-0.011389567818987506
5.0360000000000005,-0.011390962170477172
5.04,-0.011401900617508166
5.0440000000000005,-0.011406564482835668
5.048,-0.011406997212608322
5.0520000000000005,-0.011404617198858722
5.056,-0.01139406340051453
5.0600000000000005,-0.01138310091294061
5.064,-0.011388413872927093
5.0680000000000005,-0.011388822562156823
5.072,-0.011384639507687828
5.0760000000000005,-0.011383822129228368
5.08,-0.011383148994026461
5.0840000000000005,-0.011384038494114696
5.088,-0.011384254859001023
5.0920000000000005,-0.01138406253465762
5.096,-0.011385504967233137
5.1000000000000005,-0.011388822562156823
5.104,-0.01139543371146127
5.1080000000000005,-0.011401443847192586
5.112,-0.011401900617508166
5.1160000000000005,-0.011401684252621839
5.12,-0.011415507564803865
5.124,-0.011425003579259345
5.128,-0.011413776645713247
5.132,-0.011388341751298318
5.136,-0.011378340885441408
5.14,-0.011379374628787195
5.144,-0.011380216047789578
5.148,-0.011379086142272092
5.152,-0.011379254426072568
5.156,-0.011379639074759373
5.16,-0.011383173034569385
5.164,-0.011388774481070972
5.168,-0.01139502502223154
5.172,-0.011393438346398473
5.176,-0.01138985630550261
5.18,-0.011392019954365883
5.184,-0.011402501631081297
5.188,-0.011413968970056648
5.192,-0.011410266726446157
5.196,-0.011396924225122637
5.2,-0.011392765211196566
5.204,-0.011393029657168744
5.208,-0.01138396637248592
5.212,-0.01138117766950659
5.216,-0.011388750440528048
5.22,-0.01139214015708051
5.224,-0.011389519737901655
5.228,-0.011377331182638548
5.232,-0.011372667317311047
5.236,-0.011385408805061436
5.24,-0.011391683386764929
5.244,-0.01138935145410118
5.248,-0.011389519737901655
5.252,-0.011389303373015329
5.256,-0.011387788818811037
5.26,-0.011391034292105947
5.264,-0.011399640806473191
5.268,-0.011399929292988295
5.272,-0.011392476724681463
5.276,-0.011391298738078126
5.28,-0.011387283967409607
5.284,-0.0113889908459573
5.288,-0.011394736535716437
5.292,-0.01138793306206859
5.296,-0.011368243857412797
5.3,-0.011368580425013751
5.304,-0.011380047763989102
5.308,-0.011380889182991486
5.312,-0.011382932629140134
5.316,-0.011384086575200547
5.32,-0.011380961304620262
5.324,-0.011379687155845223
5.328,-0.011380047763989102
5.332,-0.011382211412852375
5.336,-0.011387740737725187
5.34,-0.011389615900073357
5.344,-0.011384206777915172
5.348,-0.011387187805237906
5.352,-0.011389375494644104
5.356,-0.011386418507864296
5.36,-0.011388341751298318
5.364,-0.011385985778091643
5.368,-0.011385384764518511
5.372,-0.011382716264253806
5.376,-0.01138112958842074
5.38,-0.011378172601640932
5.384,-0.011380696858648084
5.388,-0.01138122575059244
5.392,-0.011379759277473998
5.396,-0.011379206344986717
5.4,-0.011377451385353173
5.404,-0.011373196209255402
5.408,-0.011371898019937437
5.412,-0.01137264327676812
5.416,-0.011373076006540776
5.42,-0.011372042263194989
5.424,-0.011378677453042363
5.428,-0.011388389832384169
5.432,-0.011384302940086874
5.436,-0.011387091643066205
5.44,-0.01138629830514967
5.444,-0.011378196642183857
5.448,-0.011371609533422335
5.452,-0.011374278033687039
5.456,-0.011382019088508973
5.46,-0.011375960871691806
5.464,-0.011372715398396897
5.468,-0.011367258195152862
5.472,-0.011367089911352385
5.476,-0.011369782452160014
5.48,-0.011369037195329331
5.484,-0.011368868911528855
5.488,-0.011370046898132192
5.492,-0.011369974776503417
5.496,-0.011367618803296741
5.5,-0.011368628506099602
5.5040000000000004,-0.011382692223710881
5.508,-0.011396467454807057
5.5120000000000005,-0.011400602428190201
5.516,-0.01138990438658846
5.5200000000000005,-0.01138259606153918
5.524,-0.011378196642183857
5.5280000000000005,-0.011373268330884178
5.532,-0.011369109316958108
5.5360000000000005,-0.011367835168183068
5.54,-0.011368123654698171
5.5440000000000005,-0.01136925356021566
5.548,-0.011371393168536007
5.5520000000000005,-0.011374350155315814
5.556,-0.011376177236578135
5.5600000000000005,-0.011378316844898484
5.564,-0.011378581290870661
5.5680000000000005,-0.011375864709520107
5.572,-0.01137574450680548
5.5760000000000005,-0.011392500765224389
5.58,-0.011384855872574155
5.5840000000000005,-0.011372330749710093
5.588,-0.011378244723269707
5.5920000000000005,-0.011372114384823766
5.596,-0.011363051100140941
5.6000000000000005,-0.011359613302502628
5.604,-0.011359853707931881
5.6080000000000005,-0.01136112785670692
5.612,-0.011367666884382592
5.6160000000000005,-0.011368820830443004
5.62,-0.011366849505923133
5.6240000000000006,-0.011367137992438235
5.628,-0.011368604465556677
5.632,-0.011370094979218042
5.636,-0.011370527708990698
5.64,-0.011363075140683866
5.644,-0.01136944588455906
5.648,-0.011381033426249038
5.652,-0.011384855872574155
5.656,-0.01139259692739609
5.66,-0.011390216913646488
5.664,-0.011373989547171936
5.668,-0.011356776518437446
5.672,-0.011362377964939033
5.676,-0.011375071371603573
5.68,-0.011367835168183068
5.684,-0.011364974343574962
5.688,-0.01136574364094857
5.692,-0.011354877315546352
5.696,-0.011352881950483555
5.7,-0.011358459356442216
5.704,-0.011363940600229175
5.708,-0.011369518006187837
5.712,-0.01136939780347321
5.716,-0.011367763046554293
5.72,-0.011365142627375438
5.724,-0.011361560586479575
5.728,-0.011359613302502628
5.732,-0.011359925829560656
5.736,-0.011362546248739511
5.74,-0.011366921627551908
5.744,-0.011369542046730761
5.748,-0.011363027059598015
5.752,-0.011363219383941418
5.756,-0.011363099181226792
5.76,-0.011354973477718052
5.764,-0.011354853275003426
5.768,-0.011352881950483555
5.772,-0.01135341084242791
5.776,-0.011355574491291183
5.78,-0.011358699761871469
5.784,-0.011356199545407241
5.788,-0.011350165369132999
5.792,-0.011349900923160822
5.796,-0.011355165802061454
5.8,-0.011356800558980373
5.804,-0.011359012288929497
5.808,-0.0113616807891942
5.812,-0.011359060370015347
5.816,-0.01135564661291996
5.82,-0.011354444585773697
5.824,-0.011355286004776081
5.828,-0.011359901789017732
5.832,-0.011370070938675118
5.836,-0.011367859208725994
5.84,-0.011353074274826958
5.844,-0.011349203747415989
5.848,-0.011361416343222023
5.852,-0.011363291505570194
5.856,-0.011368291938498648
5.86,-0.01136797941144062
5.864,-0.011356800558980373
5.868,-0.011354925396632201
5.872,-0.011356295707578942
5.876,-0.011359541180873853
5.88,-0.01135427630197322
5.884,-0.011344347557745086
5.888,-0.01134615059846448
5.892,-0.01134833828787068
5.896,-0.011346775652580538
5.9,-0.011343578260371478
5.904,-0.011349468193388168
5.908,-0.011352689626140153
5.912,-0.011353651247857163
5.916,-0.011355117720975604
5.92,-0.011357497734725205
5.924,-0.011357353491467654
5.928,-0.011351271234107563
5.932,-0.011355670653462884
5.936,-0.011359276734901674
5.94,-0.0113570169238667
5.944,-0.011360046032275284
5.948,-0.011365262830090065
5.952,-0.0113614884648508
5.956,-0.011358098748298337
5.96,-0.011359180572729973
5.964,-0.011350237490761776
5.968,-0.011340452989791194
5.972,-0.011343506138742701
5.976,-0.011349444152845242
5.98,-0.01134610251737863
5.984,-0.011343385936028075
5.988,-0.01134427543611631
5.992,-0.011344996652404068
5.996,-0.011343986949601207
6.0,-0.011344539882088488
6.0040000000000004,-0.01134879505818626
6.008,-0.011346030395749855
6.0120000000000005,-0.011345910193035227
6.016,-0.01135107890976416
6.0200000000000005,-0.011351343355736338
6.024,-0.011355406207490707
6.0280000000000005,-0.011356127423778464
6.032,-0.011351151031392935
6.0360000000000005,-0.011354829234460502
6.04,-0.011373628939028057
6.0440000000000005,-0.011380095845074953
6.048,-0.01135833915372759
6.0520000000000005,-0.011338024894955742
6.056,-0.011336173773150496
6.0600000000000005,-0.01133742388138261
6.064,-0.011338698030157648
6.0680000000000005,-0.01134290512516957
6.072,-0.011345838071406452
6.0760000000000005,-0.011343746544171954
6.08,-0.011341102084450175
6.0840000000000005,-0.011335524678491514
6.088,-0.011337087313781656
6.0920000000000005,-0.011347280503981969
6.096,-0.011344203314487534
6.1000000000000005,-0.011346294841722032
6.104,-0.011357281369838879
6.1080000000000005,-0.011363652113714073
6.112,-0.011362065437881005
6.1160000000000005,-0.011367210114067012
6.12,-0.011367450519496265
6.1240000000000006,-0.011352978112655256
6.128,-0.01134934799067354
6.132000000000001,-0.011349035463615513
6.136,-0.011343409976571002
6.140000000000001,-0.011343049368427121
6.144,-0.011342304111596438
6.148,-0.011348698896014559
6.152,-0.01135442054523077
6.156,-0.011352641545054302
6.16,-0.01134737666615367
6.164,-0.011339635611331734
6.168,-0.011341799260195008
6.172,-0.011345357260547946
6.176,-0.01134884313927211
6.18,-0.011354083977629818
6.184,-0.011353074274826958
6.188,-0.011348025760812652
6.192,-0.011345477463262574
6.196,-0.011354059937086892
6.2,-0.01136295493796924
6.204,-0.011357401572553504
6.208,-0.011348915260900885
6.212,-0.011350357693476401
6.216,-0.011358170869927112
6.22,-0.011355045599346828
6.224,-0.011339948138389762
6.228,-0.011333986083744297
6.232,-0.01134422735503046
6.236,-0.011344660084803115
6.24,-0.011340501070877043
6.244,-0.011346078476835705
6.248,-0.011348554652757007
6.252,-0.011345092814575769
6.256,-0.011344467760459713
6.26,-0.01134422735503046
6.264,-0.011343626341457328
6.268,-0.011348073841898502
6.272,-0.011353771450571789
6.276,-0.011354035896543968
6.28,-0.011352689626140153
6.284,-0.011351247193564637
6.288,-0.011348097882441427
6.292,-0.011351728004423143
6.296,-0.011348626774385783
6.3,-0.011339250962644931
6.304,-0.011338962476129828
6.308,-0.011344035030687058
6.312,-0.011346078476835705
6.316,-0.011341871381823784
6.32,-0.011347160301267341
6.324,-0.011357040964409626
6.328,-0.011349083544701363
6.332,-0.011339491368074182
6.336,-0.011343193611684673
6.34,-0.011351896288223619
6.344,-0.01135052597727688
6.348,-0.011344660084803115
6.352,-0.011341150165536025
6.356,-0.011327567258783252
6.36,-0.011325716136978007
6.364,-0.011337688327354788
6.368,-0.011351006788135384
6.372,-0.011353482964056687
6.376,-0.011341126124993101
6.38,-0.011336846908352405
6.384,-0.011331461826737145
6.388,-0.011329081812987543
6.392,-0.01133138970510837
6.396,-0.011340380868162418
6.4,-0.011349997085332523
6.404,-0.011348434450042381
6.408,-0.011341126124993101
6.412,-0.011339539449160033
6.416,-0.011339539449160033
6.42,-0.011338986516672752
6.424,-0.011338529746357172
6.428,-0.011342544517025691
6.432,-0.011343986949601207
6.436,-0.01133747196246846
6.44,-0.011341174206078952
6.444,-0.011345405341633797
6.448,-0.01134326573331345
6.452,-0.011339130759930304
6.456,-0.011340861679020924
6.46,-0.011344419679373862
6.464,-0.011342280071053513
6.468,-0.01134295320625542
6.472,-0.011345765949777677
6.476,-0.011347232422896118
6.48,-0.011347280503981969
6.484,-0.011342231989967663
6.488,-0.011345477463262574
6.492,-0.01134276088191202
6.496,-0.011331365664565444
6.5,-0.011334707300032056
6.5040000000000004,-0.011355550450748259
6.508,-0.011362930897426314
6.5120000000000005,-0.01134980476098912
6.516,-0.011340044300561463
6.5200000000000005,-0.011340669354677521
6.524,-0.01134665544986591
6.5280000000000005,-0.011350285571847626
6.532,-0.011344756246974815
6.5360000000000005,-0.011340885719563848
6.54,-0.011345429382176723
6.5440000000000005,-0.011342592598111541
6.548,-0.01133838550309962
6.5520000000000005,-0.011334418813516952
6.556,-0.011338601867985949
6.5600000000000005,-0.011343650382000253
6.564,-0.011343842706343655
6.5680000000000005,-0.01134194350345256
6.572,-0.011339635611331734
6.5760000000000005,-0.011344395638830936
6.58,-0.011351367396279262
6.5840000000000005,-0.011359589261959704
6.588,-0.011360526843133788
6.5920000000000005,-0.011349636477188644
6.596,-0.011347304544524893
6.6000000000000005,-0.011346631409322986
6.604,-0.011334707300032056
6.6080000000000005,-0.011325523812634604
6.612,-0.011328528880500262
6.6160000000000005,-0.011333336989085315
6.62,-0.011332784056598034
6.6240000000000006,-0.011329803029275302
6.628,-0.011338048935498668
6.632000000000001,-0.011345116855118695
6.636,-0.0113455976659772
6.640000000000001,-0.01134285704408372
6.644,-0.01134427543611631
6.648000000000001,-0.011341847341280858
6.652,-0.011342833003540794
6.656000000000001,-0.011346679490408837
6.66,-0.011348097882441427
6.664,-0.011348314247327754
6.668,-0.011347761314840473
6.672,-0.011350501936733953
6.676,-0.01133838550309962
6.68,-0.011328024029098832
6.684,-0.011327086447924748
6.688,-0.011327663420954953
6.692,-0.011330259799590882
6.696,-0.011330476164477209
6.7,-0.011324778555803923
6.704,-0.011330716569906462
6.708,-0.011335212151433486
6.712,-0.011336366097493899
6.716,-0.011344299476659235
6.72,-0.011339779854589286
6.724,-0.011333601435057494
6.728,-0.011335741043377841
6.732,-0.011342929165712496
6.736,-0.011334803462203757
6.74,-0.011323648650286434
6.744,-0.011322999555627452
6.748,-0.011317133663153688
6.752,-0.011315883554921575
6.756,-0.011317951041613147
6.76,-0.011317902960527296
6.764,-0.011321460960880235
6.768,-0.011324345826031267
6.772,-0.011325427650462905
6.776,-0.011327999988555907
6.78,-0.011327951907470057
6.784,-0.01133239940791123
6.788,-0.01133518811089056
6.792,-0.011324754515260996
6.796,-0.011323600569200584
6.8,-0.011337183475953357
6.804,-0.011346198679550331
6.808,-0.011349155666330138
6.812,-0.011347040098552716
6.816,-0.011342520476482766
6.82,-0.011343337854942225
6.824,-0.011331557988908846
6.828,-0.011322110055539217
6.832,-0.01131285444651299
6.836,-0.011315186379176742
6.84,-0.011321460960880235
6.844,-0.011325908461321409
6.848,-0.011332327286282454
6.852,-0.011335620840663216
6.856,-0.011331990718681502
6.86,-0.011329778988732376
6.864,-0.011330187677962107
6.868,-0.011331942637595651
6.872,-0.011336534381294375
6.876,-0.011340452989791194
6.88,-0.011343145530598822
6.884,-0.011341294408793577
6.888,-0.011333457191799942
6.892,-0.011339539449160033
6.896,-0.011342015625081336
6.9,-0.011335741043377841
6.904,-0.011335789124463692
6.908,-0.011330259799590882
6.912,-0.011321677325766564
6.916,-0.011319754082332541
6.92,-0.011322662988026498
6.924,-0.01132412946114494
6.928,-0.01132509108286195
6.932,-0.011325403609919979
6.936,-0.011327086447924748
6.94,-0.011328360596699786
6.944,-0.011329875150904077
6.948,-0.011332543651168783
6.952,-0.011333962043201373
6.956,-0.011338601867985949
6.96,-0.011345044733489918
6.964,-0.011335019827090084
6.968,-0.011337399840839686
6.972,-0.011347809395926323
6.976,-0.011339467327531258
6.98,-0.011332062840310277
6.984,-0.011322999555627452
6.988,-0.01131965792016084
6.992,-0.011317902960527296
6.996,-0.011313503541171973
7.0,-0.011314873852118714
7.0040000000000004,-0.011320186812105197
7.008,-0.011318311649757025
7.0120000000000005,-0.01131554698732062
7.016,-0.011319177109302336
7.0200000000000005,-0.011323600569200584
7.024,-0.011327543218240328
7.0280000000000005,-0.01132545169100583
7.032,-0.011328552921043188
7.0360000000000005,-0.011337063273238732
7.04,-0.011332014759224426
7.0440000000000005,-0.011321821569024115
7.048,-0.011321749447395339
7.0520000000000005,-0.011324946839604399
7.056,-0.011329057772444619
7.0600000000000005,-0.011339996219475613
7.064,-0.01134052511141997
7.0680000000000005,-0.01132819231289931
7.072,-0.011321460960880235
7.0760000000000005,-0.011320451258077374
7.08,-0.011325836339692634
7.0840000000000005,-0.011331293542936669
7.088,-0.011330211718505031
7.0920000000000005,-0.011326557555980391
7.096,-0.011321965812281665
7.1000000000000005,-0.011317013460439063
7.104,-0.011315739311664023
7.1080000000000005,-0.011322999555627452
7.112,-0.011324898758518548
7.1160000000000005,-0.011324105420602014
7.12,-0.011324225623316642
7.1240000000000006,-0.011322278339339695
7.128,-0.011323480366485958
7.132000000000001,-0.011318816501158457
7.136,-0.011323023596170378
7.140000000000001,-0.011329851110361153
7.144,-0.011329009691358768
7.148000000000001,-0.011328288475071011
7.152,-0.011326100785664811
7.156000000000001,-0.011319826203961318
7.16,-0.011315859514378648
7.164000000000001,-0.011326028664036036
7.168,-0.011321629244680713
7.172,-0.011310594635478016
7.176,-0.011309849378647333
7.18,-0.011312061108596458
7.184,-0.011315138298090891
7.188,-0.011315787392749873
7.192,-0.011318720338986756
7.196,-0.011324249663859566
7.2,-0.011326196947836513
7.204,-0.011328168272356384
7.208,-0.011326581596523317
7.212,-0.011317662555098043
7.216,-0.011318576095729204
7.22,-0.011318984784958934
7.224,-0.011316917298267361
7.228,-0.011316893257724435
7.232,-0.011315907595464499
7.236,-0.011316628811752258
7.24,-0.011312926568141767
7.244,-0.011309296446160052
7.248,-0.011309248365074201
7.252,-0.011312541919454962
7.256,-0.011315210419719668
7.26,-0.011316700933381033
7.264,-0.011317638514555119
7.268,-0.011318624176815055
7.272,-0.011321292677079759
7.276,-0.011324417947660042
7.28,-0.011325668055892156
7.284,-0.011330452123934284
7.288,-0.011336366097493899
7.292,-0.011329394340045573
7.296,-0.011317710636183894
7.3,-0.011320595501334926
7.304,-0.01132011469047642
7.308,-0.011316436487408855
7.312,-0.011316652852295182
7.316,-0.011323095717799153
7.32,-0.01132134075816561
7.324,-0.011314801730489937
7.328,-0.011314705568318236
7.332,-0.011314801730489937
7.336,-0.01131261404108374
7.34,-0.01131194090588183
7.344,-0.011311724540995504
7.348,-0.011315619108949397
7.352,-0.011317542352383417
7.356,-0.011319321352559888
7.36,-0.011319417514731589
7.364,-0.01132042721753445
7.368,-0.011318624176815055
7.372,-0.011324850677432698
7.376,-0.011319754082332541
7.38,-0.01131266212216959
7.384,-0.011311051405793596
7.388,-0.011310402311134615
7.392,-0.01131605183872205
7.396,-0.011318672257900906
7.4,-0.011318167406499475
7.404,-0.011311916865338906
7.408,-0.011304199851059897
7.412,-0.011302925702284857
7.416,-0.011303719040201391
7.42,-0.011303310350971662
7.424,-0.011304704702461327
7.428,-0.011302036202196622
7.432,-0.01130270933739853
7.436,-0.011316099919807901
7.44,-0.01132453815037467
7.444,-0.011325980582950186
7.448,-0.011324417947660042
7.452,-0.01132403329897324
7.456,-0.011314056473659254
7.46,-0.011306651986438274
7.464,-0.011308382905528892
7.468,-0.011311868784253056
7.472,-0.011311460095023327
7.476,-0.011308959878559099
7.48,-0.011305930770150515
7.484,-0.011300665891249883
7.488,-0.011306387540466095
7.492,-0.011309681094846856
7.496,-0.011309152202902501
7.5,-0.011311412013937476
7.5040000000000004,-0.011311484135566251
7.508,-0.011310522513849241
7.5120000000000005,-0.01130864735150107
7.516,-0.01131549890623477
7.5200000000000005,-0.011330596367191836
7.524,-0.011337135394867507
7.5280000000000005,-0.011325980582950186
7.532,-0.011315258500805517
7.5360000000000005,-0.011306002891779292
7.54,-0.01129859840455831
7.5440000000000005,-0.011293261404028901
7.548,-0.011293141201314276
7.5520000000000005,-0.011294295147374688
7.556,-0.011294992323119521
7.5600000000000005,-0.011296939607096467
7.564,-0.011298959012702189
7.5680000000000005,-0.011302589134683905
7.572,-0.011305714405264188
7.5760000000000005,-0.0112999206344192
7.58,-0.011304247932145748
7.5840000000000005,-0.011314777689947013
7.588,-0.01131403243311633
7.5920000000000005,-0.011313263135742721
7.596,-0.011308983919102024
7.6000000000000005,-0.011323480366485958
7.604,-0.011341246327707727
7.6080000000000005,-0.01132595654240726
7.612,-0.011303959445630644
7.6160000000000005,-0.01130407964834527
7.62,-0.01130143518862349
7.6240000000000006,-0.011294872120404894
7.628,-0.011293069079685499
7.632000000000001,-0.01129347776891523
7.636,-0.0112953529312634
7.640000000000001,-0.011297756985555926
7.644,-0.01130270933739853
7.648000000000001,-0.011306724108067049
7.652,-0.011307397243268957
7.656000000000001,-0.011309296446160052
7.66,-0.011304752783547178
7.664000000000001,-0.01130581056743589
7.668,-0.011306676026981198
7.672000000000001,-0.011297756985555926
7.676,-0.01130097841830791
7.68,-0.011317590433469268
7.684,-0.011316580730666407
7.688,-0.011309296446160052
7.692,-0.011310185946248287
7.696,-0.011312830405970066
7.7,-0.01131220535185401
7.704,-0.011309633013761006
7.708,-0.01130727704055433
7.712,-0.01130407964834527
7.716,-0.01130073801287866
7.72,-0.011299247499217293
7.724,-0.011299728310075797
7.728,-0.011301627512966893
7.732,-0.011299199418131442
7.736,-0.011305762486350039
7.74,-0.01131316697357102
7.744,-0.01130874351367277
7.748,-0.011306050972865142
7.752,-0.011294992323119521
7.756,-0.011295328890720475
7.76,-0.011310161905705362
7.764,-0.011314657487232385
7.768,-0.011305930770150515
7.772,-0.01129910325595974
7.776,-0.011300713972335733
7.78,-0.011301651553509819
7.784,-0.011297035769268169
7.788,-0.011296194350265784
7.792,-0.011302565094140979
7.796,-0.011315739311664023
7.8,-0.01131732598749709
7.804,-0.011309200283988352
7.808,-0.011312998689770542
7.812,-0.011313503541171973
7.816,-0.011311580297737952
7.82,-0.011307902094670388
7.824,-0.01130869543258692
7.828,-0.011308527148786444
7.832,-0.011307589567612358
7.836,-0.011313479500629048
7.84,-0.011317205784782463
7.844,-0.011306002891779292
7.848,-0.011304296013231598
7.852,-0.011305209553862758
7.856,-0.011300040837133827
7.86,-0.011293814336516182
7.864,-0.011290857349736375
7.868,-0.011297155971982794
7.872,-0.011302132364368323
7.876,-0.011302829540113156
7.88,-0.011300713972335733
7.884,-0.011295545255606802
7.888,-0.011299247499217293
7.892,-0.011305522080920786
7.896,-0.011303598837486765
7.9,-0.011298766688358787
7.904,-0.011296098188094083
7.908,-0.011296554958409663
7.912,-0.011298021431528103
7.916,-0.011298983053245115
7.92,-0.011301266904823014
7.924,-0.011307036635125077
7.928,-0.011317951041613147
7.932,-0.011320715704049552
7.936,-0.01131138797339455
7.94,-0.011307974216299163
7.944,-0.011299343661388994
7.948,-0.01129590586375068
7.952,-0.0113067721891529
7.956,-0.011312974649227618
7.96,-0.011311556257195028
7.964,-0.011304199851059897
7.968,-0.011301002458850837
7.972,-0.011299079215416815
7.976,-0.011298910931616338
7.98,-0.01129590586375068
7.984,-0.0112929729175138
7.988,-0.011292612309369919
7.992,-0.011292924836427949
7.996,-0.011294824039319043
8.0,-0.011298189715328581
8.004,-0.011301483269709341
8.008000000000001,-0.011303358432057512
8.012,-0.011305065310605206
8.016,-0.011308791594758621
8.02,-0.011311820703167205
8.024000000000001,-0.011305137432233981
8.028,-0.011296074147551157
8.032,-0.011290448660506646
8.036,-0.011288645619787251
8.040000000000001,-0.01129722809361157
8.044,-0.011298357999129057
8.048,-0.011297516580126673
8.052,-0.011300064877676751
8.056000000000001,-0.01130174771568152
8.06,-0.0112999206344192
8.064,-0.011302084283282473
8.068,-0.011302108323825399
8.072000000000001,-0.011299872553333349
8.076,-0.01130367095911554
8.08,-0.011312758284341291
8.084,-0.011306483702637796
8.088000000000001,-0.01129708385035402
8.092,-0.011298237796414432
8.096,-0.011303550756400915
8.1,-0.011300185080391378
8.104000000000001,-0.011284125997717302
8.108,-0.011288669660330177
8.112,-0.011298117593699804
8.116,-0.011298478201843683
8.120000000000001,-0.011296098188094083
8.124,-0.011301098621022538
8.128,-0.011299824472247498
8.132,-0.011295328890720475
8.136000000000001,-0.011293838377059108
8.14,-0.011292419985026517
8.144,-0.0112931652418572
8.148,-0.011295280809634625
8.152000000000001,-0.011297492539583748
8.156,-0.011299223458674366
8.16,-0.011299656188447022
8.164,-0.011299896593876275
8.168000000000001,-0.011307036635125077
8.172,-0.01131234959511156
8.176,-0.011313142933028094
8.18,-0.011303911364544793
8.184000000000001,-0.011300449526363556
8.188,-0.011299127296502665
8.192,-0.011292107457968489
8.196,-0.011287491673726838
8.2,-0.011291458363309506
8.204,-0.011290857349736375
8.208,-0.011288621579244327
8.212,-0.011286145403323023
8.216,-0.011284654889661657
8.22,-0.011283693267944647
8.224,-0.011284198119346077
8.228,-0.011285376105949416
8.232,-0.011288982187388205
8.236,-0.01129220362014019
8.24,-0.011293309485114752
8.244,-0.011299800431704574
8.248,-0.011300762053421584
8.252,-0.011292131498511415
8.256,-0.011289222592817458
8.26,-0.011286121362780099
8.264,-0.011283885592288049
8.268,-0.01128809268729997
8.272,-0.01129905517487389
8.276,-0.01129956002627532
8.28,-0.011287708038613165
8.284,-0.011280904564965317
8.288,-0.011283140335457366
8.292,-0.011282875889485188
8.296,-0.011275399280635432
8.3,-0.011285784795179145
8.304,-0.011289895728019365
8.308,-0.011289174511731608
8.312,-0.011290520782135422
8.316,-0.011289198552274532
8.32,-0.011284582768032882
8.324,-0.011279438091846875
8.328,-0.011275783929322235
8.332,-0.0112727067398278
8.336,-0.011272129766797593
8.34,-0.011276312821266591
8.344,-0.01128124113256627
8.348,-0.0112817459839677
8.352,-0.011282082551568654
8.356,-0.011284654889661657
8.36,-0.011294006660859585
8.364,-0.011292444025569443
8.368,-0.01129169876873876
8.372,-0.011287539754812689
8.376,-0.011277394645698227
8.38,-0.011280015064877082
8.384,-0.011284534686947031
8.388,-0.011289967849648141
8.392,-0.011278380307958163
8.396,-0.011268163077214925
8.4,-0.011267922671785672
8.404,-0.011270254604449423
8.408,-0.011270182482820646
8.412,-0.01126950934761874
8.416,-0.011270206523363573
8.42,-0.01127188936136834
8.424,-0.01127138450996691
8.428,-0.011269581469247515
8.432,-0.011273932807516988
8.436,-0.011279654456733203
8.44,-0.011284919335633836
8.444,-0.011293333525657678
8.448,-0.011292780593170397
8.452,-0.011274894429234001
8.456,-0.0112704228882499
8.46,-0.01128544822757819
8.464,-0.011299031134330964
8.468,-0.011286457930381051
8.472,-0.011274221294032091
8.476,-0.011270495009878676
8.48,-0.0112682351988437
8.484,-0.011270495009878676
8.488,-0.011268788131330981
8.492,-0.01126828327992955
8.496,-0.011269341063818262
8.5,-0.011271071982908882
8.504,-0.011271552793767388
8.508000000000001,-0.011273427956115557
8.512,-0.011276961915925574
8.516,-0.011278356267415239
8.52,-0.011269389144904112
8.524000000000001,-0.011272129766797593
8.528,-0.011281842146139401
8.532,-0.011280423754106811
8.536,-0.011277466767327004
8.540000000000001,-0.011277442726784078
8.544,-0.011267297617669616
8.548,-0.011257080386926379
8.552,-0.01125595048140889
8.556000000000001,-0.011259532522304756
8.56,-0.01125667169769665
8.564,-0.011262393346912862
8.568,-0.011267898631242747
8.572000000000001,-0.011267538023098867
8.576,-0.011263475171344498
8.58,-0.01126097495488027
8.584,-0.01126169617116803
8.588000000000001,-0.011262056779311908
8.592,-0.011259123833075025
8.596,-0.011259941211534485
8.6,-0.011274004929145764
8.604000000000001,-0.011280904564965317
8.608,-0.011271745118110788
8.612,-0.011260446062935916
8.616,-0.011263066482114769
8.620000000000001,-0.01126950934761874
8.624,-0.011271985523540041
8.628,-0.011270158442277722
8.632,-0.011267946712328598
8.636000000000001,-0.011270326726078198
8.64,-0.011271408550509836
8.644,-0.011269605509790441
8.648,-0.011266287914866755
8.652000000000001,-0.01126275395505674
8.656,-0.011262898198314292
8.66,-0.011262537590170414
8.664,-0.011259244035789652
8.668000000000001,-0.011257272711269781
8.672,-0.011268788131330981
8.676,-0.011277154240268976
8.68,-0.01127453382109012
8.684000000000001,-0.011267441860927168
8.688,-0.011267634185270568
8.692,-0.01126513396880634
8.696,-0.011264821441748313
8.700000000000001,-0.011263451130801573
8.704,-0.011264340630889809
8.708,-0.011268475604272953
8.712,-0.011268571766444654
8.716,-0.011270639253136226
8.72,-0.011275471402264207
8.724,-0.011274557861633045
8.728,-0.011268619847530505
8.732,-0.011270855618022555
8.736,-0.011263739617316677
8.74,-0.011263258806458171
8.744,-0.011261840414425581
8.748,-0.011258474738416045
8.752,-0.011258763224931146
8.756,-0.011259412319590129
8.76,-0.011259604643933531
8.764,-0.011262008698226057
8.768,-0.011265542658036072
8.772,-0.011267562063641793
8.776,-0.011267706306899345
8.78,-0.011268259239386626
8.784,-0.011277346564612378
8.788,-0.011282130632654505
8.792,-0.011267946712328598
8.796,-0.011255589873265012
8.8,-0.01126270587397089
8.804,-0.011255998562494741
8.808,-0.011248834480703013
8.812,-0.011255277346206984
8.816,-0.011256455332810321
8.82,-0.011256719778782499
8.824,-0.011263883860574229
8.828,-0.011262417387455786
8.832,-0.011251551062053567
8.836,-0.01124448314243354
8.84,-0.011243088790943875
8.844,-0.01124544476415055
8.848,-0.01124854599418791
8.852,-0.011250901967394585
8.856,-0.011253546427116365
8.86,-0.011256070684123518
8.864,-0.011255060981320656
8.868,-0.011262681833427966
8.872,-0.011268018833957373
8.876,-0.011264340630889809
8.88,-0.011257008265297602
8.884,-0.011251719345854045
8.888,-0.011253762792002691
8.892,-0.011259436360133055
8.896,-0.011263475171344498
8.9,-0.01127987082161953
8.904,-0.011277322524069452
8.908,-0.01125864302221652
8.912,-0.011247512250842124
8.916,-0.01124667083183974
8.92,-0.01124813730495818
8.924,-0.011240300087964545
8.928,-0.011236934411955007
8.932,-0.011237799871500318
8.936,-0.011239242304075834
8.94,-0.011241454034024958
8.944,-0.011245132237092522
8.948,-0.011246190020981234
8.952,-0.011246959318354843
8.956,-0.011245228399264224
8.96,-0.011246502548039262
8.964,-0.01125306561625786
8.968,-0.011259147873617951
8.972,-0.011259821008819858
8.976,-0.011252945413543233
8.98,-0.011254844616434329
8.984,-0.011255710075979638
8.988,-0.011249603778076621
8.992,-0.011246190020981234
8.996,-0.011247872858986003
9.0,-0.011250228832192679
9.004,-0.011250349034907304
9.008000000000001,-0.011243906169403335
9.012,-0.01124453122351939
9.016,-0.011246911237268993
9.02,-0.011251454899881866
9.024000000000001,-0.011255589873265012
9.028,-0.011256527454439098
9.032,-0.011256070684123518
9.036,-0.011262128900940683
9.040000000000001,-0.011263763657859601
9.044,-0.01125864302221652
9.048,-0.011257705441042435
9.052,-0.011252031872912073
9.056000000000001,-0.011244819710034494
9.06,-0.011242992628772173
9.064,-0.011246141939895383
9.068,-0.011246045777723682
9.072000000000001,-0.011245925575009056
9.076,-0.011245156277635449
9.08,-0.011242944547686323
9.084,-0.01124164635836836
9.088000000000001,-0.011240853020451826
9.092,-0.01124027604742162
9.096,-0.011243136872029725
9.1,-0.011250156710563902
9.104000000000001,-0.011250661561965334
9.108,-0.01123941058787631
9.112,-0.011239218263532908
9.116,-0.011250349034907304
9.120000000000001,-0.01125631108955277
9.124,-0.011241526155653733
9.128,-0.011238256641815898
9.132,-0.011236742087611606
9.136000000000001,-0.01123032326265056
9.14,-0.011230996397852468
9.144,-0.011227270113699051
9.148,-0.01122616424872449
9.152000000000001,-0.011227702843471707
9.156,-0.011227222032613202
9.16,-0.01122799132998681
9.164,-0.01122981841124913
9.168000000000001,-0.011233809141374724
9.172,-0.011236982493040858
9.176,-0.011235612182094118
9.18,-0.011235203492864389
9.184000000000001,-0.011232655195314311
9.188,-0.011239675033848488
9.192,-0.011244386980261839
9.196,-0.011239098060818282
9.200000000000001,-0.011239098060818282
9.204,-0.011231958019569478
9.208,-0.011231789735769002
9.212,-0.011240179885249918
9.216000000000001,-0.011241429993482032
9.22,-0.01124078089882305
9.224,-0.011237030574126708
9.228,-0.011230563668079813
9.232,-0.011227558600214155
9.236,-0.011226236370353266
9.24,-0.011226044046009864
9.244,-0.011226693140668846
9.248,-0.011228640424645792
9.252,-0.011230154978850083
9.256,-0.011232679235857235
9.26,-0.011236141074038475
9.264,-0.01124128575022448
9.268,-0.011239122101361207
9.272,-0.011241838682711761
9.276,-0.011255734116522564
9.28,-0.011250517318707782
9.284,-0.011240083723078217
9.288,-0.011233208127801592
9.292,-0.011225154545921628
9.296,-0.011225539194608433
9.3,-0.011230996397852468
9.304,-0.01123114064111002
9.308,-0.011224168883661694
9.312,-0.011223760194431963
9.316,-0.01122707778935565
9.32,-0.011229674167991577
9.324,-0.011232390749342134
9.328,-0.011233785100831799
9.332,-0.011232727316943086
9.336,-0.011238208560730047
9.34,-0.011243233034201426
9.344,-0.011240492412307946
9.348,-0.011238280682358822
9.352,-0.011230515586993962
9.356,-0.011232438830427984
9.36,-0.011242487777370743
9.364,-0.011256791900411275
9.368,-0.011247007399440694
9.372,-0.011230804073509066
9.376,-0.011222534126742775
9.38,-0.0112156104503803
9.384,-0.01121707692349874
9.388,-0.011222822613257879
9.392,-0.011231429127625123
9.396,-0.011233184087258668
9.4,-0.011227173951527352
9.404,-0.011223231302487608
9.408,-0.011223688072803188
9.412,-0.01122666910012592
9.416,-0.011230467505908111
9.42,-0.011228784667903344
9.424,-0.011224577572891423
9.428,-0.011223952518775365
9.432,-0.011239218263532908
9.436,-0.011240300087964545
9.44,-0.011236525722725278
9.444,-0.011232631154771387
9.448,-0.011228375978673615
9.452,-0.011220442599508277
9.456,-0.011219072288561538
9.46,-0.011218423193902555
9.464,-0.011218831883132285
9.468,-0.011219505018334191
9.472,-0.011218928045303986
9.476,-0.011219024207475687
9.48,-0.011219529058877117
9.484,-0.011221500383396988
9.488,-0.011218928045303986
9.492,-0.011222942815972504
9.496,-0.011233616817031321
9.5,-0.01123484288472051
9.504,-0.01123017901939301
9.508000000000001,-0.011231308924910496
9.512,-0.011232294587170432
9.516,-0.011238569168873926
9.52,-0.011244074453203811
9.524000000000001,-0.011230106897764233
9.528,-0.011215321963865196
9.532,-0.011212893869029744
9.536,-0.011208566571303197
9.540000000000001,-0.011207508787414486
9.544,-0.011217846220872348
9.548,-0.011214865193549617
9.552,-0.011212437098714164
9.556000000000001,-0.011218278950645004
9.56,-0.011219144410190313
9.564,-0.011223183221401757
9.568,-0.011233256208887443
9.572000000000001,-0.011231260843824645
9.576,-0.01121880784258936
9.58,-0.011217100964041665
9.584,-0.011221909072626718
9.588000000000001,-0.011227149910984426
9.592,-0.011234049546803977
9.596,-0.011239338466247533
9.6,-0.011237198857927186
9.604000000000001,-0.011229385681476476
9.608,-0.0112248420188636
9.612,-0.011219577139962968
9.616,-0.011215730653094926
9.620000000000001,-0.01121698076132704
9.624,-0.011214168017804784
9.628,-0.011226909505555173
9.632,-0.011233448533230845
9.636000000000001,-0.011221909072626718
9.64,-0.011213230436630698
9.644,-0.011211403355368379
9.648,-0.01121149951754008
9.652000000000001,-0.011212196693284913
9.656,-0.011216403788296834
9.66,-0.01121926461290494
9.664,-0.011219048248018611
9.668000000000001,-0.01122241392402815
9.672,-0.011227823046186334
9.676,-0.011221885032083793
9.68,-0.011210537895823068
9.684000000000001,-0.011212124571656136
9.688,-0.011219288653447864
9.692,-0.0112201781535361
9.696,-0.011216331666668057
9.700000000000001,-0.011213446801517025
9.704,-0.011210970625595723
9.708,-0.011214119936718933
9.712,-0.011218302991187928
9.716000000000001,-0.01121890400476106
9.72,-0.011219553099420042
9.724,-0.011220490680594128
9.728,-0.011219529058877117
9.732,-0.011213687206946278
9.736,-0.011221788869912092
9.74,-0.01123109256002417
9.744,-0.011231212762738795
9.748,-0.011226236370353266
9.752,-0.011220466640051203
9.756,-0.011226236370353266
9.76,-0.011232679235857235
9.764,-0.011228520221931165
9.768,-0.011220009869735623
9.772,-0.011219865626478072
9.776,-0.011217173085670442
9.78,-0.011209792638992386
9.784,-0.011209191625419255
9.788,-0.01121099466613865
9.792,-0.011213038112287296
9.796,-0.011216860558612414
9.8,-0.011217966423586976
9.804,-0.011215971058524178
9.808,-0.011217653896528946
9.812,-0.011217966423586976
9.816,-0.011218014504672826
9.82,-0.01122260624837155
9.824,-0.011231549330339749
9.828,-0.011227702843471707
9.832,-0.011212268814913688
9.836,-0.011211932247312734
9.84,-0.011233136006172817
9.844,-0.01123818452018712
9.848,-0.011226957586641023
9.852,-0.01122433716746217
9.856,-0.011220755126566305
9.86,-0.011210249409307966
9.864,-0.011203518057288891
9.868,-0.011201835219284124
9.872,-0.01120296512480161
9.876,-0.011203950787061547
9.88,-0.011203998868147397
9.884,-0.011204551800634678
9.888,-0.011205801908866792
9.892,-0.011207244341442308
9.896,-0.01120738858469986
9.9,-0.011206282719725296
9.904,-0.011213278517716549
9.908,-0.011215009436807168
9.912,-0.011219120369647388
9.916,-0.011213134274458997
9.92,-0.01120748474687156
9.924,-0.011212100531113212
9.928,-0.011209359909219731
9.932,-0.01120611443592482
9.936,-0.011210201328222116
9.94,-0.011214312261062336
9.944,-0.011207508787414486
9.948,-0.011201258246253917
9.952,-0.011198589745989213
9.956,-0.0111973396377571
9.96,-0.011198469543274586
9.964,-0.011201114002996365
9.968,-0.011204046949233248
9.972,-0.011205080692579033
9.976,-0.011210081125507488
9.98,-0.011212773666315118
9.984,-0.011209456071391432
9.988,-0.011215514288208599
9.992,-0.011220490680594128
9.996,-0.011211114868853275
10.0,-0.011198613786532138
10.004,-0.01119373355631831
10.008000000000001,-0.011192699812972523
10.012,-0.011194502853691918
10.016,-0.011195055786179199
10.02,-0.011198036813501932
10.024000000000001,-0.011199960056935953
10.028,-0.011198181056759484
10.032,-0.011196329934954239
10.036,-0.011198132975673633
10.040000000000001,-0.011203902705975696
10.044,-0.011206763530583802
10.048,-0.011206306760268223
10.052,-0.011202027543627525
10.056000000000001,-0.011199455205534522
10.06,-0.011213014071744371
10.064,-0.011219745423763444
10.068,-0.011216451869382683
10.072000000000001,-0.011204768165521005
10.076,-0.01119637801604009
10.08,-0.01119839742164581
10.084,-0.01119693094852737
10.088000000000001,-0.011191858393970138
10.092,-0.011184405825663308
10.096,-0.01119003131270782
10.1,-0.01119474325912117
10.104000000000001,-0.011195752961924032
10.108,-0.011203229570773788
10.112,-0.011206210598096521
10.116,-0.011202989165344537
10.120000000000001,-0.01120099380028174
10.124,-0.01120565766560924
10.128,-0.011208518490217347
10.132,-0.011211162949939126
10.136000000000001,-0.011225178586464555
10.14,-0.011223736153889038
10.144,-0.011212533260885865
10.148,-0.011211523558083004
10.152000000000001,-0.011212797706858044
10.156,-0.011208566571303197
10.16,-0.011201138043539291
10.164,-0.011190007272164893
10.168000000000001,-0.01119596932681036
10.172,-0.011198229137845335
10.176,-0.01119003131270782
10.18,-0.011194502853691918
10.184000000000001,-0.011198998435218942
10.188,-0.011204119070862023
10.192,-0.011203157449145013
10.196,-0.011199046516304793
10.200000000000001,-0.011198229137845335
10.204,-0.01119931096227697
10.208,-0.01120027258399398
10.212,-0.011196089529524986
10.216000000000001,-0.011195344272694302
10.22,-0.01120748474687156
10.224,-0.011216451869382683
10.228,-0.01121296599065852
10.232000000000001,-0.01120616251701067
10.236,-0.0112019073409129
10.24,-0.01119661842146934
10.244,-0.01119647417821179
10.248,-0.01119419032663389
10.252,-0.011192339204828644
10.256,-0.01119154586691211
10.26,-0.011198060854044857
10.264,-0.011199431164991598
10.268,-0.011193084461659328
10.272,-0.011191810312884288
10.276,-0.011192844056230075
10.28,-0.011193372948174431
10.284,-0.011188276353074275
10.288,-0.011189478380220538
10.292,-0.01119926288119112
10.296,-0.011209167584876329
10.3,-0.01120748474687156
10.304,-0.011205321098008286
10.308,-0.01119921480010527
10.312,-0.011189406258591762
10.316,-0.01118834847470305
10.32,-0.01118962262347809
10.324,-0.011185487650094944
10.328,-0.01118236237951466
10.332,-0.011182410460600511
10.336,-0.011183444203946296
10.34,-0.011184814514893037
10.344,-0.011185704014981273
10.348,-0.011186593515069506
10.352,-0.011188901407190331
10.356,-0.011190319799222923
10.36,-0.01119200263722769
10.364,-0.011195392353780153
10.368,-0.011198421462188735
10.372,-0.011195897205181583
10.376,-0.011188540799046453
10.38,-0.011195055786179199
10.384,-0.011210489814737217
10.388,-0.011201354408425618
10.392,-0.011177578311472532
10.396,-0.01116971705393597
10.4,-0.011171015243253934
10.404,-0.011168875634933585
10.408,-0.01117113544596856
10.412,-0.0111725057569153
10.416,-0.011172866365059179
10.42,-0.011174092432748368
10.424,-0.011175751230210211
10.428,-0.011177674473644233
10.432,-0.011178996703505124
10.436,-0.011180727622595742
10.44,-0.011185439569009093
10.444,-0.011186497352897805
10.448,-0.011183876933718952
10.452,-0.011194983664550424
10.456,-0.01119642609712594
10.46,-0.011186353109640255
10.464,-0.01118551169063787
10.468,-0.011176087797811164
10.472,-0.011167048553671266
10.476,-0.011162601053230092
10.48,-0.011158874769076677
10.484,-0.011160557607081444
10.488,-0.011165726323810375
10.492,-0.011169404526877941
10.496,-0.011173010608316731
10.5,-0.01117510213555123
10.504,-0.011174669405778574
10.508000000000001,-0.011174813649036126
10.512,-0.011178828419704646
10.516,-0.011183444203946296
10.52,-0.01118058337933819
10.524000000000001,-0.011182747028201465
10.528,-0.011196666502555191
10.532,-0.011196858826898594
10.536,-0.011179189027848525
10.540000000000001,-0.011174140513834217
10.544,-0.011165533999466975
10.548,-0.011155749498496391
10.552,-0.011154018579405773
10.556000000000001,-0.01115743233650116
10.56,-0.011159908512422462
10.564,-0.011159523863735659
10.568,-0.011158730525819125
10.572000000000001,-0.011163033783002747
10.576,-0.011167000472585415
10.58,-0.011169981499908147
10.584,-0.011169837256650597
10.588000000000001,-0.011168587148418483
10.592,-0.011171303729769037
10.596,-0.011176352243783345
10.6,-0.011179717919792881
10.604000000000001,-0.011179261149477301
10.608,-0.011178179325045664
10.612,-0.011173130811031357
10.616,-0.011167817851044873
10.620000000000001,-0.011164163688520233
10.624,-0.011155821620125168
10.628,-0.01115062886285331
10.632,-0.011159956593508312
10.636000000000001,-0.011162336607257914
10.64,-0.01116322610734615
10.644,-0.011163081864088598
10.648,-0.011161687512598932
10.652000000000001,-0.011160461444909743
10.656,-0.01115788910681674
10.66,-0.011157865066273816
10.664,-0.011160269120566342
10.668000000000001,-0.011158586282561573
10.672,-0.011153513728004343
10.676,-0.011159595985364434
10.68,-0.011169861297193521
10.684000000000001,-0.011178179325045664
10.688,-0.011181977730827856
10.692,-0.011169933418822296
10.696,-0.011158177593331844
10.700000000000001,-0.011150749065567936
10.704,-0.011144161956806415
10.708,-0.011144017713548863
10.712,-0.011147743997702278
10.716000000000001,-0.011149186430277794
10.72,-0.011149763403308002
10.724,-0.01114865753833344
10.728,-0.011149955727651404
10.732000000000001,-0.011153657971261895
10.736,-0.011154667674064755
10.74,-0.011154258984835026
10.744,-0.01115473979569353
10.748000000000001,-0.011155581214695915
10.752,-0.01115596586338272
10.756,-0.011158033350074292
10.76,-0.011155220606552036
10.764,-0.011160701850338996
10.768,-0.011178419730474917
10.772,-0.011178323568303216
10.776,-0.011172794243430404
10.78,-0.01116712067530004
10.784,-0.011156759201299252
10.788,-0.011141685780885112
10.792,-0.011145363983952678
10.796,-0.011154475349721353
10.8,-0.01115053270068161
10.804,-0.011143512862147433
10.808,-0.011142527199887496
10.812,-0.011142935889117226
10.816,-0.011145892875897033
10.82,-0.011145147619066351
10.824,-0.011148609457247589
10.828,-0.011151614525113247
10.832,-0.011152383822486855
10.836,-0.011154619592978905
10.84,-0.011164307931777785
10.844,-0.011170005540451073
10.848,-0.011172289392028974
10.852,-0.011175438703152182
10.856,-0.01115971618807906
10.86,-0.011136348780355704
10.864,-0.011133511996290523
10.868,-0.011147287227386699
10.872,-0.01115377817397652
10.876,-0.011150148051994805
10.88,-0.011143897510834238
10.884,-0.011140099105052046
10.888,-0.01114550822721023
10.892,-0.011147022781414521
10.896,-0.011145868835354109
10.9,-0.011148970065391468
10.904,-0.011150412497966984
10.908,-0.011150412497966984
10.912,-0.011156663039127553
10.916,-0.011164091566891458
10.92,-0.01116971705393597
10.924,-0.01116661582389861
10.928,-0.011159043052877153
10.932,-0.011157648701387487
10.936,-0.011161519228798454
10.94,-0.011171303729769037
10.944,-0.011170053621536924
10.948,-0.011152672309001958
10.952,-0.011141685780885112
10.956,-0.011146373686755539
10.96,-0.011149258551906571
10.964,-0.011149691281679225
10.968,-0.011153441606375566
10.972,-0.011149739362765075
10.976,-0.011145868835354109
10.98,-0.011143488821604507
10.984,-0.011143080132374777
10.988,-0.011144666808207845
10.992,-0.01114642176784139
10.996,-0.011147503592273027
11.0,-0.011148729659962215
11.004,-0.011148008443674457
11.008000000000001,-0.011152552106287331
11.012,-0.01115966810699321
11.016,-0.011156735160756328
11.02,-0.01115017209253773
11.024000000000001,-0.011158057390617216
11.028,-0.011161663472056006
11.032,-0.011152696349544883
11.036,-0.01113961829419354
11.040000000000001,-0.011147287227386699
11.044,-0.011155436971438363
11.048,-0.011149643200593374
11.052,-0.011144306200063967
11.056000000000001,-0.011146662173270643
11.06,-0.011146998740871597
11.064,-0.011143008010746002
11.068,-0.011141926186314365
11.072000000000001,-0.0111406279969964
11.076,-0.011141301132198309
11.08,-0.011147816119331055
11.084,-0.011154595552435979
11.088000000000001,-0.011162432769429615
11.092,-0.01116464449937874
11.096,-0.011156590917498776
11.1,-0.011146109240783362
11.104000000000001,-0.01113454573963631
11.108,-0.011145748632639483
11.112,-0.011157528498672862
11.116,-0.011144618727121995
11.120000000000001,-0.011143056091831853
11.124,-0.011146950659785746
11.128,-0.011143344578346957
11.132,-0.0111405318348247
11.136000000000001,-0.011139401929307213
11.14,-0.011140916483511504
11.144,-0.011145339943409752
11.148,-0.011148585416704663
11.152000000000001,-0.011148873903219766
11.156,-0.011146229443497987
11.16,-0.011145700551553632
11.164,-0.011147479551730101
11.168000000000001,-0.011156182228269047
11.172,-0.011166711986070312
11.176,-0.011156711120213401
11.18,-0.011144522564950294
11.184000000000001,-0.011148777741048065
11.188,-0.011149138349191944
11.192,-0.011149907646565553
11.196,-0.01114793632204568
11.200000000000001,-0.011151422200769845
11.204,-0.011147792078788129
11.208,-0.011138272023789725
11.212,-0.01113957021310769
11.216000000000001,-0.011140411632110074
11.22,-0.01113687767230006
11.224,-0.011134978469408965
11.228,-0.01113646898307033
11.232000000000001,-0.01113779121293122
11.236,-0.011139281726592586
11.24,-0.011140051023966195
11.244,-0.011139329807678436
11.248000000000001,-0.01113555544243917
11.252,-0.011138079699446322
11.256,-0.01114382538920546
11.26,-0.011145243781238053
11.264,-0.011138776875191155
11.268,-0.01113262249620229
11.272,-0.011135723726239647
11.276,-0.01113957021310769
11.28,-0.011147215105757924
11.284,-0.011145147619066351
11.288,-0.0111382479832468
11.292,-0.011146566011098941
11.296,-0.011154787876779381
11.3,-0.011146902578699895
11.304,-0.011136997875014687
11.308,-0.011134473618007533
11.312,-0.011134882307237264
11.316,-0.011129809752680032
11.32,-0.011131059860912146
11.324,-0.01113312734760372
11.328,-0.011133536036833449
11.332,-0.011135747766782573
11.336,-0.011137430604787342
11.34,-0.011143176294546479
11.344,-0.011143176294546479
11.348,-0.011134834226151413
11.352,-0.011129401063450303
11.356,-0.01112896833367765
11.36,-0.01113235805023011
11.364,-0.011137142118272238
11.368,-0.011139401929307213
11.372,-0.01114870561941929
11.376,-0.011148417132904187
11.38,-0.011139714456365241
11.384,-0.011135675645153796
11.388,-0.011130579050053642
11.392,-0.0111245448737794
11.396,-0.011133151388146644
11.4,-0.01114139729437001
11.404,-0.0111381518210751
11.408,-0.011132189766429634
11.412,-0.011135146753209441
11.416,-0.011137550807501968
11.42,-0.01113262249620229
11.424,-0.011130194401366837
11.428,-0.011131540671770652
11.432,-0.011132959063803242
11.436,-0.011131180063626773
11.44,-0.011138969199534558
11.444,-0.011152552106287331
11.448,-0.011148369051818336
11.452,-0.011134281293664132
11.456,-0.01112678064427145
11.46,-0.011124376589978923
11.464,-0.011128150955218189
11.468,-0.011123607292605316
11.472,-0.011122573549259529
11.476,-0.011127598022730908
11.48,-0.01112769418490261
11.484,-0.011122116778943949
11.488,-0.01111896746782074
11.492,-0.011122092738401023
11.496,-0.011123414968261913
11.5,-0.01112404002237797
11.504,-0.011125193968438382
11.508000000000001,-0.01112779034707431
11.512,-0.011129425103993229
11.516,-0.01112992995539466
11.52,-0.011133848563891477
11.524000000000001,-0.011138632631933605
11.528,-0.011131949361000381
11.532,-0.01113098773928337
11.536,-0.011134906347780188
11.540000000000001,-0.01112733357675873
11.544,-0.011121323441027415
11.548,-0.01113404088823488
11.552,-0.011134449577464609
11.556000000000001,-0.01112586710364029
11.56,-0.011121323441027415
11.564,-0.011119039589449514
11.568,-0.011113245818604527
11.572000000000001,-0.011120794549083058
11.576,-0.011129280860735677
11.58,-0.011134738063979712
11.584,-0.011136108374926451
11.588000000000001,-0.011129641468879556
11.592,-0.011122765873602931
11.596,-0.011123655373691164
11.6,-0.011126756603728524
11.604000000000001,-0.011123727495319941
11.608,-0.011123414968261913
11.612,-0.011116515332442362
11.616,-0.01110266797971741
11.620000000000001,-0.011098629168505967
11.624,-0.011111322575170505
11.628,-0.011117885643389102
11.632,-0.011116996143300868
11.636000000000001,-0.011110048426395467
11.64,-0.011105985574641097
11.644,-0.011107812655903417
11.648,-0.011110625399425672
11.652000000000001,-0.011109134885764307
11.656,-0.011108630034362875
11.66,-0.011110192669653018
11.664,-0.011111875507657786
11.668000000000001,-0.011113558345662555
11.672,-0.011115938359412155
11.676,-0.011116491291899436
11.68,-0.011116419170270661
11.684000000000001,-0.011114880575523444
11.688,-0.011119544440850945
11.692,-0.011121563846456668
11.696,-0.011118126048818355
11.700000000000001,-0.011112428440145067
11.704,-0.0111085579127341
11.708,-0.011115625832354127
11.712,-0.011115145021495623
11.716000000000001,-0.011108942561420905
11.72,-0.011097859871132357
11.724,-0.01109449419512282
11.728,-0.011095816424983711
11.732000000000001,-0.01109617703312759
11.736,-0.011097980073846984
11.74,-0.011099686952394678
11.744,-0.011101658276914549
11.748000000000001,-0.011103653641977346
11.752,-0.011104879709666535
11.756,-0.011106009615184022
11.76,-0.011106851034186406
11.764000000000001,-0.011106394263870827
11.768,-0.011105504763782591
11.772,-0.011109158926307231
11.776,-0.01111180338602901
11.78,-0.011104711425866057
11.784,-0.011104014250121225
11.788,-0.011106490426042528
11.792,-0.011104110412292926
11.796,-0.011109495493908186
11.8,-0.01111632300809896
11.804,-0.011117861602846177
11.808,-0.01112144364374204
11.812,-0.011115890278326305
11.816,-0.011106899115272257
11.82,-0.011100624533568764
11.824,-0.011096874208872422
11.828,-0.01109521541141058
11.832,-0.011098244519819162
11.836,-0.011101922722886728
11.84,-0.011104134452835852
11.844,-0.011108942561420905
11.848,-0.011115313305296099
11.852,-0.011113077534804049
11.856,-0.011114592089008342
11.86,-0.011113438142947928
11.864,-0.01110485566912361
11.868,-0.011098581087420116
11.872,-0.011103918087949523
11.876,-0.011112284196887515
11.88,-0.011109279129021857
11.884,-0.011108990642506755
11.888,-0.01110673083147178
11.892,-0.011109158926307231
11.896,-0.01110956761553696
11.9,-0.011102740101346186
11.904,-0.01109709057375875
11.908,-0.011097042492672899
11.912,-0.011097282898102152
11.916,-0.011097715627874807
11.92,-0.01109860512796304
11.924,-0.011098749371220592
11.928,-0.011099037857735696
11.932,-0.01110266797971741
11.936,-0.011104374858265105
11.94,-0.01110403829066415
11.944,-0.01110348535817687
11.948,-0.01109891765502107
11.952,-0.011097306938645076
11.956,-0.011111490858970983
11.96,-0.011112572683402619
11.964,-0.011103148790575916
11.968,-0.011100985141712642
11.972,-0.011108077101875594
11.976,-0.01110764437210294
11.98,-0.011099975438909782
11.984,-0.01109576834389786
11.988,-0.011095527938468608
11.992,-0.01109490288435255
11.996,-0.011101946763429653
12.0,-0.01110353343926272
12.004,-0.011104639304237282
12.008000000000001,-0.011108389628933624
12.012,-0.011105673047583068
12.016,-0.01109860512796304
12.02,-0.01109526349249643
12.024000000000001,-0.011097258857559225
12.028,-0.01109545581683983
12.032,-0.01109891765502107
12.036,-0.01110225929048768
12.040000000000001,-0.011097835830589433
12.044,-0.01110266797971741
12.048,-0.01111048115616812
12.052,-0.011101610195828698
12.056000000000001,-0.01109449419512282
12.06,-0.011098701290134742
12.064,-0.011097330979188002
12.068,-0.01109348449231996
12.072000000000001,-0.011087979207990074
12.076,-0.01108480585632394
12.08,-0.011084156761664958
12.084,-0.011085551113154624
12.088000000000001,-0.011087330113331092
12.092,-0.01108886870807831
12.096,-0.011090479424454302
12.1,-0.011092546911145874
12.104000000000001,-0.01109353257340581
12.108,-0.011088315775591029
12.112,-0.01108769072147497
12.116,-0.011097619465703106
12.120000000000001,-0.011104182533921703
12.124,-0.011101658276914549
12.128,-0.011100023519995632
12.132,-0.011098244519819162
12.136000000000001,-0.011095696222269084
12.14,-0.011097547344074329
12.144,-0.011091633370514714
12.148,-0.011087306072788168
12.152000000000001,-0.011081632504657804
12.156,-0.011076055098699144
12.16,-0.011074179936350974
12.164,-0.011077569652903435
12.168000000000001,-0.011081295937056852
12.172,-0.011083147058862097
12.176,-0.011080887247827123
12.18,-0.01107617530141377
12.184000000000001,-0.011074276098522675
12.188,-0.011080959369455898
12.192,-0.011082353720945563
12.196,-0.011082834531804068
12.200000000000001,-0.011080166031539364
12.204,-0.011085478991525847
12.208,-0.011096297235842215
12.212,-0.011096922289958273
12.216000000000001,-0.011094614397837448
12.22,-0.011081993112801685
12.224,-0.011064155029951138
12.228,-0.011068939097993266
12.232000000000001,-0.011077329247474184
12.236,-0.011084998180667343
12.24,-0.011089349518936815
12.244,-0.01108201715334461
12.248000000000001,-0.011078627436792146
12.252,-0.0110789640043931
12.256,-0.011078218747562417
12.26,-0.011077786017789764
12.264000000000001,-0.011080021788281812
12.268,-0.011084373126551285
12.272,-0.011085190505010743
12.276,-0.011083507667005976
12.280000000000001,-0.011081175734342225
12.284,-0.011091969938115669
12.288,-0.011097330979188002
12.292,-0.011091849735401041
12.296,-0.011085575153697548
12.3,-0.011088484059391505
12.304,-0.011092955600375605
12.308,-0.011086031924013128
12.312,-0.011075694490555265
12.316,-0.011072088409116476
12.32,-0.011071222949571167
12.324,-0.01106927566559422
12.328,-0.01106708797618802
12.332,-0.011066318678814413
12.336,-0.011068794854735714
12.34,-0.011072593260517906
12.344,-0.011075021355353357
12.348,-0.011075045395896283
12.352,-0.01107160759825797
12.356,-0.011074011652550496
12.36,-0.011082690288546517
12.364,-0.011092498830060023
12.368,-0.011087834964732523
12.372,-0.01108754647821742
12.376,-0.011089734167623619
12.38,-0.01109937442533665
12.384,-0.011103605560891495
12.388,-0.011094277830236494
12.392,-0.011087738802560821
12.396,-0.011085599194240474
12.4,-0.011080406436968617
12.404,-0.011080550680226169
12.408,-0.011077233085302483
12.412,-0.01107165567934382
12.416,-0.011067881314104555
12.42,-0.011064563719180869
12.424,-0.011059298840280236
12.428,-0.011059370961909011
12.432,-0.011065958070670533
12.436,-0.01107338659843444
12.44,-0.0110788678422214
12.444,-0.011081704626286581
12.448,-0.01107987754502426
12.452,-0.011081392099228553
12.456,-0.011086801221386737
12.46,-0.01109079195151233
12.464,-0.011090551546083079
12.468,-0.011087330113331092
12.472,-0.011086031924013128
12.476,-0.011088820626992459
12.48,-0.01109261903277465
12.484,-0.01108769072147497
12.488,-0.011081223815428075
12.492,-0.011080069869367663
12.496,-0.011079565017966232
12.5,-0.011078819761135549
12.504,-0.011079204409822354
12.508000000000001,-0.011077689855618062
12.512,-0.011076319544671321
12.516,-0.011082546045288966
12.52,-0.011074516503951927
12.524000000000001,-0.01107744945018881
12.528,-0.011088387897219804
12.532,-0.01107982946393841
12.536,-0.011073170233548112
12.540000000000001,-0.011082666248003591
12.544,-0.01109672996561487
12.548,-0.01109348449231996
12.552,-0.011083555748091826
12.556000000000001,-0.01108019007208229
12.56,-0.011075069436439208
12.564,-0.011072977909204711
12.568,-0.011072641341603757
12.572000000000001,-0.011072545179432056
12.576,-0.011074107814722197
12.58,-0.01107699267987323
12.584,-0.01107845915299167
12.588000000000001,-0.011078170666476567
12.592,-0.011078627436792146
12.596,-0.011079252490908204
12.6,-0.01108160846411488
12.604000000000001,-0.011084517369808837
12.608,-0.011079180369279427
12.612,-0.011075454085126012
12.616,-0.011090190937939198
12.620000000000001,-0.011089854370338246
12.624,-0.011084204842750809
12.628,-0.011087065667358915
12.632,-0.011091681451600565
12.636000000000001,-0.011090647708254778
12.64,-0.011080887247827123
12.644,-0.01108627232944238
12.648,-0.01108932547839389
12.652000000000001,-0.011082377761488488
12.656,-0.01107612722032792
12.66,-0.011085190505010743
12.664,-0.011086344451071158
12.668000000000001,-0.011075934895984518
12.672,-0.011067761111389927
12.676,-0.01106018834036847
12.68,-0.011070910422513137
12.684000000000001,-0.01108302685614747
12.688,-0.011079709261223784
12.692,-0.011076055098699144
12.696,-0.011075141558067984
12.700000000000001,-0.011076367625757172
12.704,-0.011078723598963848
12.708,-0.01108019007208229
12.712,-0.011078747639506774
12.716000000000001,-0.011078939963850176
12.72,-0.011083459585920125
12.724,-0.011087834964732523
12.728,-0.011092787316575127
12.732000000000001,-0.011093869141006765
12.736,-0.011086344451071158
12.74,-0.011081344018142703
12.744,-0.011091032356941583
12.748000000000001,-0.011088339816133953
12.752,-0.01107850723407752
12.756,-0.01108795516744715
12.76,-0.011098124317104536
12.764000000000001,-0.011091513167800089
12.768,-0.011076559950100574
12.772,-0.011066246557185636
12.776,-0.011061895218916163
12.780000000000001,-0.011060765313398677
12.784,-0.011061871178373239
12.788,-0.011064203111036989
12.792,-0.011069467989937623
12.796000000000001,-0.011073001949747635
12.8,-0.011072304774002803
12.804,-0.011069323746680071
12.808,-0.011067977476276256
12.812,-0.011066727368044142
12.816,-0.011064515638095018
12.82,-0.011069347787222995
12.824,-0.011071751841515522
12.828,-0.011066775449129993
12.832,-0.01106566958415543
12.836,-0.011080045828824738
12.84,-0.01108622424835653
12.844,-0.011075742571641116
12.848,-0.011063313610948755
12.852,-0.011059346921366085
12.856,-0.011059130556479758
12.86,-0.011059034394308057
12.864,-0.011060332583626022
12.868,-0.011062087543259566
12.872,-0.011063938665064811
12.876,-0.011063578056920933
12.88,-0.011062400070317594
12.884,-0.011061558651315211
12.888,-0.011063313610948755
12.892,-0.01106475604352427
12.896,-0.011063554016378006
12.9,-0.011070213246768304
12.904,-0.011072857706490084
12.908,-0.011072497098346205
12.912,-0.011064515638095018
12.916,-0.01105648609675798
12.92,-0.011051942434145106
12.924,-0.011048240190534615
12.928,-0.011050427879940813
12.932,-0.011055380231783417
12.936,-0.011055716799384371
12.94,-0.011056005285899475
12.944,-0.011059491164623637
12.948,-0.011062111583802492
12.952,-0.01105977965113874
12.956,-0.011054418610066407
12.96,-0.011050980812428094
12.964,-0.011052567488261162
12.968,-0.011056702461644308
12.972,-0.01106114996208548
12.976,-0.011058793988878804
12.98,-0.011057063069788186
12.984,-0.011065885949041758
12.988,-0.011064683921895494
12.992,-0.011071703760429671
12.996,-0.011066511003157815
13.0,-0.011060452786340649
13.004,-0.01106018834036847
13.008000000000001,-0.011057423677932065
13.012,-0.011056630340015531
13.016,-0.011055500434498045
13.02,-0.011053769515407425
13.024000000000001,-0.011051173136771496
13.028,-0.011049297974423326
13.032,-0.011051125055685646
13.036,-0.011051726069258777
13.040000000000001,-0.011050884650256394
13.044,-0.011051341420571974
13.048,-0.01105425032626593
13.052,-0.011053264664005994
13.056000000000001,-0.01104780746076196
13.06,-0.01105105293405687
13.064,-0.011058793988878804
13.068,-0.011067664949218228
13.072000000000001,-0.01105420224518008
13.076,-0.01104054721679853
13.08,-0.011045523609184059
13.084,-0.011053024258576741
13.088000000000001,-0.011049562420395504
13.092,-0.011042350257517925
13.096,-0.011038191243591854
13.1,-0.0110354746622413
13.104000000000001,-0.011034440918895513
13.108,-0.011031844540259584
13.112,-0.011032589797090268
13.116,-0.011033719702607756
13.120000000000001,-0.011033166770120475
13.124,-0.011033912026951158
13.128,-0.011035138094640346
13.132,-0.011034224554009186
13.136000000000001,-0.011033046567405847
13.14,-0.011038912459879612
13.144,-0.011053024258576741
13.148,-0.011064251192122839
13.152000000000001,-0.011056870745444784
13.156,-0.01104826423107754
13.16,-0.011039826000510773
13.164,-0.011037710432733348
13.168000000000001,-0.011040162568111725
13.172,-0.01104009044648295
13.176,-0.011037277702960695
13.18,-0.01103059443202747
13.184000000000001,-0.011026868147874055
13.188,-0.011024920863897109
13.192,-0.011024488134124454
13.196,-0.011026555620816027
13.200000000000001,-0.011031195445600602
13.204,-0.011033142729577549
13.208,-0.011026026728871671
13.212,-0.011023262066435266
13.216000000000001,-0.011031099283428901
13.22,-0.011039609635624444
13.224,-0.011042638744033028
13.228,-0.01105050000156959
13.232000000000001,-0.011061125921542556
13.236,-0.011053264664005994
13.24,-0.011045090879411405
13.244,-0.011051581826001225
13.248000000000001,-0.01104465814963875
13.252,-0.011038047000334303
13.256,-0.011033070607948774
13.26,-0.01103734982458947
13.264000000000001,-0.011043408041406636
13.268,-0.011040667419513157
13.272,-0.011037037297531442
13.276,-0.011032613837633194
13.280000000000001,-0.01103085887799965
13.284,-0.011030690594199172
13.288,-0.011031676256459108
13.292,-0.011034176472923336
13.296000000000001,-0.011036316081243685
13.3,-0.011036820932645115
13.304,-0.011039104784223014
13.308,-0.011047735339133185
13.312000000000001,-0.011049947069082309
13.316,-0.011054947502010764
13.32,-0.0110560293264424
13.324,-0.011050115352882785
13.328,-0.011038095081420153
13.332,-0.011030786756370873
13.336,-0.011027925931762767
13.34,-0.011024536215210304
13.344,-0.011022973579920162
13.348,-0.011026026728871671
13.352,-0.011026291174843848
13.356,-0.011033984148579933
13.36,-0.011037638311104573
13.364,-0.011036460324501236
13.368,-0.011038095081420153
13.372,-0.011040883784399484
13.376,-0.011039874081596623
13.38,-0.011032565756547343
13.384,-0.011028526945335898
13.388,-0.011039826000510773
13.392,-0.011055957204813624
13.396,-0.01106708797618802
13.4,-0.011043672487378815
13.404,-0.011028935634565628
13.408,-0.011024079444894724
13.412,-0.011027781688505215
13.416,-0.011028094215563243
13.42,-0.011023911161094248
13.424,-0.011023935201637173
13.428,-0.011020064674226206
13.432,-0.011018429917307289
13.436,-0.011020569525627636
13.44,-0.01102304570154894
13.444,-0.011025137228783436
13.448,-0.011026675823530653
13.452,-0.011024992985525886
13.456,-0.011024944904440035
13.46,-0.011031435851029855
13.464,-0.011033094648491698
13.468,-0.011032421513289791
13.472,-0.011041605000687241
13.476,-0.011055308110154642
13.48,-0.011041316514172138
13.484,-0.01102953664813876
13.488,-0.011028887553479777
13.492,-0.011029368364338283
13.496,-0.011024896823354184
13.5,-0.011020208917483757
13.504,-0.011017179809075175
13.508000000000001,-0.01101898284979457
13.512,-0.011018742444365317
13.516,-0.011019920430968654
13.52,-0.011022805296119686
13.524000000000001,-0.011025786323442418
13.528,-0.011027541283075962
13.532,-0.01102821441827787
13.536,-0.011028767350765151
13.540000000000001,-0.011029055837280255
13.544,-0.011035378500069599
13.548,-0.011052735772061638
13.552,-0.011052567488261162
13.556000000000001,-0.011043985014436843
13.56,-0.011031748378087883
13.564,-0.011025882485614119
13.568,-0.011017684660476606
13.572000000000001,-0.011014343025009993
13.576,-0.01101451130881047
13.58,-0.011015953741385986
13.584,-0.011019319417395522
13.588000000000001,-0.011019511741738925
13.592,-0.011016506673873267
13.596,-0.011014631511525097
13.6,-0.011006722172902685
13.604000000000001,-0.011005448024127645
13.608,-0.01101167452474529
13.612,-0.011018069309163409
13.616,-0.011023358228606967
13.620000000000001,-0.01103008958062604
13.624,-0.011038479730106958
13.628,-0.011045211082126031
13.632,-0.011040475095169755
13.636000000000001,-0.011026579661358952
13.64,-0.011023718836750846
13.644,-0.011028839472393926
13.648,-0.011027613404704739
13.652000000000001,-0.011033431216092652
13.656,-0.0110376623516475
13.66,-0.011031652215916184
13.664,-0.011023454390778668
13.668000000000001,-0.011018886687622869
13.672,-0.01101811739024926
13.676,-0.011019223255223821
13.68,-0.011021194579743694
13.684000000000001,-0.011022805296119686
13.688,-0.011021891755488527
13.692,-0.011019415579567223
13.696,-0.011026916228959906
13.700000000000001,-0.0110354746622413
13.704,-0.011041220352000438
13.708,-0.011042879149462281
13.712,-0.011043888852265142
13.716000000000001,-0.011044465825295348
13.72,-0.011038864378793763
13.724,-0.011046557352529846
13.728,-0.011033142729577549
13.732000000000001,-0.011011265835515559
13.736,-0.011009390673167389
13.74,-0.01101552101161333
13.744,-0.01101268422754815
13.748000000000001,-0.011006722172902685
13.752,-0.01101217937614672
13.756,-0.011016506673873267
13.76,-0.011019631944453552
13.764000000000001,-0.011023406309692818
13.768,-0.011025690161270717
13.772,-0.011026411377558476
13.776,-0.011026651782987729
13.780000000000001,-0.011021074377029066
13.784,-0.011025882485614119
13.788,-0.011041484797972616
13.792,-0.011051533744915375
13.796000000000001,-0.01104155691960139
13.8,-0.011026195012672149
13.804,-0.011021194579743694
13.808,-0.011022540850147509
13.812000000000001,-0.011026122891043372
13.816,-0.011019367498481373
13.82,-0.01100213042920396
13.824,-0.011004991253812066
13.828,-0.011008957943394734
13.832,-0.01100674621344561
13.836,-0.011008308848735751
13.84,-0.011012059173432093
13.844,-0.011010929267914606
13.848,-0.011020329120198383
13.852,-0.011031027161800126
13.856,-0.011036508405587085
13.86,-0.011037013256988517
13.864,-0.011032301310575164
13.868,-0.011029608769767536
13.872,-0.01102263701231921
13.876,-0.011006650051273908
13.88,-0.011001914064317633
13.884,-0.011001048604772322
13.888,-0.011005664389013974
13.892,-0.011006818335074386
13.896,-0.011009631078596642
13.9,-0.011009582997510791
13.904,-0.011010544619227802
13.908,-0.011010304213798549
13.912,-0.011010833105742905
13.916,-0.011018189511878036
13.92,-0.01102410348543765
13.924,-0.011030882918542574
13.928,-0.011033407175549728
13.932,-0.011029296242709506
13.936,-0.011029969377911415
13.94,-0.01104516300104018
13.944,-0.011044297541494871
13.948,-0.011018309714592662
13.952,-0.011008861781223032
13.956,-0.011007828037877247
13.96,-0.011008212686564052
13.964,-0.011006674091816835
13.968,-0.011008909862308883
13.972,-0.011016097984643538
13.976,-0.01101532868726993
13.98,-0.011008044402763574
13.984,-0.011008212686564052
13.988,-0.011012203416689645
13.992,-0.011017684660476606
13.996,-0.011023165904263565
14.0,-0.01102359863403622
14.004,-0.011029728972482162
14.008000000000001,-0.011039345189652267
14.012,-0.011045259163211881
14.016,-0.011048889285193597
14.02,-0.011037205581331918
14.024000000000001,-0.011024295809781053
14.028,-0.011016314349529864
14.032,-0.011011025430086308
14.036,-0.011007779956791397
14.040000000000001,-0.011007731875705546
14.044,-0.011012852511348627
14.048,-0.01101552101161333
14.052,-0.011012107254517943
14.056000000000001,-0.011008284808192827
14.06,-0.011014655552068021
14.064,-0.011018189511878036
14.068,-0.011014318984467067
14.072000000000001,-0.011011001389543381
14.076,-0.011022757215033836
14.08,-0.011029488567052909
14.084,-0.011025305512583914
14.088000000000001,-0.011020689728342263
14.092,-0.011012564024833523
14.096,-0.011010616740856578
14.1,-0.011028262499363721
14.104000000000001,-0.011026603701901878
14.108,-0.011017876984820006
14.112,-0.0110126361464623
14.116,-0.0110082607676499
14.120000000000001,-0.011002803564405868
14.124,-0.011000207185769939
14.128,-0.011001649618345453
14.132,-0.011007058740503638
14.136000000000001,-0.011011145632800933
14.14,-0.011011458159858961
14.144,-0.011006866416160237
14.148,-0.011005928834986151
14.152000000000001,-0.01100857329470793
14.156,-0.011008308848735751
14.16,-0.011007900159506022
14.164,-0.011010135929998072
14.168000000000001,-0.011013790092522712
14.172,-0.011009703200225417
14.176,-0.011002947807663418
14.18,-0.01100633752421588
14.184000000000001,-0.011012780389719852
14.188,-0.01101116967334386
14.192,-0.011012539984290599
14.196,-0.011007828037877247
14.200000000000001,-0.01100765975407677
14.204,-0.011008837740680108
14.208,-0.011006000956614926
14.212,-0.010997274239533056
14.216000000000001,-0.010992778658006032
14.22,-0.010992442090405079
14.224,-0.01099304310397821
14.228,-0.010994894225783456
14.232000000000001,-0.01099705787464673
14.236,-0.01099943788839633
14.24,-0.011002082348118109
14.244,-0.011001986185946408
14.248000000000001,-0.011003356496893149
14.252,-0.01101451130881047
14.256,-0.011019199214680897
14.26,-0.011015160403469452
14.264000000000001,-0.011009631078596642
14.268,-0.011005423983584721
14.272,-0.0110080684433065
14.276,-0.011003500740150699
14.280000000000001,-0.010993067144521135
14.284,-0.010995038469041006
14.288,-0.01099116794163004
14.292,-0.010992321887690452
14.296000000000001,-0.010995302915013185
14.3,-0.01099587988804339
14.304,-0.010997298280075982
14.308,-0.010998860915366124
14.312000000000001,-0.011001986185946408
14.316,-0.011004342159153083
14.32,-0.011009222389366913
14.324,-0.011016674957673743
14.328000000000001,-0.011020833971599815
14.332,-0.011017636579390755
14.336,-0.011016122025186462
14.34,-0.011005688429556898
14.344,-0.010988956211680915
14.348,-0.010985253968070425
14.352,-0.010986095387072809
14.356,-0.01098477315721192
14.36,-0.010984172143638789
14.364,-0.010984628913954369
14.368,-0.0109854222518709
14.372,-0.010987585900734176
14.376,-0.010991023698372487
14.38,-0.010993019063435285
14.384,-0.010993019063435285
14.388,-0.010991913198460723
14.392,-0.01098888409005214
14.396,-0.010990879455114936
14.4,-0.010997971415277889
14.404,-0.011000495672285041
14.408,-0.011001649618345453
14.412,-0.011001000523686473
14.416,-0.011004895091640364
14.42,-0.011006169240415404
14.424,-0.011006650051273908
14.428,-0.011006457726930506
14.432,-0.01100217851028981
14.436,-0.011001120726401099
14.44,-0.01099349987429379
14.444,-0.010987321454761997
14.448,-0.010984268305810488
14.452,-0.01098203253531844
14.456,-0.010981936373146739
14.46,-0.01097979676482639
14.464,-0.01098157576500286
14.468,-0.010989581265796973
14.472,-0.010991360265973442
14.476,-0.01099030248208473
14.48,-0.010991023698372487
14.484,-0.010991889157917798
14.488,-0.01099609625292972
14.492,-0.011003284375264372
14.496,-0.011007058740503638
14.5,-0.011009414713710315
14.504,-0.011001938104860557
14.508000000000001,-0.010995399077184886
14.512,-0.010994509577096651
14.516,-0.01100314013200682
14.52,-0.01100729914593289
14.524000000000001,-0.010997322320618907
14.528,-0.01099263441474848
14.532,-0.01098614346815866
14.536,-0.010983138400293002
14.540000000000001,-0.010981888292060888
14.544,-0.010980614143285848
14.548,-0.010975445426556915
14.552,-0.010972248034347855
14.556000000000001,-0.01097460400755453
14.56,-0.010983306684093478
14.564,-0.01098888409005214
14.568,-0.010991119860544189
14.572000000000001,-0.010995110590669783
14.576,-0.011002779523862942
14.58,-0.01100314013200682
14.584,-0.010999005158623676
14.588000000000001,-0.011005399943041795
14.592,-0.011018574160564839
14.596,-0.011014535349353396
14.6,-0.01099761080713401
14.604000000000001,-0.010987393576390773
14.608,-0.01098902833330969
14.612,-0.010987081049332745
14.616,-0.010985446292413827
14.620000000000001,-0.01098345092735103
14.624,-0.010983691332780283
14.628,-0.010979484237768362
14.632,-0.01097729654836216
14.636000000000001,-0.010977777359220666
14.64,-0.010977777359220666
14.644,-0.01097917171071033
14.648,-0.0109805660622
14.652000000000001,-0.010983018197578374
14.656,-0.010996985753017953
14.66,-0.011001457294002053
14.664,-0.010995663523157064
14.668000000000001,-0.0110012168885728
14.672,-0.0109943653338391
14.676,-0.01098126323794483
14.68,-0.01098258546780572
14.684000000000001,-0.010986215589787435
14.688,-0.01097506077787011
14.692,-0.010969651655711926
14.696,-0.010973738548009222
14.700000000000001,-0.010977056142932907
14.704,-0.010980325656770746
14.708,-0.010981503643374083
14.712,-0.010984268305810488
14.716000000000001,-0.010987585900734176
14.72,-0.010989220657653093
14.724,-0.01099811565853544
14.728,-0.011001601537259605
14.732000000000001,-0.01099071117131446
14.736,-0.010984292346353414
14.74,-0.010985590535671379
14.744,-0.010978811102566452
14.748000000000001,-0.01097729654836216
14.752,-0.01097496461569841
14.756,-0.01097044499362846
14.76,-0.01097308945335024
14.764000000000001,-0.010969555493540225
14.768,-0.01096729568250525
14.772,-0.01097176722348935
14.776,-0.01097720038619046
14.780000000000001,-0.01097921979179618
14.784,-0.010982248900204767
14.788,-0.010985975184358183
14.792,-0.010993716239180117
14.796000000000001,-0.010989917833397925
14.8,-0.010976887859132431
14.804,-0.010983619211151506
14.808,-0.010990158238827178
14.812000000000001,-0.010978378372793798
14.816,-0.010964819506583949
14.82,-0.010955852384072826
14.824,-0.010955924505701601
14.828000000000001,-0.01095760734370637
14.832,-0.010959867154741345
14.836,-0.010961598073831964
14.84,-0.01096633406078824
14.844000000000001,-0.010970469034171386
14.848,-0.010970084385484581
14.852,-0.01097140661534547
14.856,-0.010973065412807315
14.86,-0.010971238331544994
14.864,-0.010970589236886012
14.868,-0.010973401980408267
14.872,-0.010974315521039429
14.876,-0.010971695101860574
14.88,-0.01097455592646868
14.884,-0.010975084818413037
14.888,-0.010979147670167406
14.892,-0.010988739846794588
14.896,-0.01098614346815866
14.9,-0.010977897561935292
14.904,-0.010969387209739749
14.908,-0.010961453830574413
14.912,-0.010962030803604618
14.916,-0.010965997493187286
14.92,-0.010957487140991744
14.924,-0.010954938843441666
14.928,-0.010959410384425765
14.932,-0.01095638127601718
14.936,-0.010961333627859785
14.94,-0.010968665993451992
14.944,-0.010970084385484581
14.948,-0.010964506979525921
14.952,-0.010963304952379658
14.956,-0.01097070943960064
14.96,-0.010972416318148333
14.964,-0.0109648675876698
14.968,-0.010960636452114952
14.972,-0.010961694236003666
14.976,-0.01097268076412051
14.98,-0.010972969250635614
14.984,-0.010966766790560896
14.988,-0.010964026168667415
14.992,-0.010965516682328782
14.996,-0.010969146804310496
15.0,-0.01096902660159587
15.004,-0.010967463966305728
15.008000000000001,-0.010964266574096668
15.012,-0.010958929573567259
15.016,-0.010955251370499694
15.02,-0.010961429790031486
15.024000000000001,-0.010970108426027508
15.028,-0.01096806497987886
15.032,-0.010960492208857402
15.036,-0.010952679032406692
15.040000000000001,-0.010950875991687297
15.044,-0.010951861653947232
15.048,-0.010951813572861381
15.052,-0.010953135802722272
15.056000000000001,-0.010954890762355816
15.06,-0.010959722911483793
15.064,-0.010961021100801757
15.068,-0.010956285113845481
15.072000000000001,-0.010954602275840712
15.076,-0.01095217418100526
15.08,-0.010950491343000492
15.084,-0.010959049776281886
15.088000000000001,-0.010972608642491733
15.092,-0.010969723777340703
15.096,-0.010950515383543417
15.1,-0.010939312490540245
15.104000000000001,-0.010938543193166636
15.108,-0.010943110896322435
15.112,-0.010949169113139602
15.116,-0.010952414586434513
15.120000000000001,-0.010956621681446434
15.124,-0.010960131600713522
15.128,-0.010961093222430534
15.132,-0.010959698870940868
15.136000000000001,-0.01096130958731686
15.14,-0.01095989119528427
15.144,-0.010954722478555338
15.148,-0.0109534483297803
15.152000000000001,-0.010951501045803353
15.156,-0.010949529721283482
15.16,-0.010964795466041023
15.164,-0.010969603574626076
15.168000000000001,-0.010959698870940868
15.172,-0.010960588371029102
15.176,-0.010957270776105416
15.18,-0.010952053978290634
15.184000000000001,-0.010946164045273944
15.188,-0.010941019369087939
15.192,-0.010945659193872513
15.196,-0.010945563031700812
15.200000000000001,-0.01094344746392339
15.204,-0.010944433126183326
15.208,-0.010946524653417824
15.212,-0.01094664485613245
15.216000000000001,-0.01094806324816504
15.22,-0.010948399815765994
15.224,-0.010949145072596677
15.228,-0.010952246302634036
15.232000000000001,-0.010957799668049772
15.236,-0.010965588803957557
15.24,-0.010956934208504462
15.244,-0.01094496201812768
15.248000000000001,-0.010951597207975054
15.252,-0.010949553761826407
15.256,-0.010942798369264407
15.26,-0.010946933342647553
15.264000000000001,-0.010947005464276328
15.268,-0.01094710162644803
15.272,-0.010948544059023546
15.276,-0.010950563464629267
15.280000000000001,-0.010953280045979823
15.284,-0.010956261073302555
15.288,-0.010957318857191266
15.292,-0.010958424722165828
15.296000000000001,-0.010963665560523536
15.3,-0.010972392277605407
15.304,-0.010978378372793798
15.308,-0.01097308945335024
15.312000000000001,-0.01096222312794802
15.316,-0.010943207058494137
15.32,-0.010930537692372523
15.324,-0.010931811841147563
15.328000000000001,-0.01092892697599653
15.332,-0.010927196056905912
15.336,-0.010929263543597485
15.34,-0.010931331030289057
15.344000000000001,-0.010936307422674587
15.348,-0.010941235733974266
15.352,-0.010944096558582372
15.356,-0.010946356369617346
15.36,-0.010946620815589525
15.364,-0.010948087288707966
15.368,-0.010948231531965518
15.372,-0.010938014301222281
15.376,-0.010942221396234202
15.38,-0.010964819506583949
15.384,-0.010965228195813678
15.388,-0.010953664694666626
15.392,-0.010944072518039447
15.396,-0.010936932476790643
15.4,-0.010938254706651534
15.404,-0.010937749855250102
15.408,-0.010942894531436109
15.412,-0.010943591707180941
15.416,-0.010948664261738171
15.42,-0.010957871789678547
15.424,-0.010963232830750881
15.428,-0.010958785330309707
15.432,-0.010952606910777915
15.436,-0.010946524653417824
15.44,-0.010939913504113377
15.444,-0.010940201990628479
15.448,-0.010948135369793817
15.452,-0.010951837613404307
15.456,-0.010950563464629267
15.46,-0.010949505680740556
15.464,-0.010943591707180941
15.468,-0.01093750944982085
15.472,-0.010935009233356623
15.476,-0.010930802138344702
15.48,-0.010917844285707985
15.484,-0.010907122203563317
15.488,-0.010914719015127701
15.492,-0.01092887889491068
15.496,-0.010934864990099071
15.5,-0.010933662962952808
15.504,-0.010936067017245334
15.508000000000001,-0.010936836314618942
15.512,-0.010934889030641996
15.516,-0.01093568236855853
15.52,-0.010933783165667434
15.524000000000001,-0.010928325962423399
15.528,-0.010931403151917833
15.532,-0.010929960719342317
15.536,-0.010923974624153926
15.540000000000001,-0.010922916840265215
15.544,-0.010923373610580794
15.548,-0.010917748123536283
15.552,-0.010921907137462354
15.556000000000001,-0.010928518286766801
15.56,-0.010922099461805756
15.564,-0.010912050514862996
15.568,-0.010915103663814504
15.572000000000001,-0.010923061083522766
15.576,-0.01092741242179224
15.58,-0.01092471988098461
15.584,-0.010925080489128488
15.588000000000001,-0.010924864124242161
15.592,-0.0109238544214393
15.596,-0.010928446165138026
15.6,-0.010930417489657897
15.604000000000001,-0.01092791727319367
15.608,-0.010928085556994146
15.612,-0.010932004165490965
15.616,-0.010936788233533092
15.620000000000001,-0.010939192287825618
15.624,-0.010935153476614175
15.628,-0.010931859922233413
15.632,-0.010919575204798604
15.636000000000001,-0.010914286285355046
15.64,-0.010914334366440896
15.644,-0.010911569704004491
15.648,-0.010910728285002107
15.652000000000001,-0.01091152162291864
15.656,-0.010913060217665856
15.66,-0.010915151744900355
15.664,-0.010917026907248526
15.668000000000001,-0.010920104096742959
15.672,-0.010924671799898759
15.676,-0.010924647759355834
15.68,-0.010921955218548204
15.684000000000001,-0.01091380547449654
15.688,-0.010916642258561721
15.692,-0.010926330597360602
15.696,-0.010934071652182537
15.700000000000001,-0.010941428058317668
15.704,-0.010942822409807334
15.708,-0.010936740152447241
15.712,-0.010932701341235798
15.716000000000001,-0.010928229800251698
15.72,-0.010919623285884455
15.724,-0.010908997365911487
15.728,-0.010917676001907508
15.732000000000001,-0.010928133638079996
15.736,-0.010919142475025949
15.74,-0.010917339434306554
15.744,-0.01091330062309511
15.748000000000001,-0.010911088893145985
15.752,-0.010911209095860613
15.756,-0.010909958987628499
15.76,-0.010909093528083188
15.764000000000001,-0.010911569704004491
15.768,-0.010908372311795431
15.772,-0.010905295122300996
15.776,-0.010912098595948846
15.780000000000001,-0.010925296854014816
15.784,-0.010935345800957575
15.788,-0.010914743055670625
15.792,-0.010901352473261254
15.796000000000001,-0.010904958554700044
15.8,-0.010900487013715944
15.804,-0.010895318296987012
15.808,-0.010897578108021987
15.812000000000001,-0.010899765797428186
15.816,-0.010902722784207994
15.82,-0.010905896135874128
15.824,-0.010908155946909104
15.828000000000001,-0.010909213730797816
15.832,-0.010908973325368563
15.836,-0.010911185055317687
15.84,-0.010912915974408306
15.844000000000001,-0.010921738853661878
15.848,-0.01093248497634947
15.852,-0.010932292652006067
15.856,-0.010920272380543435
15.860000000000001,-0.010918301056023564
15.864,-0.01092435927284073
15.868,-0.010923830380896376
15.872,-0.010914694974584775
15.876,-0.010910848487716732
15.88,-0.010908179987452029
15.884,-0.010908612717224684
15.888,-0.010905799973702428
15.892,-0.010912867893322456
15.896,-0.010924215029583179
15.9,-0.010932244570920218
15.904,-0.010922916840265215
15.908,-0.010902674703122143
15.912,-0.010897001134991782
15.916,-0.010900366811001318
15.92,-0.010900727419145197
15.924,-0.01089827528376682
15.928,-0.010894428796898777
15.932,-0.01090142459489003
15.936,-0.0109192867182835
15.94,-0.010921859056376503
15.944,-0.010914454569155522
15.948,-0.010911545663461565
15.952,-0.010908805041568086
15.956,-0.010904237338412285
15.96,-0.010897001134991782
15.964,-0.010895101932100686
15.968,-0.01089904458114043
15.972,-0.010901592878690507
15.976,-0.010903419959952827
15.98,-0.01090248237877874
15.984,-0.010904069054611809
15.988,-0.010908925244282712
15.992,-0.010908468473967132
15.996,-0.010906641392704811
16.0,-0.010897121337706407
16.004,-0.010898804175711176
16.008,-0.010912459204092725
16.012,-0.010913997798839942
16.016000000000002,-0.010915103663814504
16.02,-0.010911858190519593
16.024,-0.010909886865999722
16.028,-0.010914093961011643
16.032,-0.010913589109610213
16.036,-0.010908660798310535
16.04,-0.010899837919056962
16.044,-0.010886423296104666
16.048000000000002,-0.010889933215371754
16.052,-0.010892866161608636
16.056,-0.010893178688666665
16.06,-0.010894188391469526
16.064,-0.01089466920232803
16.068,-0.010895029810471909
16.072,-0.010896760729562529
16.076,-0.010899741756885262
16.080000000000002,-0.010906569271076036
16.084,-0.010910055149800198
16.088,-0.010914142042097494
16.092,-0.010916473974761245
16.096,-0.010919430961541052
16.1,-0.010917219231591929
16.104,-0.010906737554876512
16.108,-0.010895101932100686
16.112000000000002,-0.010886663701533917
16.116,-0.01088137478209036
16.12,-0.010885293390587178
16.124,-0.010892193026406729
16.128,-0.01089685689173423
16.132,-0.010904237338412285
