0.0,-4.777336690108382E-4
0.004,-4.847054264591646E-4
0.008,-4.8434481831528565E-4
0.012,-4.893452512437405E-4
0.016,-4.967978195505721E-4
0.02,-4.932157786547079E-4
0.024,-4.849939129742677E-4
0.028,-4.7593062829144335E-4
0.032,-4.77349020324034E-4
0.036000000000000004,-4.738150605140202E-4
0.04,-4.7573830394804123E-4
0.044,-4.7600274992021913E-4
0.048,-4.766999256650518E-4
0.052000000000000005,-4.716754521936718E-4
0.056,-4.5535192354741774E-4
0.06,-4.4787531469766076E-4
0.064,-4.581406265267483E-4
0.068,-4.6028023484709677E-4
0.07200000000000001,-4.687425059567895E-4
0.076,-4.955717518613838E-4
0.08,-5.028079552818881E-4
0.084,-4.929753732254553E-4
0.088,-4.831187506260972E-4
0.092,-4.8042620981846767E-4
0.096,-4.7645952023579914E-4
0.1,-4.736948577993939E-4
0.10400000000000001,-4.689348303001916E-4
0.108,-4.6912715464359373E-4
0.112,-4.719158576229244E-4
0.116,-4.786952907278487E-4
0.12,-4.6405460008636313E-4
0.124,-4.436922602286649E-4
0.128,-4.389322327294627E-4
0.132,-4.587656806428052E-4
0.136,-4.8287834519684453E-4
0.14,-4.838640074567804E-4
0.14400000000000002,-4.8145995316425396E-4
0.148,-4.882874673550288E-4
0.152,-4.8458522374453825E-4
0.156,-4.6371803248540944E-4
0.16,-4.6042447810464834E-4
0.164,-4.793924664726813E-4
0.168,-4.7242070902435494E-4
0.17200000000000001,-4.692954384440706E-4
0.176,-4.589099239003568E-4
0.18,-4.5470282888843567E-4
0.184,-4.647517758311958E-4
0.188,-4.635978297707831E-4
0.192,-4.507120987628418E-4
0.196,-4.668913841515443E-4
0.2,-4.689348303001916E-4
0.20400000000000001,-4.5705880209511145E-4
0.20800000000000002,-4.4910138238684916E-4
0.212,-4.711225197063907E-4
0.216,-5.01702090307326E-4
0.22,-4.89128886357413E-4
0.224,-4.5991962670321784E-4
0.228,-4.4864461207126915E-4
0.232,-4.632131810839789E-4
0.23600000000000002,-4.768682094655286E-4
0.24,-4.627083296825484E-4
0.244,-4.51000585277945E-4
0.248,-4.7672396620797704E-4
0.252,-4.799934800458129E-4
0.256,-4.7638739860702336E-4
0.26,-4.8073873687649605E-4
0.264,-4.762912364353223E-4
0.268,-4.740554659432728E-4
0.272,-4.6970412767380007E-4
0.276,-4.672519922954232E-4
0.28,-4.6730007338127374E-4
0.28400000000000003,-4.7287747933993495E-4
0.28800000000000003,-4.5451050454503356E-4
0.292,-4.453750982334333E-4
0.296,-4.617226674226126E-4
0.3,-4.6330934325568E-4
0.304,-4.654008704901779E-4
0.308,-4.6994453310305267E-4
0.312,-4.653047083184769E-4
0.316,-4.579723427262715E-4
0.32,-4.625400458820715E-4
0.324,-4.557846533200725E-4
0.328,-4.5607313983517565E-4
0.332,-4.544143423733325E-4
0.336,-4.502072473614113E-4
0.34,-4.562414236356525E-4
0.34400000000000003,-4.505678555052902E-4
0.34800000000000003,-4.295323804456846E-4
0.352,-4.2938813718813304E-4
0.356,-4.7242070902435494E-4
0.36,-4.7278131716823387E-4
0.364,-4.734063712842907E-4
0.368,-4.881672646404025E-4
0.372,-4.808108585052719E-4
0.376,-4.76988412180155E-4
0.38,-4.663624922071885E-4
0.384,-4.5475090997428616E-4
0.388,-4.652806677755516E-4
0.392,-4.685742221563127E-4
0.396,-4.719879792517002E-4
0.4,-4.65040262346299E-4
0.404,-4.469377335235755E-4
0.40800000000000003,-4.3549443509115004E-4
0.41200000000000003,-4.3383563762930676E-4
0.41600000000000004,-4.1467532491787167E-4
0.42,-4.32032596909912E-4
0.424,-4.650162218033737E-4
0.428,-4.840322912572572E-4
0.432,-4.728053577111591E-4
0.436,-4.5660203177953144E-4
0.44,-4.516977610227776E-4
0.444,-4.470098551523513E-4
0.448,-4.59751342902741E-4
0.452,-4.749930471173581E-4
0.456,-4.6859826269923793E-4
0.46,-4.658336002628327E-4
0.464,-4.617226674226126E-4
0.468,-4.484522877278671E-4
0.47200000000000003,-4.4900522021514813E-4
0.47600000000000003,-4.5477495051721146E-4
0.48,-4.54919193774763E-4
0.484,-4.515054366793755E-4
0.488,-4.5201028808080604E-4
0.492,-4.4535105769050805E-4
0.496,-4.386437462143595E-4
0.5,-4.3561463780577637E-4
0.504,-4.4083143562055854E-4
0.508,-4.4912542292977446E-4
0.512,-4.455674225768354E-4
0.516,-4.562173830927272E-4
0.52,-4.6090528896315365E-4
0.524,-4.5679435612293356E-4
0.528,-4.7136292513564335E-4
0.532,-4.699204925601274E-4
0.536,-4.5333251794169564E-4
0.54,-4.45711665834387E-4
0.544,-4.4794743632643654E-4
0.548,-4.5643374797905463E-4
0.552,-4.573713291531399E-4
0.556,-4.566260723224567E-4
0.56,-4.601600321324705E-4
0.5640000000000001,-4.575396129536167E-4
0.5680000000000001,-4.511207879925713E-4
0.5720000000000001,-4.484522877278671E-4
0.5760000000000001,-4.465050037509207E-4
0.58,-4.3522998911897214E-4
0.584,-4.2467619077478136E-4
0.588,-4.4136032756491434E-4
0.592,-4.528997881690409E-4
0.596,-4.478512741547355E-4
0.6,-4.3955728684551954E-4
0.604,-4.5667415340830723E-4
0.608,-4.5984750507444206E-4
0.612,-4.476589498113334E-4
0.616,-4.348693809750932E-4
0.62,-4.498466392175323E-4
0.624,-4.574194102389904E-4
0.628,-4.435480169711133E-4
0.632,-4.4109588159273644E-4
0.636,-4.509765447350197E-4
0.64,-4.666269381793664E-4
0.644,-4.6641057329303897E-4
0.648,-4.596792212739652E-4
0.652,-4.5792426164042093E-4
0.656,-4.5061593659114077E-4
0.66,-4.467934902660239E-4
0.664,-4.440047872866933E-4
0.668,-4.4383650348621645E-4
0.672,-4.4965431487413026E-4
0.676,-4.527555449114893E-4
0.68,-4.4874077424297024E-4
0.684,-4.417209357087933E-4
0.6880000000000001,-4.3265765102596884E-4
0.6920000000000001,-4.2159900128034767E-4
0.6960000000000001,-4.1936323078829816E-4
0.7000000000000001,-4.466732875513976E-4
0.704,-4.515294772223008E-4
0.708,-4.559529371205493E-4
0.712,-4.505918960482155E-4
0.716,-4.355905972628511E-4
0.72,-4.4109588159273644E-4
0.724,-4.430912466555333E-4
0.728,-4.3667242169448796E-4
0.732,-4.4025446259035226E-4
0.736,-4.554480857191188E-4
0.74,-4.5640970743612933E-4
0.744,-4.4898117967222284E-4
0.748,-4.4121608430736277E-4
0.752,-4.4628863886459337E-4
0.756,-4.451106522612554E-4
0.76,-4.3443665120243845E-4
0.764,-4.327057321118194E-4
0.768,-4.2256062299735823E-4
0.772,-4.14891689804199E-4
0.776,-4.4508661171833015E-4
0.78,-4.5225069351005864E-4
0.784,-4.4821188229861444E-4
0.788,-4.4181709788049435E-4
0.792,-4.33402907856652E-4
0.796,-4.396294084742953E-4
0.8,-4.381148542700037E-4
0.804,-4.407112329059322E-4
0.808,-4.492937067302513E-4
0.812,-4.428268006833554E-4
0.8160000000000001,-4.336192727429794E-4
0.8200000000000001,-4.289073263296278E-4
0.8240000000000001,-4.332586645991004E-4
0.8280000000000001,-4.356386783487016E-4
0.8320000000000001,-4.3568675943455215E-4
0.836,-4.5886184281450625E-4
0.84,-4.477310714401092E-4
0.844,-4.377542461261248E-4
0.848,-4.355425161770006E-4
0.852,-4.390043543582385E-4
0.856,-4.420334627668217E-4
0.86,-4.4585590909193855E-4
0.864,-4.3895627327238796E-4
0.868,-4.289073263296278E-4
0.872,-4.2621478552199826E-4
0.876,-4.2075758227796343E-4
0.88,-4.270081234385319E-4
0.884,-4.359752459496553E-4
0.888,-4.3503766477557003E-4
0.892,-4.320085563669867E-4
0.896,-4.33859678172232E-4
0.9,-4.306142048773215E-4
0.904,-4.075352836690684E-4
0.908,-4.2193556888130135E-4
0.912,-4.20445055219935E-4
0.916,-4.4138436810783963E-4
0.92,-4.565779912366062E-4
0.924,-4.4311528719845854E-4
0.928,-4.305420832485457E-4
0.932,-4.167187710665192E-4
0.936,-4.2241637973980666E-4
0.9400000000000001,-4.4436539543057224E-4
0.9440000000000001,-4.4419711163009543E-4
0.9480000000000001,-4.3397988088685844E-4
0.9520000000000001,-4.2159900128034767E-4
0.9560000000000001,-4.2592629900689506E-4
0.96,-4.2833035329942144E-4
0.964,-4.3412412414441006E-4
0.968,-4.337394754576057E-4
0.972,-4.3419624577318585E-4
0.976,-4.309748130212004E-4
0.98,-4.1890646047271815E-4
0.984,-4.2167112290912345E-4
0.988,-4.342202863161111E-4
0.992,-4.393649625021174E-4
0.996,-4.261426638932224E-4
1.0,-4.1395410863011376E-4
1.004,-4.1883433884394236E-4
1.008,-4.3503766477557003E-4
1.012,-4.493417878161018E-4
1.016,-4.427546790545796E-4
1.02,-4.3083056976364885E-4
1.024,-4.292198533876562E-4
1.028,-4.296285426173857E-4
1.032,-4.365281784369364E-4
1.036,-4.326095699401183E-4
1.04,-4.335952322000541E-4
1.044,-4.380186920983027E-4
1.048,-4.3883607055776163E-4
1.052,-4.3470109717461635E-4
1.056,-4.2424346100212665E-4
1.06,-4.209739471642908E-4
1.064,-4.0835266212852736E-4
1.068,-4.2119031205061814E-4
1.072,-4.2580609629226874E-4
1.076,-4.2513296109036137E-4
1.08,-4.4636076049336915E-4
1.084,-4.5458262617380934E-4
1.088,-4.462165172358176E-4
1.092,-4.490533013009987E-4
1.096,-4.446538819456754E-4
1.1,-4.423700303677754E-4
1.104,-4.39869813903548E-4
1.108,-4.3179219148065936E-4
1.112,-4.243877042596782E-4
1.116,-4.2328183928511614E-4
1.12,-4.244838664313793E-4
1.124,-4.237626501436214E-4
1.1280000000000001,-4.2256062299735823E-4
1.1320000000000001,-4.1609371695046235E-4
1.1360000000000001,-4.0178959390993046E-4
1.1400000000000001,-4.036887968010263E-4
1.1440000000000001,-3.9320712008561134E-4
1.1480000000000001,-4.126318787692243E-4
1.1520000000000001,-4.5326039631291985E-4
1.156,-4.53909490971902E-4
1.16,-4.365762595227869E-4
1.164,-4.276091370116635E-4
1.168,-4.251810421762119E-4
1.172,-4.1996424436142974E-4
1.176,-4.2724852886778455E-4
1.18,-4.36768583866189E-4
1.184,-4.3400392142978374E-4
1.188,-4.265032720371014E-4
1.192,-4.154686628344055E-4
1.196,-4.148676492612738E-4
1.2,-4.17800595498156E-4
1.204,-4.1907474427319496E-4
1.208,-4.1405027080181485E-4
1.212,-4.1614179803631284E-4
1.216,-4.217913256237498E-4
1.22,-4.305901643343962E-4
1.224,-4.2852267764282356E-4
1.228,-4.269600423526814E-4
1.232,-4.2352224471436874E-4
1.236,-4.2022869033360764E-4
1.24,-4.1280016256970114E-4
1.244,-4.139300680871885E-4
1.248,-4.1695917649577183E-4
1.252,-4.128482436555517E-4
1.256,-4.113577299941853E-4
1.26,-4.1316077071358007E-4
1.264,-4.068140673813105E-4
1.268,-4.0027503970563885E-4
1.272,-4.134011761428327E-4
1.276,-4.1695917649577183E-4
1.28,-4.0871327027240634E-4
1.284,-4.057803240355242E-4
1.288,-3.961641068654187E-4
1.292,-4.027752561698662E-4
1.296,-4.131367301706548E-4
1.3,-4.1688705486699605E-4
1.304,-4.0621305380817894E-4
1.308,-3.947457148328282E-4
1.312,-3.939523769162945E-4
1.316,-4.0926620275968744E-4
1.32,-4.317441103948089E-4
1.324,-4.1784867658400655E-4
1.328,-3.913800388232913E-4
1.332,-4.100835812191464E-4
1.336,-4.35855043235029E-4
1.34,-4.216470823661982E-4
1.344,-4.151561357763769E-4
1.348,-4.2575801520641825E-4
1.352,-4.243396231738277E-4
1.356,-4.19988284904355E-4
1.36,-4.130886490848043E-4
1.364,-4.11598135423438E-4
1.368,-4.17343825182576E-4
1.372,-4.1467532491787167E-4
1.3760000000000001,-4.031839453995958E-4
1.3800000000000001,-4.0150110739482726E-4
1.3840000000000001,-4.057803240355242E-4
1.3880000000000001,-4.0693427009593684E-4
1.3920000000000001,-4.058524456643E-4
1.3960000000000001,-4.005875667636673E-4
1.4000000000000001,-3.860911193797333E-4
1.4040000000000001,-4.011885803367989E-4
1.408,-4.3162390768018255E-4
1.412,-4.329942186269225E-4
1.416,-4.2075758227796343E-4
1.42,-4.2840247492819723E-4
1.424,-4.3063824542024674E-4
1.428,-4.242194204592014E-4
1.432,-4.1979596056095287E-4
1.436,-4.2284910951246137E-4
1.44,-4.2462810968893087E-4
1.444,-4.2609458280737193E-4
1.448,-4.1669473052359393E-4
1.452,-4.041455671166063E-4
1.456,-4.040974860307558E-4
1.46,-4.034964724576242E-4
1.464,-3.9904897201645045E-4
1.468,-3.980873502994399E-4
1.472,-3.996980666754325E-4
1.476,-3.9647663392344715E-4
1.48,-3.9638047175174606E-4
1.484,-3.9895280984474936E-4
1.488,-4.3056612379147095E-4
1.492,-4.2592629900689506E-4
1.496,-4.1474744654664746E-4
1.5,-4.09314283845538E-4
1.504,-3.988806882159736E-4
1.508,-4.074391214973674E-4
1.512,-4.011164587080231E-4
1.516,-4.018857560816315E-4
1.52,-4.27200447781934E-4
1.524,-4.2352224471436874E-4
1.528,-4.1102116239323164E-4
1.532,-4.0727083769689053E-4
1.536,-4.08040135070499E-4
1.54,-4.0811225669927476E-4
1.544,-4.0231848585428625E-4
1.548,-3.981354313852904E-4
1.552,-3.970536069536536E-4
1.556,-3.9957786396080624E-4
1.56,-4.046744590609621E-4
1.564,-4.0186171553870624E-4
1.568,-3.996980666754325E-4
1.572,-4.0489082394728945E-4
1.576,-4.0140494522312623E-4
1.58,-4.0202999933918306E-4
1.584,-3.915002415379176E-4
1.588,-3.858266734075554E-4
1.592,-3.962602690371198E-4
1.596,-4.1616583857923814E-4
1.6,-4.3804273264122794E-4
1.604,-4.2799378569846776E-4
1.608,-4.200363659902055E-4
1.612,-4.1570906826365813E-4
1.616,-4.0503506720484107E-4
1.62,-4.042657698312326E-4
1.624,-4.0198191825333257E-4
1.6280000000000001,-3.967651204385503E-4
1.6320000000000001,-4.0236656694013674E-4
1.6360000000000001,-4.0034716133441464E-4
1.6400000000000001,-3.981354313852904E-4
1.6440000000000001,-3.973180529258315E-4
1.6480000000000001,-3.959717825220166E-4
1.6520000000000001,-4.0710255389641366E-4
1.6560000000000001,-4.208297039067392E-4
1.6600000000000001,-4.061168916364779E-4
1.6640000000000001,-3.9383217420166817E-4
1.668,-3.8734122761184704E-4
1.672,-3.8613920046558383E-4
1.676,-4.1061247316350217E-4
1.68,-4.3667242169448796E-4
1.684,-4.2628690715077405E-4
1.688,-4.074872025832179E-4
1.692,-4.089296351587337E-4
1.696,-4.0537163480579475E-4
1.7,-3.9948170178910516E-4
1.704,-3.95731377092764E-4
1.708,-3.9123579556573973E-4
1.712,-3.922454983686008E-4
1.716,-4.0087605327877044E-4
1.72,-4.019097966245568E-4
1.724,-3.953948094918103E-4
1.728,-3.864036464377618E-4
1.732,-3.924618632549282E-4
1.736,-4.1510805469052644E-4
1.74,-4.021982831396599E-4
1.744,-4.012126208797241E-4
1.748,-4.1157409488051273E-4
1.752,-4.190026226444192E-4
1.756,-4.205652579345613E-4
1.76,-4.2265678516905926E-4
1.764,-4.24003055572874E-4
1.768,-4.1032398664839903E-4
1.772,-4.047706212326632E-4
1.776,-3.976305799838599E-4
1.78,-3.974382556404578E-4
1.784,-3.966929988097745E-4
1.788,-4.0522739154824313E-4
1.792,-4.0493890503314E-4
1.796,-3.997942288471336E-4
1.8,-3.864998086094628E-4
1.804,-3.9128387665159027E-4
1.808,-4.0176555336700516E-4
1.812,-3.884711331293344E-4
1.816,-3.742872128034289E-4
1.82,-3.868604167533418E-4
1.824,-4.1503593306175065E-4
1.828,-4.462165172358176E-4
1.832,-4.4898117967222284E-4
1.836,-4.227048662549098E-4
1.84,-4.0428981037415787E-4
1.844,-3.994095801603294E-4
1.848,-4.1015570284792216E-4
1.852,-4.178967576698571E-4
1.856,-4.116221759663632E-4
1.86,-4.100355001332959E-4
1.864,-4.1181450030976533E-4
1.868,-4.118866219385411E-4
1.872,-4.093383243884632E-4
1.8760000000000001,-4.075352836690684E-4
1.8800000000000001,-4.173678657255013E-4
1.8840000000000001,-4.184256496142129E-4
1.8880000000000001,-4.088334729870326E-4
1.8920000000000001,-4.0457829688926106E-4
1.8960000000000001,-4.0515526991946734E-4
1.9000000000000001,-3.9436106614602396E-4
1.9040000000000001,-3.8674021403871546E-4
1.9080000000000001,-3.9618814740834395E-4
1.9120000000000001,-3.8993760624777554E-4
1.9160000000000001,-4.1087691913568007E-4
1.92,-4.084728648431537E-4
1.924,-3.963323906658956E-4
1.928,-3.952986473201092E-4
1.932,-4.237386096006961E-4
1.936,-4.2352224471436874E-4
1.94,-4.100355001332959E-4
1.944,-4.026069723693894E-4
1.948,-4.146512843749464E-4
1.952,-4.096748919894169E-4
1.956,-3.9683724206732607E-4
1.96,-3.924378227120029E-4
1.964,-3.914762009949924E-4
1.968,-3.923657010832271E-4
1.972,-3.917406469671703E-4
1.976,-3.820282676253638E-4
1.98,-3.72652455884511E-4
1.984,-3.7183507742505204E-4
1.988,-3.938081336587429E-4
1.992,-4.292198533876562E-4
1.996,-4.3438857011658796E-4
2.0,-4.236184068860698E-4
2.004,-4.311911779075278E-4
2.008,-4.314556238797057E-4
2.012,-4.2626286660784875E-4
2.016,-4.1280016256970114E-4
2.02,-3.863796058948365E-4
2.024,-3.764508616667026E-4
2.028,-3.739506452024752E-4
2.032,-3.8094644319372695E-4
2.036,-3.8558626797830273E-4
2.04,-3.851054571197975E-4
2.044,-3.937600525728924E-4
2.048,-3.90346295477505E-4
2.052,-3.8409575431693643E-4
2.056,-3.8587475449340593E-4
2.06,-3.916444847954692E-4
2.064,-4.1239147333997167E-4
2.068,-4.179688792986329E-4
2.072,-4.125597571404485E-4
2.076,-4.102999461054738E-4
2.08,-4.0510718883361686E-4
2.084,-4.0282333725571675E-4
2.088,-4.0457829688926106E-4
2.092,-4.039772833161295E-4
2.096,-4.017415128240799E-4
2.1,-4.007077694782936E-4
2.104,-3.9962594504665673E-4
2.108,-3.9787098541311253E-4
2.112,-4.026069723693894E-4
2.116,-4.0537163480579475E-4
2.12,-3.936158093153408E-4
2.124,-4.0212616151088414E-4
2.128,-4.134011761428327E-4
2.132,-4.186900955863908E-4
2.136,-4.184737307000634E-4
2.14,-4.2583013683519403E-4
2.144,-4.158533115212097E-4
2.148,-3.948659175474545E-4
2.152,-3.8767779521280073E-4
2.156,-4.057803240355242E-4
2.16,-4.1731978463965076E-4
2.164,-4.11598135423438E-4
2.168,-4.069583106388621E-4
2.172,-4.059245672930758E-4
2.176,-4.077997296412463E-4
2.18,-4.111894461937085E-4
2.184,-4.139300680871885E-4
2.188,-4.135454194003843E-4
2.192,-4.074391214973674E-4
2.196,-4.024386885689125E-4
2.2,-3.9363984985826605E-4
2.204,-3.7878279433045317E-4
2.208,-4.1609371695046235E-4
2.212,-4.4525489551880697E-4
2.216,-4.074391214973674E-4
2.22,-3.983998773574683E-4
2.224,-4.073429593256663E-4
2.228,-4.2176728508082454E-4
2.232,-4.233299203709666E-4
2.236,-4.200363659902055E-4
2.24,-4.1570906826365813E-4
2.244,-4.142666356881422E-4
2.248,-4.12151067910719E-4
2.2520000000000002,-4.1804100092740867E-4
2.2560000000000002,-4.2152687965157183E-4
2.2600000000000002,-4.2099798770721603E-4
2.2640000000000002,-4.224404202827319E-4
2.2680000000000002,-4.0457829688926106E-4
2.2720000000000002,-3.93086917370985E-4
2.2760000000000002,-3.880143628137544E-4
2.2800000000000002,-3.782779429290227E-4
2.2840000000000003,-4.1450704111739486E-4
2.2880000000000003,-4.4628863886459337E-4
2.2920000000000003,-4.176323116976792E-4
2.2960000000000003,-4.084728648431537E-4
2.3000000000000003,-4.153244195768538E-4
2.3040000000000003,-4.1058843262057693E-4
2.308,-3.98640282786721E-4
2.312,-3.915002415379176E-4
2.316,-4.113577299941853E-4
2.32,-4.1102116239323164E-4
2.324,-4.037368778868768E-4
2.328,-3.9974614776128306E-4
2.332,-4.0438597254585895E-4
2.336,-4.0926620275968744E-4
2.34,-3.93086917370985E-4
2.344,-3.831100920570006E-4
2.348,-3.7743652392663844E-4
2.352,-3.9936149907447883E-4
2.356,-4.2873904252915097E-4
2.36,-4.2318567711341506E-4
2.364,-4.1068459479227796E-4
2.368,-4.061649727223284E-4
2.372,-4.0758336475491897E-4
2.376,-4.0332818865714736E-4
2.38,-3.988806882159736E-4
2.384,-4.024146480259873E-4
2.388,-4.046023374321863E-4
2.392,-4.042176887453821E-4
2.396,-3.983037151857673E-4
2.4,-4.0525143209116843E-4
2.404,-4.0522739154824313E-4
2.408,-3.9924129635985256E-4
2.412,-3.939523769162945E-4
2.416,-3.9207721456812396E-4
2.42,-3.9195701185349764E-4
2.424,-3.973180529258315E-4
2.428,-4.053235537199442E-4
2.432,-4.0746316204029264E-4
2.436,-4.0861710810070526E-4
2.44,-3.952024851484082E-4
2.444,-3.925099443407787E-4
2.448,-4.0193383716748203E-4
2.452,-4.1051631099180114E-4
2.456,-4.053235537199442E-4
2.46,-4.023425263972115E-4
2.464,-4.034483913717737E-4
2.468,-3.98640282786721E-4
2.472,-4.0640537815158105E-4
2.476,-4.1183854085269063E-4
2.48,-4.075112431261432E-4
2.484,-4.0229444531136095E-4
2.488,-4.039772833161295E-4
2.492,-3.966929988097745E-4
2.496,-3.8527374092027435E-4
2.5,-3.856583896070785E-4
2.504,-3.884711331293344E-4
2.508,-3.9479379591867873E-4
2.512,-3.8806244389960495E-4
2.516,-3.697195096476288E-4
2.52,-3.721716450260057E-4
2.524,-3.914040793662166E-4
2.528,-4.004192829631904E-4
2.532,-4.0224636422551047E-4
2.536,-4.035445535434747E-4
2.54,-3.951063229767071E-4
2.544,-3.888077007302881E-4
2.548,-4.039051616873537E-4
2.552,-4.051312293765421E-4
2.556,-3.961641068654187E-4
2.56,-3.977748232414115E-4
2.564,-4.0549183752042103E-4
2.568,-4.0633325652280526E-4
2.572,-3.8779799792742705E-4
2.576,-3.617620899393666E-4
2.58,-3.617140088535161E-4
2.584,-3.8210038925413957E-4
2.588,-3.902741738487292E-4
2.592,-3.944091472318745E-4
2.596,-3.9779886378433674E-4
2.6,-4.024627291118378E-4
2.604,-4.127040003980001E-4
2.608,-4.0020291807686307E-4
2.612,-4.001788775339378E-4
2.616,-4.0222232368258517E-4
2.62,-4.0229444531136095E-4
2.624,-4.016934317382294E-4
2.628,-4.016934317382294E-4
2.632,-4.0498698611899053E-4
2.636,-4.0404940494490527E-4
2.64,-3.917646875100955E-4
2.644,-3.817638216531859E-4
2.648,-3.954428905776608E-4
2.652,-3.944812688606503E-4
2.656,-3.834707002008796E-4
2.66,-3.9628430958004503E-4
2.664,-4.004914045919662E-4
2.668,-3.843361597461891E-4
2.672,-3.863074842660607E-4
2.676,-3.963564312088208E-4
2.68,-3.836149434584312E-4
2.684,-3.6863768521599197E-4
2.688,-3.848890922334701E-4
2.692,-4.149878519759001E-4
2.696,-4.1929110915952237E-4
2.7,-4.0606881055062737E-4
2.704,-3.9989039101883463E-4
2.708,-3.9128387665159027E-4
2.712,-3.8366302454428166E-4
2.716,-3.897212413614482E-4
2.72,-3.918368091388713E-4
2.724,-3.907549847072345E-4
2.728,-3.869565789250428E-4
2.732,-3.8342261911502906E-4
2.736,-3.836149434584312E-4
2.74,-3.846246462612922E-4
2.744,-3.7628257786622576E-4
2.748,-3.574828732986696E-4
2.7520000000000002,-3.586608599020076E-4
2.7560000000000002,-3.864998086094628E-4
2.7600000000000002,-4.170072575816223E-4
2.7640000000000002,-4.361916108359827E-4
2.7680000000000002,-4.1707937921039816E-4
2.7720000000000002,-3.831100920570006E-4
2.7760000000000002,-3.807781593932501E-4
2.7800000000000002,-3.928945930275829E-4
2.7840000000000003,-3.832543353145522E-4
2.7880000000000003,-3.7940784844651005E-4
2.7920000000000003,-3.86427686980687E-4
2.7960000000000003,-3.9452934994650083E-4
2.8000000000000003,-3.8866345747273653E-4
2.8040000000000003,-3.815955378527091E-4
2.8080000000000003,-3.7873471324460263E-4
2.8120000000000003,-3.7601813189404787E-4
2.816,-3.779173347851437E-4
2.82,-3.757777264647952E-4
2.824,-3.689502122740204E-4
2.828,-3.556077109504991E-4
2.832,-3.679645500140846E-4
2.836,-4.0359263462932525E-4
2.84,-4.126318787692243E-4
2.844,-4.067179052096095E-4
2.848,-3.9852008007209465E-4
2.852,-4.005875667636673E-4
2.856,-4.0392920223027894E-4
2.86,-3.9746229618338306E-4
2.864,-4.0114049925094833E-4
2.868,-3.959958230649419E-4
2.872,-3.8383130834475853E-4
2.876,-3.736381181444468E-4
2.88,-3.7839814564364895E-4
2.884,-3.859228355792564E-4
2.888,-3.90250133305804E-4
2.892,-3.838553488876838E-4
2.896,-3.771961184973858E-4
2.9,-3.8145129459515745E-4
2.904,-3.7835006455779846E-4
2.908,-3.850333354910217E-4
2.912,-3.9241378216907765E-4
2.916,-4.059245672930758E-4
2.92,-4.169832170386971E-4
2.924,-4.0258293182646415E-4
2.928,-4.0323202648544633E-4
2.932,-4.0282333725571675E-4
2.936,-3.9181276859594607E-4
2.94,-3.68733847387693E-4
2.944,-3.802011863630438E-4
2.948,-4.065736619520579E-4
2.952,-4.024146480259873E-4
2.956,-3.942168228884724E-4
2.96,-3.862594031802102E-4
2.964,-3.82869686627748E-4
2.968,-3.831100920570006E-4
2.972,-3.8190806491073746E-4
2.976,-3.8570647069292906E-4
2.98,-3.915002415379176E-4
2.984,-3.86427686980687E-4
2.988,-3.807781593932501E-4
2.992,-3.807300783073996E-4
2.996,-3.8662001132408914E-4
3.0,-3.9707764749657884E-4
3.004,-4.0945852710308955E-4
3.008,-4.133050139711317E-4
3.012,-3.98736444958422E-4
3.016,-3.8409575431693643E-4
3.02,-3.922935794544513E-4
3.024,-3.994095801603294E-4
3.028,-3.9690936369610186E-4
3.032,-4.0340031028592314E-4
3.036,-3.915964037096187E-4
3.04,-3.710898205943689E-4
3.044,-3.6779626621360773E-4
3.048,-3.9046649819213133E-4
3.052,-3.9671703935269975E-4
3.056,-3.837351461730575E-4
3.06,-3.826533217414206E-4
3.064,-3.833745380291785E-4
3.068,-3.7815774021439635E-4
3.072,-3.7221972611185627E-4
3.076,-3.717148747104257E-4
3.08,-3.8585071395048063E-4
3.084,-3.9938553961740413E-4
3.088,-3.8926447104586817E-4
3.092,-3.8491313277639537E-4
3.096,-3.720754828543047E-4
3.1,-3.5844449501568017E-4
3.104,-3.6844536087258985E-4
3.108,-3.9214933619689975E-4
3.112,-3.9390429583044395E-4
3.116,-3.791674430172574E-4
3.12,-3.7164275308164993E-4
3.124,-3.780134969568448E-4
3.128,-3.90803065793085E-4
3.132,-3.9145216045206714E-4
3.136,-3.8198018653951325E-4
3.14,-3.7947997007528584E-4
3.144,-3.777250104417416E-4
3.148,-3.7236396936940784E-4
3.152,-3.671952526404761E-4
3.156,-3.840476732310859E-4
3.16,-3.757056048360194E-4
3.164,-3.6844536087258985E-4
3.168,-3.9017801167702814E-4
3.172,-4.1097308130738115E-4
3.176,-4.168389737811455E-4
3.18,-4.0926620275968744E-4
3.184,-4.0073181002121886E-4
3.188,-3.935196471436397E-4
3.192,-3.8823072770008177E-4
3.196,-3.866680924099397E-4
3.2,-3.786385510729016E-4
3.204,-3.77484605012489E-4
3.208,-3.824609973980185E-4
3.212,-3.7880683487337847E-4
3.216,-3.790712808455563E-4
3.22,-3.743593344322047E-4
3.224,-3.742631722605036E-4
3.228,-3.7221972611185627E-4
3.232,-3.866680924099397E-4
3.236,-3.8128301079468063E-4
3.24,-3.73205388371792E-4
3.244,-3.7529691560628996E-4
3.248,-3.845044435466659E-4
3.2520000000000002,-3.853939436349006E-4
3.2560000000000002,-3.8863941692981124E-4
3.2600000000000002,-3.888557818161386E-4
3.2640000000000002,-3.8866345747273653E-4
3.2680000000000002,-3.8746143032647337E-4
3.2720000000000002,-3.904184171062808E-4
3.2760000000000002,-3.8791820064205333E-4
3.2800000000000002,-3.8426403811741324E-4
3.2840000000000003,-3.792876457318837E-4
3.2880000000000003,-3.7248417208403416E-4
3.2920000000000003,-3.770759157827595E-4
3.2960000000000003,-3.851294976627227E-4
3.3000000000000003,-3.894808359321955E-4
3.3040000000000003,-3.854660652636764E-4
3.3080000000000003,-3.5548750823587275E-4
3.3120000000000003,-3.4954949413333266E-4
3.3160000000000003,-3.82412916312168E-4
3.3200000000000003,-3.8984144407607445E-4
3.3240000000000003,-3.793597673606595E-4
3.3280000000000003,-3.802492674488943E-4
3.332,-3.9169256588131974E-4
3.336,-3.697195096476288E-4
3.34,-3.804415917922964E-4
3.344,-3.965006744663724E-4
3.348,-3.9311095791391026E-4
3.352,-3.88254768243007E-4
3.356,-3.854660652636764E-4
3.36,-3.860189977509575E-4
3.364,-3.8597091666510696E-4
3.368,-3.867642545816407E-4
3.372,-3.887836601873628E-4
3.376,-3.862353626372849E-4
3.38,-3.946014715752766E-4
3.384,-3.9726997183998095E-4
3.388,-3.7087345570804153E-4
3.392,-3.5503073792029274E-4
3.396,-3.645507929186971E-4
3.4,-3.8863941692981124E-4
3.404,-3.835909029155059E-4
3.408,-3.807781593932501E-4
3.412,-3.7842218618657425E-4
3.416,-3.7587388863649624E-4
3.42,-3.7613833460867414E-4
3.424,-3.8570647069292906E-4
3.428,-3.82412916312168E-4
3.432,-3.849612138622459E-4
3.436,-3.7736440229786265E-4
3.44,-3.75393077777991E-4
3.444,-3.746237804043826E-4
3.448,-3.776528888129658E-4
3.452,-3.807781593932501E-4
3.456,-3.825571595697196E-4
3.46,-3.733015505434931E-4
3.464,-3.627958332851529E-4
3.468,-3.5060727802204426E-4
3.472,-3.497418184767348E-4
3.476,-3.6195441428276873E-4
3.48,-3.748161047477847E-4
3.484,-3.720754828543047E-4
3.488,-3.602715762780002E-4
3.492,-3.6546433354985714E-4
3.496,-3.69190617703273E-4
3.5,-3.6467099563332344E-4
3.504,-3.5890126533126023E-4
3.508,-3.718831585109026E-4
3.512,-3.9397641745921974E-4
3.516,-3.8474484897591855E-4
3.52,-3.8421595703156276E-4
3.524,-3.9373601202996714E-4
3.528,-3.8770183575572597E-4
3.532,-3.561846839807054E-4
3.536,-3.4652038572474946E-4
3.54,-3.516891024536811E-4
3.544,-3.657047389791098E-4
3.548,-3.595744005331676E-4
3.552,-3.498620211913611E-4
3.556,-3.601754141062992E-4
3.56,-3.6257946839882556E-4
3.564,-3.6921465824619825E-4
3.568,-3.6995991507688146E-4
3.572,-3.6390169825971505E-4
3.576,-3.626996711134519E-4
3.58,-3.6844536087258985E-4
3.584,-3.68733847387693E-4
3.588,-3.580117652430254E-4
3.592,-3.534921431730759E-4
3.596,-3.6447867128992133E-4
3.6,-3.8387938943060907E-4
3.604,-3.7450357768975626E-4
3.608,-3.664740363527182E-4
3.612,-3.7236396936940784E-4
3.616,-3.7697975361105843E-4
3.62,-3.7008011779150773E-4
3.624,-3.6257946839882556E-4
3.628,-3.59886927591196E-4
3.632,-3.600071303058223E-4
3.636,-3.6657019852441927E-4
3.64,-3.720754828543047E-4
3.644,-3.6993587453395616E-4
3.648,-3.69094455531572E-4
3.652,-3.6469503617624874E-4
3.656,-3.58516616644456E-4
3.66,-3.467127100681515E-4
3.664,-3.628198738280782E-4
3.668,-3.79768456590389E-4
3.672,-3.745276182326815E-4
3.676,-3.765470238384036E-4
3.68,-3.7248417208403416E-4
3.684,-3.5017454824938954E-4
3.688,-3.5269880525654225E-4
3.692,-3.650316037772024E-4
3.696,-3.826052406555701E-4
3.7,-3.9392833637336925E-4
3.704,-3.7640278058085204E-4
3.708,-3.714504287382478E-4
3.712,-3.7010415833443303E-4
3.716,-3.6625767146639083E-4
3.72,-3.623390629695729E-4
3.724,-3.678683878423835E-4
3.728,-3.624111845983487E-4
3.732,-3.570501435260149E-4
3.736,-3.60800468222356E-4
3.74,-3.6361321174461185E-4
3.744,-3.5373254860232854E-4
3.748,-3.554634676929475E-4
3.7520000000000002,-3.74479537146831E-4
3.7560000000000002,-3.769557130681332E-4
3.7600000000000002,-3.689982933598709E-4
3.7640000000000002,-3.711619422231447E-4
3.7680000000000002,-3.836149434584312E-4
3.7720000000000002,-3.6957526639007723E-4
3.7760000000000002,-3.477224128710126E-4
3.7800000000000002,-3.6195441428276873E-4
3.7840000000000003,-3.868604167533418E-4
3.7880000000000003,-3.834707002008796E-4
3.7920000000000003,-3.8505737603394694E-4
3.7960000000000003,-3.7659510492425415E-4
3.8000000000000003,-3.658009011508108E-4
3.8040000000000003,-3.621467386261708E-4
3.8080000000000003,-3.6443059020407084E-4
3.8120000000000003,-3.683251581579635E-4
3.8160000000000003,-3.7325346945764256E-4
3.8200000000000003,-3.7536903723506574E-4
3.8240000000000003,-3.718110368821268E-4
3.8280000000000003,-3.654162524640066E-4
3.8320000000000003,-3.6409402260311716E-4
3.8360000000000003,-3.5529518389247063E-4
3.84,-3.507515212795958E-4
3.844,-3.4125550682411674E-4
3.848,-3.327211140856481E-4
3.852,-3.4543856129311257E-4
3.856,-3.4142379062459356E-4
3.86,-3.463521019242726E-4
3.864,-3.5079960236544637E-4
3.868,-3.3144696531060917E-4
3.872,-3.5041495367864214E-4
3.876,-3.679405094711593E-4
3.88,-3.6310836034318135E-4
3.884,-3.689261717310951E-4
3.888,-3.689982933598709E-4
3.892,-3.606321844218792E-4
3.896,-3.601513735633739E-4
3.9,-3.680366716428604E-4
3.904,-3.6736353644095296E-4
3.908,-3.622669413407971E-4
3.912,-3.626275494846761E-4
3.916,-3.629400765427045E-4
3.92,-3.595503599902423E-4
3.924,-3.618822926539929E-4
3.928,-3.4897252110312627E-4
3.932,-3.3635123606736296E-4
3.936,-3.295718029624386E-4
3.94,-3.1416181494734466E-4
3.944,-3.3421162774701453E-4
3.948,-3.656085768074087E-4
3.952,-3.653441308352308E-4
3.956,-3.7450357768975626E-4
3.96,-3.7272457751328676E-4
3.964,-3.817638216531859E-4
3.968,-3.852977814631996E-4
3.972,-3.822927135975417E-4
3.976,-3.663297930951666E-4
3.98,-3.4435673686147573E-4
3.984,-3.357502224942314E-4
3.988,-3.375532632136261E-4
3.992,-3.398130742486009E-4
3.996,-3.45294318035561E-4
4.0,-3.4447693957610206E-4
4.0040000000000004,-3.495014130474821E-4
4.008,-3.516891024536811E-4
4.0120000000000005,-3.5204971059756007E-4
4.016,-3.401496418495546E-4
4.0200000000000005,-3.280091676722965E-4
4.024,-3.2009982904988475E-4
4.0280000000000005,-3.2880250558883013E-4
4.032,-3.6219481971202133E-4
4.0360000000000005,-3.826533217414206E-4
4.04,-3.8839901150055864E-4
4.0440000000000005,-3.843121192032638E-4
4.048,-3.7609025352282365E-4
4.0520000000000005,-3.635170495729108E-4
4.056,-3.5620872452363065E-4
4.0600000000000005,-3.546701297764138E-4
4.064,-3.5140061593857795E-4
4.0680000000000005,-3.458472505228421E-4
4.072,-3.447654260912052E-4
4.0760000000000005,-3.445971422907284E-4
4.08,-3.5007838607768846E-4
4.0840000000000005,-3.535161837160012E-4
4.088,-3.5200162951170953E-4
4.0920000000000005,-3.494052508757811E-4
4.096,-3.4690503441155363E-4
4.1,-3.4351531785909155E-4
4.104,-3.593820761897655E-4
4.108,-3.548143730339654E-4
4.112,-3.6695484721122344E-4
4.116,-3.649835226913519E-4
4.12,-3.666663606961203E-4
4.124,-3.864998086094628E-4
4.128,-3.8534586254905013E-4
4.132,-3.7301306402838996E-4
4.136,-3.577473192708475E-4
4.14,-3.5200162951170953E-4
4.144,-3.648873605196508E-4
4.148,-3.6688272558244766E-4
4.152,-3.6637787418101716E-4
4.156,-3.6695484721122344E-4
4.16,-3.6084854930820654E-4
4.164,-3.569780218972391E-4
4.168,-3.5945419781854127E-4
4.172,-3.628198738280782E-4
4.176,-3.5200162951170953E-4
4.18,-3.542374000037591E-4
4.184,-3.533719404584496E-4
4.188,-3.4935716978993055E-4
4.192,-3.418084393113978E-4
4.196,-3.2757643789964173E-4
4.2,-3.2757643789964173E-4
4.204,-3.658009011508108E-4
4.208,-3.680847527287109E-4
4.212,-3.6390169825971505E-4
4.216,-3.742872128034289E-4
4.22,-3.6056006279310335E-4
4.224,-3.438759260029705E-4
4.228,-3.4841958861584523E-4
4.232,-3.578194408996233E-4
4.236,-3.5498265683444225E-4
4.24,-3.5192950788293375E-4
4.244,-3.5192950788293375E-4
4.248,-3.5329981882967383E-4
4.252,-3.6082450876528125E-4
4.256,-3.5753095438452014E-4
4.26,-3.5147273756735374E-4
4.264,-3.512804132239516E-4
4.268,-3.654883740927824E-4
4.272,-3.6599322549421293E-4
4.276,-3.405823716222093E-4
4.28,-3.2209519411268166E-4
4.284,-3.2519642415004065E-4
4.288,-3.2894674884638176E-4
4.292,-3.4543856129311257E-4
4.296,-3.479147372144147E-4
4.3,-3.4012560130662937E-4
4.304,-3.464482640959737E-4
4.308,-3.4690503441155363E-4
4.312,-3.500543455347632E-4
4.316,-3.5745883275574436E-4
4.32,-3.553432649783212E-4
4.324,-3.5060727802204426E-4
4.328,-3.446692639195042E-4
4.332,-3.4695311549740417E-4
4.336,-3.4683291278277784E-4
4.34,-3.428902637430346E-4
4.344,-3.467127100681515E-4
4.348,-3.5164102136783055E-4
4.352,-3.4106318248071463E-4
4.356,-3.2404247808962797E-4
4.36,-3.4945333196163163E-4
4.364,-3.7563348320724364E-4
4.368,-3.768114698105815E-4
4.372,-3.4572704780821577E-4
4.376,-3.3363465471680814E-4
4.38,-3.535642648018517E-4
4.384,-3.5173718353953163E-4
4.388,-3.3493284403477244E-4
4.392,-3.406064121651346E-4
4.396,-3.4914080490360314E-4
4.4,-3.4765029124223684E-4
4.404,-3.5320365665797275E-4
4.408,-3.486599940450979E-4
4.412,-3.466165478964505E-4
4.416,-3.485638318733968E-4
4.42,-3.5190546734000845E-4
4.424,-3.4928504816115477E-4
4.428,-3.4543856129311257E-4
4.432,-3.4017368239247985E-4
4.436,-3.3623103335273663E-4
4.44,-3.340914250323882E-4
4.444,-3.5204971059756007E-4
4.448,-3.6447867128992133E-4
4.452,-3.582762112152033E-4
4.456,-3.485638318733968E-4
4.46,-3.628198738280782E-4
4.464,-3.6690676612537295E-4
4.468,-3.585887382732318E-4
4.472,-3.4678483169692736E-4
4.476,-3.421690474552767E-4
4.48,-3.565212515816591E-4
4.484,-3.5577599475097594E-4
4.488,-3.504389942215674E-4
4.492,-3.4899656164605157E-4
4.496,-3.495975752191832E-4
4.5,-3.4409229088929784E-4
4.5040000000000004,-3.3774558755702823E-4
4.508,-3.2663885672555646E-4
4.5120000000000005,-3.383466011301598E-4
4.516,-3.508476834512969E-4
4.5200000000000005,-3.383225605872345E-4
4.524,-3.565212515816591E-4
4.5280000000000005,-3.592137923892886E-4
4.532,-3.444528990331768E-4
4.5360000000000005,-3.6250734677004977E-4
4.54,-3.653441308352308E-4
4.5440000000000005,-3.617380493964413E-4
4.548,-3.5700206244016435E-4
4.5520000000000005,-3.5293921068579485E-4
4.556,-3.4317875025813787E-4
4.5600000000000005,-3.4606361540916945E-4
4.564,-3.4935716978993055E-4
4.5680000000000005,-3.468809938686284E-4
4.572,-3.4159207442507043E-4
4.5760000000000005,-3.332500060300039E-4
4.58,-3.3154312748231025E-4
4.5840000000000005,-3.355819386937545E-4
4.588,-3.4839554807292E-4
4.5920000000000005,-3.465444262676747E-4
4.596,-3.3476456023429557E-4
4.6000000000000005,-3.3411546557531345E-4
4.604,-3.4488562880583153E-4
4.6080000000000005,-3.4748200744175997E-4
4.612,-3.5986288704827074E-4
4.616,-3.62988157628555E-4
4.62,-3.5584811637975173E-4
4.624,-3.540210351174317E-4
4.628,-3.501985887923148E-4
4.632,-3.4293834482888516E-4
4.636,-3.388754930745156E-4
4.64,-3.3950054719057243E-4
4.644,-3.518093051683074E-4
4.648,-3.5854065718738125E-4
4.652,-3.6861364467306667E-4
4.656,-3.656806984361845E-4
4.66,-3.505591969361937E-4
4.664,-3.3197585725496496E-4
4.668,-3.392120606754693E-4
4.672,-3.420969258265009E-4
4.676,-3.4017368239247985E-4
4.68,-3.3135080313890814E-4
4.684,-3.269273432406596E-4
4.688,-3.265907756397059E-4
4.692,-3.3774558755702823E-4
4.696,-3.4755412907053575E-4
4.7,-3.5745883275574436E-4
4.704,-3.5890126533126023E-4
4.708,-3.4755412907053575E-4
4.712,-3.4344319623031577E-4
4.716,-3.6356513065876136E-4
4.72,-3.479147372144147E-4
4.724,-3.4493370989168207E-4
4.728,-3.569780218972391E-4
4.732,-3.5798772470010015E-4
4.736,-3.5024666987816533E-4
4.74,-3.3923610121839454E-4
4.744,-3.260378431524249E-4
4.748,-3.157965718662626E-4
4.752,-3.3899569578914194E-4
4.756,-3.53227697200898E-4
4.76,-3.569539813543138E-4
4.764,-3.5041495367864214E-4
4.768,-3.360627495522598E-4
4.772,-3.316633301969366E-4
4.776,-3.467367506110768E-4
4.78,-3.473137236412831E-4
4.784,-3.4091893922316306E-4
4.788,-3.5173718353953163E-4
4.792,-3.5301133231457064E-4
4.796,-3.4325087188691365E-4
4.8,-3.385148849306366E-4
4.804,-3.435393584020168E-4
4.808,-3.243550051476564E-4
4.812,-3.476022101563863E-4
4.816,-3.6474311726209923E-4
4.82,-3.650316037772024E-4
4.824,-3.545739676047128E-4
4.828,-3.392120606754693E-4
4.832,-3.3406738448946296E-4
4.836,-3.4039004727880726E-4
4.84,-3.410151013948641E-4
4.844,-3.509678861659232E-4
4.848,-3.569059002684633E-4
4.852,-3.5286708905701906E-4
4.856,-3.507515212795958E-4
4.86,-3.3774558755702823E-4
4.864,-3.2935543807611123E-4
4.868,-3.4464522337657893E-4
4.872,-3.5329981882967383E-4
4.876,-3.5798772470010015E-4
4.88,-3.5796368415717486E-4
4.884,-3.5392487294573066E-4
4.888,-3.357742630371566E-4
4.892,-3.3161524911108604E-4
4.896,-3.393322633900956E-4
4.9,-3.3425970883286507E-4
4.904,-3.2796108658644595E-4
4.908,-3.388514525315903E-4
4.912,-3.401496418495546E-4
4.916,-3.3238454648469443E-4
4.92,-3.331298033153776E-4
4.924,-3.438038043741947E-4
4.928,-3.4678483169692736E-4
4.932,-3.4070257433683565E-4
4.936,-3.420007636547999E-4
4.94,-3.4091893922316306E-4
4.944,-3.371686145268219E-4
4.948,-3.2627824858167754E-4
4.952,-3.234414645164964E-4
4.956,-3.441884530609989E-4
4.96,-3.530834539433464E-4
4.964,-3.482032237295179E-4
4.968,-3.485638318733968E-4
4.972,-3.6681060395367187E-4
4.976,-3.74936307462411E-4
4.98,-3.6245926568419923E-4
4.984,-3.5692994081138856E-4
4.988,-3.4957353467625796E-4
4.992,-3.4551068292188836E-4
4.996,-3.393803444759461E-4
5.0,-3.32432627570545E-4
5.0040000000000004,-3.306055463082249E-4
5.008,-3.216624643400269E-4
5.0120000000000005,-3.246675322056849E-4
5.016,-3.395967093622735E-4
5.0200000000000005,-3.4103914193778933E-4
5.024,-3.4517411532093467E-4
5.0280000000000005,-3.454866423789631E-4
5.032,-3.3070170847992596E-4
5.0360000000000005,-3.3437991154749134E-4
5.04,-3.416641960538462E-4
5.0440000000000005,-3.3017281653557017E-4
5.048,-3.336586952597334E-4
5.0520000000000005,-3.477945344997884E-4
5.056,-3.528190079711685E-4
5.0600000000000005,-3.7484014529070995E-4
5.064,-3.710898205943689E-4
5.0680000000000005,-3.597426843336444E-4
5.072,-3.509198050800727E-4
5.0760000000000005,-3.48491710244621E-4
5.08,-3.302208976214207E-4
5.0840000000000005,-3.2981220839169124E-4
5.088,-3.570261029830896E-4
5.0920000000000005,-3.4988606173428635E-4
5.096,-3.4356339894494204E-4
5.1000000000000005,-3.4123146628119145E-4
5.104,-3.441644125180736E-4
5.1080000000000005,-3.409429797660883E-4
5.112,-3.37264776698523E-4
5.1160000000000005,-3.358704252088577E-4
5.12,-3.368320469258682E-4
5.124,-3.385148849306366E-4
5.128,-3.363031549815124E-4
5.132,-3.4010156076370407E-4
5.136,-3.68277077072113E-4
5.14,-3.685655635872162E-4
5.144,-3.5498265683444225E-4
5.148,-3.4954949413333266E-4
5.152,-3.5825217067227805E-4
5.156,-3.60343697906776E-4
5.16,-3.543095216325349E-4
5.164,-3.507274807366706E-4
5.168,-3.4928504816115477E-4
5.172,-3.473137236412831E-4
5.176,-3.529632512287201E-4
5.18,-3.4935716978993055E-4
5.184,-3.468088722398526E-4
5.188,-3.4981394010551056E-4
5.192,-3.4765029124223684E-4
5.196,-3.414718717104441E-4
5.2,-3.4435673686147573E-4
5.204,-3.530834539433464E-4
5.208,-3.4695311549740417E-4
5.212,-3.340193034036124E-4
5.216,-3.2553299175099433E-4
5.22,-3.5418931891790855E-4
5.224,-3.685896041301414E-4
5.228,-3.7344579380104467E-4
5.232,-3.6147360342426337E-4
5.236,-3.620265359115445E-4
5.24,-3.6433442803236976E-4
5.244,-3.639978604314161E-4
5.248,-3.662336309234656E-4
5.252,-3.667625228678214E-4
5.256,-3.528911295999443E-4
5.26,-3.4546260183603787E-4
5.264,-3.3654356041076507E-4
5.268,-3.3779366864287877E-4
5.272,-3.4293834482888516E-4
5.276,-3.458232099799168E-4
5.28,-3.33346168201705E-4
5.284,-3.158686934950384E-4
5.288,-3.277928027859691E-4
5.292,-3.4998222390598743E-4
5.296,-3.5488649466274116E-4
5.3,-3.532517377438233E-4
5.304,-3.5250648091314014E-4
5.308,-3.5233819711266327E-4
5.312,-3.5216991331218635E-4
5.316,-3.6142552233841283E-4
5.32,-3.7339771271519413E-4
5.324,-3.7938380790358475E-4
5.328,-3.710657800514436E-4
5.332,-3.480589804719663E-4
5.336,-3.32432627570545E-4
5.34,-3.409429797660883E-4
5.344,-3.464242235530484E-4
5.348,-3.376253848424019E-4
5.352,-3.4214500691235147E-4
5.356,-3.32985560057826E-4
5.36,-3.2476369437738593E-4
5.364,-3.4603957486624415E-4
5.368,-3.3882741198866507E-4
5.372,-3.449817909775326E-4
5.376,-3.6707504992584977E-4
5.38,-3.75393077777991E-4
5.384,-3.6519988757767924E-4
5.388,-3.5548750823587275E-4
5.392,-3.6447867128992133E-4
5.396,-3.62891995456854E-4
5.4,-3.544056838042359E-4
5.404,-3.5104000779469897E-4
5.408,-3.522179943980369E-4
5.412,-3.6450271183284663E-4
5.416,-3.580117652430254E-4
5.42,-3.464482640959737E-4
5.424,-3.3269707354272287E-4
5.428,-3.249079376349375E-4
5.432,-3.428421826571841E-4
5.436,-3.558961974656022E-4
5.44,-3.445250206619526E-4
5.444,-3.32889397886125E-4
5.448,-3.360627495522598E-4
5.452,-3.486359535021726E-4
5.456,-3.515448591961295E-4
5.46,-3.5048707530741793E-4
5.464,-3.718831585109026E-4
5.468,-3.815714973097838E-4
5.472,-3.845044435466659E-4
5.476,-3.61257238537936E-4
5.48,-3.2560511337977017E-4
5.484,-3.421690474552767E-4
5.488,-3.80129064734268E-4
5.492,-3.802733079918196E-4
5.496,-3.739987262883257E-4
5.5,-3.69647388018853E-4
5.5040000000000004,-3.664740363527182E-4
5.508,-3.5890126533126023E-4
5.5120000000000005,-3.475060479846852E-4
5.516,-3.5159294028198006E-4
5.5200000000000005,-3.61257238537936E-4
5.524,-3.8048967287814694E-4
5.5280000000000005,-3.703205232207604E-4
5.532,-3.6387765771678975E-4
5.5360000000000005,-3.55968319094378E-4
5.54,-3.4748200744175997E-4
5.5440000000000005,-3.277206811571933E-4
5.548,-3.294035191619617E-4
5.5520000000000005,-3.634208874012098E-4
5.556,-3.7712399686861E-4
5.5600000000000005,-3.589493464171107E-4
5.564,-3.495254535904074E-4
5.5680000000000005,-3.514246564815032E-4
5.572,-3.48034939929041E-4
5.5760000000000005,-3.4599149378039366E-4
5.58,-3.5818004904350227E-4
5.5840000000000005,-3.6914253661742246E-4
5.588,-3.715946719957994E-4
5.5920000000000005,-3.722437666547815E-4
5.596,-3.5692994081138856E-4
5.6000000000000005,-3.4358743948786734E-4
5.604,-3.5017454824938954E-4
5.6080000000000005,-3.5409315674620747E-4
5.612,-3.539008324028054E-4
5.6160000000000005,-3.2892270830345646E-4
5.62,-3.1370504463176465E-4
5.6240000000000006,-3.2235964008485955E-4
5.628,-3.5541538660709696E-4
5.632,-3.5998308976289707E-4
5.636,-3.654402930069319E-4
5.64,-3.71282144937771E-4
5.644,-3.6354109011583607E-4
5.648,-3.5491053520566646E-4
5.652,-3.522179943980369E-4
5.656,-3.6584898223666136E-4
5.66,-3.478426155856389E-4
5.664,-3.438999665458957E-4
5.668,-3.467367506110768E-4
5.672,-3.376975064711777E-4
5.676,-3.3801003352920613E-4
5.68,-3.402217634783304E-4
5.684,-3.3760134429947666E-4
5.688,-3.376975064711777E-4
5.692,-3.432027908010631E-4
5.696,-3.4640018301012313E-4
5.7,-3.408708581373125E-4
5.704,-3.2560511337977017E-4
5.708,-3.3303364114367656E-4
5.712,-3.4341915568739047E-4
5.716,-3.3599062792348403E-4
5.72,-3.4404420980344735E-4
5.724,-3.399092364203019E-4
5.728,-3.29884330020467E-4
5.732,-3.6024753573507496E-4
5.736,-3.721235639401552E-4
5.74,-3.7255629371280995E-4
5.744,-3.6450271183284663E-4
5.748,-3.508236429083716E-4
5.752,-3.4428461523269995E-4
5.756,-3.4344319623031577E-4
5.76,-3.353174927215766E-4
5.764,-3.4637614246719783E-4
5.768,-3.6784434729945827E-4
5.772,-3.6250734677004977E-4
5.776,-3.498620211913611E-4
5.78,-3.4214500691235147E-4
5.784,-3.414718717104441E-4
5.788,-3.6166592776766554E-4
5.792,-3.772201590403111E-4
5.796,-3.749843885482615E-4
5.8,-3.620986575403203E-4
5.804,-3.389476147032914E-4
5.808,-3.3873124981696404E-4
5.812,-3.649835226913519E-4
5.816,-3.7301306402838996E-4
5.82,-3.7572964537894467E-4
5.824,-3.678924283853088E-4
5.828,-3.58516616644456E-4
5.832,-3.3962074990519876E-4
5.836,-3.3704841181219557E-4
5.84,-3.3820235787260824E-4
5.844,-3.400775202207788E-4
5.848,-3.4899656164605157E-4
5.852,-3.505591969361937E-4
5.856,-3.4527027749263576E-4
5.86,-3.6195441428276873E-4
5.864,-3.7726824012616157E-4
5.868,-3.7438337497512994E-4
5.872,-3.6772414458483195E-4
5.876,-3.662336309234656E-4
5.88,-3.6654615798149397E-4
5.884,-3.6664232015319506E-4
5.888,-3.664980768956435E-4
5.892,-3.6406998206019186E-4
5.896,-3.5620872452363065E-4
5.9,-3.660172660371382E-4
5.904,-3.558000352939012E-4
5.908,-3.414718717104441E-4
5.912,-3.4873211567387367E-4
5.916,-3.6387765771678975E-4
5.92,-3.723158882835573E-4
5.924,-3.682289959862625E-4
5.928,-3.550788190061433E-4
5.932,-3.503909131357169E-4
5.936,-3.614014817954876E-4
5.94,-3.6654615798149397E-4
5.944,-3.668586850395224E-4
5.948,-3.658009011508108E-4
5.952,-3.600792519345981E-4
5.956,-3.4683291278277784E-4
5.96,-3.419046014830988E-4
5.964,-3.534200215443001E-4
5.968,-3.634689684870603E-4
5.972,-3.6592110386543715E-4
5.976,-3.4507795314923364E-4
5.98,-3.128395850864552E-4
5.984,-3.266148161826312E-4
5.988,-3.5442972434716115E-4
5.992,-3.64262306403594E-4
5.996,-3.688300095593941E-4
6.0,-3.713302260236215E-4
6.0040000000000004,-3.7476802366193416E-4
6.008,-3.601513735633739E-4
6.0120000000000005,-3.4964565630503375E-4
6.016,-3.4981394010551056E-4
6.0200000000000005,-3.561846839807054E-4
6.024,-3.56328927238257E-4
6.0280000000000005,-3.566174137533601E-4
6.032,-3.5320365665797275E-4
6.0360000000000005,-3.520737511404853E-4
6.04,-3.504389942215674E-4
6.0440000000000005,-3.467127100681515E-4
6.048,-3.4755412907053575E-4
6.0520000000000005,-3.3863508764526295E-4
6.056,-3.2928331644733544E-4
6.0600000000000005,-3.2839381635910067E-4
6.064,-3.370243712692703E-4
6.0680000000000005,-3.6128127908086126E-4
6.072,-3.660413065800635E-4
6.0760000000000005,-3.7351791542982046E-4
6.08,-3.7527287506336466E-4
6.0840000000000005,-3.6135340070963704E-4
6.088,-3.5346810263015065E-4
6.0920000000000005,-3.4596745323746837E-4
6.096,-3.501985887923148E-4
6.1000000000000005,-3.601513735633739E-4
6.104,-3.5842045447275487E-4
6.1080000000000005,-3.490206021889768E-4
6.112,-3.5166506191075585E-4
6.1160000000000005,-3.489244400172758E-4
6.12,-3.4716948038373153E-4
6.1240000000000006,-3.432027908010631E-4
6.128,-3.4106318248071463E-4
6.132000000000001,-3.399813580490777E-4
6.136,-3.367599252970924E-4
6.140000000000001,-3.534921431730759E-4
6.144,-3.671952526404761E-4
6.148,-3.416641960538462E-4
6.152,-3.3238454648469443E-4
6.156,-3.5185738625415796E-4
6.16,-3.5995904921997177E-4
6.164,-3.6077642767943076E-4
6.168,-3.5452588651886224E-4
6.172,-3.4906868327482736E-4
6.176,-3.692627393320488E-4
6.18,-3.8839901150055864E-4
6.184,-3.7789329424221845E-4
6.188,-3.602956168209255E-4
6.192,-3.503187915069411E-4
6.196,-3.48034939929041E-4
6.2,-3.476743317851621E-4
6.204,-3.459193721516179E-4
6.208,-3.477945344997884E-4
6.212,-3.4695311549740417E-4
6.216,-3.4692907495447893E-4
6.22,-3.4507795314923364E-4
6.224,-3.437316827454189E-4
6.228,-3.4394804763174627E-4
6.232,-3.461838181237958E-4
6.236,-3.447173450053547E-4
6.24,-3.35077087292324E-4
6.244,-3.242348024330301E-4
6.248,-3.213499372819984E-4
6.252,-3.17479409871031E-4
6.256,-3.3767346592825245E-4
6.26,-3.6459887400454766E-4
6.264,-3.595744005331676E-4
6.268,-3.481070615578168E-4
6.272,-3.4656846681059995E-4
6.276,-3.474098858129842E-4
6.28,-3.437316827454189E-4
6.284,-3.5260264308484117E-4
6.288,-3.680126310999351E-4
6.292,-3.589493464171107E-4
6.296,-3.531074944862717E-4
6.3,-3.514486970244285E-4
6.304,-3.5856469773030655E-4
6.308,-3.692627393320488E-4
6.312,-3.678683878423835E-4
6.316,-3.529632512287201E-4
6.32,-3.3707245235512086E-4
6.324,-3.3356253308803235E-4
6.328,-3.242348024330301E-4
6.332,-3.141858554902699E-4
6.336,-3.064928817541856E-4
6.34,-3.160610178384405E-4
6.344,-3.2697542432651015E-4
6.348,-3.331778844012281E-4
6.352,-3.5940611673269073E-4
6.356,-3.7260437479866044E-4
6.36,-3.5916571130343813E-4
6.364,-3.499341428201369E-4
6.368,-3.3801003352920613E-4
6.372,-3.388754930745156E-4
6.376,-3.4221712854112725E-4
6.38,-3.4911676436067784E-4
6.384,-3.4606361540916945E-4
6.388,-3.4656846681059995E-4
6.392,-3.422652096269778E-4
6.396,-3.380581146150566E-4
6.4,-3.336106141738829E-4
6.404,-3.324566681134702E-4
6.408,-3.345481953479682E-4
6.412,-3.355819386937545E-4
6.416,-3.2315297800139325E-4
6.42,-3.420969258265009E-4
6.424,-3.5979076541949495E-4
6.428,-3.4240945288452937E-4
6.432,-3.4267389885670726E-4
6.436,-3.542854810896096E-4
6.44,-3.5373254860232854E-4
6.444,-3.503668725927916E-4
6.448,-3.450539126063084E-4
6.452,-3.4291430428595986E-4
6.456,-3.439961287175968E-4
6.46,-3.525305214560654E-4
6.464,-3.4853979133047156E-4
6.468,-3.422411690840525E-4
6.472,-3.4238541234160407E-4
6.476,-3.4159207442507043E-4
6.48,-3.4692907495447893E-4
6.484,-3.476743317851621E-4
6.488,-3.4464522337657893E-4
6.492,-3.3329808711585445E-4
6.496,-3.367118442112419E-4
6.5,-3.4402016926052205E-4
6.5040000000000004,-3.361829522668861E-4
6.508,-3.6370937391631293E-4
6.5120000000000005,-3.660172660371382E-4
6.516,-3.664019147239424E-4
6.5200000000000005,-3.731813478288668E-4
6.524,-3.573145894981928E-4
6.5280000000000005,-3.5503073792029274E-4
6.532,-3.5601640018022854E-4
6.5360000000000005,-3.5753095438452014E-4
6.54,-3.5760307601329593E-4
6.5440000000000005,-3.535642648018517E-4
6.548,-3.4664058843937573E-4
6.5520000000000005,-3.480589804719663E-4
6.556,-3.540210351174317E-4
6.5600000000000005,-3.570982246118654E-4
6.564,-3.528430485140938E-4
6.5680000000000005,-3.346924386055198E-4
6.572,-3.2558107283684487E-4
6.5760000000000005,-3.3813023624383246E-4
6.58,-3.539729540315812E-4
6.5840000000000005,-3.5231415656973797E-4
6.588,-3.441884530609989E-4
6.5920000000000005,-3.3615891172396084E-4
6.596,-3.4151995279629464E-4
6.6000000000000005,-3.35077087292324E-4
6.604,-3.304132219648228E-4
6.6080000000000005,-3.5406911620328223E-4
6.612,-3.6056006279310335E-4
6.6160000000000005,-3.5630488669533174E-4
6.62,-3.438999665458957E-4
6.6240000000000006,-3.449577504346073E-4
6.628,-3.5842045447275487E-4
6.632000000000001,-3.615216845101139E-4
6.636,-3.513525348527274E-4
6.640000000000001,-3.41375709538743E-4
6.644,-3.335865736309576E-4
6.648000000000001,-3.2769664061426805E-4
6.652,-3.2945160024781226E-4
6.656000000000001,-3.4385188546004524E-4
6.66,-3.5522306226369485E-4
6.664,-3.4976585901966E-4
6.668,-3.352694116357261E-4
6.672,-3.1726304498470365E-4
6.676,-3.3404334394653766E-4
6.68,-3.626275494846761E-4
6.684,-3.500062644489127E-4
6.688,-3.351492089210998E-4
6.692,-3.399092364203019E-4
6.696,-3.631564414290319E-4
6.7,-3.5462204869056327E-4
6.704,-3.56425089409958E-4
6.708,-3.602956168209255E-4
6.712,-3.564491299528833E-4
6.716,-3.531796161150475E-4
6.72,-3.4527027749263576E-4
6.724,-3.327211140856481E-4
6.728,-3.2437904569058165E-4
6.732,-3.297641273058407E-4
6.736,-3.3988519587737666E-4
6.74,-3.366637631253914E-4
6.744,-3.3159120856816074E-4
6.748,-3.2368186994574904E-4
6.752,-3.280812893010723E-4
6.756,-3.5041495367864214E-4
6.76,-3.4447693957610206E-4
6.764,-3.3563001977960505E-4
6.768,-3.4519815586385997E-4
6.772,-3.4351531785909155E-4
6.776,-3.2644653238215435E-4
6.78,-3.335865736309576E-4
6.784,-3.67459698612654E-4
6.788,-3.570261029830896E-4
6.792,-3.492129265323789E-4
6.796,-3.474098858129842E-4
6.8,-3.3538961435035245E-4
6.804,-3.385870065594124E-4
6.808,-3.400294391349283E-4
6.812,-3.361348711810356E-4
6.816,-3.301247354497196E-4
6.82,-3.3803407407213137E-4
6.824,-3.425056150562304E-4
6.828,-3.4310662862936203E-4
6.832,-3.4063045270805986E-4
6.836,-3.385148849306366E-4
6.84,-3.3714457398389665E-4
6.844,-3.332500060300039E-4
6.848,-3.2553299175099433E-4
6.852,-3.2707158649821123E-4
6.856,-3.389476147032914E-4
6.86,-3.5053515639326847E-4
6.864,-3.4291430428595986E-4
6.868,-3.4159207442507043E-4
6.872,-3.2598976206657434E-4
6.876,-3.216865048829522E-4
6.88,-3.452462369497105E-4
6.884,-3.437076422024936E-4
6.888,-3.2495601872078805E-4
6.892,-3.3404334394653766E-4
6.896,-3.3214414105544183E-4
6.9,-3.305574652223744E-4
6.904,-3.2368186994574904E-4
6.908,-3.306055463082249E-4
6.912,-3.195228560196784E-4
6.916,-3.141858554902699E-4
6.92,-3.242828835188806E-4
6.924,-3.3204797888374075E-4
6.928,-3.268792621548091E-4
6.932,-3.324807086563955E-4
6.936,-3.410151013948641E-4
6.94,-3.3627911443858717E-4
6.944,-3.1728708552762895E-4
6.948,-3.101470442788256E-4
6.952,-3.2252792388533637E-4
6.956,-3.2009982904988475E-4
6.96,-3.1988346416355733E-4
6.964,-3.2139801836784894E-4
6.968,-3.4079873650853673E-4
6.972,-3.529151701428696E-4
6.976,-3.3844276330186084E-4
6.98,-3.281774514727733E-4
6.984,-3.301247354497196E-4
6.988,-3.2565319446562066E-4
6.992,-3.409429797660883E-4
6.996,-3.3767346592825245E-4
7.0,-3.2865826233127856E-4
7.0040000000000004,-3.1779193692905945E-4
7.008,-3.015886109974318E-4
7.0120000000000005,-3.272158297557628E-4
7.016,-3.330576816866018E-4
7.0200000000000005,-3.273360324703891E-4
7.024,-3.214460994536995E-4
7.0280000000000005,-3.240905591754785E-4
7.032,-3.242348024330301E-4
7.0360000000000005,-3.194026533050521E-4
7.04,-3.1851315321681736E-4
7.0440000000000005,-3.1519555829313096E-4
7.048,-3.1375312571761514E-4
7.0520000000000005,-3.1733516661347944E-4
7.056,-3.246194511198343E-4
7.0600000000000005,-3.3089403282332813E-4
7.064,-3.194507343909026E-4
7.0680000000000005,-3.2026811285036156E-4
7.072,-3.182246667017142E-4
7.0760000000000005,-2.9812677281619386E-4
7.08,-2.96780502412379E-4
7.0840000000000005,-3.2553299175099433E-4
7.088,-3.375532632136261E-4
7.0920000000000005,-3.3363465471680814E-4
7.096,-3.2055659936546476E-4
7.1000000000000005,-3.2690330269773436E-4
7.104,-3.2853805961665224E-4
7.1080000000000005,-3.271917892128375E-4
7.112,-3.2372995103159953E-4
7.1160000000000005,-3.247156132915354E-4
7.12,-3.301006949067944E-4
7.1240000000000006,-3.3382697906021025E-4
7.128,-3.2697542432651015E-4
7.132000000000001,-3.221432751985322E-4
7.136,-3.2156630216832586E-4
7.140000000000001,-3.2296065365799114E-4
7.144,-3.1976326144893106E-4
7.148000000000001,-3.236337888598985E-4
7.152,-3.246434916627596E-4
7.156000000000001,-3.0216558402763806E-4
7.16,-2.8312547403082936E-4
7.164000000000001,-3.134886797454373E-4
7.168,-3.3404334394653766E-4
7.172,-3.3310576277245234E-4
7.176,-3.3204797888374075E-4
7.18,-3.2555703229391963E-4
7.184,-3.1555616643701E-4
7.188,-3.2267216714288794E-4
7.192,-3.3005261382094384E-4
7.196,-3.2332126180187006E-4
7.2,-3.222394373702332E-4
7.204,-3.3197585725496496E-4
7.208,-3.306536273940754E-4
7.212,-3.209412480522689E-4
7.216,-3.1894588298947207E-4
7.22,-3.197873019918563E-4
7.224,-3.226481265999627E-4
7.228,-3.247156132915354E-4
7.232,-3.145945447199994E-4
7.236,-3.0798339541555193E-4
7.24,-3.010356785101507E-4
7.244,-3.007712325379728E-4
7.248,-3.1829678833049E-4
7.252,-3.2346550505942163E-4
7.256,-3.139935311468678E-4
7.26,-3.3144696531060917E-4
7.264,-3.4079873650853673E-4
7.268,-3.3950054719057243E-4
7.272,-3.269273432406596E-4
7.276,-3.219509508551301E-4
7.28,-3.193545722192016E-4
7.284,-3.1666203141157207E-4
7.288,-3.156042475228605E-4
7.292,-3.2079700479471736E-4
7.296,-3.250521808924891E-4
7.3,-3.195228560196784E-4
7.304,-3.1642162598231947E-4
7.308,-3.244030862335069E-4
7.312,-3.2151822108247526E-4
7.316,-3.0233386782811493E-4
7.32,-2.9040975853718417E-4
7.324,-3.1351272028836254E-4
7.328,-3.3284131680027444E-4
7.332,-3.392601417613198E-4
7.336,-3.2574935663732174E-4
7.34,-3.115894768543414E-4
7.344,-3.167101124974226E-4
7.348,-3.309661544521039E-4
7.352,-3.237780321174501E-4
7.356,-3.2392227537500164E-4
7.36,-3.2009982904988475E-4
7.364,-3.1584465295211313E-4
7.368,-3.179602207295363E-4
7.372,-3.222394373702332E-4
7.376,-3.204844777366889E-4
7.38,-3.180804234441626E-4
7.384,-3.1762365312858263E-4
7.388,-3.1509939612142993E-4
7.392,-3.163495043535437E-4
7.396,-3.2240772117071004E-4
7.4,-3.125751391142773E-4
7.404,-2.9411200214767485E-4
7.408,-2.878614609871063E-4
7.412,-3.2243176171363534E-4
7.416,-3.404140878217325E-4
7.42,-3.1815254507293843E-4
7.424,-3.0764682781459824E-4
7.428,-3.197873019918563E-4
7.432,-3.296198840482891E-4
7.436,-3.1990750470648263E-4
7.44,-3.1137311196801406E-4
7.444,-3.0932966581936666E-4
7.448,-3.1483495014925203E-4
7.452,-3.106038145944056E-4
7.456,-3.0471388157771607E-4
7.46,-3.053389356937729E-4
7.464,-3.097143145061709E-4
7.468,-3.147147474346257E-4
7.472,-3.149551528638783E-4
7.476,-3.069015709839151E-4
7.48,-2.9560251580904116E-4
7.484,-2.9702090784163173E-4
7.488,-2.880537853305084E-4
7.492,-2.8944813682017366E-4
7.496,-3.032954895451255E-4
7.5,-3.306055463082249E-4
7.5040000000000004,-3.387793309028145E-4
7.508,-3.333942492875555E-4
7.5120000000000005,-3.2644653238215435E-4
7.516,-3.2476369437738593E-4
7.5200000000000005,-3.1815254507293843E-4
7.524,-3.078631927009256E-4
7.5280000000000005,-3.1108462545291086E-4
7.532,-3.221192346556069E-4
7.5360000000000005,-3.235616672311227E-4
7.54,-3.1851315321681736E-4
7.5440000000000005,-3.126232202001278E-4
7.548,-3.014203271969549E-4
7.5520000000000005,-3.1195008499822034E-4
7.556,-3.307257490228512E-4
7.5600000000000005,-3.2846593798787645E-4
7.564,-3.133925175737362E-4
7.5680000000000005,-3.0406478691873395E-4
7.572,-3.0531489515084765E-4
7.5760000000000005,-3.1440222037659726E-4
7.58,-3.1055573350855507E-4
7.5840000000000005,-3.1065189568025615E-4
7.588,-3.1745536932810577E-4
7.5920000000000005,-3.069736926126909E-4
7.596,-2.967564618694538E-4
7.6000000000000005,-2.9836717824544646E-4
7.604,-3.0380034094655605E-4
7.6080000000000005,-2.9728535381380963E-4
7.612,-2.982229349878949E-4
7.6160000000000005,-2.990162729044286E-4
7.62,-2.9139542079712003E-4
7.6240000000000006,-2.886788394465652E-4
7.628,-2.979104079298665E-4
7.632000000000001,-3.0264639488614337E-4
7.636,-3.0223770565641385E-4
7.640000000000001,-2.9355906966039376E-4
7.644,-3.0081931362382333E-4
7.648000000000001,-3.075266250999719E-4
7.652,-2.9656413752605167E-4
7.656000000000001,-3.038965031182571E-4
7.66,-3.0889693604671195E-4
7.664000000000001,-3.019492191413107E-4
7.668,-3.0353589497437815E-4
7.672000000000001,-3.0223770565641385E-4
7.676,-3.0887289550378665E-4
7.68,-3.2017195067866053E-4
7.684,-3.2055659936546476E-4
7.688,-3.1341655811666146E-4
7.692,-2.9081844776691375E-4
7.696,-2.7350925686072395E-4
7.7,-2.648065803217785E-4
7.704,-2.73605419032425E-4
7.708,-2.8649115004036625E-4
7.712,-2.9416008323352534E-4
7.716,-2.8721236632812415E-4
7.72,-2.713696485403754E-4
7.724,-2.86106501353562E-4
7.728,-3.1029128753637717E-4
7.732,-3.0245407054274126E-4
7.736,-2.910348126532411E-4
7.74,-2.840149741190641E-4
7.744,-2.82548501000623E-4
7.748,-3.078631927009256E-4
7.752,-3.110605849099856E-4
7.756,-3.0271851651491916E-4
7.76,-3.021175029417876E-4
7.764,-3.020934623988623E-4
7.768,-3.000019351643644E-4
7.772,-3.01612651540357E-4
7.776,-2.927176506580095E-4
7.78,-2.949053400642085E-4
7.784,-2.9250128577168217E-4
7.788,-2.9341482640284213E-4
7.792,-2.962756510109485E-4
7.796,-2.945928130061801E-4
7.8,-2.9038571799425893E-4
7.804,-2.8382264977566197E-4
7.808,-2.856016499521315E-4
7.812,-2.9379947508964636E-4
7.816,-2.919964343702516E-4
7.82,-2.890875286762947E-4
7.824,-2.943043264910769E-4
7.828,-2.9723727272795914E-4
7.832,-3.037763004036308E-4
7.836,-3.0868057116038454E-4
7.84,-2.982469755308202E-4
7.844,-2.9170794785514847E-4
7.848,-3.0399266528995816E-4
7.852,-2.916358262263727E-4
7.856,-2.842072984624662E-4
7.86,-2.94496650834479E-4
7.864,-3.054591384083992E-4
7.868,-3.098345172207972E-4
7.872,-3.07262179127794E-4
7.876,-3.085122873599077E-4
7.88,-3.0591590872397923E-4
7.884,-2.998336513638875E-4
7.888,-2.9670838078360324E-4
7.892,-2.9896819181857804E-4
7.896,-3.0108375959600123E-4
7.9,-3.0031446222239283E-4
7.904,-2.982950566166707E-4
7.908,-2.938715967184222E-4
7.912,-2.932225020594401E-4
7.916,-2.956986779807422E-4
7.92,-2.981508133591191E-4
7.924,-2.923330019712053E-4
7.928,-2.811541495109577E-4
7.932,-3.020453813130118E-4
7.936,-3.1577253132333735E-4
7.94,-3.132723148591099E-4
7.944,-3.1142119305386455E-4
7.948,-3.093537063622919E-4
7.952,-2.9995385407851385E-4
7.956,-2.884384340173126E-4
7.96,-3.0310316520172344E-4
7.964,-3.064207601254098E-4
7.968,-2.9375139400379587E-4
7.972,-2.9379947508964636E-4
7.976,-2.96684340240678E-4
7.98,-2.9468897517788114E-4
7.984,-2.933186642311411E-4
7.988,-2.8997702876452946E-4
7.992,-2.8682771764131993E-4
7.996,-2.995932459346349E-4
8.0,-2.995451648487844E-4
8.004,-2.8882308270411684E-4
8.008000000000001,-2.9185219111270004E-4
8.012,-2.9454473192032956E-4
8.016,-2.950015022359096E-4
8.02,-3.212297345673721E-4
8.024000000000001,-3.175755720427321E-4
8.028,-2.9968940810633595E-4
8.032,-2.93486948031618E-4
8.036,-2.8906348813336944E-4
8.040000000000001,-2.919002721985506E-4
8.044,-2.9043379908010947E-4
8.048,-2.9221279925657897E-4
8.052,-2.949774616929843E-4
8.056000000000001,-2.9620352938217274E-4
8.06,-2.958188806953685E-4
8.064,-2.9541019146563904E-4
8.068,-2.9098673156739056E-4
8.072000000000001,-2.9872778638932544E-4
8.076,-3.0425711126213606E-4
8.08,-2.9827101607374543E-4
8.084,-2.882461096739105E-4
8.088000000000001,-2.834860821747083E-4
8.092,-2.8519296072240205E-4
8.096,-3.0360801660315393E-4
8.1,-3.1707072064130154E-4
8.104000000000001,-3.13464639202512E-4
8.108,-3.0113184068185177E-4
8.112,-3.043051923479866E-4
8.116,-3.0380034094655605E-4
8.120000000000001,-3.0728621967071926E-4
8.124,-3.09906638849573E-4
8.128,-3.062765168678582E-4
8.132,-3.018530569696097E-4
8.136000000000001,-2.9454473192032956E-4
8.14,-2.9158774514052215E-4
8.144,-2.903376369084084E-4
8.148,-2.929580560872622E-4
8.152000000000001,-2.9872778638932544E-4
8.156,-3.0512257080744554E-4
8.16,-3.0803147650140247E-4
8.164,-3.038484220324066E-4
8.168000000000001,-2.869719608988715E-4
8.172,-2.828129469728009E-4
8.176,-2.903616774513337E-4
8.18,-2.8382264977566197E-4
8.184000000000001,-2.8312547403082936E-4
8.188,-2.954342320085643E-4
8.192,-2.9567463743781694E-4
8.196,-2.8855863673193894E-4
8.2,-3.0055486765164543E-4
8.204,-3.093777469052172E-4
8.208,-3.0557934112302555E-4
8.212,-3.0776703052922457E-4
8.216,-3.107720983948825E-4
8.22,-3.0870461170330984E-4
8.224,-3.04617719406015E-4
8.228,-3.039686247470329E-4
8.232,-3.0199730022716125E-4
8.236,-2.9930475941953173E-4
8.24,-2.9759788087183807E-4
8.244,-3.0529085460792235E-4
8.248,-3.128155445435299E-4
8.252,-3.077429899862993E-4
8.256,-3.0031446222239283E-4
8.26,-3.00602948737496E-4
8.264,-3.0336761117390133E-4
8.268,-3.0305508411587284E-4
8.272,-2.9839121878837176E-4
8.276,-2.93943718347198E-4
8.28,-2.877893393583305E-4
8.284,-2.9774212412938964E-4
8.288,-3.0127608393940334E-4
8.292,-2.898808665928284E-4
8.296,-2.8846247456023786E-4
8.3,-2.9317442097358953E-4
8.304,-2.929580560872622E-4
8.308,-2.8882308270411684E-4
8.312,-2.910348126532411E-4
8.316,-2.8855863673193894E-4
8.32,-2.920204749131769E-4
8.324,-2.911790559107927E-4
8.328,-2.8839035293146207E-4
8.332,-2.893760151913979E-4
8.336,-2.8569781212383255E-4
8.34,-2.853852850658041E-4
8.344,-2.8425537954831673E-4
8.348,-2.8855863673193894E-4
8.352,-2.9444856974862854E-4
8.356,-2.9108289373909165E-4
8.36,-2.916117856834474E-4
8.364,-2.981508133591191E-4
8.368,-2.8105798733925666E-4
8.372,-2.911790559107927E-4
8.376,-3.126953418289036E-4
8.38,-3.12551098571352E-4
8.384,-3.038965031182571E-4
8.388,-2.9853546204592333E-4
8.392,-2.8675559601254414E-4
8.396,-2.7350925686072395E-4
8.4,-2.747112840069871E-4
8.404,-2.74158351519706E-4
8.408,-2.7062439170969226E-4
8.412,-2.754084597518198E-4
8.416,-2.836062848893346E-4
8.42,-2.8692387981302096E-4
8.424,-2.8793358261588206E-4
8.428,-2.8839035293146207E-4
8.432,-2.896164206206505E-4
8.436,-2.9074632613813786E-4
8.44,-2.9853546204592333E-4
8.444,-3.0055486765164543E-4
8.448,-2.837024470610357E-4
8.452,-3.000019351643644E-4
8.456,-3.0800743595847717E-4
8.46,-2.974536376142865E-4
8.464,-2.953861509227138E-4
8.468,-2.9603524558169587E-4
8.472,-2.9178006948392426E-4
8.476,-2.9165986676929793E-4
8.48,-2.919483532844011E-4
8.484,-2.959871644958454E-4
8.488,-3.00602948737496E-4
8.492,-2.9976152973511174E-4
8.496,-2.912271369966432E-4
8.5,-2.8000020345054507E-4
8.504,-2.921406776278032E-4
8.508000000000001,-3.1577253132333735E-4
8.512,-3.085844089886835E-4
8.516,-2.8206769014211777E-4
8.52,-2.8105798733925666E-4
8.524000000000001,-2.9257340740045795E-4
8.528,-3.000740567931402E-4
8.532,-3.1363292300298887E-4
8.536,-3.071419764131677E-4
8.540000000000001,-3.0226174619933915E-4
8.544,-3.025502327144423E-4
8.548,-3.0704581424146666E-4
8.552,-3.023819489139655E-4
8.556000000000001,-2.9646797535435064E-4
8.56,-2.9620352938217274E-4
8.564,-2.9721323218503384E-4
8.568,-2.9238108305705584E-4
8.572000000000001,-2.915637045975969E-4
8.576,-2.9812677281619386E-4
8.58,-2.981508133591191E-4
8.584,-2.9461685354910535E-4
8.588000000000001,-2.9560251580904116E-4
8.592,-2.9697282675578124E-4
8.596,-2.9733343489966017E-4
8.6,-2.981508133591191E-4
8.604000000000001,-2.9461685354910535E-4
8.608,-3.001942595077665E-4
8.612,-3.088488549608614E-4
8.616,-3.0728621967071926E-4
8.620000000000001,-3.085844089886835E-4
8.624,-3.007952730808981E-4
8.628,-2.825725415435483E-4
8.632,-2.712013647398986E-4
8.636000000000001,-3.040407463758087E-4
8.64,-3.3135080313890814E-4
8.644,-3.1666203141157207E-4
8.648,-3.0031446222239283E-4
8.652000000000001,-2.8971258279235156E-4
8.656,-2.9620352938217274E-4
8.66,-2.9329462368821586E-4
8.664,-3.022857867422644E-4
8.668000000000001,-2.9264552902923374E-4
8.672,-2.7624987875420396E-4
8.676,-2.8827015021683575E-4
8.68,-3.0497832754989397E-4
8.684000000000001,-3.027425570578444E-4
8.688,-2.9968940810633595E-4
8.692,-3.03247408459275E-4
8.696,-2.943764481198527E-4
8.700000000000001,-2.903376369084084E-4
8.704,-2.9360715074624425E-4
8.708,-2.974295970713612E-4
8.712,-2.906501639664368E-4
8.716,-2.822840550284451E-4
8.72,-2.695185267351302E-4
8.724,-2.823080955713704E-4
8.728,-2.9827101607374543E-4
8.732,-3.06805408812214E-4
8.736,-3.09449868533993E-4
8.74,-3.059639898098297E-4
8.744,-2.8338992000300726E-4
8.748,-2.7685089232733554E-4
8.752,-2.945928130061801E-4
8.756,-2.929580560872622E-4
8.76,-2.915396640546716E-4
8.764,-2.957227185236675E-4
8.768,-2.97958489015717E-4
8.772,-3.012520433964781E-4
8.776,-2.951217049505359E-4
8.78,-2.847602309497473E-4
8.784,-2.84279420091242E-4
8.788,-2.833418389171567E-4
8.792,-2.7624987875420396E-4
8.796,-2.823561766572209E-4
8.8,-2.912271369966432E-4
8.804,-2.8286102805865146E-4
8.808,-2.8661135275499257E-4
8.812,-2.862026635252631E-4
8.816,-2.854814472375052E-4
8.82,-2.9694878621285594E-4
8.824,-3.036801382319297E-4
8.828,-3.1031532807930247E-4
8.832,-3.014924488257307E-4
8.836,-2.9134733971126955E-4
8.84,-2.904578396230347E-4
8.844,-2.910348126532411E-4
8.848,-2.8932793410554734E-4
8.852,-2.9024147473670736E-4
8.856,-2.8365436597518515E-4
8.86,-2.683405401317922E-4
8.864,-2.6598456692511637E-4
8.868,-2.723072297144607E-4
8.872,-2.889432854187431E-4
8.876,-2.9800657010156754E-4
8.88,-2.8721236632812415E-4
8.884,-2.9192431274147583E-4
8.888,-3.040888274616592E-4
8.892,-3.027425570578444E-4
8.896,-2.877172177295547E-4
8.9,-2.6990317542193435E-4
8.904,-2.730765270880692E-4
8.908,-2.838707308615125E-4
8.912,-2.9098673156739056E-4
8.916,-2.9098673156739056E-4
8.92,-2.8776529881540525E-4
8.924,-2.8822206913098526E-4
8.928,-2.855776094092062E-4
8.932,-2.9021743419378206E-4
8.936,-2.8795762315880736E-4
8.94,-2.828850686015767E-4
8.944,-2.8250041991477253E-4
8.948,-2.8774125827247995E-4
8.952,-2.9428028594815167E-4
8.956,-2.919002721985506E-4
8.96,-2.809618251675556E-4
8.964,-2.728361216588165E-4
8.968,-2.704080268233649E-4
8.972,-2.758411895244745E-4
8.976,-2.8415921737661565E-4
8.98,-2.8545740669457995E-4
8.984,-2.8293314968742724E-4
8.988,-2.7480744617868814E-4
8.992,-2.798559601929935E-4
8.996,-2.7103308093942173E-4
9.0,-2.6848478338934383E-4
9.004,-2.71970662113507E-4
9.008000000000001,-2.808416224529293E-4
9.012,-2.8060121702367665E-4
9.016,-2.779327167589724E-4
9.02,-2.769230139561113E-4
9.024000000000001,-2.7572098680984816E-4
9.028,-2.7819716273115027E-4
9.032,-2.880537853305084E-4
9.036,-2.9488129952128325E-4
9.040000000000001,-2.8471214986389674E-4
9.044,-2.605273636810816E-4
9.048,-2.695185267351302E-4
9.052,-2.8721236632812415E-4
9.056000000000001,-2.778605951301966E-4
9.06,-2.802165683368724E-4
9.064,-2.8694792035594626E-4
9.068,-2.8233213611429566E-4
9.072000000000001,-2.77259581557065E-4
9.076,-2.8480831203559783E-4
9.08,-3.0180497588375914E-4
9.084,-2.99328799962457E-4
9.088000000000001,-2.9105885319616635E-4
9.092,-2.917319883980737E-4
9.096,-2.998336513638875E-4
9.1,-2.9952112430585914E-4
9.104000000000001,-2.842072984624662E-4
9.108,-2.7019166193703755E-4
9.112,-2.644459721778995E-4
9.116,-2.638930396906185E-4
9.120000000000001,-2.5583945781065516E-4
9.124,-2.6120049888298896E-4
9.128,-2.594214987065194E-4
9.132,-2.5817139047440576E-4
9.136000000000001,-2.669942697279775E-4
9.14,-2.758411895244745E-4
9.144,-2.84279420091242E-4
9.148,-2.881739880451347E-4
9.152000000000001,-2.93943718347198E-4
9.156,-2.9178006948392426E-4
9.16,-2.89664501706501E-4
9.164,-2.9048188016595996E-4
9.168000000000001,-2.891356097621452E-4
9.172,-2.899289476786789E-4
9.176,-2.762979598400545E-4
9.18,-2.7822120327407557E-4
9.184000000000001,-2.782452438170008E-4
9.188,-2.7875009521843136E-4
9.192,-2.7627391929712925E-4
9.196,-2.6422960729157217E-4
9.200000000000001,-2.4860325439015084E-4
9.204,-2.512717546548551E-4
9.208,-2.713215674545249E-4
9.212,-2.862026635252631E-4
9.216000000000001,-2.873325690427505E-4
9.22,-2.84279420091242E-4
9.224,-2.7937514933448824E-4
9.228,-2.8483235257852307E-4
9.232,-2.8622670406818835E-4
9.236,-2.838947714044378E-4
9.24,-2.870921636134978E-4
9.244,-2.93943718347198E-4
9.248,-2.861786229823378E-4
9.252,-2.714417701691512E-4
9.256,-2.7490360835038917E-4
9.26,-2.8129839276850926E-4
9.264,-2.7552866246644605E-4
9.268,-2.6795589144498804E-4
9.272,-2.737977433758271E-4
9.276,-2.7252359460078814E-4
9.28,-2.5559905238140256E-4
9.284,-2.6555183715246166E-4
9.288,-2.9283785337263585E-4
9.292,-2.863709473257399E-4
9.296,-2.8187536579871565E-4
9.3,-2.924051235999811E-4
9.304,-2.9916051616198016E-4
9.308,-2.9223683979950427E-4
9.312,-2.876931771866294E-4
9.316,-2.9238108305705584E-4
9.32,-2.873085284998252E-4
9.324,-2.82909109144502E-4
9.328,-2.831495145737546E-4
9.332,-2.8040889268027454E-4
9.336,-2.737256217470513E-4
9.34,-2.7783655458727134E-4
9.344,-2.7908666281938505E-4
9.348,-2.722351080856849E-4
9.352,-2.7848564924625347E-4
9.356,-2.8139455494021034E-4
9.36,-2.7612967603957763E-4
9.364,-2.7096095931064594E-4
9.368,-2.6490274249347953E-4
9.372,-2.6377283697599216E-4
9.376,-2.685569050181196E-4
9.38,-2.713215674545249E-4
9.384,-2.725476351437134E-4
9.388,-2.652633506373585E-4
9.392,-2.709369187677207E-4
9.396,-2.794713115061893E-4
9.4,-2.7096095931064594E-4
9.404,-2.652393100944332E-4
9.408,-2.7290824328759237E-4
9.412,-2.7737978427169133E-4
9.416,-2.721629864569091E-4
9.42,-2.7076863496724383E-4
9.424,-2.719947026564323E-4
9.428,-2.677154860157354E-4
9.432,-2.638209180618427E-4
9.436,-2.590849311055657E-4
9.44,-2.485551733043003E-4
9.444,-2.5293055211669823E-4
9.448,-2.603590798806047E-4
9.452,-2.679078103591375E-4
9.456,-2.6437385054912374E-4
9.46,-2.662249723543691E-4
9.464,-2.5331520080350246E-4
9.468,-2.536277278615309E-4
9.472,-2.7350925686072395E-4
9.476,-2.7927898716278716E-4
9.48,-2.7624987875420396E-4
9.484,-2.695425672780554E-4
9.488,-2.6367667480429113E-4
9.492,-2.63388188289188E-4
9.496,-2.6144090431224156E-4
9.5,-2.581233093885552E-4
9.504,-2.680039725308385E-4
9.508000000000001,-2.765624058122324E-4
9.512,-2.6644133724069643E-4
9.516,-2.568010795276657E-4
9.52,-2.4586263249667077E-4
9.524000000000001,-2.3699167215724852E-4
9.528,-2.4410767286312652E-4
9.532,-2.727399594871155E-4
9.536,-2.7331693251732183E-4
9.540000000000001,-2.6973489162145754E-4
9.544,-2.476416326731403E-4
9.548,-2.525699439728193E-4
9.552,-2.7348521631779865E-4
9.556000000000001,-2.736294595753502E-4
9.56,-2.6158514756979313E-4
9.564,-2.591570527343415E-4
9.568,-2.5624814704038463E-4
9.572000000000001,-2.4896386253402976E-4
9.576,-2.446606053504076E-4
9.58,-2.5432490360636356E-4
9.584,-2.606956474815584E-4
9.588000000000001,-2.477618353877666E-4
9.592,-2.4906002470573085E-4
9.596,-2.3913128047759697E-4
9.6,-2.2836111724707889E-4
9.604000000000001,-2.4304988897441492E-4
9.608,-2.611524177971384E-4
9.612,-2.695185267351302E-4
9.616,-2.714658107120765E-4
9.620000000000001,-2.685569050181196E-4
9.624,-2.532671197176519E-4
9.628,-2.483628489608982E-4
9.632,-2.6064756639570787E-4
9.636000000000001,-2.593734176206689E-4
9.64,-2.6038312042352997E-4
9.644,-2.594455392494447E-4
9.648,-2.594936203352952E-4
9.652000000000001,-2.5790694450222786E-4
9.656,-2.537960116620077E-4
9.66,-2.509592275968267E-4
9.664,-2.5213721420016454E-4
9.668000000000001,-2.5610390378283306E-4
9.672,-2.5966190413577206E-4
9.676,-2.607918096532595E-4
9.68,-2.6064756639570787E-4
9.684000000000001,-2.5737805255787206E-4
9.688,-2.577627012446763E-4
9.692,-2.6283525580190684E-4
9.696,-2.512477141119298E-4
9.700000000000001,-2.361502531548643E-4
9.704,-2.7802887893067346E-4
9.708,-2.9178006948392426E-4
9.712,-2.7687493287026084E-4
9.716000000000001,-2.733409730602471E-4
9.72,-2.687492293615217E-4
9.724,-2.702157024799628E-4
9.728,-2.753122975801187E-4
9.732,-2.735332974036492E-4
9.736,-2.563443092120857E-4
9.74,-2.562241064974594E-4
9.744,-2.7288420274466707E-4
9.748,-2.677154860157354E-4
9.752,-2.7355733794657443E-4
9.756,-2.7384582446167763E-4
9.76,-2.6213808005707423E-4
9.764,-2.585319986182847E-4
9.768,-2.6725871570015537E-4
9.772,-2.633641477462627E-4
9.776,-2.625467692868037E-4
9.78,-2.733890541460976E-4
9.784,-2.7408622989093023E-4
9.788,-2.6778760764451117E-4
9.792,-2.6735487787185645E-4
9.796,-2.690617564195501E-4
9.8,-2.7516805432256707E-4
9.804,-2.6983105379315857E-4
9.808,-2.7560078409522183E-4
9.812,-2.8485639312144837E-4
9.816,-2.817551630840893E-4
9.82,-2.7829332490285135E-4
9.824,-2.6432576946327325E-4
9.828,-2.543970252351394E-4
9.832,-2.49348511220834E-4
9.836,-2.532911602605772E-4
9.84,-2.5461339012146676E-4
9.844,-2.556952145531036E-4
9.848,-2.528343899449972E-4
9.852,-2.5860412024706047E-4
9.856,-2.612245394259142E-4
9.86,-2.725476351437134E-4
9.864,-2.7249955405786284E-4
9.868,-2.778125140443461E-4
9.872,-2.73605419032425E-4
9.876,-2.6370071534721637E-4
9.88,-2.6735487787185645E-4
9.884,-2.691338780483259E-4
9.888,-2.6999933759363543E-4
9.892,-2.7011954030826176E-4
9.896,-2.7377370283290185E-4
9.9,-2.71057121482347E-4
9.904,-2.6543163443783533E-4
9.908,-2.663932561548459E-4
9.912,-2.6846074284641853E-4
9.916,-2.587964445904626E-4
9.92,-2.558875388965057E-4
9.924,-2.5814734993148046E-4
9.928,-2.628112152589816E-4
9.932,-2.753603786659692E-4
9.936,-2.7473532454991235E-4
9.94,-2.8093778462463033E-4
9.944,-2.927897722867853E-4
9.948,-2.805771764807514E-4
9.952,-2.691579185912512E-4
9.956,-2.718264188559554E-4
9.96,-2.722351080856849E-4
9.964,-2.744949191206597E-4
9.968,-2.67499121129408E-4
9.972,-2.619217151707468E-4
9.976,-2.621861611429247E-4
9.98,-2.6670578321287433E-4
9.984,-2.702878241087386E-4
9.988,-2.71057121482347E-4
9.992,-2.6644133724069643E-4
9.996,-2.6127262051176475E-4
10.0,-2.6519122900858273E-4
10.004,-2.775240275292429E-4
10.008000000000001,-2.77163419385364E-4
10.012,-2.687492293615217E-4
10.016,-2.710090403964965E-4
10.02,-2.7723554101413976E-4
10.024000000000001,-2.78990500647684E-4
10.028,-2.776923113297198E-4
10.032,-2.721629864569091E-4
10.036,-2.709128782247954E-4
10.040000000000001,-2.6793185090206274E-4
10.044,-2.685088239322691E-4
10.048,-2.7355733794657443E-4
10.052,-2.5583945781065516E-4
10.056000000000001,-2.6615285072559324E-4
10.06,-2.763700814688303E-4
10.064,-2.784375681604029E-4
10.068,-2.788702979330577E-4
10.072000000000001,-2.712975269115996E-4
10.076,-2.690617564195501E-4
10.08,-2.6846074284641853E-4
10.084,-2.6547971552368587E-4
10.088000000000001,-2.593253365348184E-4
10.092,-2.584598769895089E-4
10.096,-2.6021483662305316E-4
10.1,-2.597099852216226E-4
10.104000000000001,-2.6124857996883945E-4
10.108,-2.6733083732893116E-4
10.112,-2.682924590459417E-4
10.116,-2.739179460904534E-4
10.120000000000001,-2.737977433758271E-4
10.124,-2.644700127208248E-4
10.128,-2.5600774161113203E-4
10.132,-2.58652201332911E-4
10.136000000000001,-2.644700127208248E-4
10.14,-2.7023974302288803E-4
10.144,-2.5533460640922467E-4
10.148,-2.567529984418152E-4
10.152000000000001,-2.7213894591398386E-4
10.156,-2.71513891797927E-4
10.16,-2.605994853098574E-4
10.164,-2.5305075483132456E-4
10.168000000000001,-2.541325792629615E-4
10.172,-2.5511824152289726E-4
10.176,-2.556952145531036E-4
10.18,-2.5324307917472667E-4
10.184000000000001,-2.4944467339253507E-4
10.188,-2.4879557873355295E-4
10.192,-2.4956487610716134E-4
10.196,-2.5367580894738144E-4
10.200000000000001,-2.553586469521499E-4
10.204,-2.56921282242292E-4
10.208,-2.631237423170101E-4
10.212,-2.545653090356162E-4
10.216000000000001,-2.562962281262352E-4
10.22,-2.768268517844103E-4
10.224,-2.641815262057216E-4
10.228,-2.5617602541160885E-4
10.232000000000001,-2.609600934537363E-4
10.236,-2.6074372856740895E-4
10.24,-2.677395265586606E-4
10.244,-2.638209180618427E-4
10.248,-2.5557501183847727E-4
10.252,-2.504543761953961E-4
10.256,-2.5307479537424986E-4
10.26,-2.5225741691479087E-4
10.264,-2.5538268749507515E-4
10.268,-2.5956574196407103E-4
10.272,-2.605033231381563E-4
10.276,-2.5708956604276887E-4
10.28,-2.5593561998235625E-4
10.284,-2.624746476580279E-4
10.288,-2.606956474815584E-4
10.292,-2.5449318740684043E-4
10.296,-2.5175256551336037E-4
10.3,-2.5432490360636356E-4
10.304,-2.636526342613659E-4
10.308,-2.7901454119060926E-4
10.312,-2.6124857996883945E-4
10.316,-2.5365176840445614E-4
10.32,-2.6545567498076063E-4
10.324,-2.618976746278216E-4
10.328,-2.5689724169936676E-4
10.332,-2.594936203352952E-4
10.336,-2.636285937184406E-4
10.34,-2.5540672803800045E-4
10.344,-2.4898790307695506E-4
10.348,-2.5511824152289726E-4
10.352,-2.66489418326547E-4
10.356,-2.733650136031723E-4
10.36,-2.628833368877574E-4
10.364,-2.585800797041352E-4
10.368,-2.5927725544896784E-4
10.372,-2.603109987947542E-4
10.376,-2.7026378356581333E-4
10.38,-2.629314179736079E-4
10.384,-2.528343899449972E-4
10.388,-2.6502294520810586E-4
10.392,-2.8067333865245244E-4
10.396,-2.68412661760568E-4
10.4,-2.694464051063544E-4
10.404,-2.804810143090503E-4
10.408,-2.764181625546808E-4
10.412,-2.655758776953869E-4
10.416,-2.5829159318903203E-4
10.42,-2.5821947156025625E-4
10.424,-2.625467692868037E-4
10.428,-2.6545567498076063E-4
10.432,-2.6172939082734476E-4
10.436,-2.575703769012742E-4
10.44,-2.6213808005707423E-4
10.444,-2.611283772542132E-4
10.448,-2.568491606135162E-4
10.452,-2.596378635928468E-4
10.456,-2.540364170912604E-4
10.46,-2.4189594291400228E-4
10.464,-2.388668345054191E-4
10.468,-2.481464840745708E-4
10.472,-2.570414849569184E-4
10.476,-2.4086219956821593E-4
10.48,-2.2925061733531366E-4
10.484,-2.5531056586629937E-4
10.488,-2.7187449994180596E-4
10.492,-2.6002251227965104E-4
10.496,-2.484109300467487E-4
10.5,-2.463434433551761E-4
10.504,-2.465838487844287E-4
10.508000000000001,-2.431220106031907E-4
10.512,-2.474733488726634E-4
10.516,-2.516564033416593E-4
10.52,-2.5408449817711096E-4
10.524000000000001,-2.605754447669321E-4
10.528,-2.591810932772668E-4
10.532,-2.6997529705071014E-4
10.536,-2.752161354084176E-4
10.540000000000001,-2.540123765483352E-4
10.544,-2.260291845833283E-4
10.548,-2.167735755571018E-4
10.552,-2.1254244000225544E-4
10.556000000000001,-2.2196633282895877E-4
10.56,-2.288659686485094E-4
10.564,-2.1953823799350714E-4
10.568,-2.2184613011433244E-4
10.572000000000001,-2.463674838981013E-4
10.576,-2.5593561998235625E-4
10.58,-2.6105625562543734E-4
10.584,-2.713936890833007E-4
10.588000000000001,-2.626429314585047E-4
10.592,-2.5514228206582255E-4
10.596,-2.4949275447838556E-4
10.6,-2.481224435316456E-4
10.604000000000001,-2.483868895038235E-4
10.608,-2.476416326731403E-4
10.612,-2.477137543019161E-4
10.616,-2.45790510867895E-4
10.620000000000001,-2.3946784807855068E-4
10.624,-2.3961209133610225E-4
10.628,-2.483628489608982E-4
10.632,-2.5254590342989406E-4
10.636000000000001,-2.551663226087478E-4
10.64,-2.552865253233741E-4
10.644,-2.513919573694814E-4
10.648,-2.454779838098666E-4
10.652000000000001,-2.4930043013498345E-4
10.656,-2.6608072909681745E-4
10.66,-2.614889853980921E-4
10.664,-2.555269307526267E-4
10.668000000000001,-2.5939745816359416E-4
10.672,-2.734371352319481E-4
10.676,-2.66128810182668E-4
10.68,-2.53363281889353E-4
10.684000000000001,-2.4377110526217283E-4
10.688,-2.3718399650065063E-4
10.692,-2.505986194529477E-4
10.696,-2.6483062086470375E-4
10.700000000000001,-2.7427855423433234E-4
10.704,-2.683405401317922E-4
10.708,-2.597821068503984E-4
10.712,-2.567289578988899E-4
10.716000000000001,-2.555269307526267E-4
10.72,-2.6014271499427737E-4
10.724,-2.5764249853004996E-4
10.728,-2.556952145531036E-4
10.732000000000001,-2.523054980006414E-4
10.736,-2.537960116620077E-4
10.74,-2.703359051945891E-4
10.744,-2.8250041991477253E-4
10.748000000000001,-2.661047696397427E-4
10.752,-2.560798632399078E-4
10.756,-2.6865306718982065E-4
10.76,-2.6437385054912374E-4
10.764,-2.5504611989412147E-4
10.768,-2.5122367356900457E-4
10.772,-2.5737805255787206E-4
10.776,-2.5571925509602884E-4
10.78,-2.4826668678919715E-4
10.784,-2.580271472168542E-4
10.788,-2.681482157883901E-4
10.792,-2.644219316349743E-4
10.796,-2.6694618864212693E-4
10.8,-2.6709043189967856E-4
10.804,-2.6367667480429113E-4
10.808,-2.6410940457694584E-4
10.812,-2.5841179590365836E-4
10.816,-2.460789973829982E-4
10.82,-2.2879384701973362E-4
10.824,-2.3163063108491472E-4
10.828,-2.502380113090687E-4
10.832,-2.597821068503984E-4
10.836,-2.616813097414942E-4
10.84,-2.693502429346533E-4
10.844,-2.6302758014530895E-4
10.848,-2.515121600841077E-4
10.852,-2.529786332025488E-4
10.856,-2.5408449817711096E-4
10.86,-2.4341049711829388E-4
10.864,-2.4309797006026544E-4
10.868,-2.560558226969825E-4
10.872,-2.644219316349743E-4
10.876,-2.5809926884562997E-4
10.88,-2.427373619163865E-4
10.884,-2.288659686485094E-4
10.888,-2.4429999720652863E-4
10.892,-2.6463829652130164E-4
10.896,-2.74158351519706E-4
10.9,-2.673789184147817E-4
10.904,-2.7019166193703755E-4
10.908,-2.7384582446167763E-4
10.912,-2.583877553607331E-4
10.916,-2.449490918655108E-4
10.92,-2.5091114651097613E-4
10.924,-2.571376471286194E-4
10.928,-2.5901280947678994E-4
10.932,-2.575703769012742E-4
10.936,-2.547335928360931E-4
10.94,-2.505264978241719E-4
10.944,-2.47978200274094E-4
10.948,-2.448288891508845E-4
10.952,-2.4288160517393808E-4
10.956,-2.3220760411512103E-4
10.96,-2.3670318564214535E-4
10.964,-2.506947816246487E-4
10.968,-2.6009463390842683E-4
10.972,-2.580752283027047E-4
10.976,-2.598301879362489E-4
10.98,-2.704801484521407E-4
10.984,-2.7064843225261756E-4
10.988,-2.6242656657217737E-4
10.992,-2.6124857996883945E-4
10.996,-2.717062161413291E-4
11.0,-2.6449405326375006E-4
11.004,-2.519689303996877E-4
11.008000000000001,-2.413430104267212E-4
11.012,-2.392514831922233E-4
11.016,-2.4218442942910545E-4
11.02,-2.4405959177727597E-4
11.024000000000001,-2.4603091629714764E-4
11.028,-2.426652402876107E-4
11.032,-2.4071795631066436E-4
11.036,-2.3578964501098535E-4
11.040000000000001,-2.3285669877410318E-4
11.044,-2.5199297094261297E-4
11.048,-2.8300527131620303E-4
11.052,-2.6918195913417644E-4
11.056000000000001,-2.430739295173402E-4
11.06,-2.4350665928999494E-4
11.064,-2.58195431017331E-4
11.068,-2.6617689126851854E-4
11.072000000000001,-2.6660962104117325E-4
11.076,-2.5557501183847727E-4
11.08,-2.512477141119298E-4
11.084,-2.4668001095612976E-4
11.088000000000001,-2.4478080806503394E-4
11.092,-2.515842817128835E-4
11.096,-2.571616876715447E-4
11.1,-2.597099852216226E-4
11.104000000000001,-2.6449405326375006E-4
11.108,-2.6021483662305316E-4
11.112,-2.5293055211669823E-4
11.116,-2.519689303996877E-4
11.120000000000001,-2.5021397076614347E-4
11.124,-2.4646364606980235E-4
11.128,-2.4646364606980235E-4
11.132,-2.5574329563895413E-4
11.136000000000001,-2.605754447669321E-4
11.14,-2.5432490360636356E-4
11.144,-2.549739982653457E-4
11.148,-2.4725698398633605E-4
11.152000000000001,-2.4369898363339702E-4
11.156,-2.4326625386074228E-4
11.16,-2.486753760189266E-4
11.164,-2.560317821540573E-4
11.168000000000001,-2.5240166017234244E-4
11.172,-2.4951679502131086E-4
11.176,-2.455260648957171E-4
11.18,-2.3766480735915588E-4
11.184000000000001,-2.3603005044023798E-4
11.188,-2.3114982022640946E-4
11.192,-2.322797257438968E-4
11.196,-2.344674151500958E-4
11.200000000000001,-2.4240079431543283E-4
11.204,-2.481224435316456E-4
11.208,-2.5136791682655614E-4
11.212,-2.4420383503482755E-4
11.216000000000001,-2.578348228734521E-4
11.22,-2.5653663355548783E-4
11.224,-2.4264119974468546E-4
11.228,-2.2977950927966946E-4
11.232000000000001,-2.294910227645663E-4
11.236,-2.3715995595772536E-4
11.24,-2.3511650980907793E-4
11.244,-2.41415132055497E-4
11.248000000000001,-2.534834846039793E-4
11.252,-2.539162143766341E-4
11.256,-2.4179978074230125E-4
11.26,-2.446606053504076E-4
11.264,-2.3172679325661577E-4
11.268,-2.305968877391284E-4
11.272,-2.2951506330749156E-4
11.276,-2.2427422494978406E-4
11.28,-2.3062092828205367E-4
11.284,-2.323758879155979E-4
11.288,-2.344193340642453E-4
11.292,-2.3598196935438747E-4
11.296,-2.3352983397601054E-4
11.3,-2.3949188862147592E-4
11.304,-2.3518863143785372E-4
11.308,-2.3405872592036634E-4
11.312,-2.3492418546567582E-4
11.316,-2.419680645427781E-4
11.32,-2.389870372200454E-4
11.324,-2.2494736015169143E-4
11.328,-2.3021223905232417E-4
11.332,-2.4093432119699171E-4
11.336,-2.4427595666360333E-4
11.34,-2.4252099703005913E-4
11.344,-2.3367407723356211E-4
11.348,-2.3737632084405274E-4
11.352,-2.3968421296487804E-4
11.356,-2.4381918634802335E-4
11.36,-2.3992461839413066E-4
11.364,-2.389870372200454E-4
11.368,-2.505745789100224E-4
11.372,-2.5571925509602884E-4
11.376,-2.4542990272401606E-4
11.38,-2.47978200274094E-4
11.384,-2.5653663355548783E-4
11.388,-2.5004568696566665E-4
11.392,-2.3326538800383265E-4
11.396,-2.2475503580828932E-4
11.4,-2.2545221155312195E-4
11.404,-2.3016415796647366E-4
11.408,-2.3348175289016003E-4
11.412,-2.2215865717236085E-4
11.416,-2.2295199508889454E-4
11.42,-2.4357878091877072E-4
11.424,-2.4362686200462124E-4
11.428,-2.433383754895181E-4
11.432,-2.459107135825213E-4
11.436,-2.6040716096645527E-4
11.44,-2.5591157943943095E-4
11.444,-2.4463656480748237E-4
11.448,-2.4516545675183816E-4
11.452,-2.4826668678919715E-4
11.456,-2.4165553748474965E-4
11.46,-2.4117472662624437E-4
11.464,-2.3973229405072855E-4
11.468,-2.4083815902529068E-4
11.472,-2.4054967251018752E-4
11.476,-2.4478080806503394E-4
11.48,-2.506947816246487E-4
11.484,-2.4432403774945387E-4
11.488,-2.3788117224548327E-4
11.492,-2.3862642907616644E-4
11.496,-2.5011780859444244E-4
11.5,-2.4562222706741817E-4
11.504,-2.3841006418983906E-4
11.508000000000001,-2.325201311731495E-4
11.512,-2.2807263073197572E-4
11.516,-2.338183204911137E-4
11.52,-2.3518863143785372E-4
11.524000000000001,-2.4966103827886243E-4
11.528,-2.4939659230668453E-4
11.532,-2.4752142995851395E-4
11.536,-2.4603091629714764E-4
11.540000000000001,-2.4242483485835807E-4
11.544,-2.405737130531128E-4
11.548,-2.4860325439015084E-4
11.552,-2.3915532102052224E-4
11.556000000000001,-2.3845814527568958E-4
11.56,-2.4454040263578123E-4
11.564,-2.4336241603244334E-4
11.568,-2.4225655105788123E-4
11.572000000000001,-2.295391038504168E-4
11.576,-2.225192653162398E-4
11.58,-2.3326538800383265E-4
11.584,-2.5011780859444244E-4
11.588000000000001,-2.544451063209899E-4
11.592,-2.452856594664645E-4
11.596,-2.3571752338220957E-4
11.6,-2.345395367788716E-4
11.604000000000001,-2.2590898186870196E-4
11.608,-2.241299816922325E-4
11.612,-2.3708783432894957E-4
11.616,-2.5600774161113203E-4
11.620000000000001,-2.5540672803800045E-4
11.624,-2.4098240228284226E-4
11.628,-2.2583686023992618E-4
11.632,-2.2170188685678087E-4
11.636000000000001,-2.2343280594739985E-4
11.64,-2.3432317189254424E-4
11.644,-2.4497313240843605E-4
11.648,-2.3821773984643695E-4
11.652000000000001,-2.2857748213340624E-4
11.656,-2.3016415796647366E-4
11.66,-2.3730419921527693E-4
11.664,-2.2771202258809676E-4
11.668000000000001,-2.2170188685678087E-4
11.672,-2.2511564395216827E-4
11.676,-2.3901107776297067E-4
11.68,-2.482907273321224E-4
11.684000000000001,-2.476656732160655E-4
11.688,-2.4454040263578123E-4
11.692,-2.375926857303801E-4
11.696,-2.3295286094580423E-4
11.700000000000001,-2.347318611222737E-4
11.704,-2.3463569895057265E-4
11.708,-2.3307306366043053E-4
11.712,-2.3396256374866528E-4
11.716000000000001,-2.309094147971568E-4
11.72,-2.1843237301894504E-4
11.724,-2.2105279219779874E-4
11.728,-2.182640892184682E-4
11.732000000000001,-2.2283179237426824E-4
11.736,-2.2494736015169143E-4
11.74,-2.3009203633769787E-4
11.744,-2.3891491559126961E-4
11.748000000000001,-2.453577810952403E-4
11.752,-2.3723207758650114E-4
11.756,-2.2939486059286523E-4
11.76,-2.3699167215724852E-4
11.764000000000001,-2.3711187487187484E-4
11.768,-2.3141426619858733E-4
11.772,-2.3045264448157682E-4
11.776,-2.3413084754914213E-4
11.78,-2.3735228030112747E-4
11.784,-2.2271158965964192E-4
11.788,-2.105711154823838E-4
11.792,-2.3910723993467173E-4
11.796,-2.468723352995318E-4
11.8,-2.3598196935438747E-4
11.804,-2.35573280124658E-4
11.808,-2.291304146206873E-4
11.812,-2.2196633282895877E-4
11.816,-2.3516459089492845E-4
11.82,-2.397803751365791E-4
11.824,-2.344193340642453E-4
11.828,-2.3903511830589594E-4
11.832,-2.486753760189266E-4
11.836,-2.4110260499746856E-4
11.84,-2.3773692898793167E-4
11.844,-2.3276053660240212E-4
11.848,-2.2511564395216827E-4
11.852,-2.2468291417951353E-4
11.856,-2.177832783599629E-4
11.86,-2.2321644106107247E-4
11.864,-2.2275967074549243E-4
11.868,-2.182640892184682E-4
11.872,-2.1239819674470384E-4
11.876,-2.043686554076658E-4
11.88,-2.0653230427093952E-4
11.884,-2.1850449464772082E-4
11.888,-2.272312117295915E-4
11.892,-2.3559732066758324E-4
11.896,-2.211489543694998E-4
11.9,-2.074458449020995E-4
11.904,-2.2138935979875243E-4
11.908,-2.3295286094580423E-4
11.912,-2.3985249676535488E-4
11.916,-2.321595230292705E-4
11.92,-2.2489927906584091E-4
11.924,-2.1761499455948607E-4
11.928,-2.1095576416918805E-4
11.932,-2.1153273719939436E-4
11.936,-2.0804685847523118E-4
11.94,-2.1136445339891752E-4
11.944,-2.1920167039255346E-4
11.948,-2.2480311689413986E-4
11.952,-2.3429913134961897E-4
11.956,-2.329047798599537E-4
11.96,-2.314383067415126E-4
11.964,-2.3062092828205367E-4
11.968,-2.0547452038222793E-4
11.972,-1.8604976169861497E-4
11.976,-2.0383976346331E-4
11.98,-2.170139809863545E-4
11.984,-2.1004222353802803E-4
11.988,-2.1542730515328705E-4
11.992,-2.15787913297166E-4
11.996,-2.0792665576060485E-4
12.0,-2.0383976346331E-4
12.004,-2.0790261521767958E-4
12.008000000000001,-2.0559472309685425E-4
12.012,-2.1912954876377767E-4
12.016,-2.243944276644104E-4
12.02,-2.2047581916759243E-4
12.024000000000001,-2.2201441391480928E-4
12.028,-2.193699541930303E-4
12.032,-2.1732650804438293E-4
12.036,-2.1749479184485977E-4
12.040000000000001,-2.1110000742673962E-4
12.044,-1.9583426266919725E-4
12.048,-1.9766134393151724E-4
12.052,-2.099220208234017E-4
12.056000000000001,-2.1855257573357134E-4
12.06,-2.2521180612386933E-4
12.064,-2.3821773984643695E-4
12.068,-2.3566944229635905E-4
12.072000000000001,-2.2263946803086613E-4
12.076,-2.1879298116282396E-4
12.08,-2.0124338482738153E-4
12.084,-1.890067484784224E-4
12.088000000000001,-2.1198950751497437E-4
12.092,-2.2699080630033888E-4
12.096,-2.2737545498714308E-4
12.1,-2.2054794079636822E-4
12.104000000000001,-2.1893722442037556E-4
12.108,-2.0941716942197118E-4
12.112,-2.0275793903167316E-4
12.116,-2.1412911583532283E-4
12.120000000000001,-2.2725525227251678E-4
12.124,-2.298035498225947E-4
12.128,-2.3850622636154014E-4
12.132,-2.3437125297839475E-4
12.136000000000001,-2.2675040087108625E-4
12.14,-2.165812512136997E-4
12.144,-2.1292708868905964E-4
12.148,-2.218701706572577E-4
12.152000000000001,-2.227356302025672E-4
12.156,-2.1254244000225544E-4
12.16,-2.111240479696649E-4
12.164,-2.230481572605956E-4
12.168000000000001,-2.43602821461696E-4
12.172,-2.3814561821766116E-4
12.176,-2.177832783599629E-4
12.18,-2.0256561468827105E-4
12.184000000000001,-2.0458502029399315E-4
12.188,-2.2420210332100828E-4
12.192,-2.3285669877410318E-4
12.196,-2.3352983397601054E-4
12.200000000000001,-2.1939399473595554E-4
12.204,-2.2660615761353466E-4
12.208,-2.3350579343308527E-4
12.212,-2.3004395525184733E-4
12.216000000000001,-2.189612649633008E-4
12.22,-2.1405699420654704E-4
12.224,-2.219422922860335E-4
12.228,-2.2319240051814723E-4
12.232000000000001,-2.1768711618826186E-4
12.236,-2.1338385900463965E-4
12.24,-2.2155764359922927E-4
12.244,-2.2350492757617564E-4
12.248000000000001,-2.216778463138556E-4
12.252,-2.167735755571018E-4
12.256,-2.1725438641560712E-4
12.26,-2.1706206207220503E-4
12.264000000000001,-2.1405699420654704E-4
12.268,-2.1232607511592806E-4
12.272,-2.099220208234017E-4
12.276,-2.0698907458651953E-4
12.280000000000001,-2.1299921031783542E-4
12.284,-2.2100471111194823E-4
12.288,-2.3477994220812422E-4
12.292,-2.2237502205868823E-4
12.296,-2.1458588615090284E-4
12.3,-2.099220208234017E-4
12.304,-2.0876807476298906E-4
12.308,-2.1049899385360802E-4
12.312,-2.08671912591288E-4
12.316,-2.0285410120337422E-4
12.32,-1.996326684513889E-4
12.324,-2.0408016889256263E-4
12.328,-2.0773433141720274E-4
12.332,-2.1261456163103123E-4
12.336,-2.060755339553595E-4
12.34,-2.058110879831816E-4
12.344,-2.13960832034846E-4
12.348,-2.2124511654120086E-4
12.352,-2.0852766933373643E-4
12.356,-2.0636402047046268E-4
12.36,-2.306449688249789E-4
12.364,-2.3066900936790418E-4
12.368,-2.058110879831816E-4
12.372,-1.965795194998804E-4
12.376,-2.1189334534327332E-4
12.38,-2.177351972741124E-4
12.384,-2.166293322995502E-4
12.388,-2.1299921031783542E-4
12.392,-2.1208566968667543E-4
12.396,-2.1417719692117337E-4
12.4,-2.0359935803405737E-4
12.404,-2.037676418345342E-4
12.408,-2.0537835821052687E-4
12.412,-2.0819110173278275E-4
12.416,-2.0662846644264058E-4
12.42,-2.049215878949469E-4
12.424,-2.0646018264216373E-4
12.428,-2.1021050733850487E-4
12.432,-2.207643056826956E-4
12.436,-2.2977950927966946E-4
12.44,-2.2184613011433244E-4
12.444,-2.0888827747761538E-4
12.448,-2.016761146000363E-4
12.452,-1.9350233000544668E-4
12.456,-1.913627216850982E-4
12.46,-1.977575061032183E-4
12.464,-1.9511304638143934E-4
12.468,-1.8068872062628117E-4
12.472,-1.9326192457619405E-4
12.476,-2.130713319466112E-4
12.48,-2.176630756453366E-4
12.484,-2.1540326461036178E-4
12.488,-2.1213375077252595E-4
12.492,-2.074458449020995E-4
12.496,-2.1251839945933017E-4
12.5,-2.196824812510587E-4
12.504,-2.090806018210175E-4
12.508000000000001,-2.0535431766760163E-4
12.512,-2.209566300260977E-4
12.516,-2.2283179237426824E-4
12.52,-2.1273476434565753E-4
12.524000000000001,-2.050417906095732E-4
12.528,-2.0090681722642785E-4
12.532,-1.9205989742993084E-4
12.536,-1.9405526249272772E-4
12.540000000000001,-1.9602658701259936E-4
12.544,-1.935504110912972E-4
12.548,-1.9980095225186574E-4
12.552,-2.2203845445773455E-4
12.556000000000001,-2.1898530550622608E-4
12.56,-2.155234673249881E-4
12.564,-2.0804685847523118E-4
12.568,-2.0989798028047643E-4
12.572000000000001,-2.06027452869509E-4
12.576,-2.0311854717555212E-4
12.58,-2.1042687222483223E-4
12.584,-2.1261456163103123E-4
12.588000000000001,-2.1465800777967862E-4
12.592,-2.114365750276933E-4
12.596,-2.0444077703644158E-4
12.6,-1.935504110912972E-4
12.604000000000001,-1.8684309961514866E-4
12.608,-1.8633824821371814E-4
12.612,-1.86602694185896E-4
12.616,-1.8362166686316332E-4
12.620000000000001,-1.757123282407516E-4
12.624,-1.8080892334090752E-4
12.628,-1.9633911407062777E-4
12.632,-1.970362898154604E-4
12.636000000000001,-1.8246772080275067E-4
12.64,-1.809531665984591E-4
12.644,-2.0244541197364472E-4
12.648,-2.1244627783055439E-4
12.652000000000001,-2.066765475284911E-4
12.656,-2.0780645304597855E-4
12.66,-2.1278284543150807E-4
12.664,-2.1420123746409861E-4
12.668000000000001,-2.1220587240130176E-4
12.672,-2.0749392598795006E-4
12.676,-1.9030493779638663E-4
12.68,-1.731399901477484E-4
12.684000000000001,-1.6703369224473148E-4
12.688,-1.7085613856984835E-4
12.692,-1.7823658524790428E-4
12.696,-1.748709092383674E-4
12.700000000000001,-1.7893376099273691E-4
12.704,-1.9148292439972453E-4
12.708,-1.8857401870576765E-4
12.712,-1.8684309961514866E-4
12.716000000000001,-1.8225135591642331E-4
12.72,-1.9090595136951822E-4
12.724,-1.9977691170894047E-4
12.728,-1.9465627606585933E-4
12.732000000000001,-1.968920465579088E-4
12.736,-1.9362253272007298E-4
12.74,-1.842948020650707E-4
12.744,-1.9391101923517615E-4
12.748000000000001,-1.9465627606585933E-4
12.752,-1.907857486548919E-4
12.756,-1.9138676222802347E-4
12.76,-1.9282919480353926E-4
12.764000000000001,-1.9523324909606567E-4
12.768,-1.907136270261161E-4
12.772,-1.9554577615409408E-4
12.776,-1.9934418193628573E-4
12.780000000000001,-1.9232434340210873E-4
12.784,-1.932138434903435E-4
12.788,-1.938148570634751E-4
12.792,-1.9636315461355304E-4
12.796000000000001,-1.9492072203803723E-4
12.8,-1.8943947825107713E-4
12.804,-1.8881442413502028E-4
12.808,-1.845592480372486E-4
12.812,-1.9004049182420874E-4
12.816,-1.9350233000544668E-4
12.82,-1.8761239698875709E-4
12.824,-1.7568828769782635E-4
12.828,-1.8518430215330546E-4
12.832,-1.994403441079868E-4
12.836,-1.9588234375504776E-4
12.84,-1.8479965346650124E-4
12.844,-1.9054534322563926E-4
12.848,-2.0316662826140263E-4
12.852,-1.9196373525822978E-4
12.856,-2.0066641179717522E-4
12.86,-2.0355127694820683E-4
12.864,-2.0811898010400696E-4
12.868,-2.1417719692117337E-4
12.872,-2.0879211530591433E-4
12.876,-2.1297516977491018E-4
12.88,-1.985268034768268E-4
12.884,-1.804723557399538E-4
12.888,-1.8083296388383277E-4
12.892,-1.9042514051101293E-4
12.896,-1.9831043859049936E-4
12.9,-2.0076257396887628E-4
12.904,-1.9754114121689094E-4
12.908,-1.8419863989336966E-4
12.912,-1.8840573490529075E-4
12.916,-2.0222904708731737E-4
12.92,-2.0463310137984372E-4
12.924,-1.99368222479211E-4
12.928,-1.9278111371768874E-4
12.932,-1.8443904532262228E-4
12.936,-1.812656936564875E-4
12.94,-1.991758981358089E-4
12.944,-2.0487350680909635E-4
12.948,-1.9809407370417197E-4
12.952,-1.8624208604201708E-4
12.956,-1.8229943700227383E-4
12.96,-1.80400234111178E-4
12.964,-1.8347742360561172E-4
12.968,-1.852083426962307E-4
12.972,-1.791982069649148E-4
12.976,-1.832370181763591E-4
12.98,-1.8725178884487813E-4
12.984,-1.912906000563224E-4
12.988,-1.8612188332739075E-4
12.992,-1.7511131466762002E-4
12.996,-1.8775664024630866E-4
13.0,-1.9431970846490562E-4
13.004,-1.9429566792198035E-4
13.008000000000001,-1.8970392422325503E-4
13.012,-1.8504005889575386E-4
13.016,-1.8528046432500652E-4
13.02,-1.808810449696833E-4
13.024000000000001,-1.7734708515966953E-4
13.028,-1.7838082850545585E-4
13.032,-1.8689118070099918E-4
13.036,-1.862901671278676E-4
13.040000000000001,-1.8191478831546963E-4
13.044,-1.7912608533613903E-4
13.048,-1.8196286940132015E-4
13.052,-1.8479965346650124E-4
13.056000000000001,-1.7576040932660214E-4
13.06,-1.8729986993072865E-4
13.064,-1.9157908657142558E-4
13.068,-1.8580935626936234E-4
13.072000000000001,-1.745103010944884E-4
13.076,-1.8064063954043063E-4
13.08,-1.940071814068772E-4
13.084,-1.9465627606585933E-4
13.088000000000001,-1.8381399120656543E-4
13.092,-1.735967604633284E-4
13.096,-1.739814091501326E-4
13.1,-1.6703369224473148E-4
13.104000000000001,-1.5936475905157236E-4
13.108,-1.6905309785045358E-4
13.112,-1.7717880135919268E-4
13.116,-1.8802108621848655E-4
13.120000000000001,-1.824436802598254E-4
13.124,-1.6018213751103132E-4
13.128,-1.6434115143710193E-4
13.132,-1.9304555968986664E-4
13.136000000000001,-1.9395910032102666E-4
13.14,-1.8768451861753287E-4
13.144,-1.9032897833931188E-4
13.148,-1.8948755933692764E-4
13.152000000000001,-1.9068958648319083E-4
13.156,-1.7770769330354848E-4
13.16,-1.8092912605553382E-4
13.164,-1.8241963971690016E-4
13.168000000000001,-1.8364570740608856E-4
13.172,-1.7739516624552007E-4
13.176,-1.7133694942835363E-4
13.18,-1.716975575722326E-4
13.184000000000001,-1.66721165186703E-4
13.188,-1.6746642201738622E-4
13.192,-1.6914926002215464E-4
13.196,-1.709523007415494E-4
13.200000000000001,-1.6301892157621244E-4
13.204,-1.4991682568194376E-4
13.208,-1.5426816395141648E-4
13.212,-1.738612064355063E-4
13.216000000000001,-1.8484773455235178E-4
13.22,-1.926849515459877E-4
13.224,-1.8597764006983918E-4
13.228,-1.854487481254834E-4
13.232000000000001,-1.8193882885839487E-4
13.236,-1.8412651826459387E-4
13.24,-1.881172483901876E-4
13.244,-1.824436802598254E-4
13.248000000000001,-1.7963093673756958E-4
13.252,-1.8080892334090752E-4
13.256,-1.8573723464058656E-4
13.26,-1.791982069649148E-4
13.264000000000001,-1.6181689442994925E-4
13.268,-1.5922051579402079E-4
13.272,-1.6414882709369982E-4
13.276,-1.7008684119623993E-4
13.280000000000001,-1.6869248970657462E-4
13.284,-1.6746642201738622E-4
13.288,-1.720341251731863E-4
13.292,-1.742458551223105E-4
13.296000000000001,-1.636439756922693E-4
13.3,-1.699666384816136E-4
13.304,-1.6910117893630412E-4
13.308,-1.656874218409167E-4
13.312000000000001,-1.7073593585522205E-4
13.316,-1.7547192281149897E-4
13.32,-1.7167351702930734E-4
13.324,-1.6650480030037566E-4
13.328,-1.63163164833764E-4
13.332,-1.6208134040212715E-4
13.336,-1.6212942148797766E-4
13.34,-1.6633651649989881E-4
13.344,-1.6554317858336512E-4
13.348,-1.6794723287589147E-4
13.352,-1.6599994889894513E-4
13.356,-1.5121501499990798E-4
13.36,-1.5496533969624912E-4
13.364,-1.8412651826459387E-4
13.368,-1.888625052208708E-4
13.372,-1.9672376275743197E-4
13.376,-2.0400804726378684E-4
13.38,-1.8994432965250765E-4
13.384,-1.745103010944884E-4
13.388,-1.6381225949274613E-4
13.392,-1.5708090747367233E-4
13.396,-1.4619054152852792E-4
13.4,-1.4734448758894057E-4
13.404,-1.4619054152852792E-4
13.408,-1.4369032506430048E-4
13.412,-1.5407583960801437E-4
13.416,-1.623217458313798E-4
13.42,-1.6571146238384196E-4
13.424,-1.6465367849513034E-4
13.428,-1.628506377757356E-4
13.432,-1.6241790800308086E-4
13.436,-1.5859546167796393E-4
13.44,-1.532825016914807E-4
13.444,-1.4852247419227851E-4
13.448,-1.549172586103986E-4
13.452,-1.8287641003248014E-4
13.456,-1.8198690994424542E-4
13.46,-1.6496620555315876E-4
13.464,-1.7761153113184742E-4
13.468,-1.8292449111833068E-4
13.472,-1.636920567781198E-4
13.476,-1.6434115143710193E-4
13.48,-1.701108817391652E-4
13.484,-1.7061573314059572E-4
13.488,-1.7270726037509366E-4
13.492,-1.6215346203090293E-4
13.496,-1.5931667796572184E-4
13.5,-1.5864354276381448E-4
13.504,-1.6544701641166406E-4
13.508000000000001,-1.6866844916364938E-4
13.512,-1.6857228699194832E-4
13.516,-1.634276108059419E-4
13.52,-1.5467685318114595E-4
13.524000000000001,-1.5595100195618493E-4
13.528,-1.6785107070419042E-4
13.532,-1.6741834093153568E-4
13.536,-1.5667221824394284E-4
13.540000000000001,-1.7402949023598315E-4
13.544,-1.842948020650707E-4
13.548,-1.804723557399538E-4
13.552,-1.722264495165884E-4
13.556000000000001,-1.665288408433009E-4
13.56,-1.7162543594345683E-4
13.564,-1.7883759882103586E-4
13.568,-1.7306786851897262E-4
13.572000000000001,-1.6934158436555675E-4
13.576,-1.6179285388702398E-4
13.58,-1.6850016536317254E-4
13.584,-1.831648965475833E-4
13.588000000000001,-1.84775612923576E-4
13.592,-1.683318815626957E-4
13.596,-1.5739343453170074E-4
13.6,-1.5397967743631334E-4
13.604000000000001,-1.462145820714532E-4
13.608,-1.580425291906829E-4
13.612,-1.7275534146094418E-4
13.616,-1.7270726037509366E-4
13.620000000000001,-1.6140820520021978E-4
13.624,-1.6770682744663885E-4
13.628,-1.6669712464377774E-4
13.632,-1.7265917928924315E-4
13.636000000000001,-1.8155418017159068E-4
13.64,-1.83501464148537E-4
13.644,-1.764575850714348E-4
13.648,-1.6477388120975667E-4
13.652000000000001,-1.5655201552931654E-4
13.656,-1.530901773480786E-4
13.66,-1.4929177156588694E-4
13.664,-1.5929263742279657E-4
13.668000000000001,-1.676587463607883E-4
13.672,-1.5881182656429132E-4
13.676,-1.5383543417876174E-4
13.68,-1.5402775852216386E-4
13.684000000000001,-1.5248916377494698E-4
13.688,-1.530661368051533E-4
13.692,-1.5929263742279657E-4
13.696,-1.6994259793868833E-4
13.700000000000001,-1.739333280642821E-4
13.704,-1.5837909679163658E-4
13.708,-1.4537316306906893E-4
13.712,-1.5534998838305335E-4
13.716000000000001,-1.606389078266113E-4
13.72,-1.6167265117239768E-4
13.724,-1.6931754382263148E-4
13.728,-1.6580762455554302E-4
13.732000000000001,-1.6212942148797766E-4
13.736,-1.6297084049036193E-4
13.74,-1.5323442060563016E-4
13.744,-1.4708004161676267E-4
13.748000000000001,-1.5010915002534587E-4
13.752,-1.510226906565059E-4
13.756,-1.583069751628608E-4
13.76,-1.640286243790735E-4
13.764000000000001,-1.6270639451818403E-4
13.768,-1.561673668425123E-4
13.772,-1.5580675869863333E-4
13.776,-1.59148394165245E-4
13.780000000000001,-1.6609611107064616E-4
13.784,-1.6460559740927983E-4
13.788,-1.605908267407608E-4
13.792,-1.6078315108416293E-4
13.796000000000001,-1.63163164833764E-4
13.8,-1.645575163234293E-4
13.804,-1.6174477280117347E-4
13.808,-1.5837909679163658E-4
13.812000000000001,-1.520804745452175E-4
13.816,-1.5063804196970167E-4
13.82,-1.581627319053092E-4
13.824,-1.67538543646162E-4
13.828,-1.5775404267557973E-4
13.832,-1.5027743382582272E-4
13.836,-1.395313111382299E-4
13.84,-1.399159598250341E-4
13.844,-1.4941197428051324E-4
13.848,-1.567683804156439E-4
13.852,-1.533546233202565E-4
13.856,-1.4823398767717532E-4
13.86,-1.6126396194266818E-4
13.864,-1.742458551223105E-4
13.868,-1.7660182832898637E-4
13.872,-1.7114462508495152E-4
13.876,-1.5773000213265445E-4
13.88,-1.4450770352375945E-4
13.884,-1.4311335203409417E-4
13.888,-1.475127713894174E-4
13.892,-1.4741660921771635E-4
13.896,-1.5871566439259026E-4
13.9,-1.6770682744663885E-4
13.904,-1.5378735309291123E-4
13.908,-1.3520401341168245E-4
13.912,-1.287851884506371E-4
13.916,-1.4510871709689103E-4
13.92,-1.6749046256031146E-4
13.924,-1.681876383051441E-4
13.928,-1.5845121842041236E-4
13.932,-1.5071016359847746E-4
13.936,-1.4792146061914688E-4
13.94,-1.6174477280117347E-4
13.944,-1.6143224574314503E-4
13.948,-1.5919647525109552E-4
13.952,-1.621775025738282E-4
13.956,-1.628506377757356E-4
13.96,-1.6434115143710193E-4
13.964,-1.6657692192915144E-4
13.968,-1.653268136970377E-4
13.972,-1.56503934443466E-4
13.976,-1.430893114911689E-4
13.98,-1.494360148234385E-4
13.984,-1.5376331254998596E-4
13.988,-1.5248916377494698E-4
13.992,-1.4638286587193003E-4
13.996,-1.3905050027972462E-4
14.0,-1.5032551491167326E-4
14.004,-1.5352290712073333E-4
14.008000000000001,-1.4893116342200798E-4
14.012,-1.5304209626222802E-4
14.016,-1.5095056902773008E-4
14.02,-1.4933985265173745E-4
14.024000000000001,-1.463347847860795E-4
14.028,-1.4847439310642797E-4
14.032,-1.4919560939418588E-4
14.036,-1.497004607956164E-4
14.040000000000001,-1.516237042296375E-4
14.044,-1.5369119092121017E-4
14.048,-1.479935822479227E-4
14.052,-1.4801762279084793E-4
14.056000000000001,-1.4695983890213637E-4
14.06,-1.4768105518989425E-4
14.064,-1.5066208251262694E-4
14.068,-1.4592609555635002E-4
14.072000000000001,-1.5159966368671223E-4
14.076,-1.4756085247526795E-4
14.08,-1.4734448758894057E-4
14.084,-1.6066294836953658E-4
14.088000000000001,-1.6910117893630412E-4
14.092,-1.7246685494584104E-4
14.096,-1.7612101747048107E-4
14.1,-1.6580762455554302E-4
14.104000000000001,-1.4854651473520376E-4
14.108,-1.3424239169467192E-4
14.112,-1.2919387768036656E-4
14.116,-1.353722972121593E-4
14.120000000000001,-1.4186324380198047E-4
14.124,-1.4193536543075625E-4
14.128,-1.3628583784331934E-4
14.132,-1.3104499948561184E-4
14.136000000000001,-1.3318460780596032E-4
14.14,-1.3426643223759716E-4
14.144,-1.320066212026224E-4
14.148,-1.3267975640452977E-4
14.152000000000001,-1.4801762279084793E-4
14.156,-1.637641784068956E-4
14.16,-1.5823485353408498E-4
14.164,-1.4292102769069206E-4
14.168000000000001,-1.4741660921771635E-4
14.172,-1.429691087765426E-4
14.176,-1.5794636701898184E-4
14.18,-1.6725005713105884E-4
14.184000000000001,-1.6020617805395657E-4
14.188,-1.5989365099592815E-4
14.192,-1.5672029932979338E-4
14.196,-1.5482109643869755E-4
14.200000000000001,-1.5287381246175118E-4
14.204,-1.516237042296375E-4
14.208,-1.4318547366286996E-4
14.212,-1.3284804020500661E-4
14.216000000000001,-1.3421835115174665E-4
14.22,-1.3364137812154033E-4
14.224,-1.320066212026224E-4
14.228,-1.427767844331405E-4
14.232000000000001,-1.382090812773404E-4
14.236,-1.3917070299435095E-4
14.24,-1.5364310983535963E-4
14.244,-1.717696792010084E-4
14.248000000000001,-1.6602398944187037E-4
14.252,-1.6157648900069662E-4
14.256,-1.4705600107383743E-4
14.26,-1.2186151208816115E-4
14.264000000000001,-1.2775144510485074E-4
14.268,-1.5414796123679018E-4
14.272,-1.5883586710721656E-4
14.276,-1.4840227147765216E-4
14.280000000000001,-1.4104586534252153E-4
14.284,-1.38810094850472E-4
14.288,-1.462626631573037E-4
14.292,-1.4902732559370904E-4
14.296000000000001,-1.4597417664220056E-4
14.3,-1.4741660921771635E-4
14.304,-1.489071228790827E-4
14.308,-1.446759873242363E-4
14.312000000000001,-1.350357296112056E-4
14.316,-1.421036492312331E-4
14.32,-1.5369119092121017E-4
14.324,-1.4383456832185208E-4
14.328000000000001,-1.4491639275348894E-4
14.332,-1.5128713662868377E-4
14.336,-1.5883586710721656E-4
14.34,-1.6886077350705147E-4
14.344,-1.7078401694107256E-4
14.348,-1.558307992415586E-4
14.352,-1.3683877033060038E-4
14.356,-1.300833777686013E-4
14.36,-1.4056505448401622E-4
14.364,-1.5700878584489652E-4
14.368,-1.4907540667955955E-4
14.372,-1.4078141937034363E-4
14.376,-1.340500673512698E-4
14.38,-1.3794463530516251E-4
14.384,-1.483061093059511E-4
14.388,-1.4782529844744585E-4
14.392,-1.385456488782941E-4
14.396,-1.315498508870424E-4
14.4,-1.327999591191561E-4
14.404,-1.2854478302138443E-4
14.408,-1.2217403914618956E-4
14.412,-1.287851884506371E-4
14.416,-1.4710408215968794E-4
14.42,-1.5708090747367233E-4
14.424,-1.5924455633694606E-4
14.428,-1.5845121842041236E-4
14.432,-1.5799444810483235E-4
14.436,-1.483782309347269E-4
14.44,-1.3806483801978881E-4
14.444,-1.3789655421931197E-4
14.448,-1.49387933737588E-4
14.452,-1.4801762279084793E-4
14.456,-1.4979662296731746E-4
14.46,-1.4936389319466272E-4
14.464,-1.434980007208984E-4
14.468,-1.3611755404284245E-4
14.472,-1.4085354099911942E-4
14.476,-1.4741660921771635E-4
14.48,-1.4462790623838578E-4
14.484,-1.418392032590552E-4
14.488,-1.458058928417237E-4
14.492,-1.4631074424315425E-4
14.496,-1.5006106893949536E-4
14.5,-1.551095829538007E-4
14.504,-1.6184093497287452E-4
14.508000000000001,-1.5275360974712488E-4
14.512,-1.462145820714532E-4
14.516,-1.5604716412788596E-4
14.52,-1.5234492051739539E-4
14.524000000000001,-1.3871393267877094E-4
14.528,-1.322710671748003E-4
14.532,-1.417670816302794E-4
14.536,-1.4554144686954582E-4
14.540000000000001,-1.4114202751422256E-4
14.544,-1.4061313556986674E-4
14.548,-1.3849756779244355E-4
14.552,-1.4013232471136148E-4
14.556000000000001,-1.3994000036795937E-4
14.56,-1.3424239169467192E-4
14.564,-1.425604195468131E-4
14.568,-1.5376331254998596E-4
14.572000000000001,-1.5573463706985754E-4
14.576,-1.4150263565810151E-4
14.58,-1.3731958118910564E-4
14.584,-1.487147985356806E-4
14.588000000000001,-1.4133435185762467E-4
14.592,-1.5051783925507534E-4
14.596,-1.4902732559370904E-4
14.6,-1.4034868959768884E-4
14.604000000000001,-1.4479619003886262E-4
14.608,-1.434980007208984E-4
14.612,-1.3784847313346146E-4
14.616,-1.3395390517956875E-4
14.620000000000001,-1.3931494625190252E-4
14.624,-1.4051697339816568E-4
14.628,-1.3900241919387408E-4
14.632,-1.2818417487750548E-4
14.636000000000001,-1.4272870334728998E-4
14.64,-1.548451369816228E-4
14.644,-1.5371523146413544E-4
14.648,-1.48113784962549E-4
14.652000000000001,-1.46743474015809E-4
14.656,-1.3421835115174665E-4
14.66,-1.3046802645540553E-4
14.664,-1.3219894554602452E-4
14.668000000000001,-1.3938706788067833E-4
14.672,-1.4787337953329636E-4
14.676,-1.5458069100944492E-4
14.68,-1.513352177145343E-4
14.684000000000001,-1.4998894731071957E-4
14.688,-1.4515679818274157E-4
14.692,-1.5083036631310378E-4
14.696,-1.5681646150149443E-4
14.700000000000001,-1.489792445078585E-4
14.704,-1.4477214949593735E-4
14.708,-1.3977171656748253E-4
14.712,-1.4227193303170994E-4
14.716000000000001,-1.3842544616366777E-4
14.72,-1.3957939222408042E-4
14.724,-1.5727323181707442E-4
14.728,-1.6068698891246185E-4
14.732000000000001,-1.5039763654044904E-4
14.736,-1.2806397216287915E-4
14.74,-1.0964891628212726E-4
14.744,-1.2991509396812444E-4
14.748000000000001,-1.4907540667955955E-4
14.752,-1.499649067677943E-4
14.756,-1.4688771727336056E-4
14.76,-1.5434028558019227E-4
14.764000000000001,-1.5287381246175118E-4
14.768,-1.3251147260405293E-4
14.772,-1.2198171480278746E-4
14.776,-1.2481849886796856E-4
14.780000000000001,-1.3082863459928446E-4
14.784,-1.4046889231231517E-4
14.788,-1.4003616253966043E-4
14.792,-1.3549249992678562E-4
14.796000000000001,-1.3698301358815195E-4
14.8,-1.40180405797212E-4
14.804,-1.3147772925826658E-4
14.808,-1.3799271639101303E-4
14.812000000000001,-1.483061093059511E-4
14.816,-1.4575781175587318E-4
14.82,-1.3811291910563936E-4
14.824,-1.3371349975031612E-4
14.828000000000001,-1.3698301358815195E-4
14.832,-1.4260850063266365E-4
14.836,-1.5604716412788596E-4
14.84,-1.5544615055475438E-4
14.844000000000001,-1.3549249992678562E-4
14.848,-1.2022675516924323E-4
14.852,-1.1027397039818411E-4
14.856,-1.1784674141964215E-4
14.86,-1.258522422137549E-4
14.864,-1.227750527193212E-4
14.868,-1.2484253941089384E-4
14.872,-1.3371349975031612E-4
14.876,-1.4042081122646465E-4
14.88,-1.3996404091088464E-4
14.884,-1.3890625702217305E-4
14.888,-1.4272870334728998E-4
14.892,-1.320066212026224E-4
14.896,-1.2138070122965588E-4
14.9,-1.2508294484014646E-4
14.904,-1.3950727059530463E-4
14.908,-1.356367431843372E-4
14.912,-1.2491466103966962E-4
14.916,-1.332086483488856E-4
14.92,-1.432335547487205E-4
14.924,-1.5662413715809232E-4
14.928,-1.5395563689338807E-4
14.932,-1.457337712129479E-4
14.936,-1.4638286587193003E-4
14.94,-1.461424604426774E-4
14.944,-1.3731958118910564E-4
14.948,-1.3210278337432346E-4
14.952,-1.3407410789419505E-4
14.956,-1.376080677042088E-4
14.96,-1.3455491875270033E-4
14.964,-1.3388178355079296E-4
14.968,-1.3284804020500661E-4
14.972,-1.2703022881709283E-4
14.976,-1.27318715332196E-4
14.98,-1.337856213790919E-4
14.984,-1.3808887856271409E-4
14.988,-1.4260850063266365E-4
14.992,-1.4369032506430048E-4
14.996,-1.3347309432106347E-4
15.0,-1.287851884506371E-4
15.004,-1.345789592956256E-4
15.008000000000001,-1.5220067725984381E-4
15.012,-1.5640777227176494E-4
15.016,-1.477772173615953E-4
15.02,-1.3924282462312673E-4
15.024000000000001,-1.431614331199447E-4
15.028,-1.372234190174046E-4
15.032,-1.4200748705953204E-4
15.036,-1.3794463530516251E-4
15.040000000000001,-1.3118924274316341E-4
15.044,-1.2715043153171916E-4
15.048,-1.2813609379165497E-4
15.052,-1.3162197251581818E-4
15.056000000000001,-1.4087758154204466E-4
15.06,-1.48113784962549E-4
15.064,-1.3900241919387408E-4
15.068,-1.3121328328608868E-4
15.072000000000001,-1.3888221647924778E-4
15.076,-1.4501255492519E-4
15.08,-1.4604629827097635E-4
15.084,-1.4320951420579523E-4
15.088000000000001,-1.3816100019148987E-4
15.092,-1.2683790447369072E-4
15.096,-1.267177017590644E-4
15.1,-1.400602030825857E-4
15.104000000000001,-1.4078141937034363E-4
15.108,-1.3837736507781725E-4
15.112,-1.3424239169467192E-4
15.116,-1.263811341581107E-4
15.120000000000001,-1.2318374194905066E-4
15.124,-1.1308671392043996E-4
15.128,-1.243376880094633E-4
15.132,-1.3856968942121937E-4
15.136000000000001,-1.3710321630277828E-4
15.14,-1.3037186428370448E-4
15.144,-1.1890452530835374E-4
15.148,-1.2366455280755592E-4
15.152000000000001,-1.315498508870424E-4
15.156,-1.4049293285524044E-4
15.16,-1.4150263565810151E-4
15.164,-1.380167569339383E-4
15.168000000000001,-1.3419431060882137E-4
15.172,-1.3525209449753297E-4
15.176,-1.320787428313982E-4
15.18,-1.2760720184729917E-4
15.184000000000001,-1.253954718981749E-4
15.188,-1.368147297876751E-4
15.192,-1.3727150010325512E-4
15.196,-1.3534825666923402E-4
15.200000000000001,-1.3664644598719827E-4
15.204,-1.3191045903092135E-4
15.208,-1.2902559387988972E-4
15.212,-1.3844948670659304E-4
15.216000000000001,-1.4522891981151736E-4
15.22,-1.4695983890213637E-4
15.224,-1.3763210824713407E-4
15.228,-1.2914579659451602E-4
15.232000000000001,-1.2861690465016025E-4
15.236,-1.3705513521692776E-4
15.24,-1.3102095894268657E-4
15.244,-1.296746885388718E-4
15.248000000000001,-1.2614072872885808E-4
15.252,-1.2527526918354858E-4
15.256,-1.2876114790771182E-4
15.26,-1.2847266139260865E-4
15.264000000000001,-1.2678982338784018E-4
15.268,-1.240251609514349E-4
15.272,-1.343145133234477E-4
15.276,-1.4179112217320468E-4
15.280000000000001,-1.403246490547636E-4
15.284,-1.4097374371374572E-4
15.288,-1.296746885388718E-4
15.292,-1.0640344298721667E-4
15.296000000000001,-1.0700445656034826E-4
15.3,-1.214287823155064E-4
15.304,-1.329201618337824E-4
15.308,-1.360935134999172E-4
15.312000000000001,-1.358290675277393E-4
15.316,-1.3263167531867926E-4
15.32,-1.2739083696097179E-4
15.324,-1.293621614808434E-4
15.328000000000001,-1.3426643223759716E-4
15.332,-1.3058822917003183E-4
15.336,-1.2582820167082964E-4
15.34,-1.2647729632981177E-4
15.344000000000001,-1.285207424784592E-4
15.348,-1.3046802645540553E-4
15.352,-1.3049206699833078E-4
15.356,-1.3368945920739085E-4
15.36,-1.3075651297050867E-4
15.364,-1.2767932347607495E-4
15.368,-1.3688685141645092E-4
15.372,-1.3943514896652885E-4
15.376,-1.2590032329960543E-4
15.38,-1.140483356374505E-4
15.384,-1.0426383466686822E-4
15.388,-1.0707657818912405E-4
15.392,-1.1996230919706533E-4
15.396,-1.333288510635119E-4
15.4,-1.3231914826065082E-4
15.404,-1.2695810718831705E-4
15.408,-1.1712552513188423E-4
15.412,-1.0916810542362199E-4
15.416,-1.2549163406987596E-4
15.42,-1.3388178355079296E-4
15.424,-1.2770336401900023E-4
15.428,-1.2186151208816115E-4
15.432,-1.2926599930914234E-4
15.436,-1.3481936472487823E-4
15.44,-1.4212768977415837E-4
15.444,-1.419834465166068E-4
15.448,-1.359492702423656E-4
15.452,-1.3188641848799608E-4
15.456,-1.2828033704920654E-4
15.46,-1.2527526918354858E-4
15.464,-1.2109221471455272E-4
15.468,-1.2347222846415383E-4
15.472,-1.3183833740214556E-4
15.476,-1.3130944545778974E-4
15.48,-1.1291843011996309E-4
15.484,-1.1537056549833998E-4
15.488,-1.3551654046971086E-4
15.492,-1.230875797773496E-4
15.496,-1.1260590306193466E-4
15.5,-1.1467338975350736E-4
15.504,-1.225106067471433E-4
15.508000000000001,-1.2563587732742756E-4
15.512,-1.2039503896972007E-4
15.516,-1.193372550810085E-4
15.52,-1.1534652495541473E-4
15.524000000000001,-1.0847092967878935E-4
15.528,-1.084228485929388E-4
15.532,-1.1205297057465361E-4
15.536,-1.1722168730358527E-4
15.540000000000001,-1.2164514720183378E-4
15.544,-1.1789482250549268E-4
15.548,-1.0967295682505251E-4
15.552,-1.1830351173522216E-4
15.556000000000001,-1.2092393091407588E-4
15.56,-1.1231741654683151E-4
15.564,-1.097450784538283E-4
15.568,-1.1267802469071045E-4
15.572000000000001,-1.2818417487750548E-4
15.576,-1.2089989037115062E-4
15.58,-1.1385601129404838E-4
15.584,-1.2556375569865174E-4
15.588000000000001,-1.30876715685135E-4
15.592,-1.3046802645540553E-4
15.596,-1.285207424784592E-4
15.6,-1.1844775499277373E-4
15.604000000000001,-1.0621111864381456E-4
15.608,-1.0399938869469032E-4
15.612,-9.419084718118275E-5
15.616,-9.606600952935331E-5
15.620000000000001,-1.0498505095462611E-4
15.624,-1.1544268712711578E-4
15.628,-1.1669279535922949E-4
15.632,-1.259243638425307E-4
15.636000000000001,-1.1205297057465361E-4
15.64,-1.0166745603093974E-4
15.644,-1.1046629474158622E-4
15.648,-1.098172000826041E-4
15.652000000000001,-1.1113942994349359E-4
15.656,-1.1955361996733586E-4
15.66,-1.1695724133140738E-4
15.664,-1.2037099842679481E-4
15.668000000000001,-1.2313566086320012E-4
15.672,-1.1993826865414007E-4
15.676,-1.1565905201344315E-4
15.68,-1.1027397039818411E-4
15.684000000000001,-1.135194436930947E-4
15.688,-1.2193363371693693E-4
15.692,-1.1897664693712953E-4
15.696,-1.1746209273283791E-4
15.700000000000001,-1.2686194501661596E-4
15.704,-1.295544858242455E-4
15.708,-1.1388005183697365E-4
15.712,-1.0616303755796403E-4
15.716000000000001,-1.092883081382483E-4
15.72,-1.0952871356750093E-4
15.724,-1.0859113239341567E-4
15.728,-1.1714956567480948E-4
15.732000000000001,-1.3376158083616663E-4
15.736,-1.3046802645540553E-4
15.74,-1.2154898503013272E-4
15.744,-1.1436086269547892E-4
15.748000000000001,-1.1267802469071045E-4
15.752,-1.1224529491805571E-4
15.756,-1.1282226794826203E-4
15.76,-1.1224529491805571E-4
15.764000000000001,-1.1688511970263159E-4
15.768,-1.162841061295E-4
15.772,-1.1770249816209058E-4
