0.0,-0.0069615642581261315
0.004,-0.006973007556558557
0.008,-0.006976421313653944
0.012,-0.006976349192025168
0.016,-0.006989763814977465
0.02,-0.006970074610321675
0.024,-0.00695370300058957
0.028,-0.006948053473002133
0.032,-0.0069374275530291645
0.036000000000000004,-0.006950649851638062
0.04,-0.006970699664437731
0.044,-0.006965554988251725
0.048,-0.00696603579911023
0.052000000000000005,-0.00695694847388448
0.056,-0.006948366000060162
0.06,-0.006947596702686553
0.064,-0.006963319217759676
0.068,-0.00698471530096316
0.07200000000000001,-0.006960193947179391
0.076,-0.006940745147952851
0.08,-0.006937475634115015
0.084,-0.006935720674481471
0.088,-0.00693836513420325
0.092,-0.006958535149717548
0.096,-0.006956972514427406
0.1,-0.006944303148305792
0.10400000000000001,-0.006939663323521215
0.108,-0.006931152971325671
0.112,-0.0069330762147596925
0.116,-0.006940961512839179
0.12,-0.006962646082557768
0.124,-0.006969762083263646
0.128,-0.00695507331153631
0.132,-0.00694771690540118
0.136,-0.006949808432635677
0.14,-0.006947188013456824
0.14400000000000002,-0.00696279032581532
0.148,-0.006998730937488588
0.152,-0.006968680258832009
0.156,-0.006952452892357457
0.16,-0.006947332256714375
0.164,-0.0069261765789401415
0.168,-0.006924109092248569
0.17200000000000001,-0.006929590336035529
0.176,-0.006938677661261278
0.18,-0.0069506979327239125
0.184,-0.006953775122218346
0.188,-0.006943365567131707
0.192,-0.006935287944708816
0.196,-0.006940240296551421
0.2,-0.006956058973796246
0.20400000000000001,-0.006984402773905132
0.20800000000000002,-0.006962093150070487
0.212,-0.0069514191490116705
0.216,-0.0069606026364091205
0.22,-0.006963078812330423
0.224,-0.0069325954039011865
0.228,-0.00692836426834634
0.232,-0.006933460863446496
0.23600000000000002,-0.006936514012398005
0.24,-0.006939398877549036
0.244,-0.006942668391386874
0.248,-0.006946010026853486
0.252,-0.006948894892004518
0.256,-0.006950337324580033
0.26,-0.0069506979327239125
0.264,-0.0069495439866635
0.268,-0.006954039568190524
0.272,-0.006991182207010055
0.276,-0.007001543681010844
0.28,-0.006969137029147589
0.28400000000000003,-0.006942043337270816
0.28800000000000003,-0.0069229311056452315
0.292,-0.006931345295669074
0.296,-0.006932499241729486
0.3,-0.006951347027382895
0.304,-0.006930624079381316
0.308,-0.006909011631291504
0.312,-0.0069112714423264785
0.316,-0.006917642186201673
0.32,-0.006913507212818528
0.324,-0.0069051651444234615
0.328,-0.006907160509486259
0.332,-0.006910141536808991
0.336,-0.006914637118336015
0.34,-0.00691867592954746
0.34400000000000003,-0.00692237817315795
0.34800000000000003,-0.006925695768081636
0.352,-0.006925888092425039
0.356,-0.00691831532140358
0.36,-0.006917521983487047
0.364,-0.0069229311056452315
0.368,-0.006948101554087984
0.372,-0.006987119355255686
0.376,-0.006962622042014843
0.38,-0.006925263038308982
0.384,-0.006920983821668285
0.388,-0.006901102292669092
0.392,-0.006903746752390871
0.396,-0.00695233268964283
0.4,-0.006935985120453649
0.404,-0.006888144440032375
0.40800000000000003,-0.006878095493089615
0.41200000000000003,-0.006878335898518868
0.41600000000000004,-0.006883264209818547
0.42,-0.006888288683289927
0.424,-0.00689223133232967
0.428,-0.006896919238200096
0.432,-0.0069005734007247365
0.436,-0.006902424522529982
0.44,-0.006907160509486259
0.444,-0.006919445226921068
0.448,-0.006939158472119784
0.452,-0.006946058107939336
0.456,-0.006916127631997382
0.46,-0.006884442196421885
0.464,-0.00687629245237022
0.468,-0.006882711277331265
0.47200000000000003,-0.006889394548264489
0.47600000000000003,-0.0068864616020276066
0.48,-0.0068839133044775284
0.484,-0.006882470871902013
0.488,-0.006882062182672284
0.492,-0.0068851874532525675
0.496,-0.0069038188740196465
0.5,-0.006916175713083232
0.504,-0.006897424089601527
0.508,-0.006908290415003746
0.512,-0.006911391645041105
0.516,-0.006894394981192944
0.52,-0.006891630318756539
0.524,-0.006914733280507716
0.528,-0.00689218325124382
0.532,-0.006854559801565782
0.536,-0.0068521317067303305
0.54,-0.006860065085895668
0.544,-0.006871748789757346
0.548,-0.006876917506486277
0.552,-0.006894851751508523
0.556,-0.006892303453958445
0.56,-0.00688223046647276
0.5640000000000001,-0.006876028006398043
0.5680000000000001,-0.006874898100880555
0.5720000000000001,-0.006877903168746213
0.5760000000000001,-0.006882302588101536
0.58,-0.006890644656496602
0.584,-0.006896558630056217
0.588,-0.006889394548264489
0.592,-0.006900741684525213
0.596,-0.006897039440914723
0.6,-0.0069066796986277535
0.604,-0.00692095978112536
0.608,-0.00690917991509198
0.612,-0.006884658561308212
0.616,-0.006876677101057024
0.62,-0.006882038142129359
0.624,-0.006884033507192155
0.628,-0.006875619317168313
0.632,-0.006866748356828891
0.636,-0.0068667243162859656
0.64,-0.006869368776007745
0.644,-0.006877013668657978
0.648,-0.006883456534161949
0.652,-0.006885355737053045
0.656,-0.006885307655967194
0.66,-0.0068880482778606745
0.664,-0.006899683900636501
0.668,-0.0068981933869751355
0.672,-0.006890764859211229
0.676,-0.006890644656496602
0.68,-0.006916512280684186
0.684,-0.006939206553205634
0.6880000000000001,-0.006879706209465607
0.6920000000000001,-0.006860185288610294
0.6960000000000001,-0.006851386449899648
0.7000000000000001,-0.006860233369696145
0.704,-0.0068995877384648
0.708,-0.006890836980840005
0.712,-0.006855641625997419
0.716,-0.006840423962325727
0.72,-0.006837779502603948
0.724,-0.006841073056984709
0.728,-0.006845905206112688
0.732,-0.00685345393659122
0.736,-0.00685893518037818
0.74,-0.006862469140188194
0.744,-0.006867253208230321
0.748,-0.006868671600262912
0.752,-0.006869224532750193
0.756,-0.006876845384857501
0.76,-0.006896390346255741
0.764,-0.006909829009750962
0.768,-0.006886269277684205
0.772,-0.006850737355240666
0.776,-0.0068354716104831225
0.78,-0.0068704506004393815
0.784,-0.006887759791345571
0.788,-0.006849919976781207
0.792,-0.006830375015382966
0.796,-0.006829966326153237
0.8,-0.006839630624409193
0.804,-0.0068529250446468645
0.808,-0.006849246841579299
0.812,-0.006852179787816181
0.8160000000000001,-0.0068510258417557686
0.8200000000000001,-0.006860017004809817
0.8240000000000001,-0.006862036410415539
0.8280000000000001,-0.006852324031073733
0.8320000000000001,-0.00687715791191553
0.836,-0.006872710411474356
0.84,-0.006866027140541133
0.844,-0.006852203828359106
0.848,-0.006841866394901242
0.852,-0.006831024110041948
0.856,-0.006825158217568184
0.86,-0.00682472548779553
0.864,-0.006828091163805066
0.868,-0.006864488545793916
0.872,-0.006851290287727947
0.876,-0.0068306394613551445
0.88,-0.006821480014500619
0.884,-0.0068208068792987115
0.888,-0.006838332435091229
0.892,-0.006835183123968019
0.896,-0.006834942718538767
0.9,-0.006839943151467221
0.904,-0.006842948219332879
0.908,-0.006847323598145278
0.912,-0.006849222801036374
0.916,-0.00684979977406658
0.92,-0.0068643443025363645
0.924,-0.006883672899048276
0.928,-0.006874850019794705
0.932,-0.006849318963208075
0.936,-0.006828716217921123
0.9400000000000001,-0.006832394420988689
0.9440000000000001,-0.006835255245596795
0.9480000000000001,-0.0068253265013686615
0.9520000000000001,-0.006826937217744654
0.9560000000000001,-0.006838308394548303
0.96,-0.006832779069675493
0.964,-0.006809099134894109
0.968,-0.006802007174731156
0.972,-0.006800973431385369
0.976,-0.006806021945399675
0.98,-0.006810373283669148
0.984,-0.006811407027014934
0.988,-0.006815686243655631
0.992,-0.006825446704083288
0.996,-0.006832202096645286
1.0,-0.006845592679054659
1.004,-0.006833211799448148
1.008,-0.006831336637099977
1.012,-0.006827826717832889
1.016,-0.00684564076014051
1.02,-0.006859415991236685
1.024,-0.00686391157276371
1.028,-0.006852275949987882
1.032,-0.006815397757140527
1.036,-0.006826889136658803
1.04,-0.006825951555484718
1.044,-0.00680239182341796
1.048,-0.0067952037010833065
1.052,-0.006796958660716851
1.056,-0.006803569810021298
1.06,-0.006812512891989496
1.064,-0.006822273352417153
1.068,-0.006816022811256584
1.072,-0.006834173421165158
1.076,-0.006874970222509331
1.08,-0.0068410970975276335
1.084,-0.006810012675525268
1.088,-0.006808209634805874
1.092,-0.006810926216156429
1.096,-0.006840688408297904
1.1,-0.006825038014853558
1.104,-0.006792703484619079
1.108,-0.006790780241185058
1.112,-0.006797992404062637
1.116,-0.006808089432091247
1.12,-0.006810974297242279
1.124,-0.006812248446017318
1.1280000000000001,-0.006813137946105553
1.1320000000000001,-0.006819869298124627
1.1360000000000001,-0.0068288123800928245
1.1400000000000001,-0.006832009772301885
1.1440000000000001,-0.00682157617667232
1.1480000000000001,-0.006816984432973595
1.1520000000000001,-0.00684208275978757
1.156,-0.006839486381151641
1.16,-0.006814315932708891
1.164,-0.006793520863078538
1.168,-0.006776548239773302
1.172,-0.0067817169565022335
1.176,-0.006798954025779648
1.18,-0.006803545769478373
1.184,-0.006800324336726387
1.188,-0.006793448741449762
1.192,-0.006794602687510175
1.196,-0.006796285525514943
1.2,-0.006802439904503811
1.204,-0.0068016225260443515
1.208,-0.006802007174731156
1.212,-0.006799675242067405
1.216,-0.006797848160805085
1.22,-0.006798473214921142
1.224,-0.0068228743659902846
1.228,-0.006873527789933815
1.232,-0.00682797096109044
1.236,-0.0067726777123623344
1.24,-0.006775923185657245
1.244,-0.00678645294345851
1.248,-0.006775802982942619
1.252,-0.006777197334432284
1.256,-0.006776476118144526
1.26,-0.006775682780227992
1.264,-0.006764744333196998
1.268,-0.006766258887401289
1.272,-0.006774841361225609
1.276,-0.00677640399651575
1.28,-0.006778279158863921
1.284,-0.006780106240126241
1.288,-0.006789049322094439
1.292,-0.0067997954447820315
1.296,-0.006793160254934659
1.3,-0.006782846862019721
1.304,-0.006806863364402059
1.308,-0.006812224405474393
1.312,-0.006796117241714466
1.316,-0.006791958227788396
1.32,-0.0067739518611373735
1.324,-0.006749959399297961
1.328,-0.006745511898856788
1.332,-0.006753012548249469
1.336,-0.00676082572470018
1.34,-0.0067691918336381714
1.344,-0.006770994874357566
1.348,-0.006768711022779666
1.352,-0.006772797915076961
1.356,-0.00679371318742194
1.36,-0.006802704350475988
1.364,-0.006783736362107956
1.368,-0.006772196901503829
1.372,-0.006766835860431496
1.3760000000000001,-0.006774120144937851
1.3800000000000001,-0.0067750577261119355
1.3840000000000001,-0.006754118413224031
1.3880000000000001,-0.006746882209803527
1.3920000000000001,-0.006758638035293981
1.3960000000000001,-0.006761811386960115
1.4000000000000001,-0.006734164762596062
1.4040000000000001,-0.006725894815829771
1.408,-0.006727048761890184
1.412,-0.0067250293562844616
1.416,-0.006729044126952981
1.42,-0.006734645573454567
1.424,-0.006740030655069826
1.428,-0.006741977939046772
1.432,-0.006741857736332146
1.436,-0.006749430507353605
1.44,-0.006756330143173156
1.444,-0.0067658742387144855
1.448,-0.006765225144055503
1.452,-0.006764552008853596
1.456,-0.006783015145820198
1.46,-0.006750103642555513
1.464,-0.006737963168378254
1.468,-0.006727818059263793
1.472,-0.006727361288948213
1.476,-0.006743877141937868
1.48,-0.006750632534499868
1.484,-0.006734501330197016
1.488,-0.006708200976236777
1.492,-0.00670661430040371
1.496,-0.006706421976060308
1.5,-0.00670067628630117
1.504,-0.006701854272904508
1.508,-0.006705412273257447
1.512,-0.0067090183546962365
1.516,-0.006711494530617539
1.52,-0.006713634138937887
1.524,-0.006711494530617539
1.528,-0.0067186105313234165
1.532,-0.006732530005677144
1.536,-0.006729284532382233
1.54,-0.006717288301462527
1.544,-0.006719451950325801
1.548,-0.006738828627923563
1.552,-0.0067059171246588774
1.556,-0.006668389837152542
1.56,-0.006683487298109607
1.564,-0.0067063979355173825
1.568,-0.006725486126600042
1.572,-0.0067351023437701475
1.576,-0.006739237317153293
1.58,-0.0067173363825483775
1.584,-0.006691372596189093
1.588,-0.006680434149158099
1.592,-0.006676563621747131
1.596,-0.006683679622453009
1.6,-0.006688103082351258
1.604,-0.006690242690671606
1.608,-0.006690987947502289
1.612,-0.006689761879813101
1.616,-0.006688199244522959
1.62,-0.006687478028235201
1.624,-0.006687141460634247
1.6280000000000001,-0.006687333784977649
1.6320000000000001,-0.006697070204862381
1.6360000000000001,-0.006705772881401326
1.6400000000000001,-0.006716735368975246
1.6440000000000001,-0.006715220814770955
1.6480000000000001,-0.006712239787448222
1.6520000000000001,-0.006719836599012605
1.6560000000000001,-0.006730726964957749
1.6600000000000001,-0.006704066002853632
1.6640000000000001,-0.0066919014881334496
1.668,-0.006714211111968093
1.672,-0.006703537110909276
1.676,-0.006686756811947443
1.68,-0.006681732338476062
1.684,-0.006678150297580198
1.688,-0.006672043999677182
1.692,-0.006671154499588947
1.696,-0.006675025026999915
1.7,-0.006674592297227259
1.704,-0.0066746884593989605
1.708,-0.006676828067719309
1.712,-0.006689016622982417
1.716,-0.00671433131468272
1.72,-0.006721014585615943
1.724,-0.006694305542425976
1.728,-0.00667281329705079
1.732,-0.006663894255625517
1.736,-0.006666947404577026
1.74,-0.006678222419208974
1.744,-0.006686276001088938
1.748,-0.0066830064872511015
1.752,-0.006676106851431551
1.756,-0.006669639945384656
1.76,-0.006677597365092917
1.764,-0.00668377578462471
1.768,-0.006684929730685123
1.772,-0.0066938728126533205
1.776,-0.00670839330058018
1.78,-0.006687405906606425
1.784,-0.006649854578557163
1.788,-0.00664769092969389
1.792,-0.0066706496481875165
1.796,-0.006698512637437897
1.8,-0.006683799825167635
1.804,-0.00666738013434968
1.808,-0.006667981147922812
1.812,-0.006669712067013431
1.816,-0.006659687160613596
1.82,-0.0066578841198942015
1.824,-0.006666827201862399
1.828,-0.006679905257213742
1.832,-0.006669471661584179
1.836,-0.006658485133467333
1.84,-0.006658749579439511
1.844,-0.006666851242405325
1.848,-0.00667418360799753
1.852,-0.006671346823932349
1.856,-0.006668413877695467
1.86,-0.006683751744081785
1.864,-0.006676419378489579
1.868,-0.006671370864475275
1.872,-0.006662283539249525
1.8760000000000001,-0.0066621633365348985
1.8800000000000001,-0.0066660579044887916
1.8840000000000001,-0.006697070204862381
1.8880000000000001,-0.006687934798550781
1.8920000000000001,-0.006642065442649376
1.8960000000000001,-0.006634252266198666
1.9000000000000001,-0.006644108888798024
1.9040000000000001,-0.0066746884593989605
1.9080000000000001,-0.006660360295815504
1.9120000000000001,-0.006634660955428395
1.9160000000000001,-0.006628386373724902
1.92,-0.006637858347637455
1.924,-0.006643459794139042
1.928,-0.006648075578380694
1.932,-0.0066531240923949995
1.936,-0.006655359862887049
1.94,-0.00664860447032505
1.944,-0.006657595633379099
1.948,-0.0066941132180825735
1.952,-0.0066861798389172365
1.956,-0.006648796794668452
1.96,-0.006646921632320281
1.964,-0.006670769850902143
1.968,-0.006656417646775761
1.972,-0.006633699333711385
1.976,-0.006627352630379116
1.98,-0.006629828806300417
1.984,-0.006633194482309954
1.988,-0.006635766820402958
1.992,-0.006638002590895007
1.996,-0.006638507442296437
2.0,-0.00663879592881154
2.004,-0.00664103169930359
2.008,-0.006658172606409305
2.012,-0.00667464037831311
2.016,-0.0066589899848687635
2.02,-0.006655768552116779
2.024,-0.006647931335123143
2.028,-0.006648965078468929
2.032,-0.006652066308506288
2.036,-0.006637137131349697
2.04,-0.0066192509674133015
2.044,-0.006614010129055594
2.048,-0.00661550064271696
2.052,-0.006618818237640647
2.056,-0.006624275440884682
2.06,-0.006627713238522994
2.064,-0.006632473266022196
2.068,-0.006639853712700252
2.072,-0.006642570294050807
2.076,-0.006643195348166864
2.08,-0.006650239227243968
2.084,-0.00667322198628052
2.088,-0.006690795623158887
2.092,-0.006653027930223298
2.096,-0.006629275873813136
2.1,-0.006614370737199473
2.104,-0.006628025765581022
2.108,-0.006653532781624729
2.112,-0.006657763917179575
2.116,-0.006669111053440299
2.12,-0.006626607373548432
2.124,-0.006596749019235255
2.128,-0.006596220127290899
2.132,-0.006600331060131119
2.136,-0.006608961615041289
2.14,-0.006614587102085801
2.144,-0.006616534386062747
2.148,-0.006619827940443508
2.152,-0.0066227368461374645
2.156,-0.0066259101978035995
2.16,-0.006634276306741591
2.164,-0.0066408874560460384
2.168,-0.006635310050087377
2.172,-0.006622544521794063
2.176,-0.006618265305153366
2.18,-0.006647787091865591
2.184,-0.0066568503765484155
2.188,-0.006671322783389424
2.192,-0.006636560158319491
2.196,-0.006608769290697886
2.2,-0.006618625913297245
2.204,-0.006619587535014255
2.208,-0.006606749885092165
2.212,-0.006608408682554008
2.216,-0.006615164075116007
2.22,-0.006613577399282939
2.224,-0.006611125263904563
2.228,-0.006611894561278171
2.232,-0.006616101656290092
2.236,-0.006620621278360042
2.24,-0.0066160776157471665
2.244,-0.0066152121562018575
2.248,-0.006622496440708212
2.2520000000000002,-0.0066453349564872125
2.2560000000000002,-0.006642906861651761
2.2600000000000002,-0.006617712372666085
2.2640000000000002,-0.006612471534308377
2.2680000000000002,-0.006614755385886277
2.2720000000000002,-0.006626967981692311
2.2760000000000002,-0.006621174210847323
2.2800000000000002,-0.006620573197274191
2.2840000000000003,-0.006612399412679601
2.2880000000000003,-0.006607927871695503
2.2920000000000003,-0.0066046583578576665
2.2960000000000003,-0.006605595939031752
2.3000000000000003,-0.006606196952604884
2.3040000000000003,-0.006609370304271018
2.308,-0.00661225516942205
2.312,-0.006613913966883893
2.316,-0.006612327291050826
2.32,-0.006612639818108854
2.324,-0.0066270160627781615
2.328,-0.006643339591424415
2.332,-0.006627977684495172
2.336,-0.006610644453046057
2.34,-0.006593455464854494
2.344,-0.006594561329829056
2.348,-0.006618097021352889
2.352,-0.0066221839136501835
2.356,-0.006608721209612037
2.36,-0.006597109627379134
2.364,-0.006597301951722537
2.368,-0.006597109627379134
2.372,-0.006608432723096933
2.376,-0.0066243956435993075
2.38,-0.00660631715531951
2.384,-0.00658850311301189
2.388,-0.006587493410209029
2.392,-0.006594417086571504
2.396,-0.006606509479662912
2.4,-0.006602831276595346
2.404,-0.006594008397341775
2.408,-0.006602927438767048
2.412,-0.0066048987632869195
2.416,-0.006596628816520629
2.42,-0.006597518316608863
2.424,-0.006597830843666892
2.428,-0.006607158574321894
2.432,-0.006607423020294072
2.436,-0.0065989607491843795
2.44,-0.006596099924576273
2.444,-0.006598840546469753
2.448,-0.0066027591549665705
2.452,-0.006603600573968955
2.456,-0.006610692534131908
2.46,-0.006627929603409322
2.464,-0.006622664724508689
2.468,-0.006604802601115218
2.472,-0.006609995358387075
2.476,-0.006628819103497556
2.48,-0.006631872252449065
2.484,-0.006608528885268634
2.488,-0.006596244167833824
2.492,-0.006578598409326682
2.496,-0.006574150908885508
2.5,-0.0065760501117766035
2.504,-0.006579175382356888
2.508,-0.006581531355563564
2.512,-0.006584271977457043
2.516,-0.006586363504691542
2.52,-0.006585546126232082
2.524,-0.006583142071939556
2.528,-0.006583286315197108
2.532,-0.006586002896547662
2.536,-0.006590161910473733
2.54,-0.006602110060307589
2.544,-0.0066248043328290375
2.548,-0.006623794630026176
2.552,-0.00663235306330757
2.556,-0.006628362333181976
2.56,-0.006615644885974512
2.564,-0.006612663858651779
2.568,-0.0065963162894626
2.572,-0.0065827093421669015
2.576,-0.006578790733670083
2.58,-0.006578358003897429
2.584,-0.006580497612217777
2.588,-0.006585233599174054
2.592,-0.006587878058895833
2.596,-0.006585810572204261
2.6,-0.006577684868695521
2.604,-0.006579584071586617
2.608,-0.0066008599520754755
2.612,-0.006613769723626341
2.616,-0.006613000426252733
2.62,-0.0065992732762424075
2.624,-0.006592085153907754
2.628,-0.006576314557748781
2.632,-0.006567443597409359
2.636,-0.006584007531484866
2.64,-0.006579127301271037
2.644,-0.006569655327358484
2.648,-0.006580473571674852
2.652,-0.006591003329476117
2.656,-0.00658525763971698
2.66,-0.006568934111070726
2.664,-0.006562371042852129
2.668,-0.006563933678142271
2.672,-0.0065819881258791435
2.676,-0.0065968932624928065
2.68,-0.006573309489883123
2.684,-0.006553235636540529
2.688,-0.006558837083042115
2.692,-0.0065888877616986944
2.696,-0.006585570166775008
2.7,-0.00656799652989664
2.704,-0.006572179584365636
2.708,-0.0065858826938330365
2.712,-0.006609730912414897
2.716,-0.006596508613806003
2.72,-0.006569511084100932
2.724,-0.006560399718332257
2.728,-0.006565616516147039
2.732,-0.006563164380768662
2.736,-0.006574174949428433
2.74,-0.00657845416606913
2.744,-0.006559822745302051
2.748,-0.006562755691538933
2.7520000000000002,-0.0065707371517901205
2.7560000000000002,-0.006576098192862454
2.7600000000000002,-0.0065892002887567224
2.7640000000000002,-0.006609875155672449
2.7680000000000002,-0.006597301951722537
2.7720000000000002,-0.006563549029455467
2.7760000000000002,-0.006545542662804443
2.7800000000000002,-0.00654657640615023
2.7840000000000003,-0.006561577704935595
2.7880000000000003,-0.006574271111600134
2.7920000000000003,-0.006588430991383114
2.7960000000000003,-0.006581964085336218
2.8000000000000003,-0.006573213327711423
2.8040000000000003,-0.006570713111247195
2.8080000000000003,-0.006567828246096164
2.8120000000000003,-0.006568260975868818
2.816,-0.006571362205906177
2.82,-0.006581266909591385
2.824,-0.00659307081616769
2.828,-0.006597542357151789
2.832,-0.006582781463795677
2.836,-0.006576242436120006
2.84,-0.006591484140334622
2.844,-0.0065950661812304865
2.848,-0.006602831276595346
2.852,-0.006580906301447507
2.856,-0.006537008270065975
2.86,-0.006524915876974568
2.864,-0.006534820580659776
2.868,-0.006544172351857704
2.872,-0.006559438096615247
2.876,-0.006582685301623976
2.88,-0.006569607246272633
2.884,-0.00655378856902781
2.888,-0.00655246633916692
2.892,-0.006554846352916521
2.896,-0.006557202326123197
2.9,-0.006561721948193147
2.904,-0.006567635921752761
2.908,-0.006563212461854513
2.912,-0.006564895299859281
2.916,-0.006568934111070726
2.92,-0.006576579003720959
2.924,-0.006584969153201876
2.928,-0.006612447493765452
2.932,-0.006600547425017447
2.936,-0.006582805504338603
2.94,-0.0065524182580810695
2.944,-0.006528041147554852
2.948,-0.006529387417958666
2.952,-0.006535036945546103
2.956,-0.00654297032471144
2.96,-0.006546263879092201
2.964,-0.006547345703523838
2.968,-0.006548595811755953
2.972,-0.006553476041969781
2.976,-0.006559125569557218
2.98,-0.0065614575022209685
2.984,-0.006563693272713018
2.988,-0.006565856921576292
2.992,-0.006564919340402206
2.996,-0.0065823006529371715
3.0,-0.006589296450928424
3.004,-0.006577180017294091
3.008,-0.0065792234634427385
3.012,-0.006564174083571524
3.016,-0.006553091393282977
3.02,-0.006553452001426856
3.024,-0.0065603516372464065
3.028,-0.006569967854416512
3.032,-0.006569102394871202
3.036,-0.006558789001956265
3.04,-0.006547369744066763
3.044,-0.006550302690303647
3.048,-0.006559438096615247
3.052,-0.006572828679024618
3.056,-0.006570665030161345
3.06,-0.006546552365607305
3.064,-0.006537513121467406
3.068,-0.0065356860402050855
3.072,-0.006542850121996814
3.076,-0.006564654894430029
3.08,-0.006561289218420491
3.084,-0.006557322528837823
3.088,-0.006545133973574714
3.092,-0.0065397248514165295
3.096,-0.006547513987324315
3.1,-0.006556553231464215
3.104,-0.006560327596703481
3.108,-0.006574920206259116
3.112,-0.00656886198944195
3.116,-0.006554389582600941
3.12,-0.006566962786550854
3.124,-0.006567924408267864
3.128,-0.006545542662804443
3.132,-0.006537729486353732
3.136,-0.006561938313079474
3.14,-0.006576146273948305
3.144,-0.006561241137334642
3.148,-0.006538282418841013
3.152,-0.006522295457795714
3.156,-0.006527704579953898
3.16,-0.0065416240543076255
3.164,-0.0065553512043179515
3.168,-0.0065632845834832886
3.172,-0.006569727448987259
3.176,-0.00655378856902781
3.18,-0.006540710513676465
3.184,-0.006538378581012715
3.188,-0.006540999000191569
3.192,-0.006545326297918116
3.196,-0.0065605920426756595
3.2,-0.006579752355387094
3.204,-0.006577444463266269
3.208,-0.00656292397533941
3.212,-0.006557202326123197
3.216,-0.00655018248758902
3.22,-0.006525757295976951
3.224,-0.0065245793093736135
3.228,-0.006566481975692349
3.232,-0.00655612050169156
3.236,-0.006523425363313201
3.24,-0.006511837821623224
3.244,-0.006521261714449928
3.248,-0.006524987998603344
3.2520000000000002,-0.006526358309550083
3.2560000000000002,-0.006531166418135136
3.2600000000000002,-0.006534868661745626
3.2640000000000002,-0.006538090094497612
3.2680000000000002,-0.006539796973045305
3.2720000000000002,-0.00654292224362559
3.2760000000000002,-0.00654799479818282
3.2800000000000002,-0.006548860257728131
3.2840000000000003,-0.006554990596174073
3.2880000000000003,-0.006567684002838612
3.2920000000000003,-0.006586555829034943
3.2960000000000003,-0.006583190153025407
3.3000000000000003,-0.00653708039169475
3.3040000000000003,-0.006524290822858511
3.3080000000000003,-0.006534363810344196
3.3120000000000003,-0.0065323444047384735
3.3160000000000003,-0.006520372214361692
3.3200000000000003,-0.006519049984500803
3.3240000000000003,-0.0065285459989562825
3.3280000000000003,-0.0065355177564046085
3.332,-0.006521261714449928
3.336,-0.006517126741066782
3.34,-0.006518689376356924
3.344,-0.006521405957707479
3.348,-0.006522728187568368
3.352,-0.006524170620143884
3.356,-0.006526670836608112
3.36,-0.006529916309903022
3.364,-0.00654297032471144
3.368,-0.006573189287168497
3.372,-0.006546552365607305
3.376,-0.006515179457089836
3.38,-0.006518064322240867
3.384,-0.006560255475074705
3.388,-0.006571770895135907
3.392,-0.006533113702112082
3.396,-0.006528906607100161
3.4,-0.006522247376709863
3.404,-0.006508784672671716
3.408,-0.006513232173112889
3.412,-0.0065096260916741
3.416,-0.006507823050954705
3.42,-0.0065115012540222705
3.424,-0.006515059254375209
3.428,-0.006518617254728148
3.432,-0.006521766565851358
3.436,-0.006524459106658987
3.44,-0.006527079525837841
3.444,-0.0065317914722511925
3.448,-0.006544052149143077
3.452,-0.006534748459031
3.456,-0.006520155849475366
3.46,-0.006515203497632761
3.464,-0.006550230568674871
3.468,-0.006588623315726516
3.472,-0.006529699945016695
3.476,-0.0065103953890477085
3.48,-0.006500442604276649
3.484,-0.006491066792535797
3.488,-0.00649500944157554
3.492,-0.006502990901826727
3.496,-0.006505178591232927
3.5,-0.006509193361901445
3.504,-0.006515323700347388
3.508,-0.006516718051837052
3.512,-0.006512799443340235
3.516,-0.00652652659335056
3.52,-0.006532392485824324
3.524,-0.006538763229699519
3.528,-0.006534628256316374
3.532,-0.006527464174524645
3.536,-0.00650089937459223
3.54,-0.006492100535881583
3.544,-0.006499384820387938
3.548,-0.00650186099630924
3.552,-0.006520684741419721
3.556,-0.006515804511205893
3.56,-0.0064954902524340455
3.564,-0.006489864765389534
3.568,-0.006492797711626416
3.572,-0.006499048252786984
3.576,-0.006506044050778236
3.58,-0.006510443470133559
3.584,-0.006510563672848186
3.588,-0.006518088362783793
3.592,-0.0065278969042973
3.596,-0.0065233292011415
3.6,-0.00650784709149763
3.604,-0.0065003224015620234
3.608,-0.006521934849651835
3.612,-0.006527055485294916
3.616,-0.006512655200082683
3.62,-0.00649546621189112
3.624,-0.00649409590094438
3.628,-0.006516405524779024
3.632,-0.006521141511735301
3.636,-0.0065032553477989054
3.64,-0.00648039279147698
3.644,-0.006478782075100988
3.648,-0.00648729242729653
3.652,-0.006498879968986507
3.656,-0.006508832753757566
3.66,-0.006498134712155824
3.664,-0.006475969331578731
3.668,-0.006475488520720226
3.672,-0.0064778925750127525
3.676,-0.006482604521426104
3.68,-0.006501019577306855
3.684,-0.006505178591232927
3.688,-0.006512270551395879
3.692,-0.006484143116173321
3.696,-0.006469310101188433
3.7,-0.006470247682362519
3.704,-0.006472531533940419
3.708,-0.006477507926325949
3.712,-0.006488638697700345
3.716,-0.006502534131511147
3.72,-0.006533113702112082
3.724,-0.006517775835725765
3.728,-0.006479503291388745
3.732,-0.0064822198727393
3.736,-0.0064803447103911295
3.74,-0.00646262683025521
3.744,-0.006455486789006407
3.748,-0.006456736897238521
3.7520000000000002,-0.006461424803108947
3.7560000000000002,-0.006466521398209103
3.7600000000000002,-0.006470319803991295
3.7640000000000002,-0.006472820020455522
3.7680000000000002,-0.006474767304432468
3.7720000000000002,-0.006485032616261556
3.7760000000000002,-0.006522103133452311
3.7800000000000002,-0.0065362389726923665
3.7840000000000003,-0.006486066359607342
3.7880000000000003,-0.006449524734360941
3.7920000000000003,-0.006444091571659831
3.7960000000000003,-0.006485801913635164
3.8000000000000003,-0.006492437103482537
3.8040000000000003,-0.0064667858441812805
3.8080000000000003,-0.006463564411429296
3.8120000000000003,-0.006466377154951551
3.8160000000000003,-0.006469454344445985
3.8200000000000003,-0.0064733729529428035
3.8240000000000003,-0.006474647101717842
3.8280000000000003,-0.006472098804167764
3.8320000000000003,-0.006475296196376824
3.8360000000000003,-0.006478613791300511
3.84,-0.006480801480706709
3.844,-0.006494624792888736
3.848,-0.006526165985206681
3.852,-0.0065159487544634445
3.856,-0.00649455267125996
3.86,-0.00646628099277985
3.864,-0.0064476736125556955
3.868,-0.006445341679891945
3.872,-0.006449164126217062
3.876,-0.006469814952589864
3.88,-0.006487917481412587
3.884,-0.00647988794007555
3.888,-0.006450486356077953
3.892,-0.006439812355019134
3.896,-0.006437985273756814
3.9,-0.006438201638643142
3.904,-0.006442769341798942
3.908,-0.006446615828666984
3.912,-0.006448851599159033
3.916,-0.006451976869739319
3.92,-0.0064539481942591905
3.924,-0.006452674045484151
3.928,-0.00645572719443566
3.932,-0.006453852032087489
3.936,-0.006445389760977796
3.94,-0.0064399085171908356
3.944,-0.006413776447031074
3.948,-0.006401948499911845
3.952,-0.006401708094482593
3.956,-0.006406468121981795
3.96,-0.006423753272345059
3.964,-0.00643983639556206
3.968,-0.006442769341798942
3.972,-0.006453539505029461
3.976,-0.006439331544160629
3.98,-0.006408703892473844
3.984,-0.006407165297726627
3.988,-0.0064044727569189976
3.992,-0.006403583256830762
3.996,-0.006402693756742528
4.0,-0.0064018523377401436
4.0040000000000004,-0.006396419175039034
4.008,-0.006396250891238558
4.0120000000000005,-0.006398510702273532
4.016,-0.006400890716023133
4.0200000000000005,-0.006404785283977026
4.024,-0.006417646974442042
4.0280000000000005,-0.006420748204479401
4.032,-0.006410699257536641
4.0360000000000005,-0.006408126919443638
4.04,-0.006408175000529488
4.0440000000000005,-0.006410530973736164
4.048,-0.006404496797461923
4.0520000000000005,-0.006403583256830762
4.056,-0.006406444081438869
4.0600000000000005,-0.0064244504480898915
4.064,-0.0064301480567631785
4.0680000000000005,-0.006410771379165416
4.072,-0.006392284201655889
4.0760000000000005,-0.006390312877136017
4.08,-0.006391587025911056
4.0840000000000005,-0.006395313310064472
4.088,-0.006397597161642372
4.0920000000000005,-0.006402285067512799
4.096,-0.006421325177509607
4.1,-0.006440221044248864
4.104,-0.006444211774374458
4.108,-0.006426013083380033
4.112,-0.006406780649039823
4.116,-0.006392188039484188
4.12,-0.0063802879707361825
4.124,-0.006394784418120116
4.128,-0.006407573986956357
4.132,-0.0063989193915032615
4.136,-0.006388750241845875
4.14,-0.0063875001336137615
4.144,-0.006389808025734587
4.148,-0.006391298539395953
4.152,-0.00639288521522902
4.156,-0.006394231485632835
4.16,-0.006397765445442849
4.164,-0.006413055230743317
4.168,-0.006436590922267149
4.172,-0.006444331977089084
4.176,-0.006423080137143151
4.18,-0.006383629606202795
4.184,-0.006385817295608993
4.188,-0.006421733866739336
4.192,-0.006403463054116137
4.196,-0.00636725799647069
4.2,-0.0063531702383164855
4.204,-0.006356848441384051
4.208,-0.006367306077556541
4.212,-0.006370743875194853
4.216,-0.0063747346053204465
4.22,-0.006380696659965912
4.224,-0.006385865376694844
4.228,-0.006391827431340309
4.232,-0.006395385431693248
4.236,-0.006397428877841896
4.24,-0.006394640174862565
4.244,-0.006395241188435696
4.248,-0.006418512433987352
4.252,-0.00644978918033312
4.256,-0.00642344074528703
4.26,-0.006399977175391973
4.264,-0.0063699024561924686
4.268,-0.006370359226508049
4.272,-0.006367834969500896
4.276,-0.006362594131143189
4.28,-0.0063613440229110755
4.284,-0.006383966173803748
4.288,-0.006410050162877659
4.292,-0.00639877514824571
4.296,-0.00637999948422108
4.3,-0.00636908507773301
4.304,-0.006361464225625701
4.308,-0.006362353725713936
4.312,-0.006365358793579594
4.316,-0.006367690726243345
4.32,-0.006370599631937301
4.324,-0.006379662916620126
4.328,-0.006380720700508837
4.332,-0.00638233141688483
4.336,-0.006388485795873698
4.34,-0.006396154729066857
4.344,-0.006396683621011212
4.348,-0.006418464352901501
4.352,-0.006402669716199603
4.356,-0.006375167335093102
4.36,-0.006365911726066875
4.364,-0.006369157199361786
4.368,-0.0063718016590835645
4.372,-0.006369613969677366
4.376,-0.0063834613224023175
4.38,-0.006391106215052551
4.384,-0.00638365364674572
4.388,-0.006373821064689287
4.392,-0.006375744308123308
4.396,-0.006382307376341905
4.4,-0.0063917072286256826
4.404,-0.006414329379518356
4.408,-0.006437384260183683
4.412,-0.006417406569012789
4.416,-0.006404977608320428
4.42,-0.006387235687641584
4.424,-0.006393029458486572
4.428,-0.006401804256654293
4.432,-0.006389783985191661
4.436,-0.006389519539219484
4.44,-0.00639516906680692
4.444,-0.006383437281859392
4.448,-0.006375672186494532
4.452,-0.006378244524587536
4.456,-0.006395890283094678
4.46,-0.00641339179834427
4.464,-0.006404496797461923
4.468,-0.006393630472059704
4.472,-0.006402044662083546
4.476,-0.006394351688347462
4.48,-0.006380696659965912
4.484,-0.006387980944472267
4.488,-0.006420291434163821
4.492,-0.0063983664590159806
4.496,-0.006366272334210754
4.5,-0.00636908507773301
4.5040000000000004,-0.006374710564777521
4.508,-0.006380408173450809
4.5120000000000005,-0.006371272767139209
4.516,-0.0063627624149436655
4.5200000000000005,-0.006363796158289452
4.524,-0.006365478996294221
4.5280000000000005,-0.006367065672127288
4.532,-0.006368484064159879
4.5360000000000005,-0.006369157199361786
4.54,-0.006367618604614569
4.5440000000000005,-0.006367642645157494
4.548,-0.006384687390091506
4.5520000000000005,-0.006373724902517586
4.556,-0.006368147496558924
4.5600000000000005,-0.006383437281859392
4.564,-0.006402741837828379
4.5680000000000005,-0.006391346620481804
4.572,-0.006378268565130461
4.5760000000000005,-0.00637822048404461
4.58,-0.0063635557528601994
4.5840000000000005,-0.006351295075968313
4.588,-0.006350261332622527
4.5920000000000005,-0.006351415278682941
4.596,-0.0063509344678244345
4.6000000000000005,-0.006351198913796612
4.604,-0.006353482765374514
4.6080000000000005,-0.0063557906574953395
4.612,-0.006357497536043033
4.616,-0.006358771684818072
4.62,-0.0063642769691479575
4.624,-0.006384783552263207
4.628,-0.006381273632996119
4.632,-0.006369277402076412
4.636,-0.006366152131496128
4.64,-0.006354179941119347
4.644,-0.0063440348320048835
4.648,-0.006350044967736199
4.652,-0.00634872273787531
4.656,-0.006342977048116172
4.66,-0.006339395007220308
4.664,-0.0063464148457544846
4.668,-0.006347424548557345
4.672,-0.0063461744403252324
4.676,-0.006348241927016805
4.68,-0.006346462926840335
4.684,-0.006344419480691687
4.688,-0.006344106953633659
4.692,-0.00634735242692857
4.696,-0.006358555319931744
4.7,-0.0063607910904237945
4.704,-0.006358867846989773
4.708,-0.006366945469412661
4.712,-0.006360190076850663
4.716,-0.006345188778065296
4.72,-0.0063432414940883496
4.724,-0.006362089279741758
4.728,-0.006332976182259262
4.732,-0.006309127963677401
4.736,-0.006308911598791074
4.74,-0.006333048303888038
4.744,-0.0063392748045056815
4.748,-0.0063197058025645176
4.752,-0.006315666991353073
4.756,-0.0063178787213021975
4.76,-0.006323047438031129
4.764,-0.006328288276388836
4.768,-0.006328817168333192
4.772,-0.006329177776477071
4.776,-0.006328360398017612
4.78,-0.006326052505896787
4.784,-0.006343818467118556
4.788,-0.006363291306888021
4.792,-0.006351271035425388
4.796,-0.006343073210287873
4.8,-0.006341125926310927
4.804,-0.006319224991706012
4.808,-0.006318239329446076
4.812,-0.006329802830593128
4.816,-0.006349251629819665
4.82,-0.006367426280271167
4.824,-0.006334009925605049
4.828,-0.006308214423046242
4.832,-0.0063110512071114224
4.836,-0.006316893059042261
4.84,-0.006308743314990597
4.844,-0.006305065111923032
4.848,-0.006310137666480262
4.852,-0.006310546355709992
4.856,-0.006311988788285507
4.86,-0.006313791829004902
4.864,-0.006315041937237016
4.868,-0.006312277274800611
4.872,-0.006306796031013651
4.876,-0.006308887558248149
4.88,-0.006319513478221115
4.884,-0.006342063507485012
4.888,-0.006343337656260051
4.892,-0.006325739978838759
4.896,-0.0063179508429309725
4.9,-0.006348818900047011
4.904,-0.006363796158289452
4.908,-0.006328985452133669
4.912,-0.0063184316537894785
4.916,-0.006327110289785498
4.92,-0.006327158370871349
4.924,-0.006315715072438923
4.928,-0.006301170543969139
4.932,-0.006299583868136072
4.936,-0.00629852608424736
4.94,-0.006300088719537502
4.944,-0.0063032861117465625
4.948,-0.0063065315850414725
4.952,-0.006309849179965159
4.956,-0.006316268004926204
4.96,-0.006324009059748139
4.964,-0.006329898992764829
4.968,-0.006346390805211559
4.972,-0.0063427606832298445
4.976,-0.0063480736432163275
4.98,-0.006319080748448461
4.984,-0.0062921793809150904
4.988,-0.00629030421856692
4.992,-0.006291410083541483
4.996,-0.006299487705964371
5.0,-0.0063102578691948885
5.0040000000000004,-0.006312758085659116
5.008,-0.006319056707905535
5.0120000000000005,-0.0063184316537894785
5.016,-0.00631766235641587
5.0200000000000005,-0.006319345194420638
5.024,-0.006321845410884866
5.0280000000000005,-0.006322879154230652
5.032,-0.0063267496816416195
5.0360000000000005,-0.006332206884885654
5.04,-0.006331149100996943
5.0440000000000005,-0.006316893059042261
5.048,-0.006340140264050991
5.0520000000000005,-0.006345717670009652
5.056,-0.006339082480162279
5.0600000000000005,-0.006334514777006479
5.064,-0.006328264235845911
5.0680000000000005,-0.006308262504132092
5.072,-0.006318792261933357
5.0760000000000005,-0.006327110289785498
5.08,-0.006320835708082005
5.0840000000000005,-0.006301651354827645
5.088,-0.006316869018499336
5.0920000000000005,-0.006326028465353861
5.096,-0.006309007760962775
5.1000000000000005,-0.006297275976015247
5.104,-0.006296122029954834
5.1080000000000005,-0.006298862651848314
5.112,-0.006301843679171046
5.1160000000000005,-0.006305017030837181
5.12,-0.006307060476985829
5.124,-0.006306988355357053
5.128,-0.0063090318015057
5.132,-0.006309728977250533
5.136,-0.006311027166568497
5.14,-0.006323768654318887
5.144,-0.0063398277369929625
5.148,-0.00633273577683001
5.152,-0.006347592832357822
5.156,-0.0063327838579158606
5.16,-0.006297011530043068
5.164,-0.006293381408061354
5.168,-0.006296362435384086
5.172,-0.0063189845862767595
5.176,-0.006337952574644792
5.18,-0.006319681762021592
5.184,-0.006300377206052606
5.188,-0.006295136367694898
5.192,-0.006296314354298236
5.196,-0.006298189516646406
5.2,-0.006300713773653559
5.204,-0.006303742882062142
5.208,-0.006305810368753715
5.212,-0.006305810368753715
5.216,-0.006310906963853871
5.22,-0.0063246100733212705
5.224,-0.006328937371047818
5.228,-0.006300329124966755
5.232,-0.006292828475574073
5.236,-0.006301651354827645
5.24,-0.006308695233904747
5.244,-0.006311628180141629
5.248,-0.006306723909384875
5.252,-0.006305305517352285
5.256,-0.006304728544322078
5.26,-0.00629710769221477
5.264,-0.006292564029601895
5.268,-0.00629213129982924
5.272,-0.0062968672867855175
5.276,-0.006299872354651175
5.28,-0.006302276408943702
5.284,-0.006302228327857851
5.288,-0.006309200085306177
5.292,-0.006321532883826838
5.296,-0.006321100154054182
5.3,-0.0063137437479190515
5.304,-0.0063155708291813715
5.308,-0.006310882923310945
5.312,-0.006299776192479474
5.316,-0.0062988386113053884
5.32,-0.0062963864759270115
5.324,-0.006329730708964352
5.328,-0.0063024927738300285
5.332,-0.006270446730110653
5.336,-0.006257560999102712
5.34,-0.006268066716361051
5.344,-0.006281313055512871
5.348,-0.006288477137304601
5.352,-0.006294318989235439
5.356,-0.006296242232669461
5.36,-0.006297372138186948
5.364,-0.006298598205876136
5.368,-0.006298502043704435
5.372,-0.006295472935295852
5.376,-0.0062915543267990336
5.38,-0.006302901463059759
5.384,-0.0063136716262902765
5.388,-0.006327014127613797
5.392,-0.006330187479279932
5.396,-0.006316003558954027
5.4,-0.006311916666656732
5.404,-0.006312734045116191
5.408,-0.006280327393252936
5.412,-0.006272201689744197
5.416,-0.006274918271094752
5.42,-0.006272538257345151
5.424,-0.006276985757786325
5.428,-0.0062853759072672415
5.432,-0.006288549258933376
5.436,-0.006288092488617796
5.44,-0.006290833110511276
5.444,-0.006296482638098713
5.448,-0.006306050774182967
5.452,-0.006307348963500932
5.456,-0.006322807032601876
5.46,-0.006322085816314119
5.464,-0.006335332155465939
5.468,-0.006318792261933357
5.472,-0.006286409650613028
5.476,-0.006274100892635292
5.48,-0.006273980689920667
5.484,-0.006279558095879327
5.488,-0.006281264974427022
5.492,-0.006278043541675036
5.496,-0.006278043541675036
5.5,-0.006288957948163106
5.5040000000000004,-0.006296434557012862
5.508,-0.00630172347645642
5.5120000000000005,-0.00630624309852637
5.516,-0.006311123328740198
5.5200000000000005,-0.00632588422209631
5.524,-0.0063355485203522655
5.5280000000000005,-0.006319056707905535
5.532,-0.006300064678994577
5.5360000000000005,-0.006301098422340364
5.54,-0.006314392842578034
5.5440000000000005,-0.006280495677053413
5.548,-0.006293549691861831
5.5520000000000005,-0.00631766235641587
5.556,-0.0063272304925001245
5.5600000000000005,-0.006311387774712376
5.564,-0.0062749903927235276
5.5680000000000005,-0.006262489310402391
5.572,-0.006264508716008112
5.5760000000000005,-0.006275471203582033
5.58,-0.006286409650613028
5.5840000000000005,-0.006294174745977888
5.588,-0.006300617611481858
5.5920000000000005,-0.006291434124084408
5.596,-0.006288981988706031
5.6000000000000005,-0.00628888582653433
5.604,-0.006293621813490607
5.6080000000000005,-0.006306940274271203
5.612,-0.006318599937589955
5.6160000000000005,-0.006306820071556576
5.62,-0.006295472935295852
5.6240000000000006,-0.006294030502720336
5.628,-0.006308382706846718
5.632,-0.006311411815255301
5.636,-0.006314032234434155
5.64,-0.0063291296953912205
5.644,-0.006301603273741794
5.648,-0.006278596474162317
5.652,-0.0062784762714476906
5.656,-0.006292828475574073
5.66,-0.0063155708291813715
5.664,-0.006313815869547827
5.668,-0.006288356934589974
5.672,-0.006275976054983463
5.676,-0.006276673230728296
5.68,-0.006277875257874559
5.684,-0.006281361136598722
5.688,-0.006288909867077255
5.692,-0.006292756353945297
5.696,-0.006309921301593935
5.7,-0.006311868585570882
5.704,-0.006300617611481858
5.708,-0.006316219923840354
5.712,-0.006303165909031936
5.716,-0.006279317690450075
5.72,-0.006287010664186159
5.724,-0.006289799367165489
5.728,-0.006272321892458823
5.732,-0.006268739851562959
5.736,-0.006282803569174238
5.74,-0.006301603273741794
5.744,-0.00631355142357565
5.748,-0.006320042370165471
5.752,-0.006298093354474706
5.756,-0.0062753750414103315
5.76,-0.006280495677053413
5.764,-0.0062841017584922025
5.768,-0.006290640786167874
5.772,-0.006309632815078832
5.776,-0.006316027599496952
5.78,-0.0062910735159405285
5.784,-0.00627660110909952
5.788,-0.006277610811902382
5.792,-0.006289943610423041
5.796,-0.006282899731345939
5.8,-0.006291938975485838
5.804,-0.00629487192172272
5.808,-0.006279173447192523
5.812,-0.006270831378797457
5.816,-0.006264051945692533
5.82,-0.006260229499367416
5.824,-0.006257320593673459
5.828,-0.006265975189126554
5.832,-0.006289703204993788
5.836,-0.006319152870077236
5.84,-0.006304776625407928
5.844,-0.0062795821364222525
5.848,-0.00626426831057886
5.852,-0.0062695091489365674
5.856,-0.006269172581335614
5.86,-0.006278668595791093
5.864,-0.006264965486323693
5.868,-0.006265518418810974
5.872,-0.0062611911210844265
5.876,-0.006260061215566939
5.88,-0.00626193637791511
5.884,-0.006266407918899208
5.888,-0.006277634852445307
5.892,-0.006292876556659923
5.896,-0.0062851355018379886
5.9,-0.0062949680838944215
5.904,-0.0062907609888825005
5.908,-0.006268932175906361
5.912,-0.006257320593673459
5.916,-0.0062627777969174936
5.92,-0.006281745785285527
5.924,-0.0062707832977116065
5.928,-0.006257560999102712
5.932,-0.006252680768888883
5.936,-0.0062652299322958705
5.94,-0.006280495677053413
5.944,-0.0062721295681154214
5.948,-0.006258835147877751
5.952,-0.006260301620996191
5.956,-0.006255565634039915
5.96,-0.006244555065380145
5.964,-0.006251118133598741
5.968,-0.006267489743330845
5.972,-0.006274485541322097
5.976,-0.006265302053924646
5.98,-0.006254964620466783
5.984,-0.006252993295946912
5.988,-0.006263378810490625
5.992,-0.006291963016028764
5.996,-0.006274389379150396
6.0,-0.006251238336313367
6.0040000000000004,-0.006243232835519255
6.008,-0.006237366943045491
6.0120000000000005,-0.006261864256286334
6.016,-0.0062915543267990336
6.0200000000000005,-0.006285399947810167
6.024,-0.0062620565806297355
6.0280000000000005,-0.006246478308814165
6.032,-0.006236525524043106
6.0360000000000005,-0.006231092361341997
6.04,-0.00623914594322196
6.0440000000000005,-0.00624554072764008
6.048,-0.00625097389034119
6.0520000000000005,-0.006256142607070121
6.056,-0.0062591236343928535
6.0600000000000005,-0.00626157576977123
6.064,-0.006265061648495393
6.0680000000000005,-0.006267658027131322
6.072,-0.006260445864253743
6.0760000000000005,-0.006265109729581244
6.08,-0.006297756786873752
6.0840000000000005,-0.006319826005279143
6.088,-0.006286529853327654
6.0920000000000005,-0.006264580837636888
6.096,-0.006240131605481896
6.1000000000000005,-0.006237222699787939
6.104,-0.006242631821946123
6.1080000000000005,-0.006253930877120997
6.112,-0.006259772729051836
6.1160000000000005,-0.006262272945516063
6.12,-0.006259460201993808
6.1240000000000006,-0.006254411687979502
6.128,-0.006268090756903977
6.132000000000001,-0.00630492086866548
6.136,-0.006286818339842757
6.140000000000001,-0.006263523053748177
6.144,-0.006246478308814165
6.148,-0.0062279670907617116
6.152,-0.006234602280609085
6.156,-0.006250589241654386
6.16,-0.006252031674229901
6.164,-0.006249074687450094
6.168,-0.006250132471338805
6.172,-0.006262922040175045
6.176,-0.0063010743817974385
6.18,-0.006330644249595512
6.184,-0.00626934086513609
6.188,-0.006238665132363454
6.192,-0.006234482077894459
6.196,-0.006239891200052643
6.2,-0.006243521322034358
6.204,-0.0062460455790415105
6.208,-0.006247271646730699
6.212,-0.006246790835872194
6.216,-0.00624828134953356
6.22,-0.006249892065909553
6.224,-0.0062513585390279935
6.228,-0.006252199958030378
6.232,-0.006255277147524812
6.236,-0.00625426744472195
6.24,-0.0062486659982203645
6.244,-0.006264749121437365
6.248,-0.00629715577330062
6.252,-0.006302156206229075
6.256,-0.006287707839930992
6.26,-0.006263787499720355
6.264,-0.006238617051277604
6.268,-0.006230635591026417
6.272,-0.006233015604776018
6.276,-0.006236237037528003
6.28,-0.006236501483500181
6.284,-0.006236982294358686
6.288,-0.00623909786213611
6.292,-0.006247680335960428
6.296,-0.006241694240772038
6.3,-0.00624554072764008
6.304,-0.00625015651188173
6.308,-0.006250036309167104
6.312,-0.006253594309520044
6.316,-0.006259003431678228
6.32,-0.006284149839578053
6.324,-0.0062781637443896626
6.328,-0.00625828221539047
6.332,-0.006255613715125765
6.336,-0.006265830945869002
6.34,-0.006249795903737852
6.344,-0.0062435934436631335
6.348,-0.006246959119672671
6.352,-0.006242295254345169
6.356,-0.006241501916428636
6.36,-0.0062431126328046285
6.364,-0.006245468606011304
6.368,-0.006249267011793496
6.372,-0.006252272079659154
6.376,-0.006260686269682996
6.38,-0.006262489310402391
6.384,-0.0062553252286106625
6.388,-0.006249627619937375
6.392,-0.006246478308814165
6.396,-0.006255493512411139
6.4,-0.006267778229845949
6.404,-0.006250613282197311
6.408,-0.0062529452148610614
6.412,-0.006270278446310176
6.416,-0.006237126537616238
6.42,-0.006220682806255357
6.424,-0.006220490481911954
6.428,-0.006224913941810203
6.432,-0.006233784902149627
6.436,-0.006231525091114651
6.44,-0.006231981861430232
6.444,-0.006238857456706857
6.448,-0.006243737686920685
6.452,-0.006247391849445325
6.456,-0.006250036309167104
6.46,-0.006252007633686976
6.464,-0.006254002998749773
6.468,-0.006264027905149607
6.472,-0.006249315092879347
6.476,-0.00623457824006616
6.48,-0.006229770131481107
6.484,-0.006228832550307022
6.488,-0.006246694673700493
6.492,-0.006251190255227517
6.496,-0.006247944781932606
6.5,-0.006244747389723546
6.5040000000000004,-0.00625695998552958
6.508,-0.006266624283785536
6.5120000000000005,-0.0062852076234667644
6.516,-0.006246814876415119
6.5200000000000005,-0.006215562170612276
6.524,-0.0062021956287458295
6.5280000000000005,-0.0062014022908292955
6.532,-0.006206258480500199
6.5360000000000005,-0.006212677305461244
6.54,-0.006214023575865059
6.5440000000000005,-0.00621274942709002
6.548,-0.006225707279726737
6.5520000000000005,-0.006233857023778402
6.556,-0.006234650361694936
6.5600000000000005,-0.006243617484206059
6.564,-0.006259868891223537
6.5680000000000005,-0.0062816496231138256
6.572,-0.006264148107864234
6.5760000000000005,-0.006279485974250551
6.58,-0.006284462366636081
6.5840000000000005,-0.006216259346357108
6.588,-0.006202988966662363
6.5920000000000005,-0.006211691643201308
6.596,-0.006224793739095577
6.6000000000000005,-0.0062283757799914425
6.604,-0.006222582009146453
6.6080000000000005,-0.006221355941457264
6.612,-0.006220851090055834
6.6160000000000005,-0.006222582009146453
6.62,-0.006225851522984289
6.6240000000000006,-0.0062336887399779255
6.628,-0.006234938848210039
6.632000000000001,-0.006227582442074908
6.636,-0.0062292412395367515
6.640000000000001,-0.006256070485441345
6.644,-0.006254002998749773
6.648000000000001,-0.006248786200934991
6.652,-0.006249411255051048
6.656000000000001,-0.006232510753374588
6.66,-0.00622640445547157
6.664,-0.006219889468338823
6.668,-0.006208494250992248
6.672,-0.006205537264212441
6.676,-0.0062200337115963745
6.68,-0.006213687008264105
6.684,-0.006210393453883344
6.688,-0.006215586211155201
6.692,-0.00622051452245488
6.696,-0.006225466874297484
6.7,-0.006236333199699704
6.704,-0.00626376345917743
6.708,-0.006259941012852313
6.712,-0.006246959119672671
6.716,-0.006231981861430232
6.72,-0.006211739724287159
6.724,-0.006205344939869039
6.728,-0.006219384616937392
6.732,-0.006222437765888901
6.736,-0.006207099899502583
6.74,-0.006202604317975559
6.744,-0.0062048881695534585
6.748,-0.006211811845915935
6.752,-0.0062240725228078185
6.756,-0.006233328131834046
6.76,-0.006242487578688572
6.764,-0.006251671066086022
6.768,-0.006250709444369011
6.772,-0.006266792567586013
6.776,-0.006273980689920667
6.78,-0.0062438338490923865
6.784,-0.006216980562644866
6.788,-0.006209215467280006
6.792,-0.0062148890354103686
6.796,-0.0062139274136933575
6.8,-0.006216643995043913
6.804,-0.006212436900031992
6.808,-0.006210561737683821
6.812,-0.006213230237948526
6.816,-0.00621366296772118
6.82,-0.006211932048630561
6.824,-0.006210802143113074
6.828,-0.006208253845562996
6.832,-0.0062171007653594925
6.836,-0.006228808509764097
6.84,-0.006241237470456458
6.844,-0.0062529452148610614
6.848,-0.00624275202466075
6.852,-0.006258690904620199
6.856,-0.006233664699435
6.86,-0.006198853993279217
6.864,-0.006196618222787168
6.868,-0.00619539215509798
6.872,-0.006196401857900841
6.876,-0.006205561304755366
6.88,-0.006213470643377778
6.884,-0.006208133642848369
6.888,-0.006205465142583665
6.892,-0.006206330602128975
6.896,-0.00620772495361864
6.9,-0.006213903373150432
6.904,-0.006220177954853926
6.908,-0.006214239940751386
6.912,-0.006211619521572532
6.916,-0.006228471942163143
6.92,-0.006230731753198118
6.924,-0.006220153914311001
6.928,-0.006231212564056623
6.932,-0.006195560438898457
6.936,-0.006173755666465242
6.94,-0.006185655735213248
6.944,-0.006196498020072542
6.948,-0.00622010583322515
6.952,-0.006224240806608296
6.956,-0.006188973330136935
6.96,-0.006171447774344417
6.964,-0.0061717362608595195
6.968,-0.0061764241667299465
6.972,-0.006180991869885747
6.976,-0.006185487451412772
6.98,-0.006189934951853945
6.984,-0.0061934689116639585
6.988,-0.0061962576146432895
6.992,-0.006200632993455687
6.996,-0.006201354209743445
7.0,-0.006201690777344399
7.0040000000000004,-0.006207292223845985
7.008,-0.0062269333474159255
7.0120000000000005,-0.006249242971250571
7.016,-0.006218014305990653
7.0200000000000005,-0.006181929451059833
7.024,-0.006180294694140914
7.0280000000000005,-0.006187458775932643
7.032,-0.0061830112754914695
7.0360000000000005,-0.006182482383547114
7.04,-0.006176616491073348
7.0440000000000005,-0.006175678909899263
7.048,-0.0061848383567537895
7.0520000000000005,-0.0061894301004525145
7.056,-0.006193012141348379
7.0600000000000005,-0.006195824884870634
7.064,-0.006198325101334862
7.0680000000000005,-0.006199863696082079
7.072,-0.006198950155450919
7.0760000000000005,-0.006200368547483509
7.08,-0.006235515821240246
7.0840000000000005,-0.006271191986941336
7.088,-0.006215129440839621
7.0920000000000005,-0.006171447774344417
7.096,-0.006155532934927892
7.1000000000000005,-0.006162408530204518
7.104,-0.006185319167612295
7.1080000000000005,-0.006211980129716412
7.112,-0.006213278319034375
7.1160000000000005,-0.006229385482794303
7.12,-0.006217749860018475
7.1240000000000006,-0.006175678909899263
7.128,-0.006164860665582895
7.132000000000001,-0.006179188829166352
7.136,-0.0061877713029906715
7.140000000000001,-0.006180438937398466
7.144,-0.00619132930334361
7.148000000000001,-0.006200945520513716
7.152,-0.006187651100276045
7.156000000000001,-0.006189694546424693
7.16,-0.006190247478911974
7.164000000000001,-0.006184862397296715
7.168,-0.006184141181008957
7.172,-0.006185415329783996
7.176,-0.006192266884517695
7.18,-0.0061992626825089475
7.184,-0.006189478181538365
7.188,-0.006186016343357127
7.192,-0.006197988533733908
7.196,-0.006209455872709259
7.2,-0.006215922778756155
7.204,-0.006204960291182234
7.208,-0.006199623290652826
7.212,-0.006182626626804665
7.216,-0.006200320466397659
7.22,-0.006201594615172698
7.224,-0.006169332206566993
7.228,-0.0061551723267840135
7.232,-0.006157888908134568
7.236,-0.0061626970167196204
7.24,-0.006166928152274467
7.244,-0.006170534233713256
7.248,-0.006173875869179868
7.252,-0.00617726558573233
7.256,-0.006179092666994651
7.26,-0.006179789842739484
7.264,-0.006179477315681456
7.268,-0.006178515693964444
7.272,-0.006180679342827719
7.276,-0.006191858195287966
7.28,-0.006210898305284774
7.284,-0.006209047183479529
7.288,-0.006169813017425499
7.292,-0.006162528732919144
7.296,-0.0061859442217283515
7.3,-0.006181208234772075
7.304,-0.006182626626804665
7.308,-0.006175510626098786
7.312,-0.00617310657180626
7.316,-0.0061693562471099184
7.32,-0.006167408963132973
7.324,-0.006173298896149662
7.328,-0.0061759433558714405
7.332,-0.006175678909899263
7.336,-0.006186593316387334
7.34,-0.0061997434933674525
7.344,-0.0062030610882911385
7.348,-0.0061868096812736605
7.352,-0.006163947124951734
7.356,-0.006145508028528058
7.36,-0.006158754367679878
7.364,-0.0061960172092140366
7.368,-0.006191305262800685
7.372,-0.006175702950442188
7.376,-0.0061719766662887724
7.38,-0.006155869502528846
7.384,-0.006151782610231552
7.388,-0.0061511335155725695
7.392,-0.006152191299461281
7.396,-0.006154354948324554
7.4,-0.006151758569688626
7.404,-0.006153417367150469
7.408,-0.006155941624157622
7.412,-0.006159090935280831
7.416,-0.006161927719346013
7.42,-0.006163201868121052
7.424,-0.006163730760065407
7.428,-0.006165966530557457
7.432,-0.006184333505352359
7.436,-0.006204046750551075
7.44,-0.00619128122225776
7.444,-0.006168370584849983
7.448,-0.006165028949383372
7.452,-0.006159163056909607
7.456,-0.006153850096923124
7.46,-0.006173298896149662
7.464,-0.006174380720581299
7.468,-0.006151422002087672
7.472,-0.006141469217316614
7.476,-0.006141132649715659
7.48,-0.006144594487896898
7.484,-0.006149378555939025
7.488,-0.006154643434839658
7.492,-0.006159643867768112
7.496,-0.006163538435722005
7.5,-0.006166182895443784
7.5040000000000004,-0.006171375652715641
7.508,-0.00618219389703201
7.5120000000000005,-0.006180054288711662
7.516,-0.006194334371209268
7.5200000000000005,-0.006188588681450131
7.524,-0.006160990138171927
7.5280000000000005,-0.006160701651656824
7.532,-0.006156542637730754
7.5360000000000005,-0.006155100205155238
7.54,-0.0061623123680328165
7.5440000000000005,-0.006154523232125031
7.548,-0.006146373488073367
7.5520000000000005,-0.006146589852959694
7.556,-0.00614762359630548
7.5600000000000005,-0.006150796947971615
7.564,-0.0061549319213547605
7.5680000000000005,-0.006155244448412789
7.572,-0.006155004042983536
7.5760000000000005,-0.006158321637907223
7.58,-0.006162023881517714
7.5840000000000005,-0.0061604852867704965
7.588,-0.006177674274962059
7.5920000000000005,-0.006201931182773651
7.596,-0.006189790708596394
7.6000000000000005,-0.006162937422148873
7.604,-0.006155965664700547
7.6080000000000005,-0.00615077290742869
7.612,-0.006145387825813431
7.6160000000000005,-0.0061346417031258385
7.62,-0.006119159593481969
7.6240000000000006,-0.006135651405928699
7.628,-0.006130554810828544
7.632000000000001,-0.006138295865650479
7.636,-0.006166327138701335
7.640000000000001,-0.0061868096812736605
7.644,-0.006164187530380987
7.648000000000001,-0.006137839095334899
7.652,-0.006130578851371469
7.656000000000001,-0.006130001878341263
7.66,-0.006135362919413597
7.664000000000001,-0.0061418538660034175
7.668,-0.006146950461103574
7.672000000000001,-0.0061532731238929175
7.676,-0.006167841692905627
7.68,-0.006181232275315
7.684,-0.006155508894384967
7.688,-0.006140964365915183
7.692,-0.006145868636671936
7.696,-0.006160461246227571
7.7,-0.006156182029586874
7.704,-0.006135338878870671
7.708,-0.006136324541130607
7.712,-0.006133247351636173
7.716,-0.0061489939072522206
7.72,-0.0061741162746091205
7.724,-0.006170991004028837
7.728,-0.006156398394473202
7.732,-0.006143969433780841
7.736,-0.006135290797784821
7.74,-0.006132790581320593
7.744,-0.006135386959956522
7.748,-0.006132165527204536
7.752,-0.006126419837445399
7.756,-0.006127838229477989
7.76,-0.006131203905487526
7.764,-0.006134112811181483
7.768,-0.006136252419501831
7.772,-0.006137791014249048
7.776,-0.0061386805143372825
7.78,-0.006139209406281638
7.784,-0.006140411433427901
7.788,-0.00614762359630548
7.792,-0.006164115408752211
7.796,-0.00616260085454792
7.8,-0.006150051691140932
7.804,-0.006161519030116283
7.808,-0.006142022149803895
7.812,-0.006113293701008205
7.816,-0.006113293701008205
7.82,-0.006123270526322189
7.824,-0.006131035621687049
7.828,-0.006139137284652863
7.832,-0.006139618095511368
7.836,-0.006136637068188636
7.84,-0.006131251986573377
7.844,-0.006132574216434266
7.848,-0.006139666176597219
7.852,-0.006137286162847618
7.856,-0.006134040689552707
7.86,-0.006140315271256201
7.864,-0.006131492392002629
7.868,-0.006133391594893725
7.872,-0.006135362919413597
7.876,-0.00612336668849389
7.88,-0.006117212309505023
7.884,-0.006127068932104381
7.888,-0.006147046623275274
7.892,-0.00615579738090007
7.896,-0.006159331340710084
7.9,-0.006164620260153642
7.904,-0.006135483122128223
7.908,-0.0061224291073198045
7.912,-0.006117404633848425
7.916,-0.006107860538307096
7.92,-0.006120505863885784
7.924,-0.006137238081761767
7.928,-0.006124977404869883
7.932,-0.006117404633848425
7.936,-0.006118486458280062
7.94,-0.006114567849783243
7.944,-0.006114928457927123
7.948,-0.006143152055321382
7.952,-0.006149426637024875
7.956,-0.006120073134113129
7.96,-0.006113437944265756
7.964,-0.006112788849606774
7.968,-0.006111154092687856
7.972,-0.006112668646892148
7.976,-0.006106562348989131
7.98,-0.006100912821401694
7.984,-0.006098797253624271
7.988,-0.006102259091805509
7.992,-0.006105913254330149
7.996,-0.006107620132877843
8.0,-0.006109928024998668
8.004,-0.006111298335945408
8.008000000000001,-0.006115048660641749
8.012,-0.0061271891348190066
8.016,-0.006123751337180694
8.02,-0.0061325020948054905
8.024000000000001,-0.006142767406634578
8.028,-0.0061256024589859395
8.032,-0.006124544675097228
8.036,-0.006111682984632212
8.040000000000001,-0.006084156562982786
8.044,-0.006082040995205363
8.048,-0.006106538308446206
8.052,-0.006133800284123454
8.056000000000001,-0.006103076470264968
8.06,-0.006071703561747499
8.064,-0.006064635642127471
8.068,-0.006070958304916815
8.072000000000001,-0.006077112683905683
8.076,-0.006083122819637
8.08,-0.006087185671391369
8.084,-0.00608641637401776
8.088000000000001,-0.006091032158259411
8.092,-0.006091368725860365
8.096,-0.006106995078761786
8.1,-0.0061224291073198045
8.104000000000001,-0.006129713391826159
8.108,-0.006144570447353973
8.112,-0.006148248650421537
8.116,-0.006119808688140951
8.120000000000001,-0.0060874020362776966
8.124,-0.006068410007366737
8.128,-0.006074780751241932
8.132,-0.006083315143980401
8.136000000000001,-0.006075477926986764
8.14,-0.006080261995028892
8.144,-0.006089685887855596
8.148,-0.006082906454750672
8.152000000000001,-0.006077665616392964
8.156,-0.006077906021822216
8.16,-0.006079636940912835
8.164,-0.006079636940912835
8.168000000000001,-0.006084517171126664
8.172,-0.00608545475230075
8.176,-0.00609372469906704
8.18,-0.006107644173420768
8.184000000000001,-0.0061011051457450964
8.188,-0.006114014917295962
8.192,-0.006132357851547939
8.196,-0.006098773213081346
8.2,-0.006078218548880245
8.204,-0.006072809426722061
8.208,-0.006071487196861171
8.212,-0.006076896319019355
8.216,-0.006087329914648921
8.22,-0.006085695157730003
8.224,-0.0060820890762912135
8.228,-0.006083026657465298
8.232,-0.006086728901075789
8.236,-0.006092859239521731
8.24,-0.006100456051086114
8.244,-0.006114856336298347
8.248,-0.00611108197105908
8.252,-0.006109639538483565
8.256,-0.006114928457927123
8.26,-0.006122813756006609
8.264,-0.006115817958015357
8.268,-0.006107019119304711
8.272,-0.006119448079997072
8.276,-0.0061056247678150455
8.28,-0.0061128369306926245
8.284,-0.006105793051615523
8.288,-0.006105047794784839
8.292,-0.00610189848366163
8.296,-0.006092835198978806
8.3,-0.0060918254961759444
8.304,-0.006091705293461319
8.308,-0.006096489361503446
8.312,-0.006098003915707737
8.316,-0.006099710794255431
8.32,-0.006100263726742712
8.324,-0.006102547578320612
8.328,-0.006109086605996284
8.332,-0.0061143514848969165
8.336,-0.006128871972823776
8.34,-0.006134809986926316
8.344,-0.006125458215728388
8.348,-0.006114399565982767
8.352,-0.00611326966046528
8.356,-0.006125506296814238
8.36,-0.006109759741198191
8.364,-0.006098051996793588
8.368,-0.006106706592246683
8.372,-0.0061042784974112314
8.376,-0.006096104712816641
8.38,-0.006090238820342877
8.384,-0.006091561050203767
8.388,-0.006099710794255431
8.392,-0.006101754240404079
8.396,-0.0060951671316425565
8.4,-0.00609093599608771
8.404,-0.006090359023057504
8.408,-0.006097739469735559
8.412,-0.00610194656474748
8.416,-0.006097715429192635
8.42,-0.006097883712993111
8.424,-0.006108341349165601
8.428,-0.006113173498293579
8.432,-0.006121611728860346
8.436,-0.006121227080173541
8.44,-0.006100047361856385
8.444,-0.006085863441530479
8.448,-0.006083964238639383
8.452,-0.006086488495646536
8.456,-0.006085430711757825
8.46,-0.006087065468676742
8.464,-0.00609321984766561
8.468,-0.0060940612666679946
8.472,-0.006097234618334129
8.476,-0.006108533673509003
8.48,-0.006103941929810277
8.484,-0.006114423606525692
8.488,-0.006125963067129819
8.492,-0.006117861404164005
8.496,-0.006110841565629828
8.5,-0.006108341349165601
8.504,-0.006108124984279273
8.508000000000001,-0.006103917889267352
8.512,-0.006102235051262584
8.516,-0.006096224915531268
8.52,-0.00609052730685798
8.524000000000001,-0.006099782915884207
8.528,-0.006092642874635404
8.532,-0.006082569887149719
8.536,-0.006075309643186288
8.540000000000001,-0.0060837478737530565
8.544,-0.006096489361503446
8.548,-0.006090238820342877
8.552,-0.006079877346342088
8.556000000000001,-0.006076511670332551
8.56,-0.0060795407787411345
8.564,-0.00609408530721092
8.568,-0.006097450983220456
8.572000000000001,-0.006094493996440649
8.576,-0.0061011051457450964
8.58,-0.006090238820342877
8.584,-0.006094638239698201
8.588000000000001,-0.0060989655374247475
8.592,-0.006091176401516962
8.596,-0.006106514267903281
8.6,-0.006091008117716486
8.604000000000001,-0.006086897184876266
8.608,-0.006089733968941447
8.612,-0.006076271264903298
8.616,-0.006072400737492331
8.620000000000001,-0.006076054900016971
8.624,-0.006070213048086132
8.628,-0.006069972642656879
8.632,-0.006071679521204573
8.636000000000001,-0.006086488495646536
8.64,-0.00611884706642394
8.644,-0.006102860105378641
8.648,-0.006095527739786435
8.652000000000001,-0.006074492264726829
8.656,-0.006061967141862767
8.66,-0.006062111385120319
8.664,-0.006072929629436687
8.668000000000001,-0.0060824016033492415
8.672,-0.006079468657112359
8.676,-0.0060773050082490844
8.68,-0.006078843602996302
8.684000000000001,-0.006073506602466893
8.688,-0.006081079373488352
8.692,-0.006077954102908067
8.696,-0.006069804358856403
8.700000000000001,-0.0060667752504478195
8.704,-0.0060636740204104604
8.708,-0.006066126155788837
8.712,-0.0060678811154223815
8.716,-0.006071270831974843
8.72,-0.0060802379544859664
8.724,-0.006085791319901703
8.728,-0.006074780751241932
8.732,-0.0060769203595622805
8.736,-0.006069852439942253
8.74,-0.0060596352091990165
8.744,-0.006054153965412056
8.748,-0.006054634776270561
8.752,-0.006057615803593294
8.756,-0.006070958304916815
8.76,-0.006079035927339703
8.764,-0.00606631848013224
8.768,-0.006063000885208553
8.772,-0.006057976411737173
8.776,-0.006045258964529709
8.78,-0.006041989450691873
8.784,-0.006063265331180731
8.788,-0.0060869933470479665
8.792,-0.006088315576908856
8.796,-0.00610326879460837
8.8,-0.006088147293108379
8.804,-0.006065284736786453
8.808,-0.006059202479426361
8.812,-0.006042061572320649
8.816,-0.00603170009831986
8.82,-0.006032950206551974
8.824,-0.0060372775042785215
8.828,-0.006041099950603638
8.832,-0.006045715734845289
8.836,-0.006049946870400135
8.84,-0.006053480830210149
8.844,-0.006059923695714119
8.848,-0.006063073006837329
8.852,-0.006059875614628269
8.856,-0.006080550481543996
8.86,-0.0060835074683238035
8.864,-0.0060819207924907364
8.868,-0.006076824197390579
8.872,-0.006064178871811891
8.876,-0.006041845207434321
8.88,-0.006030185544115567
8.884,-0.006023382070467718
8.888,-0.006031820301034487
8.892,-0.006038263166538457
8.896,-0.006039681558571048
8.9,-0.006043263599466912
8.904,-0.00604540320778726
8.908,-0.006048384235109993
8.912,-0.006049393937912854
8.916,-0.006049826667685509
8.92,-0.006055139627671992
8.924,-0.006067207980220474
8.928,-0.006072737305093285
8.932,-0.006061486331004262
8.936,-0.006048336154024142
8.94,-0.0060479034242514875
8.944,-0.006070164967000281
8.948,-0.006064635642127471
8.952,-0.006052903857179943
8.956,-0.006073626805181519
8.96,-0.006072593061835733
8.964,-0.006030353827916044
8.968,-0.006013453326239584
8.972,-0.006016770921163271
8.976,-0.006018598002425591
8.98,-0.006014607272299997
8.984,-0.006018814367311918
8.988,-0.00602494470575786
8.992,-0.006025377435530515
8.996,-0.0060280699763381445
9.0,-0.006032589598408095
9.004,-0.006035883152788856
9.008000000000001,-0.0060379987205662795
9.012,-0.006038912261197439
9.016,-0.006041099950603638
9.02,-0.006048288072938292
9.024000000000001,-0.006050403640715715
9.028,-0.006053504870753074
9.032,-0.006056125289931927
9.036,-0.0060581927766235
9.040000000000001,-0.006069924561571029
9.044,-0.006062039263491543
9.048,-0.006047807262079786
9.052,-0.006045932099731616
9.056000000000001,-0.006037493869164848
9.06,-0.006030113422486792
9.064,-0.0060256899625885435
9.068,-0.006029512408913661
9.072000000000001,-0.006025185111187113
9.076,-0.006023502273182345
9.08,-0.0060267958275631054
9.084,-0.006030666354974073
9.088000000000001,-0.006033623341753881
9.092,-0.006036147598761034
9.096,-0.006037493869164848
9.1,-0.006038575693596486
9.104000000000001,-0.006040042166714926
9.108,-0.006035907193331781
9.112,-0.0060455234105018865
9.116,-0.00607966098145576
9.120000000000001,-0.006058240857709351
9.124,-0.00604357612652494
9.128,-0.006075982778388195
9.132,-0.006049754546056733
9.136000000000001,-0.006039296909884243
9.14,-0.006048480397281694
9.144,-0.006019174975455797
9.148,-0.005995110391987609
9.152000000000001,-0.005987345296622749
9.156,-0.006002442757579814
9.16,-0.006013285042439108
9.164,-0.0060201365971728074
9.168000000000001,-0.006024872584129084
9.172,-0.006028430584482023
9.176,-0.0060324453551505435
9.18,-0.006036123558218109
9.184000000000001,-0.006038070842195055
9.188,-0.0060447300725853526
9.192,-0.006052783654465316
9.196,-0.00605042768125864
9.200000000000001,-0.006053625073467701
9.204,-0.006050980613745921
9.208,-0.006051773951662455
9.212,-0.006051124857003473
9.216000000000001,-0.006039753680199824
9.22,-0.006031555855062308
9.224,-0.006012756150494751
9.228,-0.0060141985830702675
9.232,-0.006019559624142601
9.236,-0.006014775556100474
9.24,-0.006011674326063115
9.244,-0.006012708069408902
9.248,-0.006015520812931157
9.252,-0.0060187182051402175
9.256,-0.006024824503043234
9.26,-0.006029296044027333
9.264,-0.006026363097790451
9.268,-0.006020929935089341
9.272,-0.0060165785968198686
9.276,-0.006019511543056751
9.28,-0.0060351378959581726
9.284,-0.006067400304563876
9.288,-0.006061197844489158
9.292,-0.006041027828974863
9.296,-0.006034633044556742
9.3,-0.006016746880620346
9.304,-0.005999173243741978
9.308,-0.0060157131372745596
9.312,-0.0060168190022491215
9.316,-0.006006866217478062
9.32,-0.006006145001190304
9.324,-0.0060140302992697904
9.328,-0.0060307625171457735
9.332,-0.006021530948662473
9.336,-0.006012539785608425
9.34,-0.00601439090741367
9.344,-0.006021074178346893
9.348,-0.0060405229775734315
9.352,-0.006076703994675953
9.356,-0.006051485465147352
9.36,-0.006016626677905719
9.364,-0.006017323853650552
9.368,-0.00599301886475311
9.372,-0.005979748485058365
9.376,-0.005996648986734825
9.38,-0.006015665056188709
9.384,-0.00602905563859808
9.388,-0.00602311762449554
9.392,-0.00601302059646693
9.396,-0.006017972948309534
9.4,-0.006011914731492368
9.404,-0.006016843042792047
9.408,-0.0060287911926259026
9.412,-0.006025377435530515
9.416,-0.006013333123524958
9.42,-0.006011433920633863
9.424,-0.006012443623436723
9.428,-0.006020160637715733
9.432,-0.006050764248859594
9.436,-0.006054057803240355
9.44,-0.00603896034228329
9.444,-0.006025088949015412
9.448,-0.006008717339283307
9.452,-0.006008428852768205
9.456,-0.0060068181363922115
9.46,-0.006022781056894587
9.464,-0.006012083015292845
9.468,-0.006012395542350873
9.472,-0.006011337758462161
9.476,-0.005992754418780933
9.48,-0.005985470134274578
9.484,-0.005986600039792065
9.488,-0.005998139500396192
9.492,-0.006001024365547223
9.496,-0.006002178311607636
9.5,-0.006004630446986013
9.504,-0.006005135298387443
9.508000000000001,-0.006006529649877109
9.512,-0.006017516177993954
9.516,-0.0060332386930670775
9.52,-0.006028574827739575
9.524000000000001,-0.006015160204787278
9.528,-0.0060110252314041325
9.532,-0.006019102853827021
9.536,-0.006026122692361198
9.540000000000001,-0.006018333556453413
9.544,-0.005999461730257082
9.548,-0.005985518215360429
9.552,-0.00598018121483102
9.556000000000001,-0.00597561351167522
9.56,-0.005973473903354872
9.564,-0.005977272309137063
9.568,-0.005987922269652955
9.572000000000001,-0.005989436823857246
9.576,-0.005987369337165674
9.58,-0.006020352962059135
9.584,-0.006031555855062308
9.588000000000001,-0.006007515312137044
9.592,-0.005996961513792854
9.596,-0.005995110391987609
9.6,-0.006000759919575045
9.604000000000001,-0.005997322121936733
9.608,-0.006004967014586966
9.612,-0.006026747746477255
9.616,-0.006030233625201418
9.620000000000001,-0.006021338624319071
9.624,-0.005993090986381886
9.628,-0.005970060146259484
9.632,-0.0059692187272571
9.636000000000001,-0.005975060579187939
9.64,-0.005973161376296843
9.644,-0.005965732848532937
9.648,-0.005973858552041676
9.652000000000001,-0.005985373972102877
9.656,-0.00599383624321257
9.66,-0.006018333556453413
9.664,-0.006011962812578218
9.668000000000001,-0.0059955671623031885
9.672,-0.00598936470222847
9.676,-0.005985806701875531
9.68,-0.005999509811342931
9.684000000000001,-0.006042854910237183
9.688,-0.006030017260315091
9.692,-0.005997057675964555
9.696,-0.005981623647406536
9.700000000000001,-0.005975060579187939
9.704,-0.005977536755109241
9.708,-0.005981503444691909
9.712,-0.005986167310019411
9.716000000000001,-0.005994389175699851
9.72,-0.006000904162832597
9.724,-0.006009101987970112
9.728,-0.006007491271594119
9.732,-0.0060000867843731385
9.736,-0.006014919799358026
9.74,-0.006024175408384251
9.744,-0.0060096068393715426
9.748,-0.00598571053970383
9.752,-0.005986960647935944
9.756,-0.0059779694848818956
9.76,-0.005979628282343739
9.764,-0.005980758187861227
9.768,-0.005975252903531341
9.772,-0.005976863619907334
9.776,-0.0059839074989844355
9.78,-0.005994028567555972
9.784,-0.006002635081923216
9.788,-0.005996985554335779
9.792,-0.005991768756520997
9.796,-0.005993547756697466
9.8,-0.00600854905548283
9.804,-0.006027853611451817
9.808,-0.006019319218713349
9.812,-0.0059992934464566045
9.816,-0.005998283743653744
9.82,-0.005984412350385867
9.824,-0.005982873755638649
9.828,-0.0060003271898023906
9.832,-0.0059952546352451605
9.836,-0.005998139500396192
9.84,-0.005971839146435954
9.844,-0.005963424956412112
9.848,-0.005957174415251543
9.852,-0.005959314023571891
9.856,-0.005962992226639457
9.86,-0.005967006997307976
9.864,-0.005971911268064729
9.868,-0.005975805836018622
9.872,-0.005978858984970131
9.876,-0.005983282444868379
9.88,-0.005985638418075055
9.884,-0.0059848691207014465
9.888,-0.005984532553100492
9.892,-0.0059839074989844355
9.896,-0.005980541822974899
9.9,-0.005986672161420841
9.904,-0.006002923568438319
9.908,-0.006024295611098878
9.912,-0.006026026530189497
9.916,-0.005989052175170442
9.92,-0.00597652705230638
9.924,-0.005984195985499539
9.928,-0.005986023066761859
9.932,-0.005980253336459796
9.936,-0.005961573834606867
9.94,-0.005957703307195899
9.944,-0.005961501712978091
9.948,-0.005963713442927215
9.952,-0.00597236803838031
9.956,-0.005975493308960593
9.96,-0.005977801201081419
9.964,-0.005978690701169654
9.968,-0.005982873755638649
9.972,-0.006004486203728461
9.976,-0.006020881854003491
9.98,-0.005998163540939117
9.984,-0.005972945011410516
9.988,-0.005974772092672836
9.992,-0.00598794631019588
9.996,-0.005988427121054385
10.0,-0.0059691706461712495
10.004,-0.005955275212360447
10.008000000000001,-0.005954169347385885
10.012,-0.005955780063761878
10.016,-0.005964266375414496
10.02,-0.005976647255021007
10.024000000000001,-0.005964146172699869
10.028,-0.005959987158773799
10.032,-0.005966357902648994
10.036,-0.005974363403443106
10.040000000000001,-0.005969579335400979
10.044,-0.005975805836018622
10.048,-0.005984051742241987
10.052,-0.005981840012292863
10.056000000000001,-0.005986696201963767
10.06,-0.005975757754932772
10.064,-0.0059652039565885814
10.068,-0.005962391213066325
10.072000000000001,-0.005969146605628324
10.076,-0.005996985554335779
10.08,-0.005993571797240391
10.084,-0.005956212793534533
10.088000000000001,-0.005946452333106876
10.092,-0.005950467103775395
10.096,-0.005957102293622767
10.1,-0.005968016700110837
10.104000000000001,-0.0059728969303246655
10.108,-0.005961189185920062
10.112,-0.00595729461796617
10.116,-0.005974820173758687
10.120000000000001,-0.005985325891017026
10.124,-0.005967752254138659
10.128,-0.0059617901994931935
10.132,-0.005959265942486041
10.136000000000001,-0.0059662376999343675
10.14,-0.005984460431471717
10.144,-0.005989076215713368
10.148,-0.005971430457206224
10.152000000000001,-0.0059689302407419965
10.156,-0.00599520655415931
10.16,-0.005975685633303996
10.164,-0.005957823509910525
10.168000000000001,-0.005957486942309571
10.172,-0.005954505914986839
10.176,-0.005956741685478889
10.18,-0.005954505914986839
10.184000000000001,-0.005959097658685564
10.188,-0.005969651457029755
10.192,-0.00595876109108461
10.196,-0.005949673765858861
10.200000000000001,-0.005948832346856477
10.204,-0.005950274779431992
10.208,-0.005956693604393038
10.212,-0.00595734269905202
10.216000000000001,-0.005962463334695101
10.22,-0.0059652039565885814
10.224,-0.005978786863341355
10.228,-0.005974603808872359
10.232000000000001,-0.0059702765111458115
10.236,-0.005976190484705426
10.24,-0.005969867821916082
10.244,-0.005970925605804794
10.248,-0.005977104025336587
10.252,-0.0059579196720822266
10.256,-0.005955611779961401
10.26,-0.005947798603510691
10.264,-0.005933254075040906
10.268,-0.005929864358488443
10.272,-0.005935201359017852
10.276,-0.00594500990053136
10.28,-0.005951741252550434
10.284,-0.005952847117524996
10.288,-0.005956044509734056
10.292,-0.0059579917937110025
10.296,-0.005958352401854881
10.3,-0.005969531254315128
10.304,-0.005990710972632285
10.308,-0.005968858119113221
10.312,-0.005943471305784143
10.316,-0.005941596143435973
10.32,-0.00594140381909257
10.324,-0.00593678803485092
10.328,-0.005946139806048847
10.332,-0.00596241525360925
10.336,-0.0059630643482682325
10.34,-0.0059420529137515525
10.344,-0.005938663197199091
10.348,-0.005955563698875551
10.352,-0.005961862321121969
10.356,-0.00595318368512595
10.36,-0.005952342266123565
10.364,-0.005955996428648205
10.368,-0.005956861888193514
10.372,-0.005953544293269828
10.376,-0.005955635820504326
10.38,-0.005964434659214973
10.384,-0.005971526619377925
10.388,-0.005964819307901777
10.392,-0.005956573401678412
10.396,-0.005958688969455834
10.4,-0.0059777290794526435
10.404,-0.005993716040497943
10.408,-0.0059763828090488285
10.412,-0.005942990494925638
10.416,-0.005930200926089397
10.42,-0.005939384413486849
10.424,-0.005932580939838998
10.428,-0.005937581372767454
10.432,-0.0059614055508063896
10.436,-0.00596094878049081
10.44,-0.005934816710331048
10.444,-0.0059232532091839955
10.448,-0.0059277007096251695
10.452,-0.005938062183625959
10.456,-0.005939648859459026
10.46,-0.00593541772390418
10.464,-0.005936763994307995
10.468,-0.005958400482940732
10.472,-0.005965179916045656
10.476,-0.005944072319357275
10.48,-0.00595145276603533
10.484,-0.005940273913575083
10.488,-0.005942149075923254
10.492,-0.00595505884747412
10.496,-0.005928782534056806
10.5,-0.005911713748579869
10.504,-0.005919190357429626
10.508000000000001,-0.0059277728312539454
10.512,-0.005930104763917696
10.516,-0.005929263344915311
10.52,-0.005932845385811176
10.524000000000001,-0.005936523588878742
10.528,-0.005937821778196706
10.532,-0.005938398751226912
10.536,-0.005940129670317531
10.540000000000001,-0.005941307656920869
10.544,-0.005964482740300823
10.548,-0.00598474891798682
10.552,-0.005955082888017045
10.556000000000001,-0.005958376442397806
10.56,-0.005962559496866802
10.564,-0.005943471305784143
10.568,-0.0059280853583119734
10.572000000000001,-0.005927917074511496
10.576,-0.005927893033968571
10.58,-0.005910607883605307
10.584,-0.005906112302078283
10.588000000000001,-0.005909838586231698
10.592,-0.005915944884134715
10.596,-0.005922604114525013
10.6,-0.005928061317769048
10.604000000000001,-0.005929984561203069
10.608,-0.0059312587099781084
10.612,-0.0059282536421124505
10.616,-0.005930321128804023
10.620000000000001,-0.005941908670494001
10.624,-0.005954770360959017
10.628,-0.005938518953941539
10.632,-0.005950827711919273
10.636000000000001,-0.0059734498628119465
10.64,-0.0059372448051665
10.644,-0.005903780369414533
10.648,-0.005897794274226142
10.652000000000001,-0.005897049017395459
10.656,-0.005893899706272249
10.66,-0.005900943585349351
10.664,-0.005907097964338219
10.668000000000001,-0.0059090692888580905
10.672,-0.0059145024515592
10.676,-0.005919070154715
10.68,-0.005922123303666508
10.684000000000001,-0.005923565736242024
10.688,-0.005925176452618017
10.692,-0.005927099696052038
10.696,-0.005924839885017063
10.700000000000001,-0.005919599046659355
10.704,-0.0059395286567444
10.708,-0.005970300551688737
10.712,-0.00595962655062992
10.716000000000001,-0.005920248141318338
10.72,-0.005914238005587022
10.724,-0.005921209763035349
10.728,-0.0059154881138191355
10.732000000000001,-0.005903011072040924
10.736,-0.005915656397619613
10.74,-0.005920656830548067
10.744,-0.005904573707331066
10.748000000000001,-0.0059053670452476
10.752,-0.00590125611240738
10.756,-0.005902866828783372
10.76,-0.005903780369414533
10.764,-0.005899813679831864
10.768,-0.005900558936662547
10.772,-0.005908420194199108
10.776,-0.005919647127745206
10.78,-0.005921137641406573
10.784,-0.005920752992719768
10.788,-0.00593587449421976
10.792,-0.005957823509910525
10.796,-0.00594226927863788
10.8,-0.005916305492278595
10.804,-0.005899188625715807
10.808,-0.005893154449441566
10.812,-0.005892529395325509
10.816,-0.005907987464426454
10.82,-0.005906977761623592
10.824,-0.005900366612319145
10.828,-0.005901159950235679
10.832,-0.005904357342444739
10.836,-0.005907073923795293
10.84,-0.0059096222213453715
10.844,-0.005911906072923271
10.848,-0.005913324464955862
10.852,-0.0059146226542738265
10.856,-0.005918781668199897
10.86,-0.005935658129333433
10.864,-0.005957967753168077
10.868,-0.005927604547453468
10.872,-0.005904934315474945
10.876,-0.005914045681243619
10.88,-0.00589399586844395
10.884,-0.005884283489102144
10.888,-0.005928974858400209
10.892,-0.005969074483999548
10.896,-0.005914117802872395
10.9,-0.005882961259241253
10.904,-0.0058777444614264715
10.908,-0.0058744028259598595
10.912,-0.005876494353194358
10.916,-0.005890509989719787
10.92,-0.005899909842003565
10.924,-0.005906857558908966
10.928,-0.00591034343763313
10.932,-0.005907458572482097
10.936,-0.00590673735619434
10.94,-0.005909405856459044
10.944,-0.005915584275990837
10.948,-0.0059139014379860685
10.952,-0.005914550532645051
10.956,-0.0059221473442094335
10.96,-0.005934672467073496
10.964,-0.005956260874620383
10.968,-0.005916377613907371
10.972,-0.005893827584643473
10.976,-0.00589490940907511
10.98,-0.005887288556967802
10.984,-0.005889307962573524
10.988,-0.0058917120168660506
10.992,-0.00589298616564109
10.996,-0.005893515057585445
11.0,-0.005895125773961438
11.004,-0.0058986837743143766
11.008000000000001,-0.0059061363426212085
11.012,-0.00590399673430086
11.016,-0.005901159950235679
11.02,-0.005907939383340603
11.024000000000001,-0.005915223667846958
11.028,-0.005910704045777008
11.032,-0.005916425694993221
11.036,-0.005930369209889873
11.040000000000001,-0.00593587449421976
11.044,-0.005922291587466985
11.048,-0.005888490584114065
11.052,-0.005864618324989278
11.056000000000001,-0.0058631518518708365
11.06,-0.005884523894531397
11.064,-0.005898803977029003
11.068,-0.005914430329930424
11.072000000000001,-0.005904213099187187
11.076,-0.005899453071687985
11.08,-0.005894933449618035
11.084,-0.005902193693581465
11.088000000000001,-0.005892697679125986
11.092,-0.00588851462465699
11.096,-0.0058894041247452246
11.1,-0.005889981097775432
11.104000000000001,-0.005891639895237275
11.108,-0.005893803544100548
11.112,-0.005900486815033771
11.116,-0.005905294923618824
11.120000000000001,-0.00590358804507113
11.124,-0.005904645828959842
11.128,-0.005917603681596559
11.132,-0.005914358208301648
11.136000000000001,-0.005892865962926463
11.14,-0.005877215569482116
11.144,-0.005873008474470195
11.148,-0.00587993215083267
11.152000000000001,-0.005898852058114854
11.156,-0.005910800207948709
11.16,-0.00589212070609578
11.164,-0.005878537799343005
11.168000000000001,-0.005887937651626784
11.172,-0.005889235840944748
11.176,-0.00588618269199324
11.18,-0.005891327368179246
11.184000000000001,-0.005891880300666527
11.188,-0.005867671473940786
11.192,-0.005867503190140309
11.196,-0.005871782406781006
11.200000000000001,-0.0058745711097603365
11.204,-0.005874138379987682
11.208,-0.0058759173801641515
11.212,-0.005883970962044116
11.216000000000001,-0.005890822516777815
11.22,-0.005892144746638705
11.224,-0.005887168354253175
11.228,-0.005884668137788948
11.232000000000001,-0.005907049883252368
11.236,-0.005928445966455853
11.24,-0.005909117369943941
11.244,-0.005878489718257154
11.248000000000001,-0.00588308146195588
11.252,-0.005892529395325509
11.256,-0.005879980231918521
11.26,-0.005887769367826307
11.264,-0.005886927948823923
11.268,-0.00588714431371025
11.272,-0.0058872645164248765
11.276,-0.005875701015277824
11.28,-0.005876614555908984
11.284,-0.005868873501087049
11.288,-0.005865027014219007
11.292,-0.005867503190140309
11.296,-0.0058647385277039036
11.3,-0.005864137514130772
11.304,-0.005866589649509149
11.308,-0.005870075528233312
11.312,-0.005871878568952707
11.316,-0.00587262382578339
11.32,-0.00588353823227146
11.324,-0.005897073057938384
11.328,-0.005905246842532973
11.332,-0.005916017005763491
11.336,-0.0058983712472563486
11.34,-0.005876879001881162
11.344,-0.005866517527880373
11.348,-0.005870147649862088
11.352,-0.0058780569884844995
11.356,-0.005880220637347774
11.36,-0.005878585880428855
11.364,-0.00587079674452107
11.368,-0.005868609055114871
11.372,-0.0058647385277039036
11.376,-0.005862430635583078
11.38,-0.005863776905986893
11.384,-0.005865652068335064
11.388,-0.005866012676478943
11.392,-0.005865868433221391
11.396,-0.00586755127122616
11.4,-0.0058801244751760726
11.404,-0.005905270883075899
11.408,-0.005911208897178439
11.412,-0.005869137947059227
11.416,-0.005845265687934441
11.42,-0.005850746931721401
11.424,-0.005875701015277824
11.428,-0.005857742729712652
11.432,-0.005844255985131579
11.436,-0.005844736795990085
11.44,-0.005866156919736494
11.444,-0.0058581514189423815
11.448,-0.005843150120157017
11.452,-0.00584613114747975
11.456,-0.005850530566835073
11.46,-0.005853054823842226
11.464,-0.005856829189081492
11.468,-0.005858608189257962
11.472,-0.005859930419118851
11.476,-0.005860194865091029
11.48,-0.0058609401219217126
11.484,-0.005861180527350965
11.488,-0.005863055689699135
11.492,-0.00586988320388991
11.496,-0.005880941853635531
11.5,-0.0058675993523120105
11.504,-0.005860579513777833
11.508000000000001,-0.0058613247706085165
11.512,-0.005859016878487691
11.516,-0.005865700149420915
11.52,-0.00586166133820947
11.524000000000001,-0.005880701448206279
11.528,-0.0058652193385624095
11.532,-0.005849400661317586
11.536,-0.005843679012101373
11.540000000000001,-0.005842332741697559
11.544,-0.005846756201595807
11.548,-0.00585211724266814
11.552,-0.005851876837238888
11.556000000000001,-0.005852838458955898
11.56,-0.005854160688816788
11.564,-0.00586069971649246
11.568,-0.005872215136553661
11.572000000000001,-0.005875725055820749
11.576,-0.00587856183988593
11.58,-0.005854497256417741
11.584,-0.005830288429692002
11.588000000000001,-0.005839904646862107
11.592,-0.005850482485749223
11.596,-0.005842909714727765
11.6,-0.005836298565423318
11.604000000000001,-0.00583887090351632
11.608,-0.005841226876722996
11.612,-0.0058506267290067745
11.616,-0.005862502757211854
11.620000000000001,-0.005876157785593404
11.624,-0.00588764916511168
11.628,-0.005882961259241253
11.632,-0.005855651202478154
11.636000000000001,-0.005851203702036981
11.64,-0.005843823255358925
11.644,-0.005840457579349388
11.648,-0.005839087268402648
11.652000000000001,-0.005831730862267517
11.656,-0.005835529268049709
11.66,-0.005846371552909003
11.664,-0.005845265687934441
11.668000000000001,-0.0058448329581617855
11.672,-0.005843318403957494
11.676,-0.005841371119980548
11.68,-0.005856035851164959
11.684000000000001,-0.005875989501792927
11.688,-0.005871758366238081
11.692,-0.005853271188728553
11.696,-0.005829398929603767
11.700000000000001,-0.00582831710517213
11.704,-0.005844640633818384
11.708,-0.005845025282505188
11.712,-0.005829615294490094
11.716000000000001,-0.005839423836003601
11.72,-0.005835697551850186
11.724,-0.005833005011042556
11.728,-0.005836370687052094
11.732000000000001,-0.00583877474134462
11.736,-0.005841659606495651
11.74,-0.005843462647215046
11.744,-0.005844544471646683
11.748000000000001,-0.005852333607554468
11.752,-0.00586531550073411
11.756,-0.005862310432868452
11.76,-0.005870820785063995
11.764000000000001,-0.005879379218345389
11.768,-0.00585389624284461
11.772,-0.005824254253417761
11.776,-0.005811729130553699
11.78,-0.00581557561742174
11.784,-0.005820672212521897
11.788,-0.005824951429162594
11.792,-0.005831370254123639
11.796,-0.005841683647038577
11.8,-0.005843126079614092
11.804,-0.005841779809210278
11.808,-0.005850530566835073
11.812,-0.005850867134436027
11.816,-0.005857814851341428
11.82,-0.005885894205478136
11.824,-0.005869234109230928
11.828,-0.005837716957455908
11.832,-0.005828437307886757
11.836,-0.0058092529546323966
11.84,-0.005796920156111736
11.844,-0.005815359252535413
11.848,-0.005811368522409819
11.852,-0.0058127388333565596
11.856,-0.005820720293607747
11.86,-0.0058207443341506725
11.864,-0.0058221627261832625
11.868,-0.005830793281093432
11.872,-0.0058375486736554315
11.876,-0.005849232377517109
11.88,-0.005857454243197549
11.884,-0.00585298270221345
11.888,-0.005858848594687214
11.892,-0.005857502324283399
11.896,-0.005834615727418549
11.9,-0.005855242513248425
11.904,-0.005874979798990066
11.908,-0.005839976768490883
11.912,-0.005818580685287398
11.916,-0.005811128116980567
11.92,-0.005810575184493285
11.924,-0.00582379748310218
11.928,-0.005821321307180879
11.932,-0.005817595023027463
11.936,-0.005817907550085491
11.94,-0.005813868738874047
11.944,-0.005814037022674524
11.948,-0.005816945928368481
11.952,-0.00582187423966816
11.956,-0.005828966199831112
11.96,-0.005828870037659411
11.964,-0.005828100740285802
11.968,-0.005828653672773083
11.972,-0.005833317538100585
11.976,-0.005843029917442391
11.98,-0.0058514921885520835
11.984,-0.005839664241432854
11.988,-0.0058258890103366785
11.992,-0.005823316672243675
11.996,-0.0058567330269097915
12.0,-0.005852357648097393
12.004,-0.005826009213051305
12.008000000000001,-0.005800718561893928
12.012,-0.005795477723536221
12.016,-0.005808892346488517
12.02,-0.005818412401486921
12.024000000000001,-0.005819542307004409
12.028,-0.005811536806210296
12.032,-0.00580593535970871
12.036,-0.0058088442654026665
12.040000000000001,-0.005812931157699962
12.044,-0.005823773442559255
12.048,-0.005836899578996449
12.052,-0.005836731295195972
12.056000000000001,-0.0058328607677850045
12.06,-0.005814734198419357
12.064,-0.005833678146244464
12.068,-0.005836442808680869
12.072000000000001,-0.0058317549028104425
12.076,-0.0058199509962341385
12.08,-0.005818003712257192
12.084,-0.005813628333444794
12.088000000000001,-0.005799228048232561
12.092,-0.005804589089304895
12.096,-0.005808603859973414
12.1,-0.005808579819430489
12.104000000000001,-0.005810719427750837
12.108,-0.005818340279858146
12.112,-0.005820191401663391
12.116,-0.005816200671537797
12.120000000000001,-0.005821561712610131
12.124,-0.005819205739403455
12.128,-0.005815791982308068
12.132,-0.005817955631171341
12.136000000000001,-0.005829158524174515
12.14,-0.0058570455539678195
12.144,-0.005858512027086261
12.148,-0.005828196902457504
12.152000000000001,-0.005799468453661814
12.156,-0.005790092641920962
12.16,-0.005788049195772314
12.164,-0.0057882415201157165
12.168000000000001,-0.005790044560835111
12.172,-0.005792713061099815
12.176,-0.005801944629583116
12.18,-0.005814229347017925
12.184000000000001,-0.005807161427397898
12.188,-0.005801007048409031
12.192,-0.005797785615657046
12.196,-0.005796992277740512
12.200000000000001,-0.005802858170214276
12.204,-0.00581233014412683
12.208,-0.005822186766726188
12.212,-0.005833990673302492
12.216000000000001,-0.005808651941059265
12.22,-0.005798843399545757
12.224,-0.005811200238609342
12.228,-0.00579177547992573
12.232000000000001,-0.00581598430665147
12.236,-0.0058228839424710205
12.24,-0.005796944196654661
12.244,-0.005784226749447196
12.248000000000001,-0.0057772069109130195
12.252,-0.005773624870017155
12.256,-0.005775740437794578
12.26,-0.005782111181669773
12.264000000000001,-0.005787977074143538
12.268,-0.005800021386149095
12.272,-0.0058117050900107735
12.276,-0.005802040791754818
12.280000000000001,-0.005806488292195991
12.284,-0.005809829927662603
12.288,-0.005797184602083914
12.292,-0.005784779681934477
12.296,-0.005783769979131616
12.3,-0.005803363021615706
12.304,-0.005813940860502823
12.308,-0.005790958101466271
12.312,-0.005794179534218256
12.316,-0.005803723629759586
12.32,-0.005806055562423336
12.324,-0.005798001980543373
12.328,-0.0057930736692436945
12.332,-0.00579223225024131
12.336,-0.00579319387195832
12.34,-0.00579309770978662
12.344,-0.005795597926250846
12.348,-0.005798747237374056
12.352,-0.005801848467411415
12.356,-0.00581507076602031
12.36,-0.0058369476600823
12.364,-0.005823725361473405
12.368,-0.005810286697978183
12.372,-0.005800838764608554
12.376,-0.0057938670071602276
12.38,-0.0058035313054161835
12.384,-0.00579639126416738
12.388,-0.005796439345253231
12.392,-0.0058128109549853355
12.396,-0.005814662076790581
12.4,-0.005803074535100604
12.404,-0.005790260925721438
12.408,-0.005781125519409837
12.412,-0.00577501922150682
12.416,-0.0057732402213303505
12.42,-0.005776605897339888
12.424,-0.005784250789990121
12.428,-0.0057902128446355875
12.432,-0.0057847316008486265
12.436,-0.005794155493675331
12.44,-0.00579538156136452
12.444,-0.005781726532982969
12.448,-0.0057828323979575305
12.452,-0.005789323344547353
12.456,-0.005801007048409031
12.46,-0.005802930291843052
12.464,-0.0058127388333565596
12.468,-0.0058099501303772285
12.472,-0.005785356654964684
12.476,-0.005766388666596651
12.48,-0.005777807924486151
12.484,-0.005799877142891543
12.488,-0.005781197641038613
12.492,-0.005755426179022731
12.496,-0.005746675421397935
12.5,-0.005751098881296183
12.504,-0.005758046598201585
12.508000000000001,-0.005761604598554524
12.512,-0.005767182004513184
12.516,-0.005782495830356577
12.52,-0.005794828628877239
12.524000000000001,-0.005785693222565638
12.528,-0.005761412274211121
12.532,-0.005761989247241328
12.536,-0.005774081640332735
12.540000000000001,-0.005794203574761182
12.544,-0.005792544777299338
12.548,-0.005795838331680099
12.552,-0.00578364977641699
12.556000000000001,-0.005764104815018751
12.56,-0.005756171435853414
12.564,-0.005758262963087912
12.568,-0.005760522774122887
12.572000000000001,-0.005762085409413029
12.576,-0.00576583573410937
12.58,-0.005776485694625261
12.584,-0.005791967804269132
12.588000000000001,-0.005781101478866912
12.592,-0.0057737210321888565
12.596,-0.005788698290431296
12.6,-0.005796944196654661
12.604000000000001,-0.0057690331263184295
12.608,-0.0057516758543263895
12.612,-0.005772783451014771
12.616,-0.005770667883237348
12.620000000000001,-0.005754632841106197
12.624,-0.005770235153464693
12.628,-0.005781077438323986
12.632,-0.005769874545320814
12.636000000000001,-0.005768047464058494
12.64,-0.005767230085599035
12.644,-0.005765739571937669
12.648,-0.005768840801975028
12.652000000000001,-0.005771028491381227
12.656,-0.005777952167743703
12.66,-0.005795982574937651
12.664,-0.005801656143068013
12.668000000000001,-0.005796896115568811
12.672,-0.0057791061138041154
12.676,-0.005766004017909846
12.68,-0.0057731921402445
12.684000000000001,-0.005780115816606976
12.688,-0.005774009518703959
12.692,-0.005759513071320025
12.696,-0.00575030554337965
12.700000000000001,-0.005758094679287435
12.704,-0.005762950868958338
12.708,-0.005752565354414625
12.712,-0.0057533346517882325
12.716000000000001,-0.005756556084540218
12.72,-0.005753478895045784
12.724,-0.005764801990763583
12.728,-0.005771076572467077
12.732000000000001,-0.005761243990410644
12.736,-0.00575076231369523
12.74,-0.005748502502660255
12.744,-0.0057661001800815475
12.748000000000001,-0.005783842100760392
12.752,-0.005788145357944015
12.756,-0.005771557383325582
12.76,-0.005757854273858182
12.764000000000001,-0.005774754775534643
12.768,-0.005778000248829553
12.772,-0.0057714131400680305
12.776,-0.005759464990234175
12.780000000000001,-0.005760883382266766
12.784,-0.005767686855914615
12.788,-0.0057583350847166875
12.792,-0.005752925962558503
12.796000000000001,-0.005755522341194432
12.8,-0.005753526976131635
12.804,-0.005750882516409856
12.808,-0.005749944935235771
12.812,-0.005754729003277898
12.816,-0.005755810827709535
12.82,-0.005763191274387591
12.824,-0.005766869477455156
12.828,-0.005773504667302529
12.832,-0.00575766194951478
12.836,-0.005756219516939265
12.84,-0.005776004883766756
12.844,-0.005774225883590287
12.848,-0.005748863110804134
12.852,-0.005736362028482997
12.856,-0.0057350157580791815
12.86,-0.00573888628549015
12.864,-0.005746795624112561
12.868,-0.0057484303810314795
12.872,-0.00574761300257202
12.876,-0.0057508103947810805
12.88,-0.005754753043820823
12.884,-0.005761099747153093
12.888,-0.005757109017027499
12.892,-0.005751243124553735
12.896,-0.005762974909501263
12.9,-0.005770163031835917
12.904,-0.00576497027456406
12.908,-0.005754632841106197
12.912,-0.005756075273681713
12.916,-0.005754200111333542
12.92,-0.005760378530865335
12.924,-0.0057556425439090585
12.928,-0.005739198812548178
12.932,-0.0057382852719170185
12.936,-0.005746146529453579
12.94,-0.005749584327091892
12.944,-0.0057550896114217775
12.948,-0.005748214016145152
12.952,-0.005753454854502859
12.956,-0.005761748841812075
12.96,-0.005759537111862951
12.964,-0.005755858908795385
12.968,-0.005755690624994909
12.972,-0.005761869044526701
12.976,-0.00577492305933512
12.98,-0.005785188371164208
12.984,-0.005783794019674542
12.988,-0.005763191274387591
12.992,-0.005735640812195238
12.996,-0.005733212717359787
13.0,-0.0057417711506411815
13.004,-0.005741915393898732
13.008000000000001,-0.0057336694876753665
13.012,-0.005741891353355808
13.016,-0.005747540880943244
13.02,-0.0057551617330505525
13.024000000000001,-0.00575172393541224
13.028,-0.0057569166926840975
13.032,-0.005767855139715092
13.036,-0.005754248192419393
13.040000000000001,-0.005744319448191259
13.044,-0.005742852975072818
13.048,-0.005752445151699998
13.052,-0.0057549213276213
13.056000000000001,-0.005746963907913038
13.06,-0.005735280204051359
13.064,-0.0057291498656054166
13.068,-0.0057297749197214734
13.072000000000001,-0.0057321549334710745
13.076,-0.005737083244770755
13.08,-0.005755305976308104
13.084,-0.005776028924309682
13.088000000000001,-0.00575400778699014
13.092,-0.0057444636914488105
13.096,-0.005751483529982988
13.1,-0.005737443852914634
13.104000000000001,-0.005744055002219081
13.108,-0.005761772882355
13.112,-0.0057522287868136705
13.116,-0.0057372515285712316
13.120000000000001,-0.005728308446603033
13.124,-0.005738573758432121
13.128,-0.005751651813783464
13.132,-0.005760017922721456
13.136000000000001,-0.005759152463176147
13.14,-0.005757036895398723
13.144,-0.005763960571761199
13.148,-0.005754248192419393
13.152000000000001,-0.0057378044610585125
13.156,-0.005730039365693652
13.16,-0.005730544217095082
13.164,-0.005730087446779502
13.168000000000001,-0.0057318424064130465
13.172,-0.005738189109745317
13.176,-0.005745401272622896
13.18,-0.005742660650729416
13.184000000000001,-0.005734558987763601
13.188,-0.005737083244770755
13.192,-0.005740641245123694
13.196,-0.005746891786284262
13.200000000000001,-0.00575989772000683
13.204,-0.005757253260285051
13.208,-0.0057487429080895075
13.212,-0.0057350157580791815
13.216000000000001,-0.00572263487847267
13.22,-0.005718403742917824
13.224,-0.005722658919015596
13.228,-0.005729125825062492
13.232000000000001,-0.005737612136715111
13.236,-0.005738333353002868
13.24,-0.0057283565276888835
13.244,-0.005727394905971872
13.248000000000001,-0.0057393911368915805
13.252,-0.0057487429080895075
13.256,-0.005735520609480612
13.26,-0.005729967244064876
13.264000000000001,-0.00572664964914119
13.268,-0.005731962609127673
13.272,-0.005736602433912249
13.276,-0.005723428216389204
13.280000000000001,-0.005716167972425775
13.284,-0.005730952906324811
13.288,-0.005750690192066454
13.292,-0.005750906556952782
13.296000000000001,-0.00575487324653545
13.3,-0.00576081126063799
13.304,-0.005744223286019558
13.308,-0.005740088312636413
13.312000000000001,-0.005735184041879658
13.316,-0.005727683392486976
13.32,-0.005715494837223867
13.324,-0.005702224457529122
13.328,-0.00569746443002992
13.332,-0.005698762619347884
13.336,-0.005704965079422602
13.34,-0.005711143498954394
13.344,-0.005721408810783482
13.348,-0.005726361162626086
13.352,-0.0057289094601761644
13.356,-0.005741867312812883
13.36,-0.005761845003983776
13.364,-0.0057465311781403836
13.368,-0.0057186922294329276
13.372,-0.005700253133009251
13.376,-0.005711456026012423
13.38,-0.005724293675934514
13.384,-0.00572624095991146
13.388,-0.005734366663420199
13.392,-0.005730448054923381
13.396,-0.00570157536287014
13.4,-0.005698594335547407
13.404,-0.0056995799978073435
13.408,-0.005705782457882061
13.412,-0.005711263701669021
13.416,-0.0057155909993955685
13.42,-0.005711287742211946
13.424,-0.005713980283019576
13.428,-0.0057139081613908
13.432,-0.005715014026365362
13.436,-0.005727923797916229
13.44,-0.005730279771122905
13.444,-0.005712177242300181
13.448,-0.005714557256049782
13.452,-0.005706503674169819
13.456,-0.0056953007811666465
13.46,-0.005697752916545023
13.464,-0.005701527281784289
13.468,-0.005708955809548196
13.472,-0.00571253785044406
13.476,-0.0057129705802167145
13.48,-0.005736169704139595
13.484,-0.00572167325675566
13.488,-0.005704556390192872
13.492,-0.0057142447289917535
13.496,-0.005712297445014808
13.5,-0.0056960219974544046
13.504,-0.005694651686507664
13.508000000000001,-0.005685251834223887
13.512,-0.005683977685448848
13.516,-0.005685564361281915
13.52,-0.00568279969884551
13.524000000000001,-0.00568513163150926
13.528,-0.005688304983175394
13.532,-0.005690444591495743
13.536,-0.005693137132303372
13.540000000000001,-0.005696070078540255
13.544,-0.005698954943691287
13.548,-0.005705830538967911
13.552,-0.005715663121024344
13.556000000000001,-0.005705878620053762
13.56,-0.005699916565408297
13.564,-0.005708523079775541
13.568,-0.005724702365164243
13.572000000000001,-0.005732707865958356
13.576,-0.005732539582157879
13.58,-0.00569609411908318
13.584,-0.0056864298208272246
13.588000000000001,-0.005702536984587151
13.592,-0.005695901794739778
13.596,-0.005681910198757275
13.6,-0.0056812611040982924
13.604000000000001,-0.005684891226080007
13.608,-0.005683929604362997
13.612,-0.005677486738859026
13.616,-0.005676741482028343
13.620000000000001,-0.00567919361740672
13.624,-0.005681717874413872
13.628,-0.005680852414868563
13.632,-0.0056777031037453535
13.636000000000001,-0.005682679496130883
13.64,-0.0056876799290593374
13.644,-0.005693016929588747
13.648,-0.0057046525523645735
13.652000000000001,-0.0057218655810990626
13.656,-0.005706792160684922
13.66,-0.00569203126732881
13.664,-0.005689603172493359
13.668000000000001,-0.005697151902971892
13.672,-0.005710494404295413
13.676,-0.0056915744970132305
13.68,-0.005685396077481438
13.684000000000001,-0.005698281808489379
13.688,-0.005703883254990966
13.692,-0.005682366969072854
13.696,-0.005674505711536293
13.700000000000001,-0.005676549157684941
13.704,-0.005678833009262841
13.708,-0.005674385508821668
13.712,-0.005669409116436138
13.716000000000001,-0.0056772222928868485
13.72,-0.0056847469828224554
13.724,-0.005679866752608627
13.728,-0.005680684131068086
13.732000000000001,-0.005682679496130883
13.736,-0.0056865740640847755
13.74,-0.005681693833870947
13.744,-0.005674698035879696
13.748000000000001,-0.0056771501712580726
13.752,-0.005694483402707187
13.756,-0.005704412146935321
13.76,-0.005698305849032304
13.764000000000001,-0.005702969714359805
13.768,-0.0057033062819607586
13.772,-0.00568645386137015
13.776,-0.00567513076565235
13.780000000000001,-0.005667966683860622
13.784,-0.005681237063555367
13.788,-0.005686718307342327
13.792,-0.005677919468631681
13.796000000000001,-0.005663951913192103
13.8,-0.005657196520630104
13.804,-0.005659191885692901
13.808,-0.005662653723874139
13.812000000000001,-0.005664480805136459
13.816,-0.005669673562408315
13.82,-0.005669024467749334
13.824,-0.005668784062320081
13.828,-0.005676068346826436
13.832,-0.00569152641592738
13.836,-0.005713571593789846
13.84,-0.005711888755785078
13.844,-0.005694170875649159
13.848,-0.005676525117142016
13.852,-0.005693738145876504
13.856,-0.005690348429324042
13.86,-0.005672293981587169
13.864,-0.0056587591559202465
13.868,-0.005663038372560943
13.872,-0.0056679426433176965
13.876,-0.005671909332900365
13.88,-0.0056801552391237305
13.884,-0.005688449226432946
13.888,-0.005677294414515624
13.892,-0.005673904697963162
13.896,-0.005673063278960778
13.9,-0.005682246766358229
13.904,-0.005686285577569673
13.908,-0.005688449226432946
13.912,-0.005702152335900346
13.916,-0.005689819537379686
13.92,-0.005678544522747738
13.924,-0.00567828007677556
13.928,-0.005665803034997348
13.932,-0.005661740183242979
13.936,-0.005666259805312928
13.94,-0.005679241698492571
13.944,-0.005675659657596706
13.948,-0.005672005495072067
13.952,-0.0056681830487469494
13.956,-0.005663374940161897
13.96,-0.005668952346120558
13.964,-0.005667918602774771
13.968,-0.005671452562584785
13.972,-0.005678472401118962
13.976,-0.005675659657596706
13.98,-0.005681645752785097
13.984,-0.005683929604362997
13.988,-0.005670418819238999
13.992,-0.005686117293769196
13.996,-0.005668471535262052
14.0,-0.005653061547246959
14.004,-0.0056613795750991
14.008000000000001,-0.005666331926941704
14.012,-0.0056520999255299485
14.016,-0.005647916871060953
14.02,-0.005649984357752525
14.024000000000001,-0.0056519316417294714
14.028,-0.005651258506527564
14.032,-0.005652123966072874
14.036,-0.0056583504666905165
14.040000000000001,-0.0056710438733550556
14.044,-0.005680010995866179
14.048,-0.0056769818874575955
14.052,-0.005676765522571269
14.056000000000001,-0.005678688766005289
14.06,-0.005684314253049801
14.064,-0.00568969933466506
14.068,-0.00566325473744727
14.072000000000001,-0.005660994926412296
14.076,-0.005660538156096716
14.08,-0.005653277912133286
14.084,-0.005651234465984639
14.088000000000001,-0.005638805505292278
14.092,-0.005645296451882099
14.096,-0.005648974654949664
14.1,-0.00564219522184474
14.104000000000001,-0.005640007532438541
14.108,-0.005641882694786712
14.112,-0.00564493584373822
14.116,-0.005648085154861429
14.120000000000001,-0.005650970020012461
14.124,-0.005654191452764446
14.128,-0.005673327724932955
14.132,-0.00569056479421037
14.136000000000001,-0.0056627979671316905
14.14,-0.005657677331488609
14.144,-0.005663278777990196
14.148,-0.005671572765299411
14.152000000000001,-0.005660850683154744
14.156,-0.005651498911956817
14.16,-0.0056487582900633364
14.164,-0.005657509047688133
14.168000000000001,-0.005653590439191314
14.172,-0.005633107896618989
14.176,-0.005630174950382107
14.18,-0.005633468504762868
14.184000000000001,-0.005638324694433773
14.188,-0.005630343234182584
14.192,-0.005628468071834414
14.196,-0.005631256774813744
14.200000000000001,-0.005632603045217559
14.204,-0.005630535558525986
14.208,-0.005637459234888463
14.212,-0.0056502728442676285
14.216000000000001,-0.005662269075187335
14.22,-0.005653422155390837
14.224,-0.005671765089642814
14.228,-0.005674313387192892
14.232000000000001,-0.005645320492425024
14.236,-0.005635055180595936
14.24,-0.00562954989626605
14.244,-0.005637723680860641
14.248000000000001,-0.005645248370796248
14.252,-0.0056386131809488755
14.256,-0.005628155544776385
14.26,-0.005626015936456037
14.264000000000001,-0.005627939179890058
14.268,-0.005624837949852699
14.272,-0.005630559599068911
14.276,-0.005639767127009288
14.280000000000001,-0.0056579658180037126
14.284,-0.005657292682801805
14.288,-0.005641305721756505
14.292,-0.005647940911603878
14.296000000000001,-0.005679530185007674
14.3,-0.0056568118719433
14.304,-0.005645344532967949
14.308,-0.005640921073069701
14.312000000000001,-0.005635560031997366
14.316,-0.005641690370443309
14.32,-0.005647460100745372
14.324,-0.005637964086289893
14.328000000000001,-0.005630223031467958
14.332,-0.005624669666052222
14.336,-0.005622722382075275
14.34,-0.005624501382251745
14.344,-0.0056272179636023
14.348,-0.005631641423500549
14.352,-0.0056360648833987965
14.356,-0.005640800870355074
14.36,-0.00564452715450849
14.364,-0.005644406951793864
14.368,-0.005647027370972718
14.372,-0.00566361534559115
14.376,-0.0056836411178478935
14.38,-0.0056799148336944775
14.384,-0.005669721643494166
14.388,-0.005660273710124538
14.392,-0.005653422155390837
14.396,-0.0056274343284886275
14.4,-0.005606038245285143
14.404,-0.005609476042923455
14.408,-0.005624861990395624
14.412,-0.005631809707301025
14.416,-0.005626112098627738
14.42,-0.0056305115179830605
14.424,-0.005635463869825665
14.428,-0.005637531356517239
14.432,-0.005640584505468747
14.436,-0.005641978856958413
14.44,-0.005643132803018825
14.444,-0.005642411586731067
14.448,-0.005643253005733451
14.452,-0.00566457696730816
14.456,-0.005696863416456788
14.46,-0.005683040104274762
14.464,-0.0056444790734226395
14.468,-0.005622001165787518
14.472,-0.005637843883575267
14.476,-0.005635920640141245
14.48,-0.005631545261328847
14.484,-0.005631208693727893
14.488,-0.005634502248108655
14.492,-0.005630439396354285
14.496,-0.0056165680030864085
14.5,-0.0056231551118479306
14.504,-0.005615245773225519
14.508000000000001,-0.0056135629352207506
14.512,-0.005610053015953661
14.516,-0.005610990597127747
14.52,-0.005617337300460016
14.524000000000001,-0.005621664598186564
14.528,-0.005624477341708819
14.532,-0.005631761626215174
14.536,-0.005640969154155551
14.540000000000001,-0.005640175816239018
14.544,-0.005640512383839971
14.548,-0.005654672263622951
14.552,-0.005650056479381301
14.556000000000001,-0.005629477774637274
14.56,-0.005654840547423428
14.564,-0.005660249669581612
14.568,-0.0056391661134361564
14.572000000000001,-0.005619861557467169
14.576,-0.005608466340120594
14.58,-0.005614644759652387
14.584,-0.0056198134763813185
14.588000000000001,-0.005628227666405161
14.592,-0.0056256793688550825
14.596,-0.005610894434956046
14.6,-0.005607961488719164
14.604000000000001,-0.005615125570510892
14.608,-0.005629189288122172
14.612,-0.005642050978587188
14.616,-0.005652460533673827
14.620000000000001,-0.005648229398118981
14.624,-0.005617144976116615
14.628,-0.005595845055084831
14.632,-0.005591109068128554
14.636000000000001,-0.005597335568746198
14.64,-0.005618779733035532
14.644,-0.005622770463161126
14.648,-0.005617649827518045
14.652000000000001,-0.005607240272431406
14.656,-0.005602937015247784
14.66,-0.00560260044764683
14.664,-0.0056093558402088295
14.668000000000001,-0.00561676032742981
14.672,-0.005614789002909939
14.676,-0.005621448233300236
14.68,-0.005631593342414698
14.684000000000001,-0.005626881396001346
14.688,-0.005632530923588783
14.692,-0.005632002031644427
14.696,-0.005593441000792305
14.700000000000001,-0.0055882722840633735
14.704,-0.005617024773401988
14.708,-0.00563808428900452
14.712,-0.0056218809630728915
14.716000000000001,-0.005590916743785152
14.72,-0.005578247377663537
14.724,-0.00557214107976052
14.728,-0.005571804512159567
14.732000000000001,-0.005576804945088022
14.736,-0.005582430432132533
14.74,-0.005584906608053835
14.744,-0.005585483581084042
14.748000000000001,-0.005592839987219173
14.752,-0.005603754393707243
14.756,-0.005606903704830453
14.76,-0.005613082124362245
14.764000000000001,-0.005625799571569709
14.768,-0.005631088491013267
14.772,-0.005637964086289893
14.776,-0.005615317894854295
14.780000000000001,-0.0056020955962454
14.784,-0.0055943785819663906
14.788,-0.005610509786269242
14.792,-0.005612769597304217
14.796000000000001,-0.0056050766235681325
14.8,-0.005588921378722356
14.804,-0.005581877499645252
14.808,-0.005582911242991038
14.812000000000001,-0.005585195094568939
14.816,-0.005593176554820127
14.82,-0.005597551933632525
14.824,-0.005599379014894845
14.828000000000001,-0.005603321663934588
14.832,-0.0056030091368765595
14.836,-0.005608826948264473
14.84,-0.005630223031467958
14.844000000000001,-0.005609283718580054
14.848,-0.005588680973293103
14.852,-0.0056000761906396775
14.856,-0.005593248676448902
14.86,-0.005579112837208847
14.864,-0.00558026678326926
14.868,-0.005593128473734277
14.872,-0.005587118338002959
14.876,-0.005586421162258127
14.88,-0.005591012905956853
14.884,-0.005596686474087216
14.888,-0.005592791906133323
14.892,-0.005591517757358284
14.896,-0.005593441000792305
14.9,-0.005594450703595166
14.904,-0.005597047082231094
14.908,-0.005610053015953661
14.912,-0.00564493584373822
14.916,-0.005659408250579229
14.92,-0.005626400585142841
14.924,-0.005570289957955275
14.928,-0.005553750064422694
14.932,-0.005580338904898036
14.936,-0.005591301392471957
14.94,-0.005580939918471167
14.944,-0.005580507188698512
14.948,-0.005596133541599935
14.952,-0.005618178719462401
14.956,-0.005613995664993405
14.96,-0.005590219568040319
14.964,-0.005570770768813781
14.968,-0.00556848691723588
14.972,-0.005570866930985481
14.976,-0.005575098066540328
14.98,-0.005578463742549865
14.984,-0.005582190026703281
14.988,-0.005589113703065757
14.992,-0.005593320798077678
14.996,-0.005593561203506931
15.0,-0.00561301000273347
15.004,-0.00561264939458959
15.008000000000001,-0.005606615218315349
15.012,-0.005607432596774808
15.016,-0.005575386553055431
15.02,-0.005555505024056238
15.024000000000001,-0.005578824350693744
15.028,-0.005604547731623777
15.032,-0.005593032311562576
15.036,-0.005581973661816953
15.040000000000001,-0.005568559038864656
15.044,-0.005561611321959255
15.048,-0.005570915012071332
15.052,-0.005573391187992634
15.056000000000001,-0.005573246944735082
15.06,-0.005574665336767673
15.064,-0.0055759635260856375
15.068,-0.00557848778309279
15.072000000000001,-0.005586228837914725
15.076,-0.005612913840561768
15.08,-0.005629357571922648
15.084,-0.005592166852017266
15.088000000000001,-0.005573727755593588
15.092,-0.005572766133876577
15.096,-0.005554952091568957
15.1,-0.005560144848840814
15.104000000000001,-0.0055770693910601995
15.108,-0.00559529212259755
15.112,-0.005574545134053047
15.116,-0.005575939485542712
15.120000000000001,-0.005592479379075295
15.124,-0.005588128040805821
15.128,-0.005581036080642868
15.132,-0.005565674173713625
15.136000000000001,-0.00556158728141633
15.14,-0.00556341436267865
15.144,-0.005567381052261318
15.148,-0.005573535431250186
15.152000000000001,-0.005581637094216
15.156,-0.005584089229594376
15.16,-0.005586445202801053
15.164,-0.0055791368777517725
15.168000000000001,-0.005575626958484684
15.172,-0.005582190026703281
15.176,-0.005587070256917109
15.18,-0.0055716843094449405
15.184000000000001,-0.005554519361796303
15.188,-0.005569448538952891
15.192,-0.005586156716285949
15.196,-0.005587911675919493
15.200000000000001,-0.005582526594304234
15.204,-0.005593128473734277
15.208,-0.005585074891854312
15.212,-0.0055681984307207775
15.216000000000001,-0.0055713717823869125
15.22,-0.0055735835123360365
15.224,-0.005563294159964024
15.228,-0.00556519336285512
15.232000000000001,-0.005568366714521255
15.236,-0.0055644721465673615
15.24,-0.005562452740961639
15.244,-0.005566972363031589
15.248000000000001,-0.0055743047286237945
15.252,-0.0055785839452644915
15.256,-0.005573367147449709
15.26,-0.005573295025820933
15.264000000000001,-0.005580627391413138
15.268,-0.005595821014541906
15.272,-0.00559300827101965
15.276,-0.005584065189051451
15.280000000000001,-0.00557437685025257
15.284,-0.005591157149214405
15.288,-0.005606422893971947
15.292,-0.005586613486601529
15.296000000000001,-0.005589618554467188
15.3,-0.005588729054378953
15.304,-0.005566780038688187
15.308,-0.005571011174243033
15.312000000000001,-0.005585507621626967
15.316,-0.005589281986866234
15.32,-0.005583944986336825
15.324,-0.005577021309974349
15.328000000000001,-0.005564616389824913
15.332,-0.0055610824300149
15.336,-0.005564135578966408
15.34,-0.005569905309268471
15.344000000000001,-0.0055754105935983565
15.348,-0.00558168517530185
15.352,-0.00558935410849501
15.356,-0.005597527893089599
15.36,-0.005587118338002959
15.364,-0.005563726889736678
15.368,-0.005553389456278816
15.372,-0.005559014943323327
15.376,-0.005581300526615046
15.38,-0.0056176017464321945
15.384,-0.005600460839326481
15.388,-0.0055639192140800806
15.392,-0.005553894307680246
15.396,-0.005555865632200117
15.4,-0.005559880402868637
15.404,-0.005563246078878173
15.408,-0.005567765700948123
15.412,-0.005570169755240649
15.416,-0.005569039849723161
15.42,-0.005568414795607105
15.424,-0.005582863161905188
15.428,-0.005590411892383722
15.432,-0.005570193795783575
15.436,-0.005568150349634927
15.44,-0.005579545566981502
15.444,-0.0055838969052509745
15.448,-0.005580627391413138
15.452,-0.00557026591741235
15.456,-0.005565001038511717
15.46,-0.005558101402692167
15.464,-0.005563558605936202
15.468,-0.005563582646479127
15.472,-0.00556478467362539
15.476,-0.00556889560646561
15.48,-0.005578415661464014
15.484,-0.0055740643231945415
15.488,-0.005563702849193753
15.492,-0.005555793510571342
15.496,-0.005556899375545904
15.5,-0.005560577578613469
15.504,-0.005559351510924281
15.508000000000001,-0.0055618517273885075
15.512,-0.005571347741843987
15.516,-0.005575987566628563
15.52,-0.0055788964723225195
15.524000000000001,-0.005586469243343977
15.528,-0.005592888068305024
15.532,-0.005579377283181025
15.536,-0.00557529039088373
15.540000000000001,-0.005569737025467994
15.544,-0.005561346875987077
15.548,-0.005557788875634138
15.552,-0.005558582213550672
15.556000000000001,-0.0055636066870220525
15.56,-0.005568799444293909
15.564,-0.005574280688080869
15.568,-0.005569208133523638
15.572000000000001,-0.0055648567952541654
15.576,-0.005573295025820933
15.58,-0.005578559904721566
15.584,-0.00557346330962141
15.588000000000001,-0.005576708782916321
15.592,-0.0055794494048098005
15.596,-0.00556254890313334
15.6,-0.005555913713285968
15.604000000000001,-0.005571804512159567
15.608,-0.0055703380390411256
15.612,-0.00556483275471124
15.616,-0.005565361646655597
15.620000000000001,-0.005567885903662749
15.624,-0.005566299227829682
15.628,-0.005572621890619026
15.632,-0.005596758595715992
15.636000000000001,-0.005586974094745408
15.64,-0.00556341436267865
15.644,-0.005551009442529214
15.648,-0.005546465779916339
15.652000000000001,-0.005546441739373414
15.656,-0.005557308064775633
15.66,-0.00556615498457213
15.664,-0.005575771201742235
15.668000000000001,-0.005571227539129361
15.672,-0.005564400024938586
15.676,-0.005565962660228728
15.68,-0.005573847958308214
15.684000000000001,-0.00557940132372395
15.688,-0.005566419430544308
15.692,-0.005568126309092002
15.696,-0.005576853026173872
15.700000000000001,-0.005590363811297871
15.704,-0.0055805552697843624
15.708,-0.005584834486425059
15.712,-0.005577526161375779
15.716000000000001,-0.005552043185875001
15.72,-0.005549951658640502
15.724,-0.0055530528886778615
15.728,-0.005555336740255761
15.732000000000001,-0.005557860997262914
15.736,-0.005561875767931433
15.74,-0.005565049119597568
15.744,-0.005567044484660365
15.748000000000001,-0.0055744489718813454
15.752,-0.005591710081701686
15.756,-0.005588608851664327
15.76,-0.00557209299867467
15.764000000000001,-0.005568414795607105
15.768,-0.005568727322665133
15.772,-0.005588680973293103
15.776,-0.00558255063484716
15.780000000000001,-0.005559543835267682
15.784,-0.005554375118538751
15.788,-0.005569496620038742
15.792,-0.005584786405339209
15.796000000000001,-0.005577766566805032
15.8,-0.005563702849193753
15.804,-0.005556370483601548
15.808,-0.0055573321053185585
15.812000000000001,-0.005555865632200117
15.816,-0.005559639997439384
15.82,-0.005563726889736678
15.824,-0.005567597417147646
15.828000000000001,-0.005569208133523638
15.832,-0.0055747855394823
15.836,-0.005582526594304234
15.84,-0.005582214067246206
15.844000000000001,-0.005574953823282777
15.848,-0.00557117945804351
15.852,-0.005568919647008536
15.856,-0.005550769037099962
15.860000000000001,-0.005542595252505372
15.864,-0.005548124577378182
15.868,-0.005558293727035569
15.872,-0.005566034781857503
15.876,-0.005565073160140493
15.88,-0.005562476781504564
15.884,-0.005561923849017283
15.888,-0.00556387113299423
15.892,-0.005566010741314579
15.896,-0.0055672368090037665
15.9,-0.005569424498409966
15.904,-0.005574689377310598
15.908,-0.005579353242638099
15.912,-0.005595436365855102
15.916,-0.005616519922000558
15.92,-0.005581589013130149
15.924,-0.005554615523968003
15.928,-0.005557308064775633
15.932,-0.0055670925657462155
15.936,-0.005551201766872616
15.94,-0.005539590184639714
15.944,-0.005536152387001401
15.948,-0.005550696915471186
15.952,-0.005570530363384528
15.956,-0.005564183660052259
15.96,-0.0055487736720371645
15.964,-0.005550769037099962
15.968,-0.005559327470381356
15.972,-0.005564640430367839
15.976,-0.005568318633435404
15.98,-0.005577189593774826
15.984,-0.005582694878104711
15.988,-0.005586565405515678
15.992,-0.005600412758240631
15.996,-0.0055879357164624185
16.0,-0.005556995537717605
16.004,-0.005546273455572937
16.008,-0.00554423000942429
16.012,-0.005552548037276431
16.016000000000002,-0.005557740794548288
