0.0,0.010479993877410158
0.004,0.010469560281780595
0.008,0.010452010685445151
0.012,0.010454462820823528
0.016,0.0104587179969213
0.02,0.01046181922695866
0.024,0.010462155794559613
0.028,0.010463117416276623
0.032,0.01046871886277821
0.036000000000000004,0.010461098010670902
0.04,0.01045638606425755
0.044,0.010441144360042932
0.048,0.010451049063728141
0.052000000000000005,0.01046323761899125
0.056,0.01046684370043004
0.06,0.010484369256222556
0.064,0.01049201414887279
0.068,0.010483503796677247
0.07200000000000001,0.010496822257457843
0.076,0.010493961432849737
0.08,0.010489946662181218
0.084,0.010487614729517467
0.088,0.010485042391424464
0.092,0.01048182095867248
0.096,0.010475882944569938
0.1,0.0104768926473728
0.10400000000000001,0.01047557041751191
0.108,0.010478888012435596
0.112,0.010481219945099348
0.116,0.01047912841786485
0.12,0.010466170565228132
0.124,0.010456217780457073
0.128,0.01045903052397933
0.132,0.010477421539317156
0.136,0.010486460783457054
0.14,0.010484441377851332
0.14400000000000002,0.010475137687739255
0.148,0.010475786782398237
0.152,0.01049424991936484
0.156,0.010501293798441941
0.16,0.010490307270325096
0.164,0.010477012850087427
0.168,0.010479056296236073
0.17200000000000001,0.010482566215503161
0.176,0.010488504229605702
0.18,0.01048525875631079
0.184,0.01048054680989744
0.188,0.010476772444658174
0.192,0.010455905253399045
0.196,0.010449101779751195
0.2,0.010479537107094579
0.20400000000000001,0.010505789379968966
0.20800000000000002,0.010490018783809993
0.212,0.010488191702547674
0.216,0.0104997311631518
0.22,0.01049521154108185
0.224,0.010487879175489646
0.228,0.01048795129711842
0.232,0.010483648039934798
0.23600000000000002,0.010488384026891076
0.24,0.010492206473216192
0.244,0.01048936968915101
0.248,0.010483984607535753
0.252,0.010483575918306023
0.256,0.010482734499303639
0.26,0.010475882944569938
0.264,0.010475041525567554
0.268,0.010472252822588225
0.272,0.010471507565757541
0.276,0.010467444714003172
0.28,0.010468310173548481
0.28400000000000003,0.01046465601102384
0.28800000000000003,0.010472853836161356
0.292,0.010462660645961044
0.296,0.010462227916188388
0.3,0.010463670348763904
0.304,0.010475257890453882
0.308,0.010501293798441941
0.312,0.010508626164034147
0.316,0.010488624432320327
0.32,0.010491893946158164
0.324,0.010507664542317137
0.328,0.010499562879351323
0.332,0.010494682649137494
0.336,0.010486725229429233
0.34,0.010484513499480107
0.34400000000000003,0.010481027620755945
0.34800000000000003,0.010484922188709838
0.352,0.010480041958496009
0.356,0.0104791764989507
0.36,0.010478743769178045
0.364,0.010472685552360878
0.368,0.010450808658298888
0.372,0.010467685119432423
0.376,0.010481316107271049
0.38,0.010473935660592992
0.384,0.010475041525567554
0.388,0.010481676715414927
0.392,0.010500332176724931
0.396,0.010496269324970562
0.4,0.010485042391424464
0.404,0.010487470486259915
0.40800000000000003,0.010494634568051643
0.41200000000000003,0.010489730297294891
0.41600000000000004,0.010486388661828279
0.42,0.010488744635034955
0.424,0.01048648482399998
0.428,0.010480258323382336
0.432,0.01047420010656517
0.436,0.010467156227488068
0.44,0.010479897715238457
0.444,0.010493672946334633
0.448,0.010485859769883922
0.452,0.010477541742031781
0.456,0.010465449348940375
0.46,0.010457828496833067
0.464,0.010472757673989655
0.468,0.010494730730223344
0.47200000000000003,0.010504587352822703
0.47600000000000003,0.010496846298000769
0.48,0.010469416038523043
0.484,0.010460689321441173
0.488,0.010481316107271049
0.492,0.010476291633799668
0.496,0.010472974038875982
0.5,0.01047333464701986
0.504,0.010477205174430827
0.508,0.010484056729164528
0.512,0.010483263391247994
0.516,0.010480041958496009
0.52,0.010482902783104115
0.524,0.010482133485730507
0.528,0.010480282363925262
0.532,0.01047333464701986
0.536,0.010468045727576303
0.54,0.01046698794368759
0.544,0.010454775347881558
0.548,0.010462468321617641
0.552,0.010482542174960236
0.556,0.010487831094403795
0.56,0.010488456148519851
0.5640000000000001,0.01048698967540141
0.5680000000000001,0.010480162161210635
0.5720000000000001,0.010472853836161356
0.5760000000000001,0.010459343051037358
0.58,0.01047145948467169
0.584,0.010499851365866427
0.588,0.010533147517817915
0.592,0.010555986033596915
0.596,0.01057240572441487
0.6,0.010562428899100886
0.604,0.010556082195768616
0.608,0.010551250046640639
0.612,0.010528099003803611
0.616,0.01051170335352858
0.62,0.010489706256751965
0.624,0.010492999811132726
0.628,0.010489754337837815
0.632,0.010472348984759924
0.636,0.010467084105859292
0.64,0.010496389527685187
0.644,0.010499202271207445
0.648,0.010480835296412543
0.652,0.010474176066022245
0.656,0.010476507998685996
0.66,0.0104768926473728
0.664,0.010471988376616045
0.668,0.010472036457701896
0.672,0.010475642539140686
0.676,0.01047064210621223
0.68,0.010454366658651827
0.684,0.01044953450952385
0.6880000000000001,0.010456265861542923
0.6920000000000001,0.010470521903497605
0.6960000000000001,0.010467540876174871
0.7000000000000001,0.010477205174430827
0.704,0.010487278161916514
0.708,0.010481340147813973
0.712,0.010478647607006343
0.716,0.010470569984583455
0.72,0.010463958835279008
0.724,0.010467204308573919
0.728,0.010470666146755157
0.732,0.01046136245664308
0.736,0.010475161728282181
0.74,0.010492398797559595
0.744,0.010490667878468975
0.748,0.010478503363748792
0.752,0.010468550578977734
0.756,0.01046679561934419
0.76,0.010468863106035762
0.764,0.010466771578801264
0.768,0.010452419374674882
0.772,0.010426984480259954
0.776,0.01043126369690065
0.78,0.010446409238943567
0.784,0.010456987077830682
0.788,0.01044862096889269
0.792,0.010449366225723374
0.796,0.010472445146931625
0.8,0.010475690620226536
0.804,0.01046968048449522
0.808,0.010468911187121612
0.812,0.0104517702800159
0.8160000000000001,0.010427729737090637
0.8200000000000001,0.010448500766178063
0.8240000000000001,0.010468694822235286
0.8280000000000001,0.010467156227488068
0.8320000000000001,0.010452154928702703
0.836,0.010461218213385528
0.84,0.010477589823117632
0.844,0.010474993444481703
0.848,0.010473070201047683
0.852,0.010473118282133534
0.856,0.010466603295000787
0.86,0.010452251090874404
0.864,0.010449342185180448
0.868,0.010456025456113672
0.872,0.010462107713473763
0.876,0.010463021254104922
0.88,0.010456506266972176
0.884,0.010456145658828297
0.888,0.010463814592021456
0.892,0.010458621834749599
0.896,0.010462973173019072
0.9,0.010470569984583455
0.904,0.010468358254634332
0.908,0.010460665280898247
0.912,0.01046648309228616
0.916,0.010470473822411754
0.92,0.010466867740972965
0.924,0.01046648309228616
0.928,0.010466362889571534
0.932,0.01046922371417964
0.936,0.010470473822411754
0.9400000000000001,0.01047237302530285
0.9440000000000001,0.010476291633799668
0.9480000000000001,0.010472036457701896
0.9520000000000001,0.010463790551478532
0.9560000000000001,0.010452323212503181
0.96,0.010448092076948334
0.964,0.010467661078889499
0.968,0.01047328656593401
0.972,0.010475137687739255
0.976,0.01047323848484816
0.98,0.010468238051919704
0.984,0.010455761010141493
0.988,0.010453573320735295
0.992,0.010457419807603336
0.996,0.010432369561875212
1.0,0.010439221116608912
1.004,0.010456458185886326
1.008,0.01046278084867567
1.012,0.010462804889218595
1.016,0.010454366658651827
1.02,0.010457467888689186
1.024,0.010475354052625582
1.028,0.01048881675666373
1.032,0.010485114513053239
1.036,0.010469993011553248
1.04,0.010459775780810011
1.044,0.010465040659710646
1.048,0.01047095463327026
1.052,0.010469824727752772
1.056,0.010468887146578686
1.06,0.010463838632564382
1.064,0.010454534942452305
1.068,0.010452251090874404
1.072,0.010456362023714624
1.076,0.010464800254281393
1.08,0.010471291200871213
1.084,0.01045410221267965
1.088,0.010441144360042932
1.092,0.010449053698665344
1.096,0.010450159563639906
1.1,0.010456578388600953
1.104,0.010467685119432423
1.108,0.010487758972775018
1.112,0.010483551877763097
1.116,0.010467492795089023
1.12,0.010456674550772654
1.124,0.010465954200341805
1.1280000000000001,0.010459871942981713
1.1320000000000001,0.01047333464701986
1.1360000000000001,0.010476387795971369
1.1400000000000001,0.010476507998685996
1.1440000000000001,0.010462227916188388
1.1480000000000001,0.010458501632034973
1.1520000000000001,0.010478599525920493
1.156,0.0104791764989507
1.16,0.010469968971010324
1.164,0.010468959268207463
1.168,0.010467877443775826
1.172,0.010462396199988866
1.176,0.010456506266972176
1.18,0.010459415172666133
1.184,0.010461194172842603
1.188,0.010448404604006362
1.192,0.010464271362337036
1.196,0.01048064297206914
1.2,0.010471267160328288
1.204,0.010465160862425271
1.208,0.010464752173195542
1.212,0.010479753471980905
1.216,0.010476051228370415
1.22,0.010455857172313194
1.224,0.010454006050507949
1.228,0.010460761443069948
1.232,0.010470978673813185
1.236,0.010471723930643868
1.24,0.01046242024053179
1.244,0.010449438347352149
1.248,0.010436672819058834
1.252,0.01044588034699921
1.256,0.010461025889042125
1.26,0.010467108146402218
1.264,0.010456650510229728
1.268,0.010451505834043721
1.272,0.010449101779751195
1.276,0.010464079037993634
1.28,0.010470762308926858
1.284,0.010461098010670902
1.288,0.010459102645608105
1.292,0.010457419807603336
1.296,0.010452948266619237
1.3,0.010456121618285371
1.304,0.01045994406461049
1.308,0.010454006050507949
1.312,0.010450712496127187
1.316,0.01045948729429491
1.32,0.010461194172842603
1.324,0.010443163765648656
1.328,0.010442490630446747
1.332,0.010465257024596972
1.336,0.010479368823294102
1.34,0.01047282979561843
1.344,0.010460304672754368
1.348,0.010458477591492049
1.352,0.010455304239825913
1.356,0.010446601563286967
1.36,0.010473935660592992
1.364,0.010488023418747196
1.368,0.010486821391600933
1.372,0.010479344782751176
1.3760000000000001,0.010475402133711433
1.3800000000000001,0.010477325377145455
1.3840000000000001,0.010475858904027014
1.3880000000000001,0.010474536674166124
1.3920000000000001,0.010475354052625582
1.3960000000000001,0.010471291200871213
1.4000000000000001,0.010461674983701107
1.4040000000000001,0.010459415172666133
1.408,0.010463862673107307
1.412,0.010473430809191562
1.416,0.010494009513935587
1.42,0.010513915083477704
1.424,0.010544735059507893
1.428,0.01056682831845621
1.432,0.01058387306339022
1.436,0.010573078859616778
1.44,0.010542162721414889
1.444,0.010512376488730489
1.448,0.010492110311044491
1.452,0.010473911620050068
1.456,0.010472925957790131
1.46,0.01046912755200794
1.464,0.010467156227488068
1.468,0.010468358254634332
1.472,0.010471387363042914
1.476,0.010469608362866445
1.48,0.010469872808838623
1.484,0.01047018533589665
1.488,0.010463862673107307
1.492,0.010455905253399045
1.496,0.010457059199459457
1.5,0.010469151592550865
1.504,0.010467829362689975
1.508,0.010467420673460246
1.512,0.010457948699547692
1.516,0.010463742470392681
1.52,0.01046460792993799
1.524,0.010471122917070736
1.528,0.010471964336073121
1.532,0.010460521037640695
1.536,0.010441913657416542
1.54,0.010442514670989674
1.544,0.010439750008553269
1.548,0.010450255725811607
1.552,0.010463093375733699
1.556,0.010465954200341805
1.56,0.010460184470039742
1.564,0.010453356955848966
1.568,0.01044830844183466
1.572,0.010456770712944354
1.576,0.010457059199459457
1.58,0.01044172133307314
1.584,0.01044592842808506
1.588,0.0104405433464698
1.592,0.010440278900497623
1.596,0.010456746672401429
1.6,0.010461723064786958
1.604,0.010461626902615257
1.608,0.010458092942805244
1.612,0.01045140967187202
1.616,0.010439317278780613
1.62,0.010442394468275046
1.624,0.010450087442011131
1.6280000000000001,0.010453525239649444
1.6320000000000001,0.010452154928702703
1.6360000000000001,0.010446216914600164
1.6400000000000001,0.010434244724223383
1.6440000000000001,0.010435783318970599
1.6480000000000001,0.010447202576860099
1.6520000000000001,0.01045318867204849
1.6560000000000001,0.010461098010670902
1.6600000000000001,0.010459631537552461
1.6640000000000001,0.010450159563639906
1.668,0.010451025023185217
1.672,0.010451842401644675
1.676,0.010448645009435615
1.68,0.01044953450952385
1.684,0.010457660213032589
1.688,0.010458020821176467
1.692,0.010455496564169315
1.696,0.010449798955496028
1.7,0.010441360724929261
1.704,0.01044085587352783
1.708,0.010455761010141493
1.712,0.010466819659887114
1.716,0.010457227483259935
1.72,0.010458549713120824
1.724,0.010461771145872809
1.728,0.010457612131946738
1.732,0.010464199240708261
1.736,0.010463910754193157
1.74,0.010450856739384739
1.744,0.010443500333249608
1.748,0.010458790118550077
1.752,0.01047749366094593
1.756,0.010467637038346573
1.76,0.010448284401291736
1.764,0.010455280199282989
1.768,0.01045679475348728
1.772,0.010460977807956275
1.776,0.010458886280721778
1.78,0.010443668617050086
1.784,0.010445952468627985
1.788,0.010463453983877578
1.792,0.010467997646490453
1.796,0.01046674753825834
1.8,0.010459871942981713
1.804,0.010442851238590628
1.808,0.010455857172313194
1.812,0.010466675416629562
1.816,0.010464319443422887
1.82,0.010464271362337036
1.824,0.01046511278133942
1.828,0.01046287701084737
1.832,0.010462516402703492
1.836,0.010464920456996018
1.84,0.01046049699709777
1.844,0.010457564050860887
1.848,0.010440639508641502
1.852,0.010443716698135937
1.856,0.01045556868579809
1.86,0.010452659780104134
1.864,0.010440615468098578
1.868,0.010465906119255955
1.872,0.01047287787670428
1.8760000000000001,0.010467516835631947
1.8800000000000001,0.010465449348940375
1.8840000000000001,0.010472276863131149
1.8880000000000001,0.010468863106035762
1.8920000000000001,0.010456746672401429
1.8960000000000001,0.01044999127983943
1.9000000000000001,0.01045191452327345
1.9040000000000001,0.01046410307853656
1.9080000000000001,0.010471435444128764
1.9120000000000001,0.010466146524685208
1.9160000000000001,0.010457083240002383
1.92,0.010461699024244034
1.924,0.010467420673460246
1.928,0.010463165497362474
1.932,0.010452010685445151
1.936,0.010451794320558825
1.94,0.010447683387718605
1.944,0.010455544645255166
1.948,0.010458141023891095
1.952,0.010457155361631158
1.956,0.01045898244289348
1.96,0.010465954200341805
1.964,0.010464295402879962
1.968,0.01045972769972416
1.972,0.010460833564698725
1.976,0.010457588091403814
1.98,0.010448645009435615
1.984,0.010451313509700319
1.988,0.010452779982818761
1.992,0.010452347253046106
1.996,0.010461025889042125
2.0,0.01046049699709777
2.004,0.010460328713297292
2.008,0.010462732767589819
2.012,0.010468815024949911
2.016,0.01047008917372495
2.02,0.010461146091756753
2.024,0.010452010685445151
2.028,0.010445207211797303
2.032,0.010442322346646271
2.036,0.010452467455760733
2.04,0.010463405902791727
2.044,0.010460809524155798
2.048,0.010456698591315578
2.052,0.010453861807250397
2.056,0.010450135523096982
2.06,0.010447947833690782
2.064,0.010441192441128783
2.068,0.010432658048390315
2.072,0.01043253784567569
2.076,0.0104403510221264
2.08,0.010429412575095404
2.084,0.010437538278604143
2.088,0.010447971874233708
2.092,0.01045994406461049
2.096,0.010474536674166124
2.1,0.010481268026185198
2.104,0.010490042824352919
2.108,0.01048547512119712
2.112,0.010471603727929242
2.116,0.01044592842808506
2.12,0.010446144792971387
2.124,0.010464343483965813
2.128,0.01047100271435611
2.132,0.01047008917372495
2.136,0.010466050362513506
2.14,0.010463958835279008
2.144,0.01046141053772893
2.148,0.010462131754016687
2.152,0.010464752173195542
2.156,0.01046455984885214
2.16,0.01045917476723688
2.164,0.010455087874939586
2.168,0.010444726400938797
2.172,0.010442466589903823
2.176,0.010463309740620026
2.18,0.010469343916894266
2.184,0.010483648039934798
2.188,0.010479657309809204
2.192,0.01047912841786485
2.196,0.010498721460348939
2.2,0.010522882205988827
2.204,0.01054810073551743
2.208,0.010556538966084196
2.212,0.01056901600786241
2.216,0.010569857426864792
2.22,0.010564376183077833
2.224,0.010550144181666077
2.228,0.010525334341367204
2.232,0.01050982819118041
2.236,0.010486580986171681
2.24,0.010473911620050068
2.244,0.010469512200694744
2.248,0.01046607440305643
2.2520000000000002,0.010462925091933221
2.2560000000000002,0.010462949132476147
2.2600000000000002,0.010463550146049279
2.2640000000000002,0.010458693956378376
2.2680000000000002,0.010452828063904612
2.2720000000000002,0.010445591860484106
2.2760000000000002,0.010451241388071544
2.2800000000000002,0.010461578821529406
2.2840000000000003,0.010445591860484106
2.2880000000000003,0.010441601130358514
2.2920000000000003,0.010454318577565977
2.2960000000000003,0.010460112348410966
2.3000000000000003,0.010455809091227343
2.3040000000000003,0.010458742037464226
2.308,0.010461122051213826
2.312,0.010451241388071544
2.316,0.010437057467745639
2.32,0.010457467888689186
2.324,0.010468983308750388
2.328,0.010470161295353726
2.332,0.010463886713650233
2.336,0.010460617199812396
2.34,0.010448933495950719
2.344,0.010440519305926876
2.348,0.010443500333249608
2.352,0.010451842401644675
2.356,0.010454919591139108
2.36,0.01044775550934738
2.364,0.010442779116961851
2.368,0.010444822563110499
2.372,0.01044323588727743
2.376,0.010436216048743254
2.38,0.010435350589197945
2.384,0.01043537462974087
2.388,0.010432153196988885
2.392,0.01043085500767092
2.396,0.010430133791383163
2.4,0.01043669685960176
2.404,0.010439197076065988
2.408,0.010432706129476166
2.412,0.01042934045346663
2.416,0.010439822130182044
2.42,0.010445976509170911
2.424,0.010439148994980137
2.428,0.01043273017001909
2.432,0.010426960439717027
2.436,0.010419243425438018
2.44,0.010410636911070774
2.444,0.010414435316852965
2.448,0.010421527277015919
2.452,0.010435182305397467
2.456,0.010432441683503988
2.46,0.010420108884983327
2.464,0.010425830534199541
2.468,0.010430903088756771
2.472,0.01044583226591336
2.476,0.010452779982818761
2.48,0.010457588091403814
2.484,0.010456482226429252
2.488,0.010450832698841814
2.492,0.01045487151005326
2.496,0.010454534942452305
2.5,0.010450520171783786
2.504,0.010451529874586647
2.508,0.01045126542861447
2.512,0.010453982009965024
2.516,0.010452804023361685
2.52,0.010437874846205097
2.524,0.010424748709767903
2.528,0.010431167534728948
2.532,0.010432658048390315
2.536,0.010429003885865675
2.54,0.010453405036934817
2.544,0.010470377660240053
2.548,0.010467733200518274
2.552,0.010454799388424483
2.556,0.010453092509876789
2.56,0.01045487151005326
2.564,0.01045217896924563
2.568,0.010446673684915744
2.572,0.010457612131946738
2.576,0.010462588524332269
2.58,0.010459559415923685
2.584,0.010457828496833067
2.588,0.010457131321088234
2.592,0.010456674550772654
2.596,0.010457828496833067
2.6,0.010455953334484895
2.604,0.010448813293236093
2.608,0.010433667751193176
2.612,0.010432297440246437
2.616,0.010457083240002383
2.62,0.010465545511112076
2.624,0.0104563379831717
2.628,0.01045455898299523
2.632,0.01046780532214705
2.636,0.010455785050684419
2.64,0.010450351887983308
2.644,0.010459415172666133
2.648,0.01046359822713513
2.652,0.010463574186592203
2.656,0.010447731468804455
2.66,0.010438692224664555
2.664,0.010447731468804455
2.668,0.01045542444254054
2.672,0.010453765645078696
2.676,0.010452996347705088
2.68,0.010452154928702703
2.684,0.01044268295479015
2.688,0.010436360292000806
2.692,0.010447442982289352
2.696,0.010457059199459457
2.7,0.0104563379831717
2.704,0.010452972307162163
2.708,0.01045044805015501
2.712,0.01046912755200794
2.716,0.010467877443775826
2.72,0.010461771145872809
2.724,0.010463261659534175
2.728,0.010462035591844988
2.732,0.010456025456113672
2.736,0.010456866875116055
2.74,0.010457491929232112
2.744,0.010451890482730526
2.748,0.010446192874057238
2.7520000000000002,0.01044907773920827
2.7560000000000002,0.01044679388763037
2.7600000000000002,0.010447971874233708
2.7640000000000002,0.010449173901379971
2.7680000000000002,0.010445952468627985
2.7720000000000002,0.010456097577742447
2.7760000000000002,0.010461266294471378
2.7800000000000002,0.010450592293412561
2.7840000000000003,0.010438596062492856
2.7880000000000003,0.01044761126608983
2.7920000000000003,0.010442947400762327
2.7960000000000003,0.010449053698665344
2.8000000000000003,0.010466771578801264
2.8040000000000003,0.010464415605594588
2.8080000000000003,0.010459294969951507
2.8120000000000003,0.01045780445629014
2.816,0.01044907773920827
2.82,0.010439701927467418
2.824,0.010443283968363281
2.828,0.010442562752075524
2.832,0.010438451819235304
2.836,0.010443548414335459
2.84,0.010449726833867252
2.844,0.010446601563286967
2.848,0.01045487151005326
2.852,0.01044725065794595
2.856,0.010456938996744831
2.86,0.010475209809368032
2.864,0.010466771578801264
2.868,0.010453453118020668
2.872,0.010452996347705088
2.876,0.010454631104624006
2.88,0.01044592842808506
2.884,0.010448837333779017
2.888,0.010458020821176467
2.892,0.010451121185356918
2.896,0.01044780359043323
2.9,0.01045725152380286
2.904,0.01046282892976152
2.908,0.010457467888689186
2.912,0.010458165064434019
2.916,0.010456217780457073
2.92,0.010443428211620833
2.924,0.010433018656534194
2.928,0.010436071805485702
2.932,0.010448284401291736
2.936,0.010444173468451516
2.94,0.01043633625145788
2.944,0.010426647912659
2.948,0.010429773183239283
2.952,0.010459679618638312
2.956,0.01048561936445467
2.96,0.01049343254090538
2.964,0.010526055557654963
2.968,0.010578776468290065
2.972,0.010582382549728854
2.976,0.010572021075728067
2.98,0.010559544033949854
2.984,0.01053622470731235
2.988,0.010506390393542097
2.992,0.010474416471451498
2.996,0.010463453983877578
3.0,0.010471747971186792
3.004,0.010469872808838623
3.008,0.010458910321264702
3.012,0.010445351455054853
3.016,0.01040974741098254
3.02,0.010410372465098596
3.024,0.010445399536140704
3.028,0.010453933928879174
3.032,0.010457588091403814
3.036,0.010442827198047702
3.04,0.01044227426556042
3.044,0.01045364544236407
3.048,0.010456746672401429
3.052,0.010454222415394277
3.056,0.010449246023008747
3.06,0.010436480494715432
3.064,0.010436360292000806
3.068,0.010438019089462649
3.072,0.010433811994450728
3.076,0.010446577522744043
3.08,0.010453765645078696
3.084,0.010448043995862483
3.088,0.010436937265031011
3.092,0.010440375062669325
3.096,0.01043583140005645
3.1,0.010434292805309234
3.104,0.010435542913541348
3.108,0.010436576656887133
3.112,0.010449895117667729
3.116,0.010447418941746427
3.12,0.01043953364366694
3.124,0.010444822563110499
3.128,0.010453885847793323
3.132,0.01044775550934738
3.136,0.01043902879226551
3.14,0.010435759278427674
3.144,0.010431744507759156
3.148,0.010416839371145492
3.152,0.010390803463157431
3.156,0.01039106790912961
3.16,0.010408809829808454
3.164,0.010428763480436422
3.168,0.01043253784567569
3.172,0.010430470358984116
3.176,0.01043258592676154
3.18,0.010424868912482529
3.184,0.010423450520449939
3.188,0.01043085500767092
3.192,0.01043446108910971
3.196,0.010426094980171718
3.2,0.01042111858778619
3.204,0.010414795924996844
3.208,0.010422777385248033
3.212,0.010428402872292544
3.216,0.010437586359689994
3.22,0.010444221549537367
3.224,0.01043994233289667
3.228,0.010440831832984904
3.232,0.010437778684033396
3.236,0.010438764346293332
3.24,0.0104405433464698
3.244,0.010446817928173296
3.248,0.010448476725635139
3.2520000000000002,0.010445111049625602
3.2560000000000002,0.010446144792971387
3.2600000000000002,0.010442634873704299
3.2640000000000002,0.010438788386836257
3.2680000000000002,0.010446168833514314
3.2720000000000002,0.010454174334308427
3.2760000000000002,0.010450087442011131
3.2800000000000002,0.010447034293059623
3.2840000000000003,0.01044080779244198
3.2880000000000003,0.01044857288780684
3.2920000000000003,0.010453885847793323
3.2960000000000003,0.010452323212503181
3.3000000000000003,0.010449895117667729
3.3040000000000003,0.010449919158210655
3.3080000000000003,0.010454462820823528
3.3120000000000003,0.010458453550949123
3.3160000000000003,0.010456530307515102
3.3200000000000003,0.010454222415394277
3.3240000000000003,0.010452491496303657
3.3280000000000003,0.010447274698488876
3.332,0.010443981144108114
3.336,0.010444798522567572
3.34,0.010436071805485702
3.344,0.010426816196459476
3.348,0.010438596062492856
3.352,0.010449486428438
3.356,0.01045953537538076
3.36,0.010470714227841007
3.364,0.010460809524155798
3.368,0.010455905253399045
3.372,0.01045542444254054
3.376,0.010432922494362493
3.38,0.01042669599374485
3.384,0.010434340886395084
3.388,0.010443019522391104
3.392,0.010447010252516698
3.396,0.010447202576860099
3.4,0.010442875279133552
3.404,0.01043222531861766
3.408,0.010422681223076331
3.412,0.0104313117779865
3.416,0.010450928861013516
3.42,0.01046359822713513
3.424,0.010450375928526235
3.428,0.010430975210385546
3.432,0.010438235454348976
3.436,0.010459631537552461
3.44,0.010453549280192369
3.444,0.010445760144284584
3.448,0.010456770712944354
3.452,0.010461338416100155
3.456,0.010458838199635927
3.46,0.010453477158563594
3.464,0.010445351455054853
3.468,0.010442706995333076
3.472,0.010442755076418926
3.476,0.010445111049625602
3.48,0.010451626036758348
3.484,0.010453308874763116
3.488,0.010443259927820357
3.492,0.010430422277898265
3.496,0.010434124521508756
3.5,0.010447274698488876
3.504,0.010450399969069159
3.508,0.010454631104624006
3.512,0.010434989981054067
3.516,0.010441360724929261
3.52,0.01044364457650716
3.524,0.01043638433254373
3.528,0.01043619200820033
3.532,0.010453068469333865
3.536,0.010463021254104922
3.54,0.01046049699709777
3.544,0.01045501575331081
3.548,0.01044862096889269
3.552,0.01044547165776948
3.556,0.01044039910321225
3.56,0.010441625170901438
3.564,0.010443115684562805
3.568,0.010443572454878385
3.572,0.010441384765472185
3.576,0.01043674494068761
3.58,0.010429965507582685
3.584,0.010429604899438807
3.588,0.010424027493480146
3.592,0.010447322779574726
3.596,0.010463165497362474
3.6,0.010459102645608105
3.604,0.010452972307162163
3.608,0.010449270063551673
3.612,0.010451289469157394
3.616,0.01044628903622894
3.62,0.010444654279310022
3.624,0.010456025456113672
3.628,0.010462468321617641
3.632,0.01046186730804451
3.636,0.010458838199635927
3.64,0.010452371293589032
3.644,0.01043862010303578
3.648,0.010431696426673305
3.652,0.010446120752428463
3.656,0.010451073104271067
3.66,0.010452804023361685
3.664,0.01043912495443721
3.668,0.010433908156622429
3.672,0.010437874846205097
3.676,0.01044994319875358
3.68,0.010457491929232112
3.684,0.010470113214267876
3.688,0.010458862240178852
3.692,0.010446000549713836
3.696,0.010437538278604143
3.7,0.010432297440246437
3.704,0.010447082374145473
3.708,0.010475450214797283
3.712,0.01049470668968042
3.716,0.010526584449599318
3.72,0.01054622557316926
3.724,0.010535383288309965
3.728,0.0105226658411025
3.732,0.010524757368336999
3.736,0.010501678447128746
3.74,0.010472637471275028
3.744,0.010454006050507949
3.748,0.01045145775295787
3.7520000000000002,0.010454222415394277
3.7560000000000002,0.010449246023008747
3.7600000000000002,0.010446024590256762
3.7640000000000002,0.010445712063198734
3.7680000000000002,0.010448356522920511
3.7720000000000002,0.010447394901203501
3.7760000000000002,0.010440014454525446
3.7800000000000002,0.01042080606072816
3.7840000000000003,0.010415901789971406
3.7880000000000003,0.010420108884983327
3.7920000000000003,0.010435062102682842
3.7960000000000003,0.010443404171077909
3.8000000000000003,0.010435350589197945
3.8040000000000003,0.010439245157151838
3.8080000000000003,0.0104405433464698
3.8120000000000003,0.010447851671519081
3.8160000000000003,0.010447010252516698
3.8200000000000003,0.010446529441658192
3.8240000000000003,0.010433427345763923
3.8280000000000003,0.010431456021244052
3.8320000000000003,0.01043770656240462
3.8360000000000003,0.010437754643490471
3.84,0.010439870211267894
3.844,0.010441793454701915
3.848,0.010440615468098578
3.852,0.010437321913717816
3.856,0.010435951602771077
3.86,0.010431840669930857
3.864,0.010419315547066795
3.868,0.010401453423673324
3.872,0.010407535681033414
3.876,0.010424219817823549
3.88,0.010426623872116075
3.884,0.010436528575801282
3.888,0.010442779116961851
3.892,0.010442706995333076
3.896,0.010438139292177274
3.9,0.010429725102153432
3.904,0.010423402439364089
3.908,0.010428210547949141
3.912,0.010429100048037376
3.916,0.010430181872469014
3.92,0.010432057034817184
3.924,0.010428474993921319
3.928,0.010428282669577918
3.932,0.010425133358454708
3.936,0.010417945236120054
3.94,0.010424652547596202
3.944,0.010432345521332287
3.948,0.010426383466686822
3.952,0.010423522642078716
3.956,0.010413617938393507
3.96,0.01041111772192928
3.964,0.010427946101976964
3.968,0.010451553915129572
3.972,0.010453885847793323
3.976,0.010445255292883154
3.98,0.010440182738325922
3.984,0.010443524373792534
3.988,0.01044400518465104
3.992,0.010442130022302869
3.996,0.010438716265207482
4.0,0.010437273832631965
4.0040000000000004,0.010420974344528638
4.008,0.010422561020361704
4.0120000000000005,0.010433403305220999
4.016,0.010435278467569168
4.0200000000000005,0.010438187373263125
4.024,0.010431504102329903
4.0280000000000005,0.01042934045346663
4.032,0.010440182738325922
4.0360000000000005,0.010439750008553269
4.04,0.010434100480965831
4.0440000000000005,0.010433980278251204
4.048,0.010434989981054067
4.0520000000000005,0.01043902879226551
4.056,0.010442971441305253
4.0600000000000005,0.010429604899438807
4.064,0.010442490630446747
4.0680000000000005,0.010460713361984097
4.072,0.01044780359043323
4.0760000000000005,0.010435759278427674
4.08,0.010440927995156606
4.0840000000000005,0.01045003936092528
4.088,0.010446649644372818
4.0920000000000005,0.010442442549360897
4.096,0.010438547981407005
4.1,0.0104381633327202
4.104,0.010443067603476954
4.108,0.010441865576330691
4.112,0.010442538711532598
4.116,0.010429316412923703
4.12,0.01041385834382276
4.124,0.010415901789971406
4.128,0.01042857115609302
4.132,0.010435350589197945
4.136,0.010432706129476166
4.14,0.010423450520449939
4.144,0.010424556385424501
4.148,0.010444029225193965
4.152,0.01044852480672099
4.156,0.01044323588727743
4.16,0.010439413440952314
4.164,0.01042861923717887
4.168,0.01042861923717887
4.172,0.010428402872292544
4.176,0.010436504535258358
4.18,0.010447010252516698
4.184,0.010442923360219403
4.188,0.010440423143755175
4.192,0.010442250225017496
4.196,0.010441504968186813
4.2,0.010438331616520677
4.204,0.010426527709944374
4.208,0.010395347125770307
4.212,0.010416791290059641
4.216,0.010428354791206693
4.22,0.010448332482377587
4.224,0.010458742037464226
4.228,0.010449798955496028
4.232,0.010445207211797303
4.236,0.010439437481495239
4.24,0.010435663116255973
4.244,0.010433860075536578
4.248,0.01043770656240462
4.252,0.0104449187252822
4.256,0.010449462387895075
4.26,0.010451674117844199
4.264,0.010450568252869637
4.268,0.010447923793147858
4.272,0.010439629805838641
4.276,0.010432609967304465
4.28,0.01043542271082672
4.284,0.010440278900497623
4.288,0.010437129589374414
4.292,0.010430879048213845
4.296,0.010433355224135148
4.3,0.010431504102329903
4.304,0.010432297440246437
4.308,0.01044222618447457
4.312,0.010443308008906207
4.316,0.010443332049449132
4.32,0.010438836467922107
4.324,0.010428547115550095
4.328,0.010424844871939605
4.332,0.010439605765295717
4.336,0.010450231685268683
4.34,0.010444846603653423
4.344,0.010426671953201924
4.348,0.010431071372557247
4.352,0.010437442116432443
4.356,0.010439701927467418
4.36,0.010439365359866464
4.364,0.010441384765472185
4.368,0.010441360724929261
4.372,0.010442827198047702
4.376,0.010440471224841026
4.38,0.010436312210914955
4.384,0.010427369128946757
4.388,0.010432489764589839
4.392,0.010435566954084272
4.396,0.010454438780280604
4.4,0.010462396199988866
4.404,0.01045583313177027
4.408,0.010445784184827509
4.412,0.010434364926938009
4.416,0.010436624737972983
4.42,0.010446481360572342
4.424,0.010453621401821146
4.428,0.010448765212150242
4.432,0.01044030294104055
4.436,0.010433739872821953
4.44,0.01042770569654771
4.444,0.01042400345293722
4.448,0.010431504102329903
4.452,0.010452611699018283
4.456,0.010469824727752772
4.46,0.010504923920423657
4.464,0.01053526308559534
4.468,0.010545167789280547
4.472,0.010536152585683573
4.476,0.010511751434614431
4.48,0.010474368390365647
4.484,0.010461482659357707
4.488,0.010464944497538944
4.492,0.010451073104271067
4.496,0.010442322346646271
4.5,0.010438379697606527
4.5040000000000004,0.010443788819764712
4.508,0.010440879914070755
4.5120000000000005,0.010435590994627198
4.516,0.010431504102329903
4.5200000000000005,0.010430686723870444
4.524,0.010430590561698743
4.5280000000000005,0.010426094980171718
4.532,0.010422945669048509
4.5360000000000005,0.010419628074124823
4.54,0.010417031695488894
4.5440000000000005,0.010410612870527849
4.548,0.01042669599374485
4.5520000000000005,0.010449847036581878
4.556,0.010451626036758348
4.5600000000000005,0.010435687156798898
4.564,0.010414675722282218
4.5680000000000005,0.010428474993921319
4.572,0.010442322346646271
4.5760000000000005,0.010435542913541348
4.58,0.010428811561522273
4.5840000000000005,0.010433066737620044
4.588,0.01043395623770828
4.5920000000000005,0.010430566521155817
4.596,0.010430061669754387
4.6000000000000005,0.010432008953731333
4.604,0.010434821697253589
4.6080000000000005,0.010431407940158201
4.612,0.010425614169313212
4.616,0.010424075574565997
4.62,0.010419243425438018
4.624,0.010417079776574745
4.628,0.010409723370439614
4.632,0.010410059938040568
4.636,0.010429580858895882
4.64,0.010433739872821953
4.644,0.010426840237002402
4.648,0.010435158264854543
4.652,0.010438668184121631
4.656,0.010437826765119246
4.66,0.01042770569654771
4.664,0.01041938766869557
4.668,0.01041669512788794
4.672,0.01041852220915026
4.676,0.010418329884806858
4.68,0.01041719997928937
4.684,0.010428691358807647
4.688,0.010425373763883961
4.692,0.010419820398468225
4.696,0.010406357694430077
4.7,0.01040020331544121
4.704,0.010392630544419752
4.708,0.01041263227613357
4.712,0.010425349723341035
4.716,0.01044080779244198
4.72,0.01044765934717568
4.724,0.010434797656710664
4.728,0.010430927129299696
4.732,0.010429773183239283
4.736,0.010433571589021475
4.74,0.010435086143225766
4.744,0.010429460656181255
4.748,0.010425950736914167
4.752,0.010428499034464245
4.756,0.010428378831749619
4.76,0.010424796790853754
4.764,0.01042720084514628
4.768,0.010430374196812415
4.772,0.010435182305397467
4.776,0.010430326115726564
4.78,0.010424219817823549
4.784,0.010433018656534194
4.788,0.010434340886395084
4.792,0.010438091211091424
4.796,0.01043765848131877
4.8,0.010439389400409388
4.804,0.010446553482201117
4.808,0.010448260360748812
4.812,0.010426888318088252
4.816,0.010402559288647886
4.82,0.010410636911070774
4.824,0.010421767682445172
4.828,0.01043953364366694
4.832,0.010448043995862483
4.836,0.010443764779221787
4.84,0.0104405433464698
4.844,0.010436432413629581
4.848,0.010425397804426886
4.852,0.010427873980348187
4.856,0.010438860508465033
4.86,0.010443909022479339
4.864,0.010439557684209866
4.868,0.010426671953201924
4.872,0.010424532344881577
4.876,0.010434076440422905
4.88,0.01043227339970351
4.884,0.010444245590080291
4.888,0.010441913657416542
4.892,0.010440952035699532
4.896,0.010429220250752002
4.9,0.010420156966069178
4.904,0.01042669599374485
4.908,0.010446168833514314
4.912,0.010441504968186813
4.916,0.010428306710120842
4.92,0.010424724669224979
4.924,0.010416430681915763
4.928,0.01041847412806441
4.932,0.01043857202194993
4.936,0.010440711630270279
4.94,0.010435687156798898
4.944,0.010435326548655019
4.948,0.01041746442526155
4.952,0.010418618371321962
4.956,0.010435951602771077
4.96,0.010434581291824336
4.964,0.01043441300802386
4.968,0.010437634440775844
4.972,0.010427441250575533
4.976,0.01043253784567569
4.98,0.010438139292177274
4.984,0.010431456021244052
4.988,0.010426215182886344
4.992,0.010431047332014323
4.996,0.010429580858895882
5.0,0.01042765761546186
5.0040000000000004,0.01042395537185137
5.008,0.010412920762648674
5.0120000000000005,0.010404170005023878
5.016,0.010408160735149472
5.0200000000000005,0.010414146830337862
5.024,0.010418161601006382
5.0280000000000005,0.010423137993391911
5.032,0.010426383466686822
5.0360000000000005,0.010426720034287774
5.04,0.010427801858719412
5.0440000000000005,0.010434388967480935
5.048,0.010438259494891902
5.0520000000000005,0.010437129589374414
5.056,0.010438596062492856
5.0600000000000005,0.010432465724046913
5.064,0.010431287737443576
5.0680000000000005,0.010439389400409388
5.072,0.01043624008928618
5.0760000000000005,0.01042628730451512
5.08,0.010424604466510352
5.0840000000000005,0.010419267465980944
5.088,0.010431936832102558
5.0920000000000005,0.010440230819411773
5.096,0.010436624737972983
5.1000000000000005,0.01043181662938793
5.104,0.01043994233289667
5.1080000000000005,0.010437995048919724
5.112,0.010441000116785382
5.1160000000000005,0.010443115684562805
5.12,0.010442154062845795
5.124,0.01043486977833944
5.128,0.01042080606072816
5.132,0.010407679924290966
5.136,0.010419555952496046
5.14,0.010430879048213845
5.144,0.010438788386836257
5.148,0.010437971008376798
5.152,0.010426720034287774
5.156,0.01042080606072816
5.16,0.01044638519840064
5.164,0.010490884243355304
5.168,0.01052043007061045
5.172,0.010526007476569113
5.176,0.010522449476216174
5.18,0.010516968232429213
5.184,0.010514443975422061
5.188,0.010498673379263088
5.192,0.010456746672401429
5.196,0.01043638433254373
5.2,0.010437682521861695
5.204,0.01042710468297458
5.208,0.010419243425438018
5.212,0.01041933958760972
5.216,0.010420589695841833
5.22,0.010429941467039761
5.224,0.010439653846381567
5.228,0.010438211413806051
5.232,0.010428258629034992
5.236,0.010432297440246437
5.24,0.010426720034287774
5.244,0.010425037196283007
5.248,0.010432754210562016
5.252,0.010427489331661384
5.256,0.01042568629094199
5.26,0.010425758412570764
5.264,0.010420277168783805
5.268,0.010416911492774268
5.272,0.010427441250575533
5.276,0.010432874413276642
5.28,0.010432465724046913
5.284,0.010416334519744061
5.288,0.010401405342587473
5.292,0.010414339154681264
5.296,0.010422921628505584
5.3,0.010427248926232131
5.304,0.010421647479730544
5.308,0.010408304978407024
5.312,0.010407631843205116
5.316,0.010412343789618467
5.32,0.010406525978230554
5.324,0.010410781154328325
5.328,0.010423714966422117
5.332,0.010415589262913378
5.336,0.01041568542508508
5.34,0.010424724669224979
5.344,0.010431624305044528
5.348,0.010424892953025455
5.352,0.010418642411864886
5.356,0.01041938766869557
5.36,0.01042034929041258
5.364,0.01042395537185137
5.368,0.010420830101271086
5.372,0.010414194911423712
5.376,0.010421791722988096
5.38,0.010423450520449939
5.384,0.010421407074301291
5.388,0.010427080642431655
5.392,0.010421094547243263
5.396,0.010412343789618467
5.4,0.010414675722282218
5.404,0.010424291939452324
5.408,0.010421142628329114
5.412,0.010422753344705106
5.416,0.010412271667989692
5.42,0.010405011424026262
5.424,0.010422873547419734
5.428,0.010430061669754387
5.432,0.010431744507759156
5.436,0.010424796790853754
5.44,0.010418834736208289
5.444,0.010422945669048509
5.448,0.01043085500767092
5.452,0.010432369561875212
5.456,0.010436071805485702
5.46,0.01043912495443721
5.464,0.010431480061786976
5.468,0.01042897984532275
5.472,0.010425854574742465
5.476,0.010430927129299696
5.48,0.010438355657063603
5.484,0.010430205913011938
5.488,0.010413954505994461
5.492,0.010422488898732929
5.496,0.010435062102682842
5.5,0.01044131264384341
5.5040000000000004,0.010439822130182044
5.508,0.010438235454348976
5.5120000000000005,0.010433307143049297
5.516,0.01043080692658507
5.5200000000000005,0.0104289317642369
5.524,0.01042888368315105
5.5280000000000005,0.010422945669048509
5.532,0.01040984357315424
5.5360000000000005,0.010417344222546922
5.54,0.010432297440246437
5.5440000000000005,0.010435086143225766
5.548,0.010434172602594606
5.5520000000000005,0.01042623922342927
5.556,0.010420325249869656
5.5600000000000005,0.010420517574213058
5.564,0.010436961305573937
5.5680000000000005,0.010444197508994441
5.572,0.010438019089462649
5.5760000000000005,0.010434148562051682
5.58,0.010438596062492856
5.5840000000000005,0.010436360292000806
5.588,0.010435615035170123
5.5920000000000005,0.010435254427026244
5.596,0.010435038062139917
5.6000000000000005,0.010429604899438807
5.604,0.010430061669754387
5.6080000000000005,0.010430927129299696
5.612,0.010429292372380779
5.6160000000000005,0.010428499034464245
5.62,0.010422008087874423
5.6240000000000006,0.010426647912659
5.628,0.010434148562051682
5.632,0.01042405153402307
5.636,0.010422921628505584
5.64,0.01043862010303578
5.644,0.010425998818000017
5.648,0.010419099182180466
5.652,0.010425013155740081
5.656,0.010439966373439595
5.66,0.010441000116785382
5.664,0.010432850372733718
5.668,0.010419147263266317
5.672,0.010411454289530234
5.676,0.010420229087697954
5.68,0.010433018656534194
5.684,0.010433932197165353
5.688,0.010428234588492067
5.692,0.010424628507053278
5.696,0.010422753344705106
5.7,0.010425037196283007
5.704,0.01042212829058905
5.708,0.01041943574978142
5.712,0.010427248926232131
5.716,0.010435615035170123
5.72,0.010429797223782209
5.724,0.010429412575095404
5.728,0.010423931331308445
5.732,0.01042669599374485
5.736,0.010416166235943585
5.74,0.010424436182709875
5.744,0.010427248926232131
5.748,0.010417873114491279
5.752,0.010402655450819587
5.756,0.01041719997928937
5.76,0.010445784184827509
5.764,0.010454414739737678
5.768,0.01044852480672099
5.772,0.010447491063375202
5.776,0.010442586792618449
5.78,0.010422104250046124
5.784,0.010419411709238496
5.788,0.010421190709414965
5.792,0.010429316412923703
5.796,0.010434629372910186
5.8,0.010427297007317982
5.804,0.010417320182003998
5.808,0.010418353925349783
5.812,0.0104220802095032
5.816,0.010406646180945181
5.82,0.010411694694959485
5.824,0.010422705263619256
5.828,0.010426551750487298
5.832,0.010448452685092213
5.836,0.010464944497538944
5.84,0.01050470755553733
5.844,0.010550288424923629
5.848,0.010556106236311542
5.852,0.010541513626755906
5.856,0.010518675110976906
5.86,0.010497615595374377
5.864,0.010486340580742428
5.868,0.010481171864013497
5.872,0.010462059632387912
5.876,0.010445495698312405
5.88,0.010435110183768692
5.884,0.01042546992605566
5.888,0.010415180573683649
5.892,0.01040243908593326
5.896,0.010412463992333094
5.9,0.010417368263089848
5.904,0.010425397804426886
5.908,0.010437562319147069
5.912,0.010426816196459476
5.916,0.010418834736208289
5.92,0.010425445885512736
5.924,0.010435807359513525
5.928,0.01043172046721623
5.932,0.010425854574742465
5.936,0.010417608668519101
5.94,0.010409507005553287
5.944,0.01039832815309304
5.948,0.010413738141108133
5.952,0.010416671087345016
5.956,0.010415517141284603
5.96,0.010424075574565997
5.964,0.010418113519920532
5.968,0.010412343789618467
5.972,0.010424123655651847
5.976,0.010443043562934028
5.98,0.010439437481495239
5.984,0.010430782886042145
5.988,0.010422008087874423
5.992,0.010423113952848985
5.996,0.010419772317382375
6.0,0.010410684992156624
6.0040000000000004,0.010395202882512755
6.008,0.010390947706414983
6.0120000000000005,0.010392462260619274
6.016,0.010415925830514332
6.0200000000000005,0.010424436182709875
6.024,0.010411838938217037
6.0280000000000005,0.010399722504582704
6.032,0.010395491369027858
6.0360000000000005,0.010405203748369665
6.04,0.010404939302397487
6.0440000000000005,0.010404170005023878
6.048,0.010400227355984134
6.0520000000000005,0.010406742343116882
6.056,0.010416142195400659
6.0600000000000005,0.010412608235590646
6.064,0.01040578072139987
6.0680000000000005,0.010400612004670939
6.072,0.0103992416937242
6.0760000000000005,0.010399434018067602
6.08,0.010394914395997651
6.0840000000000005,0.010392750747134378
6.088,0.010411069640843429
6.0920000000000005,0.010403833437422924
6.096,0.010408136694606546
6.1000000000000005,0.010427898020891113
6.104,0.01042806630469159
6.1080000000000005,0.01042167152027347
6.112,0.010421839804073947
6.1160000000000005,0.01041710381711767
6.12,0.010413161168077927
6.1240000000000006,0.010417752911776651
6.128,0.01041756058743325
6.132000000000001,0.010413016924820375
6.136,0.010400996653357744
6.140000000000001,0.010388856179180485
6.144,0.0104060932484579
6.148,0.010420998385071562
6.152,0.010418113519920532
6.156,0.010412824600476973
6.16,0.010397727139519908
6.164,0.010381932502818008
6.168,0.010399650382953929
6.172,0.010416382600829912
6.176,0.010421719601359321
6.18,0.010422609101447555
6.184,0.010412920762648674
6.188,0.010401477464216248
6.192,0.010411598532787785
6.196,0.010438331616520677
6.2,0.0104334994673927
6.204,0.010416502803544538
6.208,0.010409002154151857
6.212,0.010412151465275066
6.216,0.010416935533317193
6.22,0.010419676155210673
6.224,0.010418546249693185
6.228,0.010416118154857735
6.232,0.010417440384718623
6.236,0.010419483830867271
6.24,0.010411742776045336
6.244,0.01039568369337126
6.248,0.010395803896085886
6.252,0.010397078044860926
6.256,0.010409579127182062
6.26,0.010417344222546922
6.264,0.010420445452584281
6.268,0.010417031695488894
6.272,0.010416502803544538
6.276,0.010413521776221806
6.28,0.010417320182003998
6.284,0.010412704397762347
6.288,0.010413834303279834
6.292,0.0104177048306908
6.296,0.01041390642490861
6.3,0.010415709465628005
6.304,0.01041715189820352
6.308,0.010421935966245648
6.312,0.010422176371674901
6.316,0.010403088180592242
6.32,0.010382773921820392
6.324,0.010386812733031835
6.328,0.010423330317735314
6.332,0.010429003885865675
6.336,0.010420469493127207
6.34,0.010411983181474588
6.344,0.010406189410629601
6.348,0.010404049802309252
6.352,0.010406165370086675
6.356,0.010401453423673324
6.36,0.0104220802095032
6.364,0.010425638209856139
6.368,0.010419988682268701
6.372,0.010411959140931664
6.376,0.010404746978054085
6.38,0.010407223153975386
6.384,0.01040207847778938
6.388,0.01041664704680209
6.392,0.010434653413453112
6.396,0.01043176854830208
6.4,0.010427777818176488
6.404,0.010431287737443576
6.408,0.010422152331131975
6.412,0.010422657182533405
6.416,0.010423690925879192
6.42,0.01042522952062641
6.424,0.010428763480436422
6.428,0.010419988682268701
6.432,0.01041765674960495
6.436,0.010422152331131975
6.44,0.010420709898556459
6.444,0.010417488465804474
6.448,0.01043030207518364
6.452,0.01043227339970351
6.456,0.010418113519920532
6.46,0.01042131091212959
6.464,0.01042943661563833
6.468,0.010431095413100173
6.472,0.010431888751016707
6.476,0.010420541614755982
6.48,0.01041568542508508
6.484,0.010410516708356148
6.488,0.01042212829058905
6.492,0.010454126253222576
6.496,0.010475137687739255
6.5,0.01049612508171301
6.5040000000000004,0.010528387490318713
6.508,0.010534686112565132
6.5120000000000005,0.010532185896100905
6.516,0.010518819354234458
6.5200000000000005,0.010459367091580282
6.524,0.010448404604006362
6.5280000000000005,0.010468694822235286
6.532,0.010454775347881558
6.5360000000000005,0.010446481360572342
6.54,0.010439461522038165
6.5440000000000005,0.010426599831573149
6.548,0.010427849939805263
6.5520000000000005,0.010425614169313212
6.556,0.010426431547772673
6.5600000000000005,0.010420950303985712
6.564,0.010413377532964254
6.5680000000000005,0.010414339154681264
6.572,0.010417440384718623
6.5760000000000005,0.010413209249163778
6.58,0.010401717869645501
6.5840000000000005,0.010398496436893516
6.588,0.010412896722105748
6.5920000000000005,0.010431215615814799
6.596,0.01042395537185137
6.6000000000000005,0.01041897897946584
6.604,0.01041984443901115
6.6080000000000005,0.010432057034817184
6.612,0.01041623835757236
6.6160000000000005,0.010409819532611315
6.62,0.010420589695841833
6.6240000000000006,0.01042628730451512
6.628,0.01042623922342927
6.632000000000001,0.010413113086992077
6.636,0.01041015610021227
6.640000000000001,0.010414747843910993
6.644,0.010411021559757578
6.648000000000001,0.010413954505994461
6.652,0.010411334086815606
6.656000000000001,0.0104062855728013
6.66,0.01040852134329335
6.664,0.010406021126829123
6.668,0.010403568991450746
6.672,0.010394000855366492
6.676,0.010373806799309269
6.68,0.010395010558169352
6.684,0.010416430681915763
6.688,0.010414098749252011
6.692,0.010410348424555672
6.696,0.010399482099153453
6.7,0.010384889489597815
6.704,0.010392269936275874
6.708,0.010414194911423712
6.712,0.010424844871939605
6.716,0.010421431114844218
6.72,0.010408569424379201
6.724,0.01039837623417889
6.728,0.01039969846403978
6.732,0.010404218086109729
6.736,0.010405299910541366
6.74,0.010403568991450746
6.744,0.010388808098094634
6.748,0.010378206218664593
6.752,0.010386932935746463
6.756,0.010386908895203537
6.76,0.010408617505465052
6.764,0.010412968843734525
6.768,0.010411454289530234
6.772,0.010419916560639926
6.776,0.010422969709591435
6.78,0.01041700765494597
6.784,0.010416502803544538
6.788,0.010423234155563612
6.792,0.01042034929041258
6.796,0.010415372898027051
6.8,0.010415997952143107
6.804,0.01042253697981878
6.808,0.010423570723164566
6.812,0.010416478763001613
6.816,0.010417536546890325
6.82,0.01041842604697856
6.824,0.010416550884630388
6.828,0.010402294842675708
6.832,0.01039513076088398
6.836,0.010414651681739292
6.84,0.010417680790147876
6.844,0.010418377965892709
6.848,0.010420685858013534
6.852,0.010419555952496046
6.856,0.01040993973532594
6.86,0.010403016058963465
6.864,0.01040746355940464
6.868,0.010429821264325134
6.872,0.010430109750840237
6.876,0.010410348424555672
6.88,0.010409266600124034
6.884,0.010423763047507967
6.888,0.010424171736737698
6.892,0.010419123222723392
6.896,0.010418546249693185
6.9,0.010409867613697166
6.904,0.010394241260795745
6.908,0.010399986950554883
6.912,0.010405107586197964
6.916,0.01040746355940464
6.92,0.010410901357042953
6.924,0.010418161601006382
6.928,0.010415805627799707
6.932,0.01040700678908906
6.936,0.010401333220958698
6.94,0.010410973478671728
6.944,0.010416358560286988
6.948,0.010410468627270297
6.952,0.010410636911070774
6.956,0.010395299044684456
6.96,0.010392342057904649
6.964,0.010411261965186831
6.968,0.01041157449224486
6.972,0.010397390571918954
6.976,0.010400299477612911
6.98,0.010416863411688418
6.984,0.010429965507582685
6.988,0.010426575791030224
6.992,0.010414170870880788
6.996,0.010408713667636753
7.0,0.010406718302573956
7.0040000000000004,0.010408761748722604
7.008,0.010406333653887151
7.0120000000000005,0.010404170005023878
7.016,0.010400852410100192
7.0200000000000005,0.010401693829102577
7.024,0.010402006356160605
7.0280000000000005,0.010397029963775076
7.032,0.010381692097388755
7.0360000000000005,0.010372003758589874
7.04,0.010376811867174927
7.0440000000000005,0.010406934667460283
7.048,0.010428643277721797
7.0520000000000005,0.010429268331837853
7.056,0.010416791290059641
7.0600000000000005,0.010411141762472204
7.064,0.010414026627623236
7.0680000000000005,0.010419363628152645
7.072,0.010424075574565997
7.0760000000000005,0.01041888281729414
7.08,0.01040796841080607
7.0840000000000005,0.010405540315970619
7.088,0.010404001721223402
7.0920000000000005,0.010409098316323558
7.096,0.010415565222370454
7.1000000000000005,0.010411694694959485
7.104,0.010389889922526272
7.1080000000000005,0.010380466029699567
7.112,0.010396837639431673
7.1160000000000005,0.010410949438128803
7.12,0.010413641978936431
7.1240000000000006,0.010402463126476184
7.128,0.010389264868410216
7.132000000000001,0.0103924863011622
7.136,0.010403304545478569
7.140000000000001,0.010410733073242475
7.144,0.010422897587962658
7.148000000000001,0.01041212742473214
7.152,0.01040477101859701
7.156000000000001,0.010397150166489701
7.16,0.010388327287236128
7.164000000000001,0.01041308904644915
7.168,0.010442033860131168
7.172,0.010457059199459457
7.176,0.010491677581271836
7.18,0.010511823556243208
7.184,0.010503144920247186
7.188,0.010483095107447517
7.192,0.01047557041751191
7.196,0.010456097577742447
7.2,0.010433331183592222
7.204,0.010419652114667747
7.208,0.0104039055590517
7.212,0.010402871815705914
7.216,0.01040573264031402
7.22,0.010407415478318789
7.224,0.010408689627093827
7.228,0.010411526411159009
7.232,0.010408665586550903
7.236,0.01039431338242452
7.24,0.010376763786089076
7.244,0.010392750747134378
7.248,0.010395779855542962
7.252,0.010390346692841852
7.256,0.010392173774104172
7.26,0.010386380003259182
7.264,0.01038207674607556
7.268,0.01039659723400242
7.272,0.010392967112020706
7.276,0.010395154801426904
7.28,0.010407896289177295
7.284,0.010399506139696377
7.288,0.010393015193106555
7.292,0.010400828369557266
7.296,0.01040974741098254
7.3,0.010413930465451535
7.304,0.010411069640843429
7.308,0.010401717869645501
7.312,0.01039928977481005
7.316,0.01039472207165425
7.32,0.010398448355807666
7.324,0.010401741910188427
7.328,0.010398688761236919
7.332,0.010394986517626428
7.336,0.010383831705709104
7.34,0.010376619542831525
7.344,0.01038349513810815
7.348,0.010387533949319594
7.352,0.010390082246869674
7.356,0.010401645748016726
7.36,0.010397751180062833
7.364,0.010391332355101788
7.368,0.01038933699003899
7.372,0.010377893691606563
7.376,0.0103675562581487
7.38,0.010370609407100209
7.384,0.01038486544905489
7.388,0.010406742343116882
7.392,0.010405636478142318
7.396,0.010394577828396699
7.4,0.010391765084874443
7.404,0.010390274571213077
7.408,0.010386548287059658
7.412,0.010387582030405445
7.416,0.010381908462275083
7.42,0.010377364799662208
7.424,0.010380201583727388
7.428,0.01037385488039512
7.432,0.010387173341175716
7.436,0.010397727139519908
7.44,0.010394457625682071
7.444,0.010386452124887957
7.448,0.010392774787677304
7.452,0.010393063274192406
7.456,0.010386139597829929
7.46,0.010391236192930087
7.464,0.010393520044507987
7.468,0.010395299044684456
7.472,0.010393664287765537
7.476,0.010390394773927702
7.48,0.010390298611756001
7.484,0.010388303246693202
7.488,0.010394265301338669
7.492,0.010398111788206712
7.496,0.0103857309086002
7.5,0.010377917732149489
7.5040000000000004,0.01038313452996427
7.508,0.010370104555698778
7.5120000000000005,0.010376499340116899
7.516,0.010389962044155049
7.5200000000000005,0.010391308314558862
7.524,0.010391308314558862
7.5280000000000005,0.010391620841616891
7.532,0.010400587964128015
7.5360000000000005,0.010405468194341842
7.54,0.01039928977481005
7.5440000000000005,0.010395202882512755
7.548,0.010395515409570783
7.5520000000000005,0.010390899625329133
7.556,0.010386932935746463
7.5600000000000005,0.010389938003612122
7.564,0.010387125260089865
7.5680000000000005,0.010386380003259182
7.572,0.010389072544066813
7.5760000000000005,0.010384432719282235
7.58,0.010387437787147893
7.5840000000000005,0.010393231557992884
7.588,0.01037988905666936
7.5920000000000005,0.010374431853425325
7.596,0.010389072544066813
7.6000000000000005,0.01039847239635059
7.604,0.010407175072889536
7.6080000000000005,0.010407199113432462
7.612,0.010397943504406235
7.6160000000000005,0.010392510341705125
7.62,0.010382413313676514
7.6240000000000006,0.010378687029523097
7.628,0.01038359130027985
7.632000000000001,0.01038883213863756
7.636,0.0103948663149118
7.640000000000001,0.010391789125417368
7.644,0.01038669253031721
7.648000000000001,0.010388856179180485
7.652,0.010395972179886364
7.656000000000001,0.01039832815309304
7.66,0.01038924082786729
7.664000000000001,0.010384649084168562
7.668,0.010386788692488911
7.672000000000001,0.010384216354395908
7.676,0.010397534815176506
7.68,0.010402679491362511
7.684,0.0103992416937242
7.688,0.01038476928688319
7.692,0.010385899192400676
7.696,0.010388303246693202
7.7,0.010384673124711488
7.704,0.01039070730098573
7.708,0.010386596368145509
7.712,0.010377893691606563
7.716,0.010376932069889553
7.72,0.01038527413828462
7.724,0.01038924082786729
7.728,0.010387389706062043
7.732,0.010392077611932471
7.736,0.010392702666048527
7.74,0.01039390469319479
7.744,0.01039075538207158
7.748,0.010386908895203537
7.752,0.01038212482716141
7.756,0.010378326421379218
7.76,0.01038674061140306
7.764,0.01040604516737205
7.768,0.010415060370969023
7.772,0.01040974741098254
7.776,0.010396573193459496
7.78,0.010389096584609738
7.784,0.010393039233649481
7.788,0.010406429816058852
7.792,0.01040893003252308
7.796,0.01039878492340862
7.8,0.01038815900343565
7.804,0.010383807665166177
7.808,0.010385394340999245
7.812,0.010396068342058064
7.816,0.010403376667107344
7.82,0.010402727572448362
7.824,0.010384576962539787
7.828,0.010392149733561246
7.832,0.010377773488891937
7.836,0.01037390296148097
7.84,0.01039440954459622
7.844,0.010374888623740905
7.848,0.010364382906482566
7.852,0.010374840542655054
7.856,0.010385514543713873
7.86,0.010412295708532616
7.864,0.010435494832455497
7.868,0.010456217780457073
7.872,0.01048552320228297
7.876,0.010487302202459439
7.88,0.010484585621108884
7.884,0.010492615162445922
7.888,0.010476556079771845
7.892,0.010456001415570746
7.896,0.01044080779244198
7.9,0.01042121474995789
7.904,0.010398881085580321
7.908,0.010395515409570783
7.912,0.01038212482716141
7.916,0.0103811632054444
7.92,0.01038979376035457
7.924,0.010390779422614507
7.928,0.010390947706414983
7.932,0.010385057773398291
7.936,0.010373205785736138
7.94,0.010382341192047737
7.944,0.010388303246693202
7.948,0.010388014760178099
7.952,0.010385346259913395
7.956,0.010375706002200365
7.96,0.010366835041860943
7.964,0.01037993713775521
7.968,0.01038404807059543
7.972,0.010380009259383987
7.976,0.010388447489950754
7.98,0.010385418381542172
7.984,0.010383663421908627
7.988,0.010377773488891937
7.992,0.010371306582845042
7.996,0.01037339811007954
8.0,0.01037476842102628
8.004,0.010375681961657439
8.008000000000001,0.010379720772868884
8.012,0.010379744813411808
8.016,0.010383615340822777
8.02,0.010380249664813239
8.024000000000001,0.010374215488538998
8.028,0.010381860381189233
8.032,0.010370465163842657
8.036,0.010363733811823584
8.040000000000001,0.01037628297523057
8.044,0.010374840542655054
8.048,0.01037354235333709
8.052,0.010380586232414193
8.056000000000001,0.010378542786265545
8.06,0.01037258073162008
8.064,0.010367916866292579
8.068,0.010357675595006418
8.072000000000001,0.0103447177423697
8.076,0.010352675162077963
8.08,0.010354189716282254
8.084,0.010348155540008014
8.088000000000001,0.010349886459098631
8.092,0.01035979116278384
8.096,0.010362099054904665
8.1,0.010364983920055698
8.104000000000001,0.010366738879689242
8.108,0.010369647785383199
8.112,0.010372436488362528
8.116,0.01037308558302151
8.120000000000001,0.010380009259383987
8.124,0.010379456326896706
8.128,0.010381980583903858
8.132,0.010385562624799722
8.136000000000001,0.010378855313323575
8.14,0.010375802164372066
8.144,0.010379576529611332
8.148,0.010383903827337879
8.152000000000001,0.010384096151681281
8.156,0.01038431251656761
8.16,0.010376451259031048
8.164,0.01037582620491499
8.168000000000001,0.010383879786794954
8.172,0.01038815900343565
8.176,0.010383278773221823
8.18,0.010368205352807683
8.184000000000001,0.010350439391585912
8.188,0.010371571028817219
8.192,0.010391813165960292
8.196,0.010379528448525481
8.2,0.010387269503347417
8.204,0.010394433585139147
8.208,0.010389385071124841
8.212,0.010391236192930087
8.216,0.010408160735149472
8.22,0.010409290640666959
8.224,0.010398496436893516
8.228,0.01039075538207158
8.232,0.01039070730098573
8.236,0.010391668922702742
8.24,0.010390130327955525
8.244,0.010386620408688435
8.248,0.01038522605719877
8.252,0.010386981016832313
8.256,0.010390322652298927
8.26,0.010389817800897497
8.264,0.010383062408335496
8.268,0.010374720339940429
8.272,0.010381740178474605
8.276,0.010377364799662208
8.28,0.010382942205620868
8.284,0.010409170437952333
8.288,0.010408256897321173
8.292,0.010393664287765537
8.296,0.010376883988803702
8.3,0.010387221422261566
8.304,0.010389433152210692
8.308,0.010406021126829123
8.312,0.010405468194341842
8.316,0.010389264868410216
8.32,0.01038933699003899
8.324,0.010398207950378413
8.328,0.010396885720517524
8.332,0.010395347125770307
8.336,0.010391260233473011
8.34,0.010385394340999245
8.344,0.010388134962892726
8.348,0.010389433152210692
8.352,0.010380129462098613
8.356,0.010381980583903858
8.36,0.010390995787500834
8.364,0.01038674061140306
8.368,0.010392582463333902
8.372,0.010401789991274278
8.376,0.010388543652122455
8.38,0.010389817800897497
8.384,0.010404698896968234
8.388,0.010415084411511948
8.392,0.01040792032972022
8.396,0.010399962910011957
8.4,0.010390587098271105
8.404,0.010381331489244876
8.408,0.010370945974701163
8.412,0.010382052705532633
8.416,0.01038431251656761
8.42,0.01038765415203422
8.424,0.010392582463333902
8.428,0.010384168273310058
8.432,0.010385899192400676
8.436,0.010386788692488911
8.44,0.010378230259207517
8.444,0.010385754949143124
8.448,0.010404939302397487
8.452,0.01039832815309304
8.456,0.010390539017185254
8.46,0.010396284706944392
8.464,0.010402727572448362
8.468,0.010399506139696377
8.472,0.010400275437069985
8.476,0.010399890788383182
8.48,0.010409098316323558
8.484,0.010414074708709087
8.488,0.010410228221841044
8.492,0.010410492667813222
8.496,0.010403929599594625
8.5,0.010399001288294947
8.504,0.010406886586374432
8.508000000000001,0.010410348424555672
8.512,0.010403929599594625
8.516,0.010395202882512755
8.52,0.010387533949319594
8.524000000000001,0.010389385071124841
8.528,0.010402366964304483
8.532,0.01041765674960495
8.536,0.010411189843558055
8.540000000000001,0.010395659652828335
8.544,0.010382028664989709
8.548,0.010392606503876826
8.552,0.010406718302573956
8.556000000000001,0.010398352193635964
8.56,0.010394505706767922
8.564,0.010407247194518313
8.568,0.010436985346116862
8.572000000000001,0.010476099309456265
8.576,0.010504250785221748
8.58,0.010517328840573093
8.584,0.010502447744502354
8.588000000000001,0.010482349850616834
8.592,0.010474079903850544
8.596,0.010474079903850544
8.6,0.01045907860506518
8.604000000000001,0.010451025023185217
8.608,0.010441192441128783
8.612,0.010416070073771884
8.616,0.01040248716701911
8.620000000000001,0.010402366964304483
8.624,0.010406021126829123
8.628,0.010416502803544538
8.632,0.010404242126652655
8.636000000000001,0.010399770585668554
8.64,0.010403040099506392
8.644,0.010395948139343438
8.648,0.01039431338242452
8.652000000000001,0.01040604516737205
8.656,0.01039654915291657
8.66,0.010398568558522291
8.664,0.010396885720517524
8.668000000000001,0.010390034165783824
8.672,0.010378494705179694
8.676,0.0103744078128824
8.68,0.010380682394585894
8.684000000000001,0.010397414612461879
8.688,0.010404242126652655
8.692,0.010401886153445979
8.696,0.010380778556757595
8.700000000000001,0.010364430987568417
8.704,0.010379744813411808
8.708,0.010395827936628813
8.712,0.010406453856601779
8.716,0.010404121923938027
8.72,0.010401525545302099
8.724,0.010395226923055681
8.728,0.010391332355101788
8.732,0.01038577898968605
8.736,0.010382341192047737
8.74,0.010385346259913395
8.744,0.010382196948790185
8.748,0.01037262881270593
8.752,0.010366811001318017
8.756,0.010383182611050121
8.76,0.010390779422614507
8.764,0.010379913097212286
8.768,0.010364935838969847
8.772,0.01036582533905808
8.776,0.010366354231002437
8.78,0.010375970448172542
8.784,0.01037943228635378
8.788,0.010375465596771112
8.792,0.010384601003082711
8.796,0.010385370300456321
8.8,0.010381499773045352
8.804,0.01038085067838637
8.808,0.010376763786089076
8.812,0.01037024879895633
8.816,0.01036481563625522
8.82,0.010366354231002437
8.824,0.010383615340822777
8.828,0.010386668489774285
8.832,0.010376643583374449
8.836,0.010371595069360145
8.84,0.010363301082050929
8.844,0.010370729609814834
8.848,0.010386860814117686
8.852,0.010388711935922935
8.856,0.010374528015597026
8.86,0.010386596368145509
8.864,0.010412512073418945
8.868,0.010419027060551691
8.872,0.0104106609516137
8.876,0.010395755815000036
8.88,0.010396284706944392
8.884,0.01040248716701911
8.888,0.010404626775339458
8.892,0.010403208383306868
8.896,0.010391188111844236
8.9,0.01037065748818606
8.904,0.010372724974877632
8.908,0.010390178409041375
8.912,0.01039654915291657
8.916,0.010399145531552498
8.92,0.010389192746781439
8.924,0.01037801389432119
8.928,0.010389889922526272
8.932,0.010394217220252818
8.936,0.010404578694253607
8.94,0.010406453856601779
8.944,0.010403184342763943
8.948,0.010398111788206712
8.952,0.010397366531376028
8.956,0.010390683260442806
8.96,0.01038873597646586
8.964,0.010391885287589069
8.968,0.010399121491009572
8.972,0.010402054437246455
8.976,0.010404049802309252
8.98,0.010399313815352975
8.984,0.01040532395108429
8.988,0.010402607369733736
8.992,0.010403160302221017
8.996,0.010410468627270297
9.0,0.010413425614050105
9.004,0.010412824600476973
9.008000000000001,0.010408713667636753
9.012,0.010390106287412599
9.016,0.010379071678209902
9.02,0.010387678192577146
9.024000000000001,0.010397438653004805
9.028,0.010400083112726584
9.032,0.010400010991097807
9.036,0.010393159436364107
9.040000000000001,0.010392245895732947
9.044,0.01039202953084662
9.048,0.01039791946386331
9.052,0.010400010991097807
9.056000000000001,0.01040198231561768
9.06,0.010405924964657422
9.064,0.010399650382953929
9.068,0.010390490936099403
9.072000000000001,0.010391861247046143
9.076,0.010402992018420541
9.08,0.010412103384189216
9.084,0.01040477101859701
9.088000000000001,0.010414339154681264
9.092,0.010415396938569976
9.096,0.010412295708532616
9.1,0.010401453423673324
9.104000000000001,0.010390178409041375
9.108,0.010385298178827544
9.112,0.010387413746604967
9.116,0.010392366098447575
9.120000000000001,0.010390034165783824
9.124,0.010377749448349011
9.128,0.010372244164019127
9.132,0.010382605638019914
9.136000000000001,0.010385202016655843
9.14,0.010386211719458704
9.144,0.010373878920938044
9.148,0.010368157271721832
9.152000000000001,0.010404963342940412
9.156,0.010419267465980944
9.16,0.0104016217074738
9.164,0.010402535248104961
9.168000000000001,0.010399962910011957
9.172,0.010394649950025474
9.176,0.010401549585845025
9.18,0.010406309613344227
9.184000000000001,0.010411646613873634
9.188,0.01041481996553977
9.192,0.010408040532434845
9.196,0.010408088613520695
9.200000000000001,0.01041070903269955
9.204,0.010415060370969023
9.208,0.01040897811360893
9.212,0.010395876017714663
9.216000000000001,0.010402535248104961
9.22,0.010420950303985712
9.224,0.010414291073595414
9.228,0.01041167065441656
9.232,0.010412656316676497
9.236,0.010412512073418945
9.24,0.010408833870351379
9.244,0.010414002587080312
9.248,0.010415637343999229
9.252,0.010409771451525465
9.256,0.010403689194165374
9.26,0.010387053138461088
9.264,0.010391404476730563
9.268,0.010392318017361724
9.272,0.010404338288824356
9.276,0.010439293238237687
9.28,0.010457588091403814
9.284,0.01048785513494672
9.288,0.01053947018060726
9.292,0.010548942154519814
9.296,0.010537667139887866
9.3,0.010534061058449076
9.304,0.010504082501421272
9.308,0.010480234282839411
9.312,0.010452539577389508
9.316,0.01043912495443721
9.32,0.01044395710356519
9.324,0.010440976076242456
9.328,0.010426599831573149
9.332,0.010418305844263932
9.336,0.01041354581676473
9.34,0.010419916560639926
9.344,0.010424604466510352
9.348,0.01042080606072816
9.352,0.010410396505641522
9.356,0.010410949438128803
9.36,0.010426599831573149
9.364,0.010433379264678072
9.368,0.010422368696018303
9.372,0.010404410410453131
9.376,0.010396669355631195
9.38,0.010404939302397487
9.384,0.010407944370263145
9.388,0.010423234155563612
9.392,0.010424989115197156
9.396,0.010416142195400659
9.4,0.01041994060118285
9.404,0.010408088613520695
9.408,0.010399962910011957
9.412,0.010412512073418945
9.416,0.010415420979112902
9.42,0.01040897811360893
9.424,0.010397799261148684
9.428,0.01040193423453183
9.432,0.010410564789441999
9.436,0.010408064572977771
9.44,0.010401477464216248
9.444,0.010401237058786997
9.448,0.010396717436717046
9.452,0.010393664287765537
9.456,0.01038404807059543
9.46,0.010363757852366508
9.464,0.01036253178467732
9.468,0.010393471963422137
9.472,0.010396885720517524
9.476,0.010401886153445979
9.48,0.010396909761060448
9.484,0.010367267771633597
9.488,0.010369623744840272
9.492,0.010378302380836294
9.496,0.010383735543537402
9.5,0.01039755885571943
9.504,0.010392798828220228
9.508000000000001,0.010377292678033431
9.512,0.01037719651586173
9.516,0.010375754083286216
9.52,0.010378542786265545
9.524000000000001,0.010389721638725796
9.528,0.010392678625505603
9.532,0.010393640247222613
9.536,0.010398039666577936
9.540000000000001,0.010394698031111324
9.544,0.010398808963951544
9.548,0.01040578072139987
9.552,0.01040066008575679
9.556000000000001,0.01040893003252308
9.56,0.01041792119557713
9.564,0.01041801735774883
9.568,0.010408184775692397
9.572000000000001,0.010406333653887151
9.576,0.010405949005200348
9.58,0.010405299910541366
9.584,0.010415997952143107
9.588000000000001,0.010417127857660595
9.592,0.010417993317205904
9.596,0.010415565222370454
9.6,0.010410877316500027
9.604000000000001,0.010410781154328325
9.608,0.010420878182356937
9.612,0.010423210115020686
9.616,0.010406958708003209
9.620000000000001,0.01038765415203422
9.624,0.010393183476907033
9.628,0.010408665586550903
9.632,0.010410276302926895
9.636000000000001,0.010401477464216248
9.64,0.010394241260795745
9.644,0.010400852410100192
9.648,0.010411261965186831
9.652000000000001,0.01041354581676473
9.656,0.010411045600300503
9.66,0.01041405066816616
9.664,0.010419459790324345
9.668000000000001,0.01042299375013436
9.672,0.01041481996553977
9.676,0.010404097883395103
9.68,0.010403496869821971
9.684000000000001,0.010407800127005594
9.688,0.01040705487017491
9.692,0.010411598532787785
9.696,0.010419604033581897
9.700000000000001,0.0104175125063474
9.704,0.010409050235237707
9.708,0.010393592166136762
9.712,0.01041354581676473
9.716000000000001,0.010422296574389527
9.72,0.01041893089837999
9.724,0.010416623006259165
9.728,0.010408497302750426
9.732,0.010399049369380797
9.736,0.010407391437775864
9.74,0.010412271667989692
9.744,0.010409987816411791
9.748,0.010405083545655038
9.752,0.010395275004141532
9.756,0.010400323518155835
9.76,0.010416550884630388
9.764,0.010419315547066795
9.768,0.0104175125063474
9.772,0.01041765674960495
9.776,0.010411261965186831
9.78,0.010405299910541366
9.784,0.010399217653181273
9.788,0.010402967977877615
9.792,0.010404097883395103
9.796,0.010395202882512755
9.8,0.010414291073595414
9.804,0.010423522642078716
9.808,0.010427393169489683
9.812,0.010420830101271086
9.816,0.010416863411688418
9.82,0.010421815763531022
9.824,0.010417488465804474
9.828,0.010412031262560439
9.832,0.010407848208091444
9.836,0.010397582896262357
9.84,0.010397847342234534
9.844,0.010382100786618484
9.848,0.010387774354748847
9.852,0.010401525545302099
9.856,0.010391091949672535
9.86,0.010373061542478586
9.864,0.010384841408511964
9.868,0.010406670221488105
9.872,0.010402246761589858
9.876,0.01040897811360893
9.88,0.010410901357042953
9.884,0.010410059938040568
9.888,0.010412752478848198
9.892,0.010421960006788572
9.896,0.010424892953025455
9.9,0.010417728871233727
9.904,0.010417320182003998
9.908,0.010419027060551691
9.912,0.010416070073771884
9.916,0.01041897897946584
9.92,0.010418762614579514
9.924,0.010414699762825143
9.928,0.010412824600476973
9.932,0.010411141762472204
9.936,0.010409651248810839
9.94,0.010407343356690014
9.944,0.010396813598888747
9.948,0.01039436146351037
9.952,0.010412752478848198
9.956,0.010416839371145492
9.96,0.010411261965186831
9.964,0.010413641978936431
9.968,0.010419003020008765
9.972,0.010404290207738505
9.976,0.01038532221937047
9.98,0.010392414179533424
9.984,0.010406525978230554
9.988,0.010406165370086675
9.992,0.010418858776751213
9.996,0.010446721766001595
10.0,0.010468430376263107
10.004,0.01049343254090538
10.008000000000001,0.01052170421938549
10.012,0.010522305232958622
10.016,0.010513746799677228
10.02,0.010499082068492817
10.024000000000001,0.01047835912049124
10.028,0.010448837333779017
10.032,0.01043907687335136
10.036,0.010437345954260742
10.040000000000001,0.010429604899438807
10.044,0.010414170870880788
10.048,0.010400275437069985
10.052,0.010396260666401466
10.056000000000001,0.010404843140225786
10.06,0.010416358560286988
10.064,0.010415541181827527
10.068,0.010410011856954718
10.072000000000001,0.010405804761942796
10.076,0.01040344878873612
10.08,0.010402222721046931
10.084,0.010401862112903053
10.088000000000001,0.010394794193283026
10.092,0.010373975083109745
10.096,0.010373638515508791
10.1,0.010372989420849809
10.104000000000001,0.010386307881630405
10.108,0.010411502370616084
10.112,0.010408545383836277
10.116,0.010405131626740888
10.120000000000001,0.010407607802662191
10.124,0.010395347125770307
10.128,0.010379215921467453
10.132,0.010399914828926106
10.136000000000001,0.010405804761942796
10.14,0.010391188111844236
10.144,0.010392750747134378
10.148,0.010400587964128015
10.152000000000001,0.010406117289000824
10.156,0.010391717003788593
10.16,0.010380417948613717
10.164,0.010384240394938833
10.168000000000001,0.010394601868939623
10.172,0.010396885720517524
10.176,0.01038532221937047
10.18,0.010371763353160621
10.184000000000001,0.01036608978503026
10.188,0.01036709948783312
10.192,0.010374840542655054
10.196,0.010377653286177312
10.200000000000001,0.010371955677504024
10.204,0.01037359043442294
10.208,0.01038842344940783
10.212,0.010388303246693202
10.216000000000001,0.010384937570683666
10.22,0.010384168273310058
10.224,0.0103744078128824
10.228,0.010355560027228993
10.232000000000001,0.010364575230825967
10.236,0.010370272839499255
10.24,0.010376475299573973
10.244,0.010377893691606563
10.248,0.010374600137225803
10.252,0.010377124394232955
10.256,0.010372508609991305
10.26,0.01036202693327589
10.264,0.010367436055434075
10.268,0.010367075447290194
10.272,0.010367916866292579
10.276,0.010380201583727388
10.28,0.010385562624799722
10.284,0.010394553787853773
10.288,0.010400299477612911
10.292,0.010388014760178099
10.296,0.01038450484091101
10.3,0.010397751180062833
10.304,0.01039385661210894
10.308,0.010383519178651076
10.312,0.010386956976289387
10.316,0.010385706868057273
10.32,0.010385634746428498
10.324,0.010387341624976192
10.328,0.010398808963951544
10.332,0.010397751180062833
10.336,0.010383302813764747
10.34,0.010370008393527077
10.344,0.010375104988627233
10.348,0.010378831272780649
10.352,0.010375898326543767
10.356,0.01037993713775521
10.36,0.010385057773398291
10.364,0.010385298178827544
10.368,0.01038039390807079
10.372,0.010377605205091461
10.376,0.01039339984179336
10.38,0.010405179707826739
10.384,0.0103992416937242
10.388,0.010391572760531041
10.392,0.010391091949672535
10.396,0.010402607369733736
10.4,0.01039481823382595
10.404,0.010375994488715467
10.408,0.010382605638019914
10.412,0.010396525112373645
10.416,0.01039568369337126
10.42,0.010388591733208307
10.424,0.010391356395644712
10.428,0.010395034598712279
10.432,0.01039051497664233
10.436,0.010383903827337879
10.44,0.01038883213863756
10.444,0.010394145098624043
10.448,0.01039121215238716
10.452,0.010379768853954734
10.456,0.0103858270707719
10.46,0.01039198144976077
10.464,0.010390298611756001
10.468,0.010381427651416577
10.472,0.010363709771280658
10.476,0.010366330190459511
10.48,0.010384144232767132
10.484,0.010393544085050912
10.488,0.010387461827690818
10.492,0.010389505273839467
10.496,0.010381379570330727
10.5,0.010363781892909435
10.504,0.010367339893262374
10.508000000000001,0.01039101982804376
10.512,0.010403785356337075
10.516,0.010391091949672535
10.52,0.010386500205973807
10.524000000000001,0.010400419680327537
10.528,0.010396957842146299
10.532,0.010392702666048527
10.536,0.010389072544066813
10.540000000000001,0.010382220989333111
10.544,0.010379288043096228
10.548,0.010377533083462684
10.552,0.010376932069889553
10.556000000000001,0.010370970015244087
10.56,0.010369455461039796
10.564,0.010365224325484949
10.568,0.010360151770927719
10.572000000000001,0.010378687029523097
10.576,0.010387077179004015
10.58,0.010393520044507987
10.584,0.010391380436187639
10.588000000000001,0.010384408678739309
10.592,0.010380634313500043
10.596,0.010382437354219438
10.6,0.010383783624623253
10.604000000000001,0.010391308314558862
10.608,0.010399962910011957
10.612,0.010396789558345823
10.616,0.010396909761060448
10.620000000000001,0.010395202882512755
10.624,0.010394433585139147
10.628,0.010379624610697183
10.632,0.010360127730384795
10.636000000000001,0.010366786960775093
10.64,0.010368638082580338
10.644,0.010376379137402272
10.648,0.010382605638019914
10.652000000000001,0.010390442855013553
10.656,0.010389889922526272
10.66,0.010379696732325958
10.664,0.010392414179533424
10.668000000000001,0.010402246761589858
10.672,0.010395323085227382
10.676,0.010386788692488911
10.68,0.010393520044507987
10.684000000000001,0.010400804329014341
10.688,0.010396284706944392
10.692,0.010383975948966655
10.696,0.010358132365321997
10.700000000000001,0.010341880958304519
10.704,0.010355896594829947
10.708,0.010379023597124051
10.712,0.010406405775515928
10.716000000000001,0.010429244291294928
10.72,0.01045003936092528
10.724,0.01047328656593401
10.728,0.01047816679614784
10.732000000000001,0.010472348984759924
10.736,0.010459511334837834
10.74,0.010441360724929261
10.744,0.010419411709238496
10.748000000000001,0.010410805194871251
10.752,0.010407535681033414
10.756,0.010402727572448362
10.76,0.0103923901389905
10.764,0.010387029097918164
10.768,0.010394097017538193
10.772,0.010382485435305289
10.776,0.010372773055963482
10.78,0.010374528015597026
10.784,0.010379961178298137
10.788,0.010376763786089076
10.792,0.010374479934511176
10.796,0.01036842171769401
10.8,0.01037070556927191
10.804,0.010364647352454744
10.808,0.010352194351219457
10.812,0.010343275309794184
10.816,0.010359815203326765
10.82,0.010378278340293368
10.824,0.010376956110432479
10.828,0.010367363933805298
10.832,0.010358541054551727
10.836,0.010368758285294963
10.84,0.010377917732149489
10.844,0.010380634313500043
10.848,0.010376018529258393
10.852,0.010368878488009589
10.856,0.010364935838969847
10.86,0.010362507744134395
10.864,0.010360584500700374
10.868,0.01035298768913599
10.872,0.010348588269780667
10.876,0.010363301082050929
10.88,0.010370585366557283
10.884,0.01035075191864394
10.888,0.010351761621446803
10.892,0.010378206218664593
10.896,0.010378494705179694
10.9,0.010368157271721832
10.904,0.0103675562581487
10.908,0.010358565095094651
10.912,0.010351617378189251
10.916,0.010344621580197999
10.92,0.010338563363380833
10.924,0.010344549458569224
10.928,0.010353564662166198
10.932,0.01036947950158272
10.936,0.010370272839499255
10.94,0.010363373203679704
10.944,0.010338010430893552
10.948,0.010332529187106592
10.952,0.010345030269427728
10.956,0.010358036203150296
10.96,0.010363541487480182
10.964,0.010357891959892744
10.968,0.010343491674680511
10.972,0.010349694134755229
10.976,0.010355872554287023
10.98,0.010361377838616908
10.984,0.010362075014361741
10.988,0.010355247500170965
10.992,0.010355439824514368
10.996,0.010353829108138375
11.0,0.010344236931511194
11.004,0.010353276175651094
11.008000000000001,0.010373638515508791
11.012,0.01038111512435855
11.016,0.01037623489414472
11.02,0.010371306582845042
11.024000000000001,0.010371907596418173
11.028,0.010370128596241703
11.032,0.010367147568918971
11.036,0.01037335002899369
11.040000000000001,0.010381018962186848
11.044,0.01038034582698494
11.048,0.010375153069713084
11.052,0.010364286744310865
11.056000000000001,0.010338010430893552
11.06,0.01034197712047622
11.064,0.010363781892909435
11.068,0.010371282542302115
11.072000000000001,0.010373999123652672
11.076,0.010378542786265545
11.08,0.010369888190812452
11.084,0.010381283408159026
11.088000000000001,0.010386404043802106
11.092,0.010382220989333111
11.096,0.010377797529434862
11.1,0.010373422150622464
11.104000000000001,0.010371979718046948
11.108,0.010372316285647902
11.112,0.010369335258325169
11.116,0.010370320920585105
11.120000000000001,0.010373662556051717
11.124,0.010371042136872864
11.128,0.010379071678209902
11.132,0.010383350894850598
11.136000000000001,0.010361281676445207
11.14,0.010340895296044584
11.144,0.010358444892380025
11.148,0.010383374935393524
11.152000000000001,0.010397991585492086
11.156,0.010398688761236919
11.16,0.01039385661210894
11.164,0.010387053138461088
11.168000000000001,0.010385851111314825
11.172,0.010388591733208307
11.176,0.010381451691959502
11.18,0.01037851874572262
11.184000000000001,0.010382341192047737
11.188,0.010380490070242492
11.192,0.010362002892732964
11.196,0.010365897460686857
11.200000000000001,0.010370513244928508
11.204,0.010370777690900685
11.208,0.010370128596241703
11.212,0.01036395017670991
11.216000000000001,0.010355728311029471
11.22,0.010362796230649498
11.224,0.010377605205091461
11.228,0.01037308558302151
11.232000000000001,0.010368037069007206
11.236,0.010368109190635981
11.24,0.01038080259730052
11.244,0.010392750747134378
11.248000000000001,0.010392101652475396
11.252,0.010384144232767132
11.256,0.010372989420849809
11.26,0.010360584500700374
11.264,0.010358444892380025
11.268,0.010374047204738522
11.272,0.010382413313676514
11.276,0.01037385488039512
11.28,0.010357651554463491
11.284,0.010348395945437265
11.288,0.01036024793309942
11.292,0.01037984097558351
11.296,0.010380490070242492
11.3,0.010366330190459511
11.304,0.010359839243869691
11.308,0.010378110056492891
11.312,0.010377436921290983
11.316,0.0103743116507107
11.32,0.010374888623740905
11.324,0.010373638515508791
11.328,0.010363469365851405
11.332,0.01037313366410736
11.336,0.010377749448349011
11.34,0.010379119759295752
11.344,0.01037993713775521
11.348,0.010374624177768728
11.352,0.010376042569801317
11.356,0.010375129029170158
11.36,0.010383711502994478
11.364,0.010384528881453936
11.368,0.010380009259383987
11.372,0.010366234028287812
11.376,0.010352314553934084
11.38,0.010351208688959522
11.384,0.010380682394585894
11.388,0.01038815900343565
11.392,0.010382942205620868
11.396,0.01038714930063279
11.4,0.010396981882689225
11.404,0.01039563561228541
11.408,0.010388591733208307
11.412,0.010370609407100209
11.416,0.01035517537854219
11.42,0.010358709338352203
11.424,0.010363421284765554
11.428,0.010371546988274295
11.432,0.010389649517097019
11.436,0.010409819532611315
11.44,0.0104289317642369
11.444,0.010460208510582667
11.448,0.010469560281780595
11.452,0.010479368823294102
11.456,0.010488504229605702
11.46,0.010449246023008747
11.464,0.010432129156445959
11.468,0.010421094547243263
11.472,0.010402222721046931
11.476,0.010396525112373645
11.48,0.010387822435834698
11.484,0.010379648651240107
11.488,0.010379071678209902
11.492,0.010370272839499255
11.496,0.010364142501053313
11.5,0.010365176244399098
11.504,0.010356257202973826
11.508000000000001,0.010357627513920567
11.512,0.01037171527207477
11.516,0.010378206218664593
11.52,0.01036431078485379
11.524000000000001,0.010353925270310076
11.528,0.010358541054551727
11.532,0.0103743116507107
11.536,0.010380610272957119
11.540000000000001,0.010380586232414193
11.544,0.010375513677856963
11.548,0.010372869218135183
11.552,0.010368109190635981
11.556000000000001,0.010374023164195596
11.56,0.010373999123652672
11.564,0.010376571461745674
11.568,0.010372508609991305
11.572000000000001,0.010353324256736945
11.576,0.010339549025640769
11.58,0.010355247500170965
11.584,0.010360608541243299
11.588000000000001,0.010362002892732964
11.592,0.01035152121601755
11.596,0.010339549025640769
11.6,0.01034887675629577
11.604000000000001,0.010350535553757614
11.608,0.010352074148504831
11.612,0.010360608541243299
11.616,0.01035512729745634
11.620000000000001,0.01035101636461612
11.624,0.010343082985450782
11.628,0.010333009997965097
11.632,0.010332000295162236
11.636000000000001,0.010339669228355395
11.64,0.01035248283773456
11.644,0.01036065662232915
11.648,0.0103697439475549
11.652000000000001,0.010368830406923739
11.656,0.010358156405864922
11.66,0.010350391310500062
11.664,0.010344429255854597
11.668000000000001,0.01034298682327908
11.672,0.010347121796662227
11.676,0.01034334743142296
11.68,0.010347626648063657
11.684000000000001,0.010339380741840291
11.688,0.0103264469297465
11.692,0.010325413186400715
11.696,0.010336255471260008
11.700000000000001,0.010349646053669379
11.704,0.010357363067948388
11.708,0.010359550757354587
11.712,0.010363228960422154
11.716000000000001,0.010357266905776688
11.72,0.010343179147622483
11.724,0.010349646053669379
11.728,0.010367604339234551
11.732000000000001,0.010371571028817219
11.736,0.010372989420849809
11.74,0.010372148001847426
11.744,0.010374455893968251
11.748000000000001,0.010374528015597026
11.752,0.010355367702885592
11.756,0.01033416394402551
11.76,0.010343395512508811
11.764000000000001,0.010376956110432479
11.768,0.010385971314029453
11.772,0.010373999123652672
11.776,0.010368493839322786
11.78,0.010376956110432479
11.784,0.010375994488715467
11.788,0.010370441123299733
11.792,0.010375609840028664
11.796,0.010371643150445996
11.8,0.010364214622682088
11.804,0.010356954378718659
11.808,0.010355247500170965
11.812,0.010362075014361741
11.816,0.01035933439246826
11.82,0.010340895296044584
11.824,0.010336183349631232
11.828,0.010360007527670167
11.832,0.010357747716635193
11.836,0.01034613613440229
11.84,0.01036486371734107
11.844,0.010369191015067619
11.848,0.010370104555698778
11.852,0.01037171527207477
11.856,0.010379336124182079
11.86,0.010372051839675725
11.864,0.010361257635902281
11.868,0.010368614042037412
11.872,0.01037262881270593
11.876,0.010373830839852194
11.88,0.010372869218135183
11.884,0.010367868785206728
11.888,0.010348468067066042
11.892,0.01035029514832836
11.896,0.010350944242987343
11.9,0.010351304851131221
11.904,0.01035440608116858
11.908,0.010350824040272717
11.912,0.010352122229590682
11.916,0.010351088486244895
11.92,0.010351713540360952
11.924,0.010361594203503235
11.928,0.01038577898968605
11.932,0.010385803030228975
11.936,0.010380153502641537
11.94,0.010383711502994478
11.944,0.010387990719635174
11.948,0.010379961178298137
11.952,0.010369912231355376
11.956,0.010364671392997668
11.96,0.010363637649651883
11.964,0.010359983487127243
11.968,0.01035969500061214
11.972,0.010363613609108957
11.976,0.010357627513920567
11.98,0.01035837277075125
11.984,0.010354694567683684
11.988,0.010352194351219457
11.992,0.010359166108667783
11.996,0.01037121042067334
12.0,0.01036563301471468
12.004,0.010361690365674936
12.008000000000001,0.01036029601418527
12.012,0.010369263136696394
12.016,0.010369864150269525
12.02,0.010354814770398311
12.024000000000001,0.010348203621093864
12.028,0.010361377838616908
12.032,0.010367868785206728
12.036,0.010367315852719447
12.040000000000001,0.010369022731267141
12.044,0.01035760347337764
12.048,0.010351857783618504
12.052,0.010358685297809278
12.056000000000001,0.010366738879689242
12.06,0.010363781892909435
12.064,0.010368878488009589
12.068,0.010371186380130414
12.072000000000001,0.010374239529081923
12.076,0.01037481650211213
12.08,0.010373782758766343
12.084,0.010375609840028664
12.088000000000001,0.010371763353160621
12.092,0.010371546988274295
12.096,0.010378590867351396
12.1,0.01037308558302151
12.104000000000001,0.010368782325837888
12.108,0.01036851787986571
12.112,0.010359454595182886
12.116,0.010354093554110553
12.120000000000001,0.010347794931864133
12.124,0.010346713107432497
12.128,0.010353035770221841
12.132,0.01034979029692693
12.136000000000001,0.010359646919526289
12.14,0.010407223153975386
12.144,0.010453044428790938
12.148,0.010477782147461034
12.152000000000001,0.010468502497891883
12.156,0.010469247754722567
12.16,0.010478022552890287
12.164,0.010458910321264702
12.168000000000001,0.010428715399350572
12.172,0.01041426703305249
12.176,0.01039568369337126
12.18,0.010368950609638366
12.184000000000001,0.010363589568566032
12.188,0.01036431078485379
12.192,0.010358613176180502
12.196,0.010355968716458724
12.200000000000001,0.01035705054089036
12.204,0.01035339637836572
12.208,0.010350679797015165
12.212,0.01034334743142296
12.216000000000001,0.010343203188165409
12.22,0.010350102823984958
12.224,0.010352963648593066
12.228,0.010351184648416596
12.232000000000001,0.010347217958833928
12.236,0.010354574364969059
12.24,0.010366762920232166
12.244,0.010367315852719447
12.248000000000001,0.010347314121005629
12.252,0.01035202606741898
12.256,0.010350775959186867
12.26,0.010353468499994497
12.264000000000001,0.01035512729745634
12.268,0.010345511080286234
12.272,0.010344092688253642
12.276,0.010349261404982575
12.280000000000001,0.010350487472671763
12.284,0.010339500944554918
12.288,0.010325701672915816
12.292,0.010319114564154295
12.296,0.010347145837205151
12.3,0.010361786527846637
12.304,0.010354598405511983
12.308,0.010345150472142356
12.312,0.010332457065477816
12.316,0.010316325861174964
12.32,0.010322143672562878
12.324,0.01034618421548814
12.328,0.010358468932922952
12.332,0.010355560027228993
12.336,0.010347843012949984
12.34,0.010336856484833139
12.344,0.010332529187106592
12.348,0.010336616079403886
12.352,0.010332577268192443
12.356,0.010334187984568435
12.36,0.010324307321426151
12.364,0.010325918037802145
12.368,0.010329163511097054
12.372,0.010338226795779878
12.376,0.010344236931511194
12.38,0.010321302253560493
12.384,0.010313465036566858
12.388,0.010329331794897532
12.392,0.010339068214782263
12.396,0.010343107025993708
12.4,0.010340654890615331
12.404,0.010334139903482585
12.408,0.01033060594367257
12.412,0.010326663294632827
12.416,0.010338659525552534
12.42,0.01035421375682518
12.424,0.010353732945966674
12.428,0.010358444892380025
12.432,0.010357363067948388
12.436,0.010339933674327572
12.44,0.010334500511626463
12.444,0.01034111166093091
12.448,0.01035344445945157
12.452,0.010362459663048544
12.456,0.010365128163313248
12.46,0.010362243298162217
12.464,0.010353997391938851
12.468,0.0103492854455255
12.472,0.010349958580727408
12.476,0.010355247500170965
12.48,0.010357459230120089
12.484,0.010360031568213093
12.488,0.010352699202620887
12.492,0.010348107458922163
12.496,0.010336856484833139
12.5,0.010341592471789417
12.504,0.010341712674504042
12.508000000000001,0.01033918841749689
12.512,0.010349453729325978
12.516,0.010349718175298155
12.52,0.010339717309441245
12.524000000000001,0.010343900363910242
12.528,0.01035416567573933
12.532,0.010357242865233762
12.536,0.010345318755942832
12.540000000000001,0.010352843445878439
12.544,0.01034878059412407
12.548,0.010338058511979402
12.552,0.010347602607520733
12.556000000000001,0.01036120955481643
12.56,0.010358492973465876
12.564,0.010350944242987343
12.568,0.010343179147622483
12.572000000000001,0.010349597972583528
12.576,0.010359406514097036
12.58,0.010356449527317228
12.584,0.010351905864704353
12.588000000000001,0.01034791513457876
12.592,0.010342313688077174
12.596,0.010339500944554918
12.6,0.010347266039919778
12.604000000000001,0.01035192990524728
12.608,0.010345078350513579
12.612,0.010352338594477008
12.616,0.010347674729149508
12.620000000000001,0.010347602607520733
12.624,0.010349117161725024
12.628,0.010337553660577972
12.632,0.010337697903835524
12.636000000000001,0.010344525418026298
12.64,0.010347746850778283
12.644,0.01034618421548814
12.648,0.010343395512508811
12.652000000000001,0.010333394646651901
12.656,0.010339500944554918
12.66,0.010353468499994497
12.664,0.010359142068124858
12.668000000000001,0.010356401446231378
12.672,0.010344693701826774
12.676,0.010338226795779878
12.68,0.010343034904364931
12.684000000000001,0.010344140769339493
12.688,0.010339428822926142
12.692,0.01033882780935301
12.696,0.010336279511802932
12.700000000000001,0.01033207241679101
12.704,0.010326206524317247
12.708,0.010331687768104208
12.712,0.010340029836499273
12.716000000000001,0.01033284171416462
12.72,0.010333875457510406
12.724,0.010334933241399119
12.728,0.010334909200856193
12.732000000000001,0.010342506012420576
12.736,0.010353083851307692
12.74,0.010337289214605794
12.744,0.010337770025464299
12.748000000000001,0.010359069946496083
12.752,0.010354237797368104
12.756,0.010359622878983364
12.76,0.010361089352101805
12.764000000000001,0.010351328891674148
12.768,0.010350391310500062
12.772,0.010349477769868902
12.776,0.010349381607697201
12.780000000000001,0.010349549891497677
12.784,0.010339500944554918
12.788,0.01034051064735778
12.792,0.010344453296397523
12.796000000000001,0.010345342796485756
12.8,0.010337529620035046
12.804,0.010336327592888783
12.808,0.010337673863292597
12.812,0.010345823607344262
12.816,0.010356762054375256
12.82,0.010351593337646325
12.824,0.010336375673974633
12.828,0.010334909200856193
12.832,0.010330365538243317
12.836,0.010332721511449993
12.84,0.010353564662166198
12.844,0.010378783191694798
12.848,0.01039751077463358
12.852,0.010421767682445172
12.856,0.010439870211267894
12.86,0.010443981144108114
12.864,0.010436216048743254
12.868,0.010429364494009554
12.872,0.010413377532964254
12.876,0.010389481233296543
12.88,0.010377605205091461
12.884,0.010363180879336303
12.888,0.01034695351286175
12.892,0.01034741028317733
12.896,0.010345871688430113
12.9,0.010337217092977018
12.904,0.010335702538772727
12.908,0.010331952214076385
12.912,0.010346280377659842
12.916,0.010356161040802125
12.92,0.010341135701473835
12.924,0.010327985524493717
12.928,0.010339260539125665
12.932,0.01034563128300086
12.936,0.01034010195812805
12.94,0.010335269809000071
12.944,0.010341832877218668
12.948,0.010351953945790204
12.952,0.010351376972759998
12.956,0.010348059377836312
12.96,0.010347674729149508
12.964,0.010332312822220264
12.968,0.010316590307147142
12.972,0.010314691104256046
12.976,0.010325918037802145
12.98,0.010336616079403886
12.984,0.010337770025464299
12.988,0.0103218792265907
12.992,0.010321518618446822
12.996,0.010331856051904684
13.0,0.010329235632725831
13.004,0.010334933241399119
13.008000000000001,0.010336303552345858
13.012,0.010325461267486563
13.016,0.010322456199620906
13.02,0.010308296319837927
13.024000000000001,0.010308921373953983
13.028,0.010331086754531076
13.032,0.01034933352661135
13.036,0.010343131066536632
13.040000000000001,0.010334428389997688
13.044,0.010327504713635211
13.048,0.010329403916526307
13.052,0.010325918037802145
13.056000000000001,0.010321037807588316
13.06,0.010318321226237761
13.064,0.010318874158725042
13.068,0.01031553252325843
13.072000000000001,0.010305964387174175
13.076,0.010306517319661456
13.08,0.01032334569970914
13.084,0.010324956416085133
13.088000000000001,0.010315340198915028
13.092,0.010324475605226629
13.096,0.010326831578433305
13.1,0.010309931076756844
13.104000000000001,0.010309017536125684
13.108,0.010321638821161447
13.112,0.010324403483597852
13.116,0.010321951348219475
13.120000000000001,0.010314787266427747
13.124,0.010325918037802145
13.128,0.010331591605932507
13.132,0.010324042875453973
13.136000000000001,0.010318705874924566
13.14,0.010327937443407867
13.144,0.010334933241399119
13.148,0.010328081686665418
13.152000000000001,0.010335462133343474
13.156,0.01034147226907479
13.16,0.010340174079756825
13.164,0.010345318755942832
13.168000000000001,0.010337072849719466
13.172,0.010343179147622483
13.176,0.010340919336587508
13.18,0.010340390444643154
13.184000000000001,0.010330125132814066
13.188,0.01032284084830771
13.192,0.010333154241222648
13.196,0.010332240700591489
13.200000000000001,0.010332481106020742
13.204,0.010334476471083537
13.208,0.010334284146740137
13.212,0.01032132629410342
13.216000000000001,0.010320028104785455
13.22,0.01032822592992297
13.224,0.010330197254442841
13.228,0.01033192817353346
13.232000000000001,0.010338010430893552
13.236,0.010344549458569224
13.24,0.010340727012244106
13.244,0.01033594294420198
13.248000000000001,0.010338082552522327
13.252,0.010334500511626463
13.256,0.010331856051904684
13.26,0.010341279944731387
13.264000000000001,0.01034618421548814
13.268,0.010344597539655075
13.272,0.010342866620564455
13.276,0.010337770025464299
13.280000000000001,0.010330846349101823
13.284,0.0103286346191527
13.288,0.010326278645946024
13.292,0.010324788132284657
13.296000000000001,0.010324860253913432
13.3,0.01032461984848418
13.304,0.010341135701473835
13.308,0.010338346998494506
13.312000000000001,0.01032461984848418
13.316,0.010323105294279888
13.32,0.010344140769339493
13.324,0.010347386242634404
13.328,0.010335774660401502
13.332,0.010341039539302136
13.336,0.010350775959186867
13.34,0.01034695351286175
13.344,0.010343227228708333
13.348,0.010330389578786243
13.352,0.010328802902953176
13.356,0.01033147140321788
13.36,0.010334404349454762
13.364,0.010330629984215496
13.368,0.010324884294456358
13.372,0.010324884294456358
13.376,0.010317672131578779
13.38,0.010322648523964308
13.384,0.010329812605756036
13.388,0.010320364672386409
13.392,0.010317648091035853
13.396,0.010333971619682107
13.4,0.010333394646651901
13.404,0.010331904132990535
13.408,0.01033517364682837
13.412,0.010329884727384813
13.416,0.010329884727384813
13.42,0.010344477336940447
13.424,0.010348468067066042
13.428,0.01034192903939037
13.432,0.010337217092977018
13.436,0.010330293416614542
13.44,0.010329235632725831
13.444,0.010326519051375277
13.448,0.010333442727737752
13.452,0.010334813038684491
13.456,0.010332889795250471
13.46,0.01030923390101201
13.464,0.010309137738840311
13.468,0.01033877972826716
13.472,0.010341303985274313
13.476,0.010338659525552534
13.48,0.010336423755060484
13.484,0.010332096457333937
13.488,0.010335654457686876
13.492,0.010334139903482585
13.496,0.010335317890085922
13.5,0.010327817240693241
13.504,0.010323105294279888
13.508000000000001,0.010327528754178137
13.512,0.010331303119417403
13.516,0.010336976687547765
13.52,0.010337144971348243
13.524000000000001,0.010337144971348243
13.528,0.010330269376071616
13.532,0.010314138171768765
13.536,0.010309834914585142
13.540000000000001,0.010311950482362567
13.544,0.010320725280530288
13.548,0.010350631715929315
13.552,0.010366762920232166
13.556000000000001,0.010384625043625638
13.56,0.010417897155034203
13.564,0.01044318780619158
13.568,0.010439197076065988
13.572000000000001,0.010418906857837064
13.576,0.010404843140225786
13.58,0.010392726706591453
13.584,0.01038500969231244
13.588000000000001,0.010374383772339475
13.592,0.010352170310676532
13.596,0.01033553425497225
13.6,0.01032721622712011
13.604000000000001,0.010323994794368123
13.608,0.010329259673268755
13.612,0.010319523253384024
13.616,0.010308320360380851
13.620000000000001,0.010314306455569243
13.624,0.010321759023876075
13.628,0.01032699986223378
13.632,0.010345559161372085
13.636000000000001,0.010342337728620098
13.64,0.01033183201136176
13.644,0.010334187984568435
13.648,0.010342097323190847
13.652000000000001,0.010338298917408655
13.656,0.010335606376601025
13.66,0.010326278645946024
13.664,0.010321807104961925
13.668000000000001,0.010326807537890378
13.672,0.010324403483597852
13.676,0.01031990790207083
13.68,0.010319715577727427
13.684000000000001,0.010304642157313287
13.688,0.010296588575433323
13.692,0.010297718480950811
13.696,0.010305772062830773
13.700000000000001,0.01032014830750008
13.704,0.010303031440937294
13.708,0.010281539195562106
13.712,0.010309882995670993
13.716000000000001,0.01033192817353346
13.72,0.010344549458569224
13.724,0.010336976687547765
13.728,0.010317023036919797
13.732000000000001,0.010323682267310095
13.736,0.010325557429658265
13.74,0.01032695178114793
13.744,0.010324547726855404
13.748000000000001,0.010320124266957156
13.752,0.010314643023170195
13.756,0.010313224631137605
13.76,0.010310387847072425
13.764000000000001,0.010310195522729023
13.768,0.010308248238752076
13.772,0.010299377278412654
13.776,0.01029639625108992
13.780000000000001,0.010294857656342703
13.784,0.0102943768454842
13.788,0.01030904157666861
13.792,0.01030776742789357
13.796000000000001,0.010287236804235394
13.8,0.010285770331116953
13.804,0.010297550197150333
13.808,0.01031416221231169
13.812000000000001,0.010322360037449206
13.816,0.010315412320543805
13.82,0.010297021305205978
13.824,0.01029533846720121
13.828,0.010319306888497698
13.832,0.010340582768986554
13.836,0.010335822741487352
13.84,0.010319330929040622
13.844,0.010310532090329975
13.848,0.010316542226061291
13.852,0.010316710509861769
13.856,0.010321278213017569
13.86,0.010325749754001667
13.864,0.010330485740957945
13.868,0.010329211592182905
13.872,0.010325389145857788
13.876,0.010329115430011204
13.88,0.010334861119770342
13.884,0.010326134402688472
13.888,0.010326519051375277
13.892,0.010330077051728215
13.896,0.010331182916702777
13.9,0.010329163511097054
13.904,0.010329091389468279
13.908,0.010323201456451589
13.912,0.010321158010302943
13.916,0.010320773361616138
13.92,0.01032014830750008
13.924,0.010311902401276716
13.928,0.01029863202158197
13.932,0.010292982493994534
13.936,0.01031228704996352
13.94,0.010325196821514386
13.944,0.010319763658813277
13.948,0.010310700374130453
13.952,0.010304954684371315
13.956,0.010333034038508023
13.96,0.010355848513744097
13.964,0.010351256770045373
13.968,0.010342385809705949
13.972,0.010334933241399119
13.976,0.01032740855146351
13.98,0.010327600875806912
13.984,0.010330629984215496
13.988,0.010333659092624079
13.992,0.010332240700591489
13.996,0.010324475605226629
14.0,0.010316830712576395
14.004,0.010316638388232992
14.008000000000001,0.01032279276722186
14.012,0.010330004930099439
14.016,0.010331543524846656
14.02,0.010330245335528692
14.024000000000001,0.010317383645063676
14.028,0.0103218792265907
14.032,0.010340462566271929
14.036,0.010336976687547765
14.040000000000001,0.010333370606108975
14.044,0.010323586105138394
14.048,0.010330269376071616
14.052,0.010338130633608177
14.056000000000001,0.01033837103903743
14.06,0.010340943377130435
14.064,0.010332913835793395
14.068,0.010320797402159063
14.072000000000001,0.01032959624086971
14.076,0.010329764524670186
14.08,0.010337842147093075
14.084,0.010328514416438072
14.088000000000001,0.010315652725973058
14.092,0.01031872991546749
14.096,0.010324908334999282
14.1,0.010325966118887996
14.104000000000001,0.010325725713458743
14.108,0.010333202322308499
14.112,0.010327961483950791
14.116,0.010326831578433305
14.120000000000001,0.010328754821867325
14.124,0.010330966551816449
14.128,0.010329211592182905
14.132,0.010320629118358586
14.136000000000001,0.010318898199267967
14.14,0.010323730348395945
14.144,0.010313753523081962
14.148,0.01030091587315987
14.152000000000001,0.010309834914585142
14.156,0.010328129767751269
14.16,0.010347939175121685
14.164,0.010352314553934084
14.168000000000001,0.010340198120299751
14.172,0.010329860686841887
14.176,0.010322215794191654
14.18,0.010308921373953983
14.184000000000001,0.010314811306970673
14.188,0.010318465469495313
14.192,0.010330846349101823
14.196,0.010349597972583528
14.200000000000001,0.010340029836499273
14.204,0.010330413619329168
14.208,0.010332168578962712
14.212,0.01033284171416462
14.216000000000001,0.010334187984568435
14.22,0.010329548159783859
14.224,0.010324667929570031
14.228,0.010323922672739348
14.232000000000001,0.010327480673092287
14.236,0.010326735416261603
14.24,0.010329451997612158
14.244,0.01031269573919325
14.248000000000001,0.010308560765810104
14.252,0.010312864022993726
14.256,0.010311902401276716
14.26,0.01031868183438164
14.264000000000001,0.010330173213899917
14.268,0.010359478635725812
14.272,0.01039015436849845
14.276,0.010424532344881577
14.280000000000001,0.010456506266972176
14.284,0.010460881645784575
14.288,0.010442466589903823
14.292,0.010419628074124823
14.296000000000001,0.010408160735149472
14.3,0.010390178409041375
14.304,0.010374912664283831
14.308,0.01035837277075125
14.312000000000001,0.010330173213899917
14.316,0.010307166414320439
14.32,0.010312503414849848
14.324,0.010314282415026316
14.328000000000001,0.01031913860469722
14.332,0.010333274443937274
14.336,0.010338563363380833
14.34,0.010336688201032663
14.344,0.010331759889732983
14.348,0.010330485740957945
14.352,0.010329548159783859
14.356,0.01032137437518927
14.36,0.010326879659519155
14.364,0.010332985957422172
14.368,0.010331759889732983
14.372,0.010328923105667803
14.376,0.010325437226943639
14.38,0.010318393347866536
14.384,0.010316133536831562
14.388,0.010319018401982594
14.392,0.010320316591300558
14.396,0.01030908965775446
14.4,0.010311181184988957
14.404,0.010308248238752076
14.408,0.010307983792779899
14.412,0.010319739618270351
14.416,0.010331351200503254
14.42,0.010333538889909453
14.424,0.010323970753825198
14.428,0.010318393347866536
14.432,0.010315412320543805
14.436,0.010314378577198018
14.44,0.010311950482362567
14.444,0.010310123401100246
14.448,0.01028603477708913
14.452,0.010277957154666242
14.456,0.010292814210194057
14.46,0.010302791035508041
14.464,0.010307911671151122
14.468,0.010305002765457165
14.472,0.010308560765810104
14.476,0.010312431293221071
14.48,0.010312575536478623
14.484,0.010308705009067656
14.488,0.01030680580617656
14.492,0.010302478508450013
14.496,0.010296588575433323
14.5,0.01029269400747943
14.504,0.010292501683136028
14.508000000000001,0.010302117900306133
14.512,0.010306661562919008
14.516,0.010304906603285464
14.52,0.010296973224120128
14.524000000000001,0.010303536292338725
14.528,0.01030488256274254
14.532,0.01029351138593889
14.536,0.010291131372189288
14.540000000000001,0.010290121669386428
14.544,0.010300435062301366
14.548,0.010298415656695642
14.552,0.01030543549522982
14.556000000000001,0.01031228704996352
14.56,0.010312070685077192
14.564,0.010319210726325996
14.568,0.010321470537360971
14.572000000000001,0.010325509348572414
14.576,0.01032329761862329
14.58,0.01031603737465986
14.584,0.010307791468436496
14.588000000000001,0.010293896034625693
14.592,0.010298199291809315
14.596,0.010323321659166216
14.6,0.010331687768104208
14.604000000000001,0.01032740855146351
14.608,0.01032599015943092
14.612,0.01032046083455811
14.616,0.010315869090859384
14.620000000000001,0.010325893997259219
14.624,0.010327480673092287
14.628,0.010325918037802145
14.632,0.010326519051375277
14.636000000000001,0.010321158010302943
14.64,0.010317792334293405
14.644,0.010320364672386409
14.648,0.010316397982803741
14.652000000000001,0.010311686036390388
14.656,0.010312864022993726
14.66,0.010320028104785455
14.664,0.01032010022641423
14.668000000000001,0.010319547293926949
14.672,0.010304834481656689
14.676,0.010296540494347473
14.68,0.010312575536478623
14.684000000000001,0.010327528754178137
14.688,0.010334428389997688
14.692,0.010326759456804528
14.696,0.01030507488708594
14.700000000000001,0.010306926008891186
14.704,0.010312263009420595
14.708,0.010316710509861769
14.712,0.010318657793838715
14.716000000000001,0.010317143239634423
14.72,0.010330533822043795
14.724,0.010342001161019146
14.728,0.010340823174415807
14.732000000000001,0.010333009997965097
14.736,0.010329956849013588
14.74,0.010326086321602621
14.744,0.01032639884866065
14.748000000000001,0.01032767299743569
14.752,0.010321951348219475
14.756,0.010322456199620906
14.76,0.010318417388409462
14.764000000000001,0.01032137437518927
14.768,0.01032791340286494
14.772,0.010334091822396734
14.776,0.01033791426872185
14.780000000000001,0.0103332984844802
14.784,0.010329307754354606
14.788,0.010334332227825987
14.792,0.010330293416614542
14.796000000000001,0.010320196388585931
14.8,0.010321182050845867
14.804,0.010320989726502465
14.808,0.010317503847778303
14.812000000000001,0.01031685475311932
14.816,0.010323634186224244
14.82,0.010335197687371296
14.824,0.01033183201136176
14.828000000000001,0.010313705441996111
14.832,0.010305291251972269
14.836,0.010309931076756844
14.84,0.010308200157666226
14.844000000000001,0.010319763658813277
14.848,0.01032599015943092
14.852,0.010323129334822814
14.856,0.010324836213370507
14.86,0.010324932375542209
14.864,0.010311301387703585
14.868,0.010299737886556533
14.872,0.010308560765810104
14.876,0.010331279078874479
14.88,0.010340174079756825
14.884,0.010334885160313268
14.888,0.010326567132461127
14.892,0.010322432159077981
14.896,0.010308464603638403
14.9,0.010303728616682127
14.904,0.010316229699003263
14.908,0.010320893564330764
14.912,0.01031238321213522
14.916,0.010312118766163043
14.92,0.01031411413122584
14.924,0.010321710942790224
14.928,0.010328057646122492
14.932,0.010327023902776707
14.936,0.010320941645416614
14.94,0.010313777563624886
14.944,0.010314378577198018
14.948,0.010321734983333148
14.952,0.010327312389291809
14.956,0.010330702105844271
14.96,0.01032969240304141
14.964,0.010322119632019953
14.968,0.010323081253736963
14.972,0.010326110362145546
14.976,0.010326206524317247
14.98,0.010327648956892763
14.984,0.010320581037272736
14.988,0.010299136872983401
14.992,0.010294809575256853
14.996,0.010301829413791031
15.0,0.010305579738487372
15.004,0.01033375525479578
15.008000000000001,0.010358661257266352
15.012,0.010395154801426904
15.016,0.01044003849506837
15.02,0.010460737402527023
15.024000000000001,0.010446072671342612
15.028,0.010421022425614488
15.032,0.01039101982804376
15.036,0.010377436921290983
15.040000000000001,0.010370825771986536
15.044,0.010364887757883997
15.048,0.010353756986509598
15.052,0.010342818539478604
15.056000000000001,0.010329067348925353
15.06,0.01032599015943092
15.064,0.010324908334999282
15.068,0.010323634186224244
15.072000000000001,0.010319739618270351
15.076,0.010315412320543805
15.08,0.010309281982097861
15.084,0.010314859388056524
15.088000000000001,0.01033284171416462
15.092,0.010329211592182905
15.096,0.010322239834734579
15.1,0.010322311956363356
15.104000000000001,0.010326591173004052
15.108,0.01032014830750008
15.112,0.0103173115234349
15.116,0.010324307321426151
15.120000000000001,0.010320196388585931
15.124,0.010317864455922181
15.128,0.010316542226061291
15.132,0.010313056347337129
15.136000000000001,0.01031288806353665
15.14,0.010308320360380851
15.144,0.010291491980333167
15.148,0.01028004868190074
15.152000000000001,0.010282476776736191
15.156,0.010318537591124088
15.16,0.010329836646298962
15.164,0.010320076185871305
15.168000000000001,0.010308128036037449
15.172,0.01031457090154142
15.176,0.010321037807588316
15.18,0.010322191753648728
15.184000000000001,0.010315676766515982
15.188,0.010292453602050177
15.192,0.010282813344337146
15.196,0.01029315077779501
15.200000000000001,0.010299761927099457
15.204,0.010305171049257641
15.208,0.010302718913879265
15.212,0.010296179886203594
15.216000000000001,0.010292213196620926
15.22,0.010294737453628078
15.224,0.010294857656342703
15.228,0.010284327898541437
15.232000000000001,0.010285313560801373
15.236,0.010293367142681338
15.24,0.010292189156078
15.244,0.010297838683665437
15.248000000000001,0.010305772062830773
15.252,0.010305291251972269
15.256,0.010304281549169408
15.26,0.010303752657225052
15.264000000000001,0.010300843751531095
15.268,0.010301997697591507
15.272,0.010303488211252874
15.276,0.010304185386997707
15.280000000000001,0.010296564534890399
15.284,0.010297910805294212
15.288,0.010298872427011224
15.292,0.010300242737957963
15.296000000000001,0.010297381913349857
15.3,0.010285914574374505
15.304,0.010290458236987382
15.308,0.010312046644534268
15.312000000000001,0.010318489510038237
15.316,0.010306974089977036
15.32,0.010296107764574817
15.324,0.010293415223767189
15.328000000000001,0.010303920941025528
15.332,0.010321590740075597
15.336,0.010327312389291809
15.34,0.010326591173004052
15.344000000000001,0.010317239401806124
15.348,0.010305772062830773
15.352,0.010298199291809315
15.356,0.01030538741414397
15.36,0.010320941645416614
15.364,0.010328778862410251
15.368,0.010310243603814873
15.372,0.01030411326536893
15.376,0.010311974522905491
15.38,0.010303920941025528
15.384,0.010309858955128069
15.388,0.010320821442701989
15.392,0.010308200157666226
15.396,0.0103036084139675
15.4,0.010307118333234588
15.404,0.010306373076403905
15.408,0.010304690238399137
15.412,0.010301637089447629
15.416,0.010309402184812489
15.42,0.01032502853771391
15.424,0.010327889362322016
15.428,0.01032452368631248
15.432,0.010315628685430131
15.436,0.010307142373777514
15.44,0.010309931076756844
15.444,0.010314835347513597
15.448,0.010310219563271947
15.452,0.010306685603461934
15.456,0.010299761927099457
15.46,0.010304281549169408
15.464,0.010307382779206767
15.468,0.010309594509155891
15.472,0.010311445630961136
15.476,0.010320268510214708
15.48,0.010316566266604217
15.484,0.010314667063713121
15.488,0.010311253306617734
15.492,0.010311686036390388
15.496,0.010311181184988957
15.5,0.010300074454157487
15.504,0.01028452022288484
15.508000000000001,0.010301949616505657
15.512,0.010315628685430131
15.516,0.010314186252854615
15.52,0.010320340631843483
15.524000000000001,0.010317624050492928
15.528,0.010315604644887207
15.532,0.010314017969054139
15.536,0.010311109063360182
15.540000000000001,0.010311758158019164
15.544,0.01030863288743888
15.548,0.010308440563095479
15.552,0.01031137350933236
15.556000000000001,0.010302165981391984
15.56,0.010298223332352242
15.564,0.010318321226237761
15.568,0.010324042875453973
15.572000000000001,0.01032380247002472
15.576,0.010326278645946024
15.58,0.010316566266604217
15.584,0.010315508482715506
15.588000000000001,0.01031142159041821
15.592,0.010300675467730619
15.596,0.010303896900482603
15.6,0.010312503414849848
15.604000000000001,0.010310123401100246
15.608,0.01030533933305812
15.612,0.010304473873512809
15.616,0.010289424493641593
15.620000000000001,0.01028690023663444
15.624,0.010292790169651131
15.628,0.010297790602579586
15.632,0.010303800738310902
15.636000000000001,0.010299353237869728
15.64,0.010296828980862576
15.644,0.010291852588477046
15.648,0.010297454034978632
15.652000000000001,0.010314931509685299
15.656,0.010313897766339513
15.66,0.010303944981568454
15.664,0.010311205225531883
15.668000000000001,0.010315556563801356
15.672,0.010310940779559706
15.676,0.010305050846543016
15.68,0.010305050846543016
15.684000000000001,0.010303055481480219
15.688,0.01030223810302076
15.692,0.01030858480635303
15.696,0.010320196388585931
15.700000000000001,0.010319330929040622
15.704,0.010303969022111378
15.708,0.010309858955128069
15.712,0.010314859388056524
15.716000000000001,0.010310556130872901
15.72,0.010313008266251278
15.724,0.010311661995847463
15.728,0.010304738319484988
15.732000000000001,0.010310652293044602
15.736,0.010313368874395157
15.74,0.01031553252325843
15.744,0.010304017103197229
15.748000000000001,0.010277404222178961
15.752,0.010255407125402346
15.756,0.010256200463318878
15.76,0.010296636656519174
15.764000000000001,0.010335654457686876
15.768,0.010357651554463491
15.772,0.010387509908776668
15.776,0.010426888318088252
15.780000000000001,0.010435663116255973
15.784,0.010425518007141511
15.788,0.01040801649189192
15.792,0.010382148867704334
15.796000000000001,0.010357290946319613
15.8,0.010347482404806105
15.804,0.010332457065477816
15.808,0.010318369307323612
15.812000000000001,0.010310291684900724
15.816,0.010296420291632847
15.82,0.010296083724031893
15.824,0.010295314426658285
15.828000000000001,0.010297478075521558
15.832,0.01030461811677036
15.836,0.010305988427717102
15.84,0.010309354103726638
15.844000000000001,0.010306733684547785
15.848,0.010299737886556533
15.852,0.010292525723678954
15.856,0.010288246507038254
15.860000000000001,0.010279087060183729
15.864,0.01027771674923699
15.868,0.010307094292691664
15.872,0.010323129334822814
15.876,0.010319739618270351
15.88,0.010308200157666226
15.884,0.010296131805117743
15.888,0.010285289520258447
15.892,0.010280625654930946
15.896,0.010289785101785472
15.9,0.010299281116240953
15.904,0.010304233468083557
15.908,0.010303488211252874
15.912,0.010309810874042218
15.916,0.010302887197679743
15.92,0.010301637089447629
15.924,0.010305627819573221
15.928,0.01029497785905733
15.932,0.010289977426128874
15.936,0.010292477642593103
15.94,0.010291299655989765
15.944,0.010288919642240163
15.948,0.010285217398629672
15.952,0.010278678370954
15.956,0.010278389884438896
15.96,0.010281731519905508
15.964,0.010274375113770377
15.968,0.010261417261133662
15.972,0.010262042315249718
15.976,0.010270095897129681
15.98,0.010281202627961153
15.984,0.010283774966054156
15.988,0.010280337168415843
15.992,0.01026826881586736
15.996,0.01024492544868693
16.0,0.010243194529596312
16.004,0.010268292856410286
16.008,0.010283774966054156
16.012,0.010286010736546206
16.016000000000002,0.010277500384350663
16.02,0.010271057518846691
16.024,0.01028091414144605
16.028,0.0102855299256877
16.032,0.010285505885144776
16.036,0.010278942816926177
16.04,0.010278245641181346
16.044,0.01028014484407244
16.048000000000002,0.010282476776736191
16.052,0.010282476776736191
16.056,0.010292213196620926
16.06,0.010295458669915835
16.064,0.010292814210194057
16.068,0.010291107331646364
16.072,0.010284688506685315
16.076,0.010291179453275139
16.080000000000002,0.010297285751178156
16.084,0.010295554832087536
16.088,0.01028822246649533
16.092,0.010288198425952404
16.096,0.010283125871395174
16.1,0.01027557714091664
16.104,0.01026995165387213
16.108,0.010284760628314092
16.112000000000002,0.010299281116240953
16.116,0.010311157144446033
16.12,0.01030319972473777
16.124,0.010290169750472278
16.128,0.010286780033919814
16.132,0.010288030142151927
16.136,0.01029781464312251
16.14,0.010291828547934121
16.144000000000002,0.010285145277000895
16.148,0.010300747589359394
16.152,0.01029630008891822
16.156,0.010283366276824427
16.16,0.010294617250913452
16.164,0.01030072354881647
16.168,0.010291828547934121
16.172,0.010286852155548589
16.176000000000002,0.010282236371306938
16.18,0.010282693141622518
16.184,0.010291155412732214
16.188,0.010294785534713928
16.192,0.010295675034802164
16.196,0.010293078656166235
16.2,0.010286299223061308
16.204,0.010290145709929352
16.208000000000002,0.010296708778147949
16.212,0.01029401623734032
16.216,0.010290241872101053
16.22,0.010286972358263216
16.224,0.01027725997892141
16.228,0.01028653962849056
16.232,0.010290698642416633
16.236,0.010290746723502484
16.240000000000002,0.01030639711694683
16.244,0.010307094292691664
16.248,0.010304281549169408
16.252,0.0103012284002179
16.256,0.010298944548639999
16.26,0.010285890533831579
16.264,0.010272019140563702
16.268,0.010281443033390405
16.272000000000002,0.010300483143387216
16.276,0.010302165981391984
16.28,0.010298199291809315
16.284,0.010303632454510426
16.288,0.010302887197679743
16.292,0.010306108630431727
16.296,0.010309113698297385
16.3,0.010306445198032681
16.304000000000002,0.010309618549698816
16.308,0.010304353670798183
16.312,0.010298752224296596
16.316,0.010299689805470682
16.32,0.010297718480950811
16.324,0.010298391616152718
16.328,0.010298319494523943
16.332,0.010287982061066077
16.336000000000002,0.010286972358263216
16.34,0.010290217831558129
16.344,0.010286130939260832
16.348,0.010278894735840328
16.352,0.010273846221826023
16.356,0.010261633626019988
16.36,0.010261537463848287
16.364,0.010290193791015203
16.368000000000002,0.010296877061948427
16.372,0.010294953818514405
16.376,0.010293222899423787
16.38,0.010291588142504868
16.384,0.010298271413438092
16.388,0.010299665764927756
16.392,0.010296708778147949
16.396,0.010292573804764804
16.4,0.01028461638505654
16.404,0.010282693141622518
16.408,0.010286179020346682
16.412,0.010291371777618541
16.416,0.010295554832087536
16.42,0.010285842452745728
16.424,0.010277404222178961
16.428,0.010280289087329992
16.432,0.010283173952481024
16.436,0.010284448101256062
16.44,0.010304954684371315
16.444,0.01029767039986496
16.448,0.010286299223061308
16.452,0.010306228833146353
16.456,0.010304642157313287
16.46,0.010300483143387216
16.464,0.010302478508450013
16.468,0.010299521521670206
16.472,0.010298752224296596
16.476,0.01030091587315987
16.48,0.010301709211076404
16.484,0.01030223810302076
16.488,0.010298199291809315
16.492,0.010291852588477046
16.496,0.010291996831734597
16.5,0.01028456830397069
16.504,0.010277476343807736
16.508,0.010275553100373716
16.512,0.01027045650527356
16.516000000000002,0.010277139776206782
16.52,0.010288318628667031
16.524,0.0103104599687012
16.528,0.01033933266075444
16.532,0.010372508609991305
16.536,0.010396813598888747
16.54,0.010415060370969023
16.544,0.010406333653887151
16.548000000000002,0.010403376667107344
16.552,0.010401477464216248
16.556,0.010379239962010378
16.56,0.010353083851307692
16.564,0.010342193485362548
16.568,0.01032380247002472
16.572,0.0103081761171233
16.576,0.010309257941554937
16.580000000000002,0.01028000060081489
16.584,0.010272548032508058
16.588,0.010295098061771956
16.592,0.010297189589006455
16.596,0.01029726171063523
16.6,0.010295699075345088
16.604,0.010281659398276733
16.608,0.010284760628314092
16.612000000000002,0.01028283738488007
16.616,0.010284039412026333
16.62,0.010291011169474663
16.624,0.01029178046684827
16.628,0.010289737020699621
16.632,0.010292934412908683
16.636,0.010299473440584355
16.64,0.010293343102138412
16.644000000000002,0.010287116601520768
16.648,0.010269687207899952
16.652,0.010274351073227453
16.656,0.01029803100800884
16.66,0.01029370371028229
16.664,0.01027959191158516
16.668,0.010284928912114568
16.672,0.010288246507038254
16.676000000000002,0.010284087493112184
16.68,0.010295025940143181
16.684,0.01030077162990232
16.688,0.010291924710105822
16.692,0.010279832317014412
