0.0,-0.007701676412623295
0.004,-0.007704200669630448
0.008,-0.007702445709996904
0.012,-0.007707253818581956
0.016,-0.007707686548354611
0.02,-0.007706364318493721
0.024,-0.007708023115955565
0.028,-0.007717783576383221
0.032,-0.007710595454048568
0.036000000000000004,-0.007709994440475436
0.04,-0.007709104940387202
0.044,-0.00771211000825286
0.048,-0.007708744332243322
0.052000000000000005,-0.007708023115955565
0.056,-0.007706412399579572
0.06,-0.007710475251333941
0.064,-0.007708624129528697
0.068,-0.00771261485965429
0.07200000000000001,-0.007712951427255243
0.076,-0.007708888575500874
0.08,-0.007705210372433309
0.084,-0.007712831224540618
0.088,-0.007711893643366532
0.092,-0.0077090087782155006
0.096,-0.007705402696776711
0.1,-0.007701604290994519
0.10400000000000001,-0.007717711454754445
0.108,-0.007706821088809302
0.112,-0.007701484088279893
0.116,-0.007706340277950796
0.12,-0.007705859467092291
0.124,-0.007705138250804533
0.128,-0.007707878872698013
0.132,-0.007709585751245707
0.136,-0.007715018913946816
0.14,-0.007715475684262396
0.14400000000000002,-0.007709297264730603
0.148,-0.007709585751245707
0.152,-0.007707902913240939
0.156,-0.007706099872521544
0.16,-0.007707782710526312
0.164,-0.007710138683732988
0.168,-0.007707229778039031
0.17200000000000001,-0.007707902913240939
0.176,-0.007710715656763194
0.18,-0.007710162724275913
0.184,-0.007715451643719471
0.188,-0.007711797481194831
0.192,-0.007706893210438077
0.196,-0.007705739264377664
0.2,-0.007706484521208348
0.20400000000000001,-0.007708215440298967
0.20800000000000002,-0.007708624129528697
0.212,-0.007709778075589109
0.216,-0.0077088404944150235
0.22,-0.00770982615667496
0.224,-0.007710138683732988
0.228,-0.007707157656410255
0.232,-0.0077088404944150235
0.23600000000000002,-0.0077063883590366465
0.24,-0.007703791980400719
0.244,-0.007712638900197215
0.248,-0.007713336075942048
0.252,-0.00770799907541264
0.256,-0.007709369386359379
0.26,-0.007705570980577188
0.264,-0.0077042487507162985
0.268,-0.0077042487507162985
0.272,-0.00770119560176479
0.276,-0.007702277426196427
0.28,-0.0076992483177878435
0.28400000000000003,-0.007700570547648733
0.28800000000000003,-0.007702926520855409
0.292,-0.007700233980047779
0.296,-0.007700714790906285
0.3,-0.00770398430474412
0.304,-0.007705859467092291
0.308,-0.007705426737319636
0.312,-0.007702205304567651
0.316,-0.007706556642837124
0.32,-0.007709657872874483
0.324,-0.00770667684555175
0.328,-0.007710739697306119
0.332,-0.007708696251157472
0.336,-0.007705619061663039
0.34,-0.007702686115426156
0.34400000000000003,-0.0077048016832035795
0.34800000000000003,-0.007705330575147935
0.352,-0.007705210372433309
0.356,-0.007701243682850641
0.36,-0.0077021572234818
0.364,-0.007702830358683708
0.368,-0.007699993574618527
0.372,-0.0077069412915239275
0.376,-0.0077048016832035795
0.38,-0.007706748967180526
0.384,-0.00771307162996987
0.388,-0.007713143751598646
0.392,-0.007707253818581956
0.396,-0.007707926953783864
0.4,-0.007710379089162241
0.404,-0.007704417034516776
0.40800000000000003,-0.007704104507458747
0.41200000000000003,-0.007704176629087523
0.41600000000000004,-0.0077010753990501635
0.42,-0.007702397628911053
0.424,-0.007703239047913437
0.428,-0.0077042487507162985
0.432,-0.007702373588368128
0.436,-0.00770251783162568
0.44,-0.007705570980577188
0.444,-0.007700450344934107
0.448,-0.007704873804832355
0.452,-0.007707710588897536
0.456,-0.007708696251157472
0.46,-0.007708816453872098
0.464,-0.007702012980224249
0.468,-0.0077120138460811585
0.47200000000000003,-0.007703791980400719
0.47600000000000003,-0.007699031952901516
0.48,-0.007705090169718682
0.484,-0.007703599656057316
0.488,-0.007705210372433309
0.492,-0.007706123913064469
0.496,-0.007704104507458747
0.5,-0.007704080466915821
0.504,-0.007706051791435693
0.508,-0.007707806751069237
0.512,-0.007707301899667807
0.516,-0.007710186764818838
0.52,-0.007707109575324405
0.524,-0.007706196034693245
0.528,-0.007708864534957949
0.532,-0.0077036958182290175
0.536,-0.0077003541827624054
0.54,-0.007704681480488953
0.544,-0.007709537670159856
0.548,-0.007707950994326789
0.552,-0.007701291763936491
0.556,-0.0077064604806654224
0.56,-0.007710379089162241
0.5640000000000001,-0.007706412399579572
0.5680000000000001,-0.0077064604806654224
0.5720000000000001,-0.007705570980577188
0.5760000000000001,-0.00770576330492059
0.58,-0.007708768372786248
0.584,-0.0077064604806654224
0.588,-0.007704729561574804
0.592,-0.007702325507282277
0.596,-0.0077099463593895854
0.6,-0.007715932454577976
0.604,-0.007713961130058105
0.608,-0.007709345345816454
0.612,-0.007708552007899921
0.616,-0.007712951427255243
0.62,-0.007718865400814858
0.624,-0.0077138409273434785
0.628,-0.007706412399579572
0.632,-0.007704489156145551
0.636,-0.007703263088456362
0.64,-0.007704032385829971
0.644,-0.007703599656057316
0.648,-0.007707614426725835
0.652,-0.007706748967180526
0.656,-0.007705018048089907
0.66,-0.007711364751422176
0.664,-0.00770946554853108
0.668,-0.007707854832155088
0.672,-0.007706003710349843
0.676,-0.007707518264554134
0.68,-0.007706604723922974
0.684,-0.007709657872874483
0.6880000000000001,-0.007709657872874483
0.6920000000000001,-0.007709297264730603
0.6960000000000001,-0.00770622007523617
0.7000000000000001,-0.007712061927167009
0.704,-0.007715066995032667
0.708,-0.007711340710879251
0.712,-0.007713816886800553
0.716,-0.0077112205081646245
0.72,-0.007710643535134418
0.724,-0.007714586184174162
0.728,-0.007711148386535849
0.732,-0.007710932021649522
0.736,-0.007712350413682112
0.74,-0.007709177062015978
0.744,-0.007709345345816454
0.748,-0.007705931588721067
0.752,-0.00770617199415032
0.756,-0.007711028183821223
0.76,-0.007712831224540618
0.764,-0.007712518697482589
0.768,-0.007713792846257628
0.772,-0.007711821521737756
0.776,-0.007709489589074006
0.78,-0.007714826589603414
0.784,-0.007709729994503259
0.788,-0.007710932021649522
0.792,-0.007712807183997692
0.796,-0.007712855265083542
0.8,-0.0077077346294404615
0.804,-0.00770896069712965
0.808,-0.007716124778921378
0.812,-0.007704152588544597
0.8160000000000001,-0.007706773007723451
0.8200000000000001,-0.007710258886447614
0.8240000000000001,-0.0077123263731391865
0.8280000000000001,-0.007721125211849833
0.8320000000000001,-0.0077175672114968945
0.836,-0.0077120138460811585
0.84,-0.00771311971105572
0.844,-0.007711508994679728
0.848,-0.007714057292229805
0.852,-0.007712254251510411
0.856,-0.007711989805538233
0.86,-0.007710379089162241
0.864,-0.007712302332596261
0.868,-0.007717254684438866
0.872,-0.0077157401302345744
0.876,-0.007714321738201984
0.88,-0.007712542738025514
0.884,-0.007713744765171777
0.888,-0.0077151150761185176
0.892,-0.007715595886977023
0.896,-0.0077156680086057985
0.9,-0.007710066562104212
0.904,-0.007711340710879251
0.908,-0.007710811818934895
0.912,-0.007703503493885615
0.916,-0.0077034554127997645
0.92,-0.0077154276031765456
0.924,-0.007712951427255243
0.928,-0.007713167792141571
0.932,-0.007718144184527101
0.936,-0.007715836292406276
0.9400000000000001,-0.007710306967533465
0.9440000000000001,-0.007711316670336326
0.9480000000000001,-0.007714129413858581
0.9520000000000001,-0.007711172427078774
0.9560000000000001,-0.007709056859301351
0.96,-0.0077112926297934
0.964,-0.007708239480841892
0.968,-0.007711533035222653
0.972,-0.007717807616926147
0.976,-0.0077158603329492
0.98,-0.007707470183468283
0.984,-0.007709537670159856
0.988,-0.0077074942240112085
0.992,-0.007711917683909457
0.996,-0.0077191538873299615
1.0,-0.007712903346169393
1.004,-0.0077079750348697145
1.008,-0.007711316670336326
1.012,-0.007711508994679728
1.016,-0.007712999508341094
1.02,-0.007712783143454767
1.024,-0.007707902913240939
1.028,-0.007711028183821223
1.032,-0.00770982615667496
1.036,-0.007706580683380049
1.04,-0.007703767939857793
1.044,-0.007702493791082754
1.048,-0.00770576330492059
1.052,-0.007711412832508027
1.056,-0.0077186009548426806
1.06,-0.007717519130411044
1.064,-0.0077120138460811585
1.068,-0.0077156680086057985
1.072,-0.007716413265436482
1.076,-0.0077157401302345744
1.08,-0.007711268589250475
1.084,-0.007714249616573208
1.088,-0.00771398517060103
1.092,-0.007714105373315656
1.096,-0.007710763737849045
1.1,-0.007709345345816454
1.104,-0.007710018481018361
1.108,-0.007709729994503259
1.112,-0.007713624562457151
1.116,-0.007715547805891172
1.12,-0.007714417900373685
1.124,-0.007713215873227422
1.1280000000000001,-0.007725019779803726
1.1320000000000001,-0.007720908846963506
1.1360000000000001,-0.007716413265436482
1.1400000000000001,-0.007717783576383221
1.1440000000000001,-0.007718456711585129
1.1480000000000001,-0.007723481185056509
1.1520000000000001,-0.0077159805356638266
1.156,-0.007712518697482589
1.16,-0.00771124454870755
1.164,-0.007709513629616931
1.168,-0.007713432238113749
1.172,-0.007710932021649522
1.176,-0.007714081332772731
1.18,-0.007713744765171777
1.184,-0.00771763933312567
1.188,-0.007717278724981791
1.192,-0.007717110441181314
1.196,-0.007715091035575592
1.2,-0.007715595886977023
1.204,-0.007717254684438866
1.208,-0.0077180480223554
1.212,-0.0077218464281375914
1.216,-0.007724322604058893
1.22,-0.007717711454754445
1.224,-0.0077191538873299615
1.228,-0.007716749833037435
1.232,-0.007722687847139975
1.236,-0.007712374454225037
1.24,-0.007713696684085927
1.244,-0.007717398927696417
1.248,-0.007716870035752062
1.252,-0.007717783576383221
1.256,-0.0077191538873299615
1.26,-0.007718504792670979
1.264,-0.007716629630322809
1.268,-0.007718865400814858
1.272,-0.0077151871977472935
1.276,-0.007711172427078774
1.28,-0.007711196467621699
1.284,-0.007713480319199599
1.288,-0.007717206603353015
1.292,-0.007720596319905478
1.296,-0.0077202597523045235
1.3,-0.007714033251686881
1.304,-0.007722495522796573
1.308,-0.007717110441181314
1.312,-0.007713696684085927
1.316,-0.007715619927519948
1.32,-0.007720644400991328
1.324,-0.007716581549236958
1.328,-0.007716629630322809
1.332,-0.007723793712114537
1.336,-0.00772312057691263
1.34,-0.0077193942927592145
1.344,-0.007716389224893557
1.348,-0.007719081765701186
1.352,-0.007724370685144743
1.356,-0.007720403995562075
1.36,-0.007717206603353015
1.364,-0.00771444194091661
1.368,-0.007716148819464304
1.372,-0.00771759125203982
1.3760000000000001,-0.007717519130411044
1.3800000000000001,-0.007719105806244111
1.3840000000000001,-0.007715235278833144
1.3880000000000001,-0.007714610224717087
1.3920000000000001,-0.007721029049678132
1.3960000000000001,-0.007716845995209136
1.4000000000000001,-0.0077151150761185176
1.4040000000000001,-0.007718865400814858
1.408,-0.007716461346522332
1.412,-0.007717783576383221
1.416,-0.007719370252216289
1.42,-0.007718865400814858
1.424,-0.007719298130587513
1.428,-0.007718817319729008
1.432,-0.007716076697835528
1.436,-0.007719682779274317
1.44,-0.007723793712114537
1.444,-0.007718264387241726
1.448,-0.0077186730764714565
1.452,-0.0077152593193760685
1.456,-0.007718817319729008
1.46,-0.007722231076824395
1.464,-0.007720596319905478
1.468,-0.007720163590132822
1.472,-0.007723360982341883
1.476,-0.007728000807126458
1.48,-0.0077192260089587374
1.484,-0.007717398927696417
1.488,-0.007721966630852217
1.492,-0.0077224714822536475
1.496,-0.007726390090750466
1.5,-0.007723000374198004
1.504,-0.007720476117190851
1.508,-0.007720331873933299
1.512,-0.007714994873403891
1.516,-0.007719658738731392
1.52,-0.007724803414917399
1.524,-0.007720956928049356
1.528,-0.007716485387065257
1.532,-0.007721389657822011
1.536,-0.007723505225599434
1.54,-0.007726486252922167
1.544,-0.007727183428667
1.548,-0.007718408630499278
1.552,-0.007720163590132822
1.556,-0.007722687847139975
1.56,-0.0077205001577337765
1.564,-0.0077216060227083385
1.568,-0.007720115509046972
1.572,-0.007719610657645541
1.576,-0.007725885239349035
1.58,-0.0077271593881240745
1.584,-0.007725236144690053
1.588,-0.007722255117367321
1.592,-0.007721678144337114
1.596,-0.007722255117367321
1.6,-0.00771992318470357
1.604,-0.00772312057691263
1.608,-0.007731823253451576
1.612,-0.007725765036634409
1.616,-0.007721630063251264
1.62,-0.007725524631205156
1.624,-0.007720115509046972
1.6280000000000001,-0.007727616158439654
1.6320000000000001,-0.007730116374903883
1.6360000000000001,-0.007728938388300544
1.6400000000000001,-0.0077239860364579395
1.6440000000000001,-0.007719778941446018
1.6480000000000001,-0.00772312057691263
1.6520000000000001,-0.007720355914476225
1.6560000000000001,-0.007720091468504046
1.6600000000000001,-0.007723601387771136
1.6640000000000001,-0.0077239860364579395
1.668,-0.007723601387771136
1.672,-0.007724202401344267
1.676,-0.007727399793553327
1.68,-0.007726245847492914
1.684,-0.007724683212202772
1.688,-0.0077258131177202595
1.692,-0.007719754900903093
1.696,-0.007727880604411832
1.7,-0.00773576590249132
1.704,-0.007732255983224231
1.708,-0.0077272795908387
1.712,-0.007727568077353804
1.716,-0.0077226397660541245
1.72,-0.0077227118876829004
1.724,-0.0077189856035294845
1.728,-0.007720548238819627
1.732,-0.007724418766230594
1.736,-0.007719250049501663
1.74,-0.0077189856035294845
1.744,-0.007716485387065257
1.748,-0.007713744765171777
1.752,-0.007718168225070026
1.756,-0.007728217172012786
1.76,-0.007723769671571612
1.764,-0.00772134157673616
1.768,-0.007723096536369704
1.772,-0.00772170218488004
1.776,-0.007715451643719471
1.78,-0.007726293928578765
1.784,-0.007727351712467476
1.788,-0.0077194664143879895
1.792,-0.007723409063427733
1.796,-0.007724971698717875
1.8,-0.0077255727122910066
1.804,-0.007726149685321213
1.808,-0.007723096536369704
1.812,-0.0077245389689452205
1.816,-0.007720067427961121
1.82,-0.0077216060227083385
1.824,-0.007724082198629641
1.828,-0.007730140415446808
1.832,-0.007724899577089099
1.836,-0.007723409063427733
1.84,-0.007724731293288623
1.844,-0.007723024414740929
1.848,-0.0077258131177202595
1.852,-0.007722519563339498
1.856,-0.007719201968415812
1.86,-0.00772535634740468
1.864,-0.007727736361154281
1.868,-0.007728770104500067
1.872,-0.007727015144866523
1.8760000000000001,-0.007726438171836316
1.8800000000000001,-0.0077261256447782875
1.8840000000000001,-0.0077247072527456976
1.8880000000000001,-0.007729587482959526
1.8920000000000001,-0.007734828321317234
1.8960000000000001,-0.00773353013199927
1.9000000000000001,-0.007731270320964295
1.9040000000000001,-0.007728361415270338
1.9080000000000001,-0.00772905859101517
1.9120000000000001,-0.007730116374903883
1.9160000000000001,-0.007734131145572401
1.92,-0.007733722456342672
1.924,-0.007725164023061277
1.928,-0.0077253323068617544
1.932,-0.0077249957392608
1.936,-0.007733938821229
1.94,-0.0077317511318228
1.944,-0.007732688712996886
1.948,-0.007733121442769541
1.952,-0.007734828321317234
1.956,-0.007736342875521526
1.96,-0.007728866266671768
1.964,-0.007731727091279875
1.968,-0.007730693347934089
1.972,-0.0077307414290199395
1.976,-0.007735453375433291
1.98,-0.00773211173996668
1.984,-0.007731342442593071
1.988,-0.0077307414290199395
1.992,-0.0077320876994237545
1.996,-0.007734010942857776
2.0,-0.0077282652530986365
2.004,-0.007725067860889576
2.008,-0.0077261256447782875
2.012,-0.007746007173777482
2.016,-0.007737064091809283
2.02,-0.007727856563868907
2.024,-0.007729683645131226
2.028,-0.007730885672277491
2.032,-0.007732544469739334
2.036,-0.007734948524031861
2.04,-0.007732015577794979
2.044,-0.007730092334360957
2.048,-0.007731342442593071
2.052,-0.007732448307567633
2.056,-0.007729443239701974
2.06,-0.00772723150975285
2.064,-0.007727616158439654
2.068,-0.007728697982871291
2.072,-0.007726438171836316
2.076,-0.00772905859101517
2.08,-0.0077311260777067434
2.084,-0.007731414564221847
2.088,-0.007729443239701974
2.092,-0.007733409929284644
2.096,-0.007729443239701974
2.1,-0.0077228801714833775
2.104,-0.007723841793200388
2.108,-0.007723144617455555
2.112,-0.007721317536193235
2.116,-0.007721149252392759
2.12,-0.00772535634740468
2.124,-0.007729443239701974
2.128,-0.007731390523678922
2.132,-0.007728938388300544
2.136,-0.007728313334184487
2.14,-0.007727423834096252
2.144,-0.007730669307391164
2.148,-0.007731462645307698
2.152,-0.007727976766583533
2.156,-0.007726101604235362
2.16,-0.0077256448339197824
2.164,-0.007738891173071603
2.168,-0.007737376618867312
2.172,-0.007733025280597839
2.176,-0.007735261051089889
2.18,-0.007723649468856986
2.184,-0.007727039185409448
2.188,-0.00773627075389275
2.192,-0.007734323469915804
2.196,-0.00772901050992932
2.2,-0.007726798779980195
2.204,-0.00772764019898258
2.208,-0.007728842226128843
2.212,-0.007730909712820417
2.216,-0.0077295394018736755
2.22,-0.007725452509576381
2.224,-0.007726894942151896
2.228,-0.007727616158439654
2.232,-0.007729827888388778
2.236,-0.007732544469739334
2.24,-0.00772449088785937
2.244,-0.007726269888035839
2.248,-0.00773028465870436
2.2520000000000002,-0.007729250915358572
2.2560000000000002,-0.007728361415270338
2.2600000000000002,-0.0077307414290199395
2.2640000000000002,-0.007730404861418986
2.2680000000000002,-0.007733866699600224
2.2720000000000002,-0.007733145483312466
2.2760000000000002,-0.007737208335066835
2.2800000000000002,-0.007738458443298949
2.2840000000000003,-0.0077355735781479175
2.2880000000000003,-0.0077358861052059455
2.2920000000000003,-0.007738819051442828
2.2960000000000003,-0.007742425132881618
2.3000000000000003,-0.007734972564574786
2.3040000000000003,-0.007743146349169375
2.308,-0.007743603119484956
2.312,-0.007740670173248073
2.316,-0.007738722889271127
2.32,-0.00774216068690944
2.324,-0.007736511159322002
2.328,-0.0077408865381344005
2.332,-0.007740549970533447
2.336,-0.007739900875874465
2.34,-0.007740742294876849
2.344,-0.0077432665518840016
2.348,-0.007740213402932493
2.352,-0.007739131578500856
2.356,-0.007739227740672558
2.36,-0.007740045119132016
2.364,-0.007741102903020728
2.368,-0.007737016010723434
2.372,-0.007740141281303717
2.376,-0.0077392998623013335
2.38,-0.007735693780862544
2.384,-0.007737352578324387
2.388,-0.007740742294876849
2.392,-0.007739155619043782
2.396,-0.007743242511341076
2.4,-0.00773809783515507
2.404,-0.007734996605117711
2.408,-0.00773855460547065
2.412,-0.007736174591721049
2.416,-0.007735934186291796
2.42,-0.007740622092162223
2.424,-0.007741199065192429
2.428,-0.007742569376139169
2.432,-0.007740501889447597
2.436,-0.007738169956783846
2.44,-0.007738145916240921
2.444,-0.007737016010723434
2.448,-0.007741631794965084
2.452,-0.007740622092162223
2.456,-0.007737040051266358
2.46,-0.007737665105382415
2.464,-0.007734179226658252
2.468,-0.007750334471504029
2.472,-0.0077459590926916315
2.476,-0.007736823686380031
2.48,-0.007736943889094658
2.484,-0.007736318834978601
2.488,-0.007732905077883213
2.492,-0.007734804280774309
2.496,-0.007738386321670173
2.5,-0.00773809783515507
2.504,-0.0077372323756097604
2.508,-0.007737761267554116
2.512,-0.007734251348287028
2.516,-0.007729948091103406
2.52,-0.0077302606181614344
2.524,-0.007732304064310081
2.528,-0.007733602253628046
2.532,-0.0077310539560779675
2.536,-0.007726798779980195
2.54,-0.00773490044294601
2.544,-0.007736414997150302
2.548,-0.007733025280597839
2.552,-0.007731943456166203
2.556,-0.007736751564751255
2.56,-0.007737112172895134
2.564,-0.0077358139835771705
2.568,-0.00773535721326159
2.572,-0.007737472781039013
2.576,-0.007736535199864928
2.58,-0.007734684078059682
2.584,-0.007736775605294181
2.588,-0.007736078429549348
2.592,-0.007736967929637583
2.596,-0.007735621659233768
2.6,-0.007734684078059682
2.604,-0.007735741861948395
2.608,-0.007740069159674941
2.612,-0.007738386321670173
2.616,-0.0077379535918975185
2.62,-0.007738145916240921
2.624,-0.007735453375433291
2.628,-0.007737544902667789
2.632,-0.007735212970004039
2.636,-0.007729202834272721
2.64,-0.007728169090926935
2.644,-0.0077291307126439454
2.648,-0.007727039185409448
2.652,-0.00772682282052312
2.656,-0.0077320876994237545
2.66,-0.007740189362389568
2.664,-0.007741199065192429
2.668,-0.007736174591721049
2.672,-0.00773627075389275
2.676,-0.007739323902844259
2.68,-0.007739828754245689
2.684,-0.007740862497591475
2.688,-0.007742713619396721
2.692,-0.007740814416505625
2.696,-0.007741824119308486
2.7,-0.007738578646013575
2.704,-0.0077424010923386926
2.708,-0.007744132011429311
2.712,-0.007738939254157454
2.716,-0.00774038168673297
2.72,-0.007743314632969852
2.724,-0.007736943889094658
2.728,-0.007738386321670173
2.732,-0.0077390594568720805
2.736,-0.007736799645837106
2.74,-0.007741223105735355
2.744,-0.007742112605823589
2.748,-0.0077407182543339234
2.7520000000000002,-0.007741824119308486
2.7560000000000002,-0.007741175024649504
2.7600000000000002,-0.007742184727452365
2.7640000000000002,-0.007743002105911824
2.7680000000000002,-0.007745285957489724
2.7720000000000002,-0.007749132444357766
2.7760000000000002,-0.007744660903373667
2.7800000000000002,-0.00773987683533154
2.7840000000000003,-0.007742473213967468
2.7880000000000003,-0.007738458443298949
2.7920000000000003,-0.007734732159145533
2.7960000000000003,-0.00773256851028226
2.8000000000000003,-0.007734347510458729
2.8040000000000003,-0.007735501456519142
2.8080000000000003,-0.0077362947944356756
2.8120000000000003,-0.007739347943387184
2.816,-0.007736991970180508
2.82,-0.0077387469298140525
2.824,-0.007740694213790998
2.828,-0.007736511159322002
2.832,-0.007733121442769541
2.836,-0.007744853227717069
2.84,-0.007740189362389568
2.844,-0.00773353013199927
2.848,-0.007734491753716281
2.852,-0.007734635996973832
2.856,-0.007740453808361746
2.86,-0.007738314200041397
2.864,-0.007725067860889576
2.868,-0.007729419199159049
2.872,-0.007732664672453961
2.876,-0.007729347077530273
2.88,-0.007731222239878445
2.884,-0.007739948956960316
2.888,-0.007737016010723434
2.892,-0.007736414997150302
2.896,-0.007735621659233768
2.9,-0.007734155186115327
2.904,-0.0077328089157115126
2.908,-0.0077328089157115126
2.912,-0.007730621226305313
2.916,-0.007734299429372878
2.92,-0.0077425453355962435
2.924,-0.007742905943740123
2.928,-0.007735068726746487
2.932,-0.007738218037869697
2.936,-0.007742353011252842
2.94,-0.007733025280597839
2.944,-0.007732905077883213
2.948,-0.007732472348110558
2.952,-0.00773033273979021
2.956,-0.0077339147806860745
2.96,-0.00773586206466302
2.964,-0.007734876402403085
2.968,-0.007734924483488935
2.972,-0.007728553739613739
2.976,-0.007731486685850623
2.98,-0.007736535199864928
2.984,-0.0077462716197496595
2.988,-0.007738891173071603
2.992,-0.007730140415446808
2.996,-0.007736799645837106
3.0,-0.007735140848375263
3.004,-0.00773439559154458
3.008,-0.007740525929990522
3.012,-0.007733289726570018
3.016,-0.007733169523855391
3.02,-0.007733337807655868
3.024,-0.007733241645484167
3.028,-0.007736030348463497
3.032,-0.007733626294170971
3.036,-0.00773357821308512
3.04,-0.00773357821308512
3.044,-0.007733842659057299
3.048,-0.007734010942857776
3.052,-0.007734660037516757
3.056,-0.007731582848022324
3.06,-0.007731919415623277
3.064,-0.007733818618514373
3.068,-0.007732039618337904
3.072,-0.0077311260777067434
3.076,-0.007735934186291796
3.08,-0.00773353013199927
3.084,-0.007733145483312466
3.088,-0.0077361265106351985
3.092,-0.007735621659233768
3.096,-0.0077294672802449
3.1,-0.0077347802402313835
3.104,-0.0077342273077441025
3.108,-0.007734972564574786
3.112,-0.007736631362036629
3.116,-0.0077358861052059455
3.12,-0.007734660037516757
3.124,-0.00773211173996668
3.128,-0.007729323036987348
3.132,-0.007728241212555711
3.136,-0.0077277123206113555
3.14,-0.007730164455989733
3.144,-0.0077301884965326586
3.148,-0.007742593416682094
3.152,-0.0077425453355962435
3.156,-0.007731799212908651
3.16,-0.007732496388653484
3.164,-0.007738145916240921
3.168,-0.007737352578324387
3.172,-0.0077344677131733555
3.176,-0.007732977199511989
3.18,-0.007735549537604992
3.184,-0.007733842659057299
3.188,-0.00773261659136811
3.192,-0.007731823253451576
3.196,-0.007734275388829953
3.2,-0.0077379535918975185
3.204,-0.007737520862124864
3.208,-0.007737112172895134
3.212,-0.0077382661189555465
3.216,-0.007741463511164607
3.22,-0.007736150551178124
3.224,-0.007738386321670173
3.228,-0.0077358139835771705
3.232,-0.007734107105029476
3.236,-0.007735164888918188
3.24,-0.0077355735781479175
3.244,-0.007733385888741719
3.248,-0.0077308135506487154
3.2520000000000002,-0.0077324002264817825
3.2560000000000002,-0.007733001240054914
3.2600000000000002,-0.007727087266495299
3.2640000000000002,-0.00773033273979021
3.2680000000000002,-0.007737737227011191
3.2720000000000002,-0.0077329531589690635
3.2760000000000002,-0.0077309818344491925
3.2800000000000002,-0.0077339147806860745
3.2840000000000003,-0.007733337807655868
3.2880000000000003,-0.007729779807302928
3.2920000000000003,-0.007729250915358572
3.2960000000000003,-0.0077315347669364735
3.3000000000000003,-0.00773357821308512
3.3040000000000003,-0.007732712753539811
3.3080000000000003,-0.007731823253451576
3.3120000000000003,-0.007728457577442039
3.3160000000000003,-0.0077261256447782875
3.3200000000000003,-0.007725789077177334
3.3240000000000003,-0.007727351712467476
3.3280000000000003,-0.0077261256447782875
3.332,-0.007732255983224231
3.336,-0.007737424699953163
3.34,-0.007731991537252053
3.344,-0.007727856563868907
3.348,-0.007728241212555711
3.352,-0.007742713619396721
3.356,-0.007738121875697996
3.36,-0.007729202834272721
3.364,-0.007730861631734566
3.368,-0.007731029915535042
3.372,-0.007730909712820417
3.376,-0.007731967496709128
3.38,-0.007730380820876061
3.384,-0.007727928685497682
3.388,-0.007729731726217077
3.392,-0.007727760401697206
3.396,-0.007729250915358572
3.4,-0.007727519996267953
3.404,-0.007726197766407063
3.408,-0.007727736361154281
3.412,-0.007726991104323597
3.416,-0.007727928685497682
3.42,-0.007732929118426138
3.424,-0.00772220703628147
3.428,-0.007727447874639177
3.432,-0.00772951536133075
3.436,-0.007725933320434886
3.44,-0.007727087266495299
3.444,-0.0077239860364579395
3.448,-0.00772220703628147
3.452,-0.007725284225775904
3.456,-0.00772540442849053
3.46,-0.0077266785772655685
3.464,-0.007724611090573996
3.468,-0.007725837158263185
3.472,-0.007729779807302928
3.476,-0.007731558807479399
3.48,-0.0077315347669364735
3.484,-0.0077315347669364735
3.488,-0.007734371551001654
3.492,-0.007731606888565249
3.496,-0.007725692915005633
3.5,-0.00772768828006843
3.504,-0.007722062793023918
3.508,-0.007724971698717875
3.512,-0.00773540529434744
3.516,-0.007725452509576381
3.52,-0.007723096536369704
3.524,-0.007726149685321213
3.528,-0.007726390090750466
3.532,-0.00772403411754379
3.536,-0.007723048455283855
3.54,-0.007719754900903093
3.544,-0.007717663373668595
3.548,-0.0077205001577337765
3.552,-0.007725284225775904
3.556,-0.00772129349565031
3.56,-0.007719442373845065
3.564,-0.007721966630852217
3.568,-0.007715235278833144
3.572,-0.00771718256281009
3.576,-0.007722976333655079
3.58,-0.0077188413602719335
3.584,-0.007724923617632024
3.588,-0.007727207469209925
3.592,-0.007726870901608971
3.596,-0.0077210530902210575
3.6,-0.007721581982165413
3.604,-0.007721149252392759
3.608,-0.0077213656172790855
3.612,-0.007723409063427733
3.616,-0.007723961995915014
3.62,-0.007721149252392759
3.624,-0.007716894076294987
3.628,-0.007718336508870502
3.632,-0.007719370252216289
3.636,-0.0077167738735803605
3.64,-0.007716557508694033
3.644,-0.007718072062898325
3.648,-0.007722279157910246
3.652,-0.007724250482430118
3.656,-0.007726702617808494
3.66,-0.007721173292935684
3.664,-0.0077192260089587374
3.668,-0.007726726658351419
3.672,-0.007730452942504836
3.676,-0.0077291307126439454
3.68,-0.0077309818344491925
3.684,-0.00772864990178544
3.688,-0.007729274955901497
3.692,-0.007726798779980195
3.696,-0.007727928685497682
3.7,-0.007724322604058893
3.704,-0.0077242985635159675
3.708,-0.007720019346875271
3.712,-0.00772220703628147
3.716,-0.0077285777801566645
3.72,-0.007729443239701974
3.724,-0.00773170305073695
3.728,-0.007730236577618509
3.732,-0.007726558374550943
3.736,-0.0077245389689452205
3.74,-0.007724803414917399
3.744,-0.007724803414917399
3.748,-0.007725957360977811
3.7520000000000002,-0.007728096969298159
3.7560000000000002,-0.007724010077000865
3.7600000000000002,-0.007726654536722644
3.7640000000000002,-0.007725765036634409
3.7680000000000002,-0.007723072495826779
3.7720000000000002,-0.007723913914829164
3.7760000000000002,-0.007721798347051741
3.7800000000000002,-0.007724659171659847
3.7840000000000003,-0.0077234331039706585
3.7880000000000003,-0.007721966630852217
3.7920000000000003,-0.00772352926614236
3.7960000000000003,-0.007724803414917399
3.8000000000000003,-0.0077217743065088155
3.8040000000000003,-0.00772403411754379
3.8080000000000003,-0.007723216739084331
3.8120000000000003,-0.007724154320258417
3.8160000000000003,-0.007723601387771136
3.8200000000000003,-0.007722784009311676
3.8240000000000003,-0.00772316865799848
3.8280000000000003,-0.007723481185056509
3.8320000000000003,-0.007722928252569228
3.8360000000000003,-0.00772175026596589
3.84,-0.007729948091103406
3.844,-0.007720355914476225
3.848,-0.007712951427255243
3.852,-0.007714057292229805
3.856,-0.007714009211143956
3.86,-0.007713720724628852
3.864,-0.007714922751775115
3.868,-0.00771759125203982
3.872,-0.0077125667785684394
3.876,-0.00771672579249451
3.88,-0.00771723064389594
3.884,-0.007718480752128054
3.888,-0.00771992318470357
3.892,-0.007718624995385606
3.896,-0.0077194664143879895
3.9,-0.007722591684968274
3.904,-0.00772312057691263
3.908,-0.007726342009664615
3.912,-0.007726798779980195
3.916,-0.007720932887506431
3.92,-0.0077226397660541245
3.924,-0.007724082198629641
3.928,-0.0077227118876829004
3.932,-0.007727087266495299
3.936,-0.007725837158263185
3.94,-0.007720043387418197
3.944,-0.007721101171306908
3.948,-0.007717735495297371
3.952,-0.00771905772515826
3.956,-0.007717807616926147
3.96,-0.00771581225186335
3.964,-0.007716341143807706
3.968,-0.007720956928049356
3.972,-0.007719105806244111
3.976,-0.007719105806244111
3.98,-0.007717831657469072
3.984,-0.007711941724452383
3.988,-0.0077165334681511075
3.992,-0.00771307162996987
3.996,-0.007716461346522332
4.0,-0.007722591684968274
4.0040000000000004,-0.007725308266318829
4.008,-0.007721197333478609
4.0120000000000005,-0.007718384589956353
4.016,-0.007718793279186083
4.0200000000000005,-0.00772037995501915
4.024,-0.007719802981988944
4.0280000000000005,-0.007712542738025514
4.032,-0.0077158603329492
4.0360000000000005,-0.0077159805356638266
4.04,-0.007716341143807706
4.0440000000000005,-0.007718072062898325
4.048,-0.007720043387418197
4.0520000000000005,-0.007720644400991328
4.056,-0.007720668441534253
4.0600000000000005,-0.00771540356263362
4.064,-0.007717110441181314
4.0680000000000005,-0.007724082198629641
4.072,-0.007731222239878445
4.0760000000000005,-0.007717615292582745
4.08,-0.007715451643719471
4.0840000000000005,-0.007721870468680516
4.088,-0.007717831657469072
4.0920000000000005,-0.007722519563339498
4.096,-0.007722399360624872
4.1,-0.007716942157380838
4.104,-0.007721557941622488
4.108,-0.007721894509223441
4.112,-0.007714490022002461
4.116,-0.007711797481194831
4.12,-0.007717471049325193
4.124,-0.007714033251686881
4.128,-0.007713504359742524
4.132,-0.007716629630322809
4.136,-0.007717903779097848
4.14,-0.007716172860007229
4.144,-0.0077159805356638266
4.148,-0.007718769238643158
4.152,-0.007717302765524716
4.156,-0.007714826589603414
4.16,-0.00771352840028545
4.164,-0.007716845995209136
4.168,-0.00772083672533473
4.172,-0.007718240346698802
4.176,-0.007718480752128054
4.18,-0.007720452076647926
4.184,-0.007723409063427733
4.188,-0.007723769671571612
4.192,-0.007721966630852217
4.196,-0.007720764603705954
4.2,-0.007718264387241726
4.204,-0.00771951449547384
4.208,-0.007717543170953969
4.212,-0.007714417900373685
4.216,-0.007716677711408659
4.22,-0.007720908846963506
4.224,-0.00772220703628147
4.228,-0.007716437305979407
4.232,-0.007720355914476225
4.236,-0.007719899144160645
4.24,-0.00771941833330214
4.244,-0.007719778941446018
4.248,-0.007714850630146339
4.252,-0.007715475684262396
4.256,-0.007716942157380838
4.26,-0.007717711454754445
4.264,-0.007722687847139975
4.268,-0.007722279157910246
4.272,-0.007715307400461919
4.276,-0.007718264387241726
4.28,-0.00771581225186335
4.284,-0.007716148819464304
4.288,-0.007716845995209136
4.292,-0.007717398927696417
4.296,-0.00771723064389594
4.3,-0.007718697117014382
4.304,-0.007716870035752062
4.308,-0.007715788211320425
4.312,-0.007715379522090695
4.316,-0.00771535548154777
4.32,-0.0077143938598307595
4.324,-0.007707325940210732
4.328,-0.007712831224540618
4.332,-0.007713792846257628
4.336,-0.007711821521737756
4.34,-0.007713432238113749
4.344,-0.007718360549413428
4.348,-0.007711533035222653
4.352,-0.007714033251686881
4.356,-0.007720163590132822
4.36,-0.00772088480642058
4.364,-0.0077158603329492
4.368,-0.007713336075942048
4.372,-0.007719802981988944
4.376,-0.007722038752480993
4.38,-0.007716701751951585
4.384,-0.007716028616749677
4.388,-0.00771718256281009
4.392,-0.007719442373845065
4.396,-0.007722832090397527
4.4,-0.007723409063427733
4.404,-0.007717903779097848
4.408,-0.00771759125203982
4.412,-0.0077195385360167654
4.416,-0.007721269455107384
4.42,-0.007719274090044588
4.424,-0.007720235711761598
4.428,-0.007720476117190851
4.432,-0.007717783576383221
4.436,-0.00771905772515826
4.44,-0.007715307400461919
4.444,-0.007715884373492125
4.448,-0.007717543170953969
4.452,-0.0077158603329492
4.456,-0.00770946554853108
4.46,-0.0077146342652600125
4.464,-0.007729563442416601
4.468,-0.00772124541456446
4.472,-0.00771809610344125
4.476,-0.007716581549236958
4.48,-0.007718240346698802
4.484,-0.007718288427784652
4.488,-0.007718408630499278
4.492,-0.007716244981636005
4.496,-0.007716821954666211
4.5,-0.0077152593193760685
4.5040000000000004,-0.007714874670689265
4.508,-0.0077173268060676415
4.5120000000000005,-0.0077158603329492
4.516,-0.0077192260089587374
4.5200000000000005,-0.007721029049678132
4.524,-0.00771905772515826
4.5280000000000005,-0.0077158603329492
4.532,-0.007718023981812474
4.5360000000000005,-0.0077223272389960965
4.54,-0.007723937955372089
4.5440000000000005,-0.00772316865799848
4.548,-0.007730645266848238
4.5520000000000005,-0.007731654969651099
4.556,-0.007728289293641562
4.5600000000000005,-0.007724683212202772
4.564,-0.007720043387418197
4.5680000000000005,-0.007720764603705954
4.572,-0.007723553306685285
4.5760000000000005,-0.007724683212202772
4.58,-0.007725452509576381
4.5840000000000005,-0.007728337374727412
4.588,-0.007726005442063662
4.5920000000000005,-0.007724442806773519
4.596,-0.0077221589551956194
4.6000000000000005,-0.007723889874286238
4.604,-0.007723336941798957
4.6080000000000005,-0.007722447441710723
4.612,-0.007729996172189256
4.616,-0.007728770104500067
4.62,-0.007730044253275107
4.624,-0.007725500590662231
4.628,-0.0077228801714833775
4.632,-0.00772124541456446
4.636,-0.007722759968768751
4.64,-0.007721413698364936
4.644,-0.007727111307038224
4.648,-0.007727736361154281
4.652,-0.007720019346875271
4.656,-0.007719802981988944
4.66,-0.0077205001577337765
4.664,-0.007722255117367321
4.668,-0.007724274522973042
4.672,-0.007723601387771136
4.676,-0.007725476550119305
4.68,-0.00771992318470357
4.684,-0.007717711454754445
4.688,-0.00772083672533473
4.692,-0.007723312901256032
4.696,-0.007732760834625662
4.7,-0.00773033273979021
4.704,-0.007724563009488146
4.708,-0.00772266380659705
4.712,-0.007718144184527101
4.716,-0.0077184326710422035
4.72,-0.0077208126847918045
4.724,-0.00771905772515826
4.728,-0.007718504792670979
4.732,-0.007720476117190851
4.736,-0.007722182995738545
4.74,-0.0077252601852329785
4.744,-0.00772124541456446
4.748,-0.007719899144160645
4.752,-0.0077197068198172425
4.756,-0.007720548238819627
4.76,-0.007720476117190851
4.764,-0.00771723064389594
4.768,-0.00771672579249451
4.772,-0.0077178797385549225
4.776,-0.007718961562986559
4.78,-0.0077189856035294845
4.784,-0.007725115941975427
4.788,-0.007722952293112153
4.792,-0.0077245389689452205
4.796,-0.007722014711938068
4.8,-0.00772088480642058
4.804,-0.007722808049854602
4.808,-0.00772860182069959
4.812,-0.007726798779980195
4.816,-0.007721125211849833
4.82,-0.0077186730764714565
4.824,-0.007722303198453171
4.828,-0.007719370252216289
4.832,-0.007715091035575592
4.836,-0.0077147063868887875
4.84,-0.007715523765348247
4.844,-0.007718384589956353
4.848,-0.007720956928049356
4.852,-0.007718072062898325
4.856,-0.007714369819287834
4.86,-0.007715451643719471
4.864,-0.007720019346875271
4.868,-0.007718360549413428
4.872,-0.007717783576383221
4.876,-0.007717302765524716
4.88,-0.007712518697482589
4.884,-0.007709705953960333
4.888,-0.007711845562280681
4.892,-0.0077154276031765456
4.896,-0.007716677711408659
4.9,-0.0077154276031765456
4.904,-0.007715547805891172
4.908,-0.007715018913946816
4.912,-0.00771855287375683
4.916,-0.00771855287375683
4.92,-0.00771078777839197
4.924,-0.00771718256281009
4.928,-0.007723553306685285
4.932,-0.007720476117190851
4.936,-0.007714081332772731
4.94,-0.0077151150761185176
4.944,-0.0077191538873299615
4.948,-0.0077220868335668436
4.952,-0.007710547372962717
4.956,-0.007710379089162241
4.96,-0.007713864967886404
4.964,-0.00771211000825286
4.968,-0.0077120138460811585
4.972,-0.007710499291876866
4.976,-0.007708215440298967
4.98,-0.007709345345816454
4.984,-0.00771307162996987
4.988,-0.007713792846257628
4.992,-0.007713552440828375
4.996,-0.007713095670512795
5.0,-0.007715716089691649
5.0040000000000004,-0.007720428036105001
5.008,-0.007716749833037435
5.0120000000000005,-0.00771261485965429
5.016,-0.007716004576206752
5.0200000000000005,-0.007717543170953969
5.024,-0.007718745198100232
5.0280000000000005,-0.007714369819287834
5.032,-0.00771393708951518
5.0360000000000005,-0.007712590819111365
5.04,-0.007710234845904689
5.0440000000000005,-0.0077085279673569955
5.048,-0.007710018481018361
5.0520000000000005,-0.007713191832684496
5.056,-0.007712134048795785
5.0600000000000005,-0.007716028616749677
5.064,-0.007717783576383221
5.0680000000000005,-0.007714105373315656
5.072,-0.0077146342652600125
5.0760000000000005,-0.007716870035752062
5.08,-0.007714225576030282
5.0840000000000005,-0.0077151871977472935
5.088,-0.007715379522090695
5.0920000000000005,-0.007716870035752062
5.096,-0.007721389657822011
5.1000000000000005,-0.007716389224893557
5.104,-0.007717663373668595
5.1080000000000005,-0.007716485387065257
5.112,-0.007719081765701186
5.1160000000000005,-0.00771759125203982
5.12,-0.007720163590132822
5.124,-0.0077249957392608
5.128,-0.007720115509046972
5.132,-0.007718480752128054
5.136,-0.007717951860183698
5.14,-0.007717350846610567
5.144,-0.007715066995032667
5.148,-0.007722735928225826
5.152,-0.007723096536369704
5.156,-0.007712254251510411
5.16,-0.007712422535310888
5.164,-0.007712278292053336
5.168,-0.007712350413682112
5.172,-0.0077135764813713
5.176,-0.007711653237937279
5.18,-0.00771261485965429
5.184,-0.0077121821298816355
5.188,-0.007708167359213116
5.192,-0.007705570980577188
5.196,-0.00770982615667496
5.2,-0.00770941746744523
5.204,-0.007708023115955565
5.208,-0.007707878872698013
5.212,-0.00770581138600644
5.216,-0.007712422535310888
5.22,-0.00771307162996987
5.224,-0.007708936656586725
5.228,-0.007709441507988155
5.232,-0.007714105373315656
5.236,-0.007712470616396738
5.24,-0.007715619927519948
5.244,-0.0077170142790096135
5.248,-0.007713504359742524
5.252,-0.007707566345639984
5.256,-0.007706821088809302
5.26,-0.007708071197041415
5.264,-0.007707758669983387
5.268,-0.00770941746744523
5.272,-0.007704777642660654
5.276,-0.007705715223834739
5.28,-0.007705330575147935
5.284,-0.007697829925755253
5.288,-0.007701820655880847
5.292,-0.00770713361586733
5.296,-0.007707566345639984
5.3,-0.007709705953960333
5.304,-0.0077123263731391865
5.308,-0.00771078777839197
5.312,-0.007714225576030282
5.316,-0.0077088404944150235
5.32,-0.007701844696423772
5.324,-0.0077059075481781415
5.328,-0.007710186764818838
5.332,-0.007707782710526312
5.336,-0.007706869169895152
5.34,-0.007715307400461919
5.344,-0.007710258886447614
5.348,-0.007709104940387202
5.352,-0.007707229778039031
5.356,-0.007709537670159856
5.36,-0.00770896069712965
5.364,-0.0077060758319786185
5.368,-0.007709633832331557
5.372,-0.0077079750348697145
5.376,-0.007707782710526312
5.38,-0.00770617199415032
5.384,-0.00770622007523617
5.388,-0.007706340277950796
5.392,-0.007703888142572419
5.396,-0.007707662507811686
5.4,-0.007709729994503259
5.404,-0.007702277426196427
5.408,-0.0077031428857417365
5.412,-0.007702806318140782
5.416,-0.007704585318317252
5.42,-0.007708239480841892
5.424,-0.007705162291347458
5.428,-0.007701916818052548
5.432,-0.0077064604806654224
5.436,-0.007706532602294198
5.44,-0.007704969967004057
5.444,-0.007707205737496106
5.448,-0.007705090169718682
5.452,-0.007705691183291814
5.456,-0.00770119560176479
5.46,-0.00769840689878546
5.464,-0.007700810953077986
5.468,-0.007701484088279893
5.472,-0.0077025899532544555
5.476,-0.007708576048442846
5.48,-0.00770398430474412
5.484,-0.00769804629064158
5.488,-0.0076999695340756015
5.492,-0.007700402263848256
5.496,-0.007703551574971466
5.5,-0.007706027750892768
5.5040000000000004,-0.0077074942240112085
5.508,-0.007708648170071621
5.5120000000000005,-0.007705498858948412
5.516,-0.0077063883590366465
5.5200000000000005,-0.007706773007723451
5.524,-0.007714033251686881
5.5280000000000005,-0.007707061494238554
5.532,-0.007706893210438077
5.5360000000000005,-0.007712711021825991
5.54,-0.007708816453872098
5.5440000000000005,-0.0077034554127997645
5.548,-0.007707037453695629
5.5520000000000005,-0.007712254251510411
5.556,-0.007709345345816454
5.5600000000000005,-0.007710451210791016
5.564,-0.007716990238466688
5.5680000000000005,-0.0077064604806654224
5.572,-0.007704320872345074
5.5760000000000005,-0.007706364318493721
5.58,-0.007710883940563671
5.5840000000000005,-0.007709778075589109
5.588,-0.007711989805538233
5.5920000000000005,-0.007713143751598646
5.596,-0.0077121821298816355
5.6000000000000005,-0.0077085279673569955
5.604,-0.00770982615667496
5.6080000000000005,-0.007704417034516776
5.612,-0.007705138250804533
5.6160000000000005,-0.0077090087782155006
5.62,-0.007707854832155088
5.6240000000000006,-0.007708984737672575
5.628,-0.007711989805538233
5.632,-0.007711124345992923
5.636,-0.007708071197041415
5.64,-0.007719442373845065
5.644,-0.007711508994679728
5.648,-0.007707013413152703
5.652,-0.007707662507811686
5.656,-0.007711941724452383
5.66,-0.007708335643013593
5.664,-0.007702493791082754
5.668,-0.007702998642484185
5.672,-0.007705378656233786
5.676,-0.007705210372433309
5.68,-0.00770484976428943
5.684,-0.00771211000825286
5.688,-0.00770845584572822
5.692,-0.007701291763936491
5.696,-0.00770393622365827
5.7,-0.007699584885388798
5.704,-0.007697517398697225
5.708,-0.007693911317258435
5.712,-0.007706436440122497
5.716,-0.007713384157027899
5.72,-0.007703094804655886
5.724,-0.007700498426019957
5.728,-0.007699392561045395
5.732,-0.007698479020414235
5.736,-0.007699560844845872
5.74,-0.007702325507282277
5.744,-0.007700570547648733
5.748,-0.007699608925931723
5.752,-0.0077013158044794165
5.756,-0.007705018048089907
5.76,-0.007705883507635216
5.764,-0.007708335643013593
5.768,-0.0077048016832035795
5.772,-0.00770256591271153
5.776,-0.007703215007370512
5.78,-0.007707758669983387
5.784,-0.007704705521031878
5.788,-0.007703311169542213
5.792,-0.007700594588191658
5.796,-0.007701916818052548
5.8,-0.007707542305097059
5.804,-0.0077093934269023045
5.808,-0.0077038400614865684
5.812,-0.007697469317611374
5.816,-0.00769840689878546
5.82,-0.00769799820955573
5.824,-0.007697926087926954
5.828,-0.007699080033987366
5.832,-0.007700161858419004
5.836,-0.007696195168836335
5.84,-0.007698286696070833
5.844,-0.007699681047560498
5.848,-0.007698719425843488
5.852,-0.007698070331184506
5.856,-0.007696916385124093
5.86,-0.007698238614984983
5.864,-0.007699296398873694
5.868,-0.007699152155616142
5.872,-0.0077005224665628825
5.876,-0.007700065696247303
5.88,-0.00769657981752314
5.884,-0.00769343050639993
5.888,-0.007704633399403102
5.892,-0.007702253385653501
5.896,-0.0076949691011471465
5.9,-0.007703503493885615
5.904,-0.007702037020767174
5.908,-0.0076968683040382424
5.912,-0.007698310736613759
5.916,-0.007697950128469879
5.92,-0.007697204871639197
5.924,-0.007695882641778307
5.928,-0.007693358384771154
5.932,-0.0076935507091145565
5.936,-0.007694584452460343
5.94,-0.007693743033457958
5.944,-0.00769114665482203
5.948,-0.007694223844316463
5.952,-0.007696651939151915
5.956,-0.007693190100970677
5.96,-0.007697829925755253
5.964,-0.007698743466386413
5.968,-0.007694175763230613
5.972,-0.007693358384771154
5.976,-0.00769210827653904
5.98,-0.00769475273626082
5.984,-0.007692420803597068
5.988,-0.007695786479606606
5.992,-0.007700017615161452
5.996,-0.007702710155969081
6.0,-0.007700546507105808
6.0040000000000004,-0.00769667597969484
6.008,-0.0076984549798713095
6.0120000000000005,-0.007697156790553346
6.016,-0.007697204871639197
6.0200000000000005,-0.007697637601411851
6.024,-0.007693478587485781
6.0280000000000005,-0.007697517398697225
6.032,-0.0076962432499221856
6.0360000000000005,-0.00770073883144921
6.04,-0.007693983438887211
6.0440000000000005,-0.007694680614632044
6.048,-0.0076999695340756015
6.0520000000000005,-0.007699608925931723
6.056,-0.0076966278986089895
6.0600000000000005,-0.007693117979341901
6.064,-0.007692012114367339
6.0680000000000005,-0.007691338979165432
6.072,-0.007694175763230613
6.0760000000000005,-0.007695185466033474
6.08,-0.007694921020061296
6.0840000000000005,-0.007694440209202791
6.088,-0.007693190100970677
6.0920000000000005,-0.007691194735907881
6.096,-0.007696387493179737
6.1000000000000005,-0.007698839628558114
6.104,-0.007696964466209944
6.1080000000000005,-0.007691459181880058
6.112,-0.007694079601058912
6.1160000000000005,-0.007697565479783075
6.12,-0.007695642236349054
6.1240000000000006,-0.007687973303155895
6.128,-0.0076872040057822865
6.132000000000001,-0.00769388727671551
6.136,-0.007695281628205175
6.140000000000001,-0.0076909302899357025
6.144,-0.0076931420198848265
6.148,-0.007690593722334749
6.152,-0.0076955220336344275
6.156,-0.00769439212811694
6.16,-0.007688574316729027
6.164,-0.0076888628032441295
6.168,-0.007692132317081966
6.172,-0.007693791114543809
6.176,-0.007691411100794208
6.18,-0.007691266857536656
6.184,-0.0076925890873975455
6.188,-0.007694824857889595
6.192,-0.007697565479783075
6.196,-0.007695041222775922
6.2,-0.007689247451930934
6.204,-0.007690257154733795
6.208,-0.007692132317081966
6.212,-0.007689944627675767
6.216,-0.0076898244249611405
6.22,-0.007689439776274336
6.224,-0.007691122614279105
6.228,-0.007688381992385624
6.232,-0.007688742600529504
6.236,-0.007694993141690072
6.24,-0.007690569681791824
6.244,-0.007688285830213923
6.248,-0.007696147087750484
6.252,-0.007695954763407083
6.256,-0.007688093505870522
6.26,-0.007687059762524735
6.264,-0.007684439343345882
6.268,-0.00768525672180534
6.272,-0.00769023311419087
6.276,-0.0076896561411606635
6.28,-0.007689391695188486
6.284,-0.007689584019531888
6.288,-0.007683742167601049
6.292,-0.007686386627322828
6.296,-0.007691266857536656
6.3,-0.007690641803420599
6.304,-0.007685208640719489
6.308,-0.007679486991503277
6.312,-0.007690425438534272
6.316,-0.0076936228307433316
6.32,-0.007687131884153511
6.324,-0.007684487424431732
6.328,-0.00768698764089596
6.332,-0.007686867438181333
6.336,-0.00768749249229739
6.34,-0.007690016749304542
6.344,-0.007684006613573226
6.348,-0.00768297287022744
6.352,-0.007683670045972273
6.356,-0.00768657895166623
6.36,-0.007693117979341901
6.364,-0.007689439776274336
6.368,-0.007683573883800572
6.372,-0.007683742167601049
6.376,-0.007683405600000095
6.38,-0.007682900748598664
6.384,-0.007684896113661461
6.388,-0.007692781411740948
6.392,-0.00769708466892457
6.396,-0.007692949695541425
6.4,-0.00769434404703109
6.404,-0.0076894157357314105
6.408,-0.007685569248863369
6.412,-0.007686410667865753
6.416,-0.007688574316729027
6.42,-0.007687588654469091
6.424,-0.007686675113837931
6.428,-0.007685232681262415
6.432,-0.007685232681262415
6.436,-0.007686410667865753
6.44,-0.007691218776450805
6.444,-0.007689728262789439
6.448,-0.007686458748951603
6.452,-0.007689584019531888
6.456,-0.007694223844316463
6.46,-0.00769109857373618
6.464,-0.007691122614279105
6.468,-0.007690545641248899
6.472,-0.007689223411388009
6.476,-0.007691867871109787
6.48,-0.007696387493179737
6.484,-0.007691771708938087
6.488,-0.00769206019545319
6.492,-0.007696411533722663
6.496,-0.007692877573912649
6.5,-0.007691699587309311
6.5040000000000004,-0.007690858168306927
6.508,-0.007693238182056528
6.5120000000000005,-0.00768977634387529
6.516,-0.007688117546413447
6.5200000000000005,-0.007689463816817261
6.524,-0.007686314505694052
6.5280000000000005,-0.0076867231949237814
6.532,-0.007689079168130457
6.5360000000000005,-0.007682780545884039
6.54,-0.007686771276009632
6.5440000000000005,-0.007691795749481012
6.548,-0.007687468451754465
6.5520000000000005,-0.007687107843610585
6.556,-0.007691579384594685
6.5600000000000005,-0.007687059762524735
6.564,-0.00768338155945717
6.5680000000000005,-0.007688261789670998
6.572,-0.00768794926261297
6.5760000000000005,-0.007685016316376088
6.58,-0.007685737532663846
6.5840000000000005,-0.007683742167601049
6.588,-0.007682732464798188
6.5920000000000005,-0.007685521167777518
6.596,-0.007684222978459554
6.6000000000000005,-0.007682708424255263
6.604,-0.007680112045619334
6.6080000000000005,-0.007677203139925377
6.612,-0.007679486991503277
6.6160000000000005,-0.007680496694306138
6.62,-0.0076791985049881745
6.6240000000000006,-0.007679438910417427
6.628,-0.007679559113132053
6.632000000000001,-0.007673188369256859
6.636,-0.007675448180291833
6.640000000000001,-0.0076738855450016906
6.644,-0.007674799085632851
6.648000000000001,-0.007676433842551769
6.652,-0.007675352018120132
6.656000000000001,-0.007674318274774346
6.66,-0.007675856869521562
6.664,-0.007674149990973869
6.668,-0.00767515969377673
6.672,-0.007674630801832374
6.676,-0.007675111612690879
6.68,-0.00767292392328468
6.684,-0.007675640504635235
6.688,-0.007674775045089926
6.692,-0.007671433409623314
6.696,-0.007678525369786267
6.7,-0.007676481923637619
6.704,-0.007676001112779114
6.708,-0.007669389963474667
6.712,-0.007674847166718702
6.716,-0.007681842964709953
6.72,-0.007672683517855427
6.724,-0.007672515234054951
6.728,-0.0076738855450016906
6.732,-0.007676698288523947
6.736,-0.007673717261201214
6.74,-0.007676602126352246
6.744,-0.0076800639645334835
6.748,-0.007678693653586743
6.752,-0.007676097274950815
6.756,-0.007678020518384836
6.76,-0.007680328410505662
6.764,-0.0076810977078792695
6.768,-0.0076826843837123375
6.772,-0.0076835498432576465
6.776,-0.00768155447819485
6.78,-0.007683621964886422
6.784,-0.007688718559986579
6.788,-0.00768383832977275
6.792,-0.007682107410682131
6.796,-0.007676049193864965
6.8,-0.007682227613396757
6.804,-0.007681314072765597
6.808,-0.0076781647616423875
6.812,-0.007680136086162259
6.816,-0.0076760251533220395
6.82,-0.007679438910417427
6.824,-0.007681410234937298
6.828,-0.0076765780858093205
6.832,-0.00767515969377673
6.836,-0.00767424615314557
6.84,-0.007674462518031897
6.844,-0.007679366788788651
6.848,-0.007679438910417427
6.852,-0.007677780112955584
6.856,-0.0076816506403665505
6.86,-0.007679366788788651
6.864,-0.007678645572500893
6.868,-0.007676626166895171
6.872,-0.00768068901864954
6.876,-0.007686530870580379
6.88,-0.007685328843434116
6.884,-0.007689559978988962
6.888,-0.007684150856830778
6.892,-0.007682492059368935
6.896,-0.007681362153851448
6.9,-0.007680496694306138
6.904,-0.007680905383535868
6.908,-0.007671361287994539
6.912,-0.007676385761465918
6.916,-0.00767607323440789
6.92,-0.007678453248157491
6.924,-0.007681626599823625
6.928,-0.007679895680733006
6.932,-0.00768342964054302
6.936,-0.007684415302802956
6.94,-0.007681674680909476
6.944,-0.0076806168970207644
6.948,-0.0076793187077028
6.952,-0.007678236883271163
6.956,-0.007672803720570054
6.96,-0.007677010815581975
6.964,-0.007679030221187697
6.968,-0.007677948396756061
6.972,-0.007672635436769577
6.976,-0.00767424615314557
6.98,-0.007678645572500893
6.984,-0.007674847166718702
6.988,-0.007671217044736987
6.992,-0.007675928991150338
6.996,-0.007673597058486588
7.0,-0.007669990977047798
7.0040000000000004,-0.007669702490532695
7.008,-0.007667274395697243
7.0120000000000005,-0.007670015017590724
7.016,-0.007669341882388816
7.0200000000000005,-0.007672346950254474
7.024,-0.007670063098676574
7.0280000000000005,-0.007668957233702012
7.032,-0.007674005747716317
7.0360000000000005,-0.007670063098676574
7.04,-0.007670664112249706
7.0440000000000005,-0.0076649184224905674
7.048,-0.007669029355330787
7.0520000000000005,-0.007673909585544616
7.056,-0.007671794017767193
7.0600000000000005,-0.007674630801832374
7.064,-0.007674654842375299
7.0680000000000005,-0.007673933626087541
7.072,-0.007673212409799783
7.0760000000000005,-0.007670423706820453
7.08,-0.007674029788259242
7.0840000000000005,-0.007672827761112979
7.088,-0.007671120882565286
7.0920000000000005,-0.007669630368903919
7.096,-0.007669438044560517
7.1000000000000005,-0.007669630368903919
7.104,-0.007670183301391201
7.1080000000000005,-0.007669558247275144
7.112,-0.007671144923108211
7.1160000000000005,-0.007669197639131264
7.12,-0.007666721463209962
7.1240000000000006,-0.007671673815052567
7.128,-0.007681049626793419
7.132000000000001,-0.007669870774333172
7.136,-0.007673188369256859
7.140000000000001,-0.007673452815229036
7.144,-0.007669702490532695
7.148000000000001,-0.007671433409623314
7.152,-0.007666673382124112
7.156000000000001,-0.0076678513687274494
7.16,-0.0076669859091821405
7.164000000000001,-0.007665591557692475
7.168,-0.007670207341934125
7.172,-0.0076664329766948595
7.176,-0.007662057597882461
7.18,-0.00766511074683397
7.184,-0.007669149558045414
7.188,-0.007670423706820453
7.192,-0.0076669137875533646
7.196,-0.007666673382124112
7.2,-0.007664822260318866
7.204,-0.007668428341757656
7.208,-0.007674775045089926
7.212,-0.007669822693247321
7.216,-0.007673308571971484
7.22,-0.007677876275127285
7.224,-0.007675712626264011
7.228,-0.007671673815052567
7.232,-0.007673476855771961
7.236,-0.007674486558574822
7.24,-0.007674077869345093
7.244,-0.007668837030987386
7.248,-0.0076672984362401685
7.252,-0.0076669137875533646
7.256,-0.00766830813904303
7.26,-0.0076642933683745106
7.264,-0.007666168530722681
7.268,-0.007668692787729834
7.272,-0.007672996044913456
7.276,-0.0076771310182966014
7.28,-0.007674486558574822
7.284,-0.0076725392745978765
7.288,-0.0076678994498133
7.292,-0.007673236450342708
7.296,-0.00767515969377673
7.3,-0.00767196230156767
7.304,-0.007673284531428559
7.308,-0.007675039491062103
7.312,-0.007668981274244938
7.316,-0.007670303504105826
7.32,-0.007672154625911072
7.324,-0.007667082071353842
7.328,-0.007670904517678958
7.332,-0.007670495828449229
7.336,-0.00767059199062093
7.34,-0.007674029788259242
7.344,-0.00767378938282999
7.348,-0.007669317841845891
7.352,-0.007664413571089137
7.356,-0.0076656155982354
7.36,-0.007662971138513622
7.364,-0.0076635000304579775
7.368,-0.00766607236855098
7.372,-0.007667346517326019
7.376,-0.007668236017414254
7.38,-0.007671361287994539
7.384,-0.0076638125575160055
7.388,-0.007664942463033493
7.392,-0.00766054304367817
7.396,-0.007665856003664653
7.4,-0.0076703996662775276
7.404,-0.007666312773980233
7.408,-0.007662057597882461
7.412,-0.007664437611632062
7.416,-0.007661865273539059
7.42,-0.0076579466650422414
7.424,-0.007657177367668633
7.428,-0.0076613604221376285
7.432,-0.0076630192195994715
7.436,-0.0076635000304579775
7.44,-0.007662730733084369
7.444,-0.007665831963121728
7.448,-0.007665591557692475
7.452,-0.007666817625381663
7.456,-0.0076709525987648085
7.46,-0.007675376058663057
7.464,-0.007662658611455593
7.468,-0.007666360855066084
7.472,-0.007664581854889614
7.476,-0.0076674667200406455
7.48,-0.0076619133546249095
7.484,-0.0076610478950796005
7.488,-0.007660927692364974
7.492,-0.007657970705585167
7.496,-0.007660903651822049
7.5,-0.00766145658430933
7.5040000000000004,-0.007664798219775941
7.508,-0.007661672949195657
7.5120000000000005,-0.007657129286582782
7.516,-0.00765698504332523
7.5200000000000005,-0.007655133921519986
7.524,-0.007656191705408697
7.5280000000000005,-0.0076603266787918425
7.532,-0.007660446881506469
7.5360000000000005,-0.007661312341051778
7.54,-0.007664221246745735
7.5440000000000005,-0.007659581421961159
7.548,-0.007656864840610605
7.5520000000000005,-0.007656456151380875
7.556,-0.007659942030105039
7.5600000000000005,-0.007660855570736198
7.564,-0.007663692354801379
7.5680000000000005,-0.007656768678438904
7.572,-0.00766099981399375
7.5760000000000005,-0.0076614325437664044
7.58,-0.007655855137807743
7.5840000000000005,-0.007656816759524754
7.588,-0.00765698504332523
7.5920000000000005,-0.007658860205673401
7.596,-0.007658042827213943
7.6000000000000005,-0.007655085840434135
7.604,-0.0076557349350931175
7.6080000000000005,-0.007658836165130476
7.612,-0.0076579466650422414
7.6160000000000005,-0.0076597737463045615
7.62,-0.007659413138160682
7.6240000000000006,-0.007661288300508853
7.628,-0.007660735368021572
7.632000000000001,-0.007659100611102654
7.636,-0.00766556751714955
7.640000000000001,-0.007661023854536675
7.644,-0.007654292502517601
7.648000000000001,-0.007656191705408697
7.652,-0.007668163895785478
7.656000000000001,-0.0076633317466575
7.66,-0.007662682651998518
7.664000000000001,-0.0076627066925414435
7.668,-0.007654989678262434
7.672000000000001,-0.0076592208138172805
7.676,-0.007660615165306945
7.68,-0.0076589804083880275
7.684,-0.007657658178527138
7.688,-0.007656816759524754
7.692,-0.007656504232466725
7.696,-0.0076534270429722915
7.7,-0.007658163029928569
7.704,-0.0076616008275668815
7.708,-0.007663572152086753
7.712,-0.007663091341228247
7.716,-0.007661721030281508
7.72,-0.007662057597882461
7.724,-0.007660975773450825
7.728,-0.007662778814170219
7.732,-0.007663668314258454
7.736,-0.00766054304367817
7.74,-0.0076582591921002694
7.744,-0.007660254557163067
7.748,-0.007660446881506469
7.752,-0.007664221246745735
7.756,-0.007658571719158298
7.76,-0.007655686854007267
7.764,-0.007656119583779921
7.768,-0.007660422840963544
7.772,-0.007662923057427771
7.776,-0.0076597737463045615
7.78,-0.007659701624675786
7.784,-0.007661095976165451
7.788,-0.0076629470979706965
7.792,-0.007664750138690091
7.796,-0.007663379827743351
7.8,-0.007661095976165451
7.804,-0.007655398367492163
7.808,-0.007662033557339536
7.812,-0.007658211111014419
7.816,-0.00765967758413286
7.82,-0.007661216178880077
7.824,-0.007659028489473878
7.828,-0.00765597534052237
7.832,-0.0076595333408753085
7.836,-0.00766378851697308
7.84,-0.007661793151910283
7.844,-0.007662899016884846
7.848,-0.007660687286935721
7.852,-0.007663451949372127
7.856,-0.007663139422314098
7.86,-0.007660927692364974
7.864,-0.0076557349350931175
7.868,-0.007654412705232228
7.872,-0.007655326245863387
7.876,-0.007654268461974676
7.88,-0.007658451516443672
7.884,-0.007658018786671017
7.888,-0.00765414825926005
7.892,-0.007658138989385644
7.896,-0.007658691921872925
7.9,-0.00765962950304701
7.904,-0.007661168097794227
7.908,-0.007658691921872925
7.912,-0.007658403435357821
7.916,-0.007659437178703607
7.92,-0.007660302638248917
7.924,-0.007657465854183736
7.928,-0.007657369692012035
7.932,-0.007663668314258454
7.936,-0.007662129719511237
7.94,-0.007664485692717913
7.944,-0.007662057597882461
7.948,-0.007664894381947642
7.952,-0.007668692787729834
7.956,-0.007665807922578803
7.96,-0.007661576787023956
7.964,-0.007657682219070063
7.968,-0.007657441813640811
7.972,-0.007655590691835566
7.976,-0.007658403435357821
7.98,-0.007663307706114575
7.984,-0.0076603266787918425
7.988,-0.007661216178880077
7.992,-0.00766241820602634
7.996,-0.007660783449107422
8.0,-0.007661095976165451
8.004,-0.007662899016884846
8.008000000000001,-0.0076577062596129885
8.012,-0.007660422840963544
8.016,-0.007659749705761636
8.02,-0.007660302638248917
8.024000000000001,-0.007663475989915052
8.028,-0.007668115814699628
8.032,-0.007667683084926973
8.036,-0.0076624662871121905
8.040000000000001,-0.007656359989209174
8.044,-0.007658090908299793
8.048,-0.007656167664865772
8.052,-0.0076558070567218925
8.056000000000001,-0.007659100611102654
8.06,-0.0076575620163554375
8.064,-0.007664461652174988
8.068,-0.007659244854360206
8.072000000000001,-0.007660038192276739
8.076,-0.007659701624675786
8.08,-0.007656119583779921
8.084,-0.007654580989032704
8.088000000000001,-0.007653715529487395
8.092,-0.007654436745775153
8.096,-0.007657489894726662
8.1,-0.007655903218893594
8.104000000000001,-0.007657177367668633
8.108,-0.00765785050287054
8.112,-0.007656720597353053
8.116,-0.007655037759348285
8.120000000000001,-0.0076512874346519434
8.124,-0.007653715529487395
8.128,-0.007649724799361802
8.132,-0.007649676718275951
8.136000000000001,-0.007652104813111403
8.14,-0.007654172299802975
8.144,-0.007655326245863387
8.148,-0.007655446448578014
8.152000000000001,-0.007659725665218711
8.156,-0.007659268894903131
8.16,-0.007650926826508065
8.164,-0.007650566218364185
8.168000000000001,-0.007651095110308541
8.172,-0.007655398367492163
8.176,-0.007658283232643195
8.18,-0.007657129286582782
8.184000000000001,-0.007651143191394392
8.188,-0.007654316543060527
8.192,-0.007657417773097886
8.196,-0.007656864840610605
8.2,-0.007656239786494548
8.204,-0.00765597534052237
8.208,-0.007654364624146377
8.212,-0.007654725232290256
8.216,-0.007656864840610605
8.22,-0.007658451516443672
8.224,-0.007656143624322847
8.228,-0.007651936529310926
8.232,-0.007648234285700435
8.236,-0.007649893083162278
8.24,-0.007651095110308541
8.244,-0.007651624002252897
8.248,-0.007656864840610605
8.252,-0.0076562878675803985
8.256,-0.007657586056898362
8.26,-0.007662634570912668
8.264,-0.007650758542707588
8.268,-0.00764775347484193
8.272,-0.00765455694848978
8.276,-0.007647633272127303
8.28,-0.007646190839551787
8.284,-0.0076534270429722915
8.288,-0.007655182002605836
8.292,-0.0076562878675803985
8.296,-0.007655951299979444
8.3,-0.007650638339992961
8.304,-0.007649989245333979
8.308,-0.00765095086705099
8.312,-0.007649748839904727
8.316,-0.007648450650586763
8.32,-0.00765236925908358
8.324,-0.007650470056192484
8.328,-0.007647609231584378
8.332,-0.007649989245333979
8.336,-0.00765099894813684
8.34,-0.007649316110132072
8.344,-0.007650878745422214
8.348,-0.0076517682455104485
8.352,-0.007657610097441287
8.356,-0.007648402569500912
8.36,-0.00764597447466546
8.364,-0.007646984177468321
8.368,-0.00764638316389519
8.372,-0.007649292069589146
8.376,-0.00765003732641983
8.38,-0.007654004016002498
8.384,-0.007655037759348285
8.388,-0.007647489028869752
8.392,-0.00764643124498104
8.396,-0.007648763177644791
8.4,-0.007646791853124919
8.404,-0.007647849637013631
8.408,-0.007650109448048606
8.412,-0.007650518137278335
8.416,-0.007655855137807743
8.42,-0.007656335948666249
8.424,-0.0076485227722155385
8.428,-0.007649484393932549
8.432,-0.007652946232113786
8.436,-0.007649243988503296
8.44,-0.007648642974930164
8.444,-0.007651672083338747
8.448,-0.007651335515737794
8.452,-0.007653162597000114
8.456,-0.007651191272480242
8.46,-0.007650974907593915
8.464,-0.0076447964880621225
8.468,-0.007646238920637638
8.472,-0.0076461427584659375
8.476,-0.007640541311964351
8.48,-0.007640108582191696
8.484,-0.007645541744892806
8.488,-0.00764643124498104
8.492,-0.00764638316389519
8.496,-0.007644772447519197
8.5,-0.007642584758112998
8.504,-0.007642536677027148
8.508000000000001,-0.007645613866521581
8.512,-0.007647344785612201
8.516,-0.0076482823667862855
8.52,-0.0076503498534778586
8.524000000000001,-0.0076504940967354095
8.528,-0.007646359123352264
8.532,-0.007648474691129688
8.536,-0.007658571719158298
8.540000000000001,-0.007658090908299793
8.544,-0.007652200975283103
8.548,-0.00764871509655894
8.552,-0.007647344785612201
8.556000000000001,-0.0076470082180112465
8.56,-0.007647344785612201
8.564,-0.007650926826508065
8.568,-0.007647320745069275
8.572000000000001,-0.007646551447695667
8.576,-0.007646479326066891
8.58,-0.007643161731143204
8.584,-0.007646984177468321
8.588000000000001,-0.007652200975283103
8.592,-0.007642344352683746
8.596,-0.007645229217834777
8.6,-0.007653066434828413
8.604000000000001,-0.007655085840434135
8.608,-0.0076496286371901005
8.612,-0.007647513069412677
8.616,-0.0076503498534778586
8.620000000000001,-0.007654004016002498
8.624,-0.007651672083338747
8.628,-0.007647993880271182
8.632,-0.0076450609340343
8.636000000000001,-0.007640252825449247
8.64,-0.007639892217305369
8.644,-0.007643594460915859
8.648,-0.0076450609340343
8.652000000000001,-0.007646503366609816
8.656,-0.007653186637543039
8.66,-0.007649316110132072
8.664,-0.007649412272303773
8.668000000000001,-0.007646335082809339
8.672,-0.007642584758112998
8.676,-0.007641262528252109
8.68,-0.007644580123175795
8.684000000000001,-0.007639267163189312
8.688,-0.007639363325361013
8.692,-0.007639844136219518
8.696,-0.007642873244628101
8.700000000000001,-0.007645806190864983
8.704,-0.007639267163189312
8.708,-0.007636815027810935
8.712,-0.007637728568442095
8.716,-0.007638882514502508
8.72,-0.007640421109249724
8.724,-0.007643594460915859
8.728,-0.007643017487885653
8.732,-0.007643113650057354
8.736,-0.007646238920637638
8.74,-0.007648763177644791
8.744,-0.00765003732641983
8.748,-0.0076485227722155385
8.752,-0.007646190839551787
8.756,-0.007642656879741774
8.76,-0.007645637907064506
8.764,-0.007651960569853851
8.768,-0.007645613866521581
8.772,-0.007648691056016015
8.776,-0.007647873677556556
8.78,-0.007643570420372934
8.784,-0.0076397960551336675
8.788,-0.00763962777133319
8.792,-0.007640012420019995
8.796,-0.007642152028340343
8.8,-0.0076425607175700724
8.804,-0.007643065568971504
8.808,-0.007642344352683746
8.812,-0.007642945366256877
8.816,-0.007644411839375318
8.82,-0.007645229217834777
8.824,-0.0076416231363959876
8.828,-0.007637271798126515
8.832,-0.007637776649527945
8.836,-0.007654124218717124
8.84,-0.007655879178350668
8.844,-0.007647585191041453
8.848,-0.007643113650057354
8.852,-0.00764775347484193
8.856,-0.007646599528781517
8.86,-0.007642368393226671
8.864,-0.0076405893930502015
8.868,-0.007644508001547019
8.872,-0.007646022555751311
8.876,-0.007646815893667844
8.88,-0.007646743772039069
8.884,-0.007643450217658308
8.888,-0.007644748406976272
8.892,-0.0076451811367489264
8.896,-0.007646791853124919
8.9,-0.007646359123352264
8.904,-0.007643305974400756
8.908,-0.007646118717923012
8.912,-0.007649845002076427
8.916,-0.0076510470292226905
8.92,-0.007647513069412677
8.924,-0.007647320745069275
8.928,-0.007649003583074044
8.932,-0.00764739286669805
8.936,-0.007645517704349881
8.94,-0.007635637041207597
8.944,-0.007642825163542251
8.948,-0.007645878312493759
8.952,-0.007646719731496144
8.956,-0.007650253691306157
8.96,-0.007648739137101865
8.964,-0.007643906987973887
8.968,-0.007644820528605048
8.972,-0.007652801988856235
8.976,-0.007650277731849083
8.98,-0.007642608798655923
8.984,-0.007642440514855447
8.988,-0.00764364254200171
8.992,-0.007650061366962755
8.996,-0.007649364191217922
9.0,-0.007647873677556556
9.004,-0.007648186204614584
9.008000000000001,-0.007648907420902342
9.012,-0.00765003732641983
9.016,-0.007651888448225075
9.02,-0.007649893083162278
9.024000000000001,-0.007648979542531118
9.028,-0.007646094677380087
9.032,-0.007646190839551787
9.036,-0.0076488352992735665
9.040000000000001,-0.007645782150322058
9.044,-0.0076486670154730894
9.048,-0.0076496286371901005
9.052,-0.007650758542707588
9.056000000000001,-0.007655326245863387
9.06,-0.0076510470292226905
9.064,-0.007637848771156721
9.068,-0.0076403489876209485
9.072000000000001,-0.007638113217128899
9.076,-0.00763953160916149
9.08,-0.007644171433946066
9.084,-0.007643618501458785
9.088000000000001,-0.00764095000119408
9.092,-0.00764044514979265
9.096,-0.007641599095853062
9.1,-0.007639699892961966
9.104000000000001,-0.007642584758112998
9.108,-0.007638978676674208
9.112,-0.007636694825096308
9.116,-0.0076382093793006004
9.120000000000001,-0.007636646744010458
9.124,-0.0076416231363959876
9.128,-0.007647921758642407
9.132,-0.0076443156772036175
9.136000000000001,-0.007641334649880885
9.14,-0.007644411839375318
9.144,-0.0076464552855239655
9.148,-0.007642464555398372
9.152000000000001,-0.007640060501105846
9.156,-0.007634819662748138
9.16,-0.007633040662571668
9.164,-0.007635060068177391
9.168000000000001,-0.007639315244275162
9.172,-0.00764409931231729
9.176,-0.0076384497847298526
9.18,-0.007641551014767212
9.184000000000001,-0.007641959703996941
9.188,-0.0076427770824564
9.192,-0.007643354055486606
9.196,-0.007646984177468321
9.200000000000001,-0.007643738704173411
9.204,-0.007638786352330807
9.208,-0.007640661514678977
9.212,-0.007644676285347496
9.216000000000001,-0.007640397068706799
9.22,-0.007640709595764828
9.224,-0.007644580123175795
9.228,-0.007646503366609816
9.232,-0.007642031825625717
9.236,-0.007637536244098693
9.24,-0.007633617635601875
9.244,-0.007636574622381682
9.248,-0.007639651811876116
9.252,-0.007640373028163874
9.256,-0.007648883380359417
9.26,-0.007643666582544635
9.264,-0.007641935663454016
9.268,-0.00764232031214082
9.272,-0.007640637474136052
9.276,-0.007642344352683746
9.28,-0.007642993447342728
9.284,-0.007636983311611412
9.288,-0.007637536244098693
9.292,-0.0076416952580247634
9.296,-0.007643979109602663
9.3,-0.007647585191041453
9.304,-0.007639267163189312
9.308,-0.007636694825096308
9.312,-0.007637944933328422
9.316,-0.0076346513789476616
9.32,-0.007642200109426194
9.324,-0.007644459920461168
9.328,-0.007641070203908707
9.332,-0.00763638229803828
9.336,-0.007634891784376914
9.34,-0.0076385219063586285
9.344,-0.007641070203908707
9.348,-0.007640998082279931
9.352,-0.0076409019201082295
9.356,-0.007638882514502508
9.36,-0.007639339284818088
9.364,-0.007643257893314905
9.368,-0.007643113650057354
9.372,-0.007643065568971504
9.376,-0.007644171433946066
9.38,-0.007644676285347496
9.384,-0.0076483544884150614
9.388,-0.007642608798655923
9.392,-0.007637464122469917
9.396,-0.007647200542354649
9.4,-0.007642825163542251
9.404,-0.007637944933328422
9.408,-0.007634170568089156
9.412,-0.007638257460386451
9.416,-0.007644820528605048
9.42,-0.0076443877988323925
9.424,-0.0076438348663451115
9.428,-0.00764227223105497
9.432,-0.0076363101764095045
9.436,-0.007642512636484223
9.44,-0.007643185771686129
9.444,-0.007642440514855447
9.448,-0.007636887149439711
9.452,-0.0076376564468133195
9.456,-0.007642753041913475
9.46,-0.007647513069412677
9.464,-0.007644508001547019
9.468,-0.0076482823667862855
9.472,-0.007648474691129688
9.476,-0.007643810825802186
9.48,-0.007642993447342728
9.484,-0.007645589825978656
9.488,-0.007637392000841141
9.492,-0.007644339717746543
9.496,-0.007648402569500912
9.5,-0.007644772447519197
9.504,-0.007640517271421426
9.508000000000001,-0.007639772014590742
9.512,-0.007646094677380087
9.516,-0.007647993880271182
9.52,-0.007646960136925396
9.524000000000001,-0.007646575488238592
9.528,-0.007642224149969119
9.532,-0.007642031825625717
9.536,-0.007647344785612201
9.540000000000001,-0.007645637907064506
9.544,-0.00763912291993176
9.548,-0.007640228784906322
9.552,-0.0076405893930502015
9.556000000000001,-0.007643185771686129
9.56,-0.007649316110132072
9.564,-0.0076475611504985275
9.568,-0.007649508434475474
9.572000000000001,-0.007648883380359417
9.576,-0.007638978676674208
9.58,-0.007638425744186927
9.584,-0.007636983311611412
9.588000000000001,-0.0076464552855239655
9.592,-0.0076459023530366845
9.596,-0.007645253258377702
9.6,-0.0076411423255374825
9.604000000000001,-0.007635613000664672
9.608,-0.007639699892961966
9.612,-0.00764364254200171
9.616,-0.007641214447166258
9.620000000000001,-0.007642945366256877
9.624,-0.007642753041913475
9.628,-0.007643161731143204
9.632,-0.007640469190335575
9.636000000000001,-0.007646166799008862
9.64,-0.007645157096206001
9.644,-0.007643786785259261
9.648,-0.007641094244451632
9.652000000000001,-0.007639940298391219
9.656,-0.0076385219063586285
9.66,-0.007639026757760059
9.664,-0.00763912291993176
9.668000000000001,-0.0076424164743125215
9.672,-0.007641070203908707
9.676,-0.007642825163542251
9.68,-0.007645998515208386
9.684000000000001,-0.007636045730437326
9.688,-0.0076413106093379595
9.692,-0.007640252825449247
9.696,-0.007641599095853062
9.700000000000001,-0.00764140677150966
9.704,-0.0076371756359548135
9.708,-0.0076353485546924935
9.712,-0.007633040662571668
9.716000000000001,-0.00763405036537453
9.72,-0.007636165933151953
9.724,-0.00763770452789917
9.728,-0.00763957969024734
9.732,-0.007639507568618565
9.736,-0.0076374160413840665
9.74,-0.007636214014237803
9.744,-0.00764227223105497
9.748,-0.007640709595764828
9.752,-0.0076360697709802515
9.756,-0.0076447964880621225
9.76,-0.007645830231407909
9.764,-0.0076427770824564
9.768,-0.007641022122822856
9.772,-0.007636766946725084
9.776,-0.007631357824566899
9.78,-0.007631069338051796
9.784,-0.00763405036537453
9.788,-0.007632631973341939
9.792,-0.007630203878506487
9.796,-0.007633016622028743
9.8,-0.007632175203026359
9.804,-0.0076331368247433695
9.808,-0.007634603297861811
9.812,-0.007633882081574053
9.816,-0.0076392431226463865
9.82,-0.007638089176585974
9.824,-0.007634843703291063
9.828,-0.007637728568442095
9.832,-0.007642849204085176
9.836,-0.0076414548525955105
9.84,-0.007639435446989789
9.844,-0.007643017487885653
9.848,-0.007639772014590742
9.852,-0.0076371035143260385
9.856,-0.0076360697709802515
9.86,-0.007637488163012842
9.864,-0.00763501198709154
9.868,-0.0076355889601217464
9.872,-0.007637031392697263
9.876,-0.007637007352154337
9.88,-0.007640300906535098
9.884,-0.007643882947430962
9.888,-0.007641382730966735
9.892,-0.007638089176585974
9.896,-0.007636935230525561
9.9,-0.007640541311964351
9.904,-0.007641791420196465
9.908,-0.0076403489876209485
9.912,-0.007643955069059738
9.916,-0.007636502500752907
9.92,-0.00763962777133319
9.924,-0.007639699892961966
9.928,-0.007636670784553383
9.932,-0.007638113217128899
9.936,-0.007636189973694878
9.94,-0.007638017054957198
9.944,-0.007631766513796629
9.948,-0.007628833567559746
9.952,-0.007627270932269605
9.956,-0.007630324081221113
9.96,-0.007630756810993768
9.964,-0.007630179837963561
9.968,-0.00762546789155021
9.972,-0.007626790121411099
9.976,-0.007630804892079618
9.98,-0.007629482662218729
9.984,-0.007625756378065313
9.988,-0.007627920026928587
9.992,-0.007628569121587569
9.996,-0.007630804892079618
10.0,-0.007634675419490587
10.004,-0.007630251959592337
10.008000000000001,-0.007631694392167854
10.012,-0.007631357824566899
10.016,-0.007632487730084387
10.02,-0.007634531176233035
10.024000000000001,-0.007631742473253704
10.028,-0.007636141892609027
10.032,-0.007639050798302984
10.036,-0.007635613000664672
10.040000000000001,-0.007635108149263241
10.044,-0.007636526541295832
10.048,-0.007635300473606644
10.052,-0.0076301077163347854
10.056000000000001,-0.007633257027457996
10.06,-0.007632848338228267
10.064,-0.0076304202433928135
10.068,-0.007631598229996153
10.072000000000001,-0.007633737838316501
10.076,-0.007632295405740986
10.08,-0.0076368631088967855
10.084,-0.007639747974047817
10.088000000000001,-0.007640132622734622
10.092,-0.007635781284465149
10.096,-0.007634843703291063
10.1,-0.007637127554868964
10.104000000000001,-0.007634699460033512
10.108,-0.007630973175880095
10.112,-0.0076347235005764374
10.116,-0.007636262095323654
10.120000000000001,-0.007640829798479454
10.124,-0.00764414739340314
10.128,-0.0076445560826328696
10.132,-0.00763780069007087
10.136000000000001,-0.007629843270362607
10.14,-0.007632199243569285
10.144,-0.007637464122469917
10.148,-0.007636045730437326
10.152000000000001,-0.007637848771156721
10.156,-0.0076366227034675325
10.16,-0.007634579257318886
10.164,-0.007636815027810935
10.168000000000001,-0.0076374160413840665
10.172,-0.007635805325008074
10.176,-0.0076347956222052125
10.18,-0.00763099721642302
10.184000000000001,-0.007633353189629697
10.188,-0.0076355889601217464
10.192,-0.0076329685409428924
10.196,-0.007633112784200444
10.200000000000001,-0.007635540879035896
10.204,-0.007638714230702031
10.208,-0.007638113217128899
10.212,-0.007635613000664672
10.216000000000001,-0.007635084108720316
10.22,-0.007633737838316501
10.224,-0.007636045730437326
10.228,-0.007638473825272778
10.232000000000001,-0.007632175203026359
10.236,-0.007628641243216344
10.24,-0.007628881648645597
10.244,-0.007631093378594721
10.248,-0.007633257027457996
10.252,-0.007632295405740986
10.256,-0.007632896419314117
10.26,-0.007631093378594721
10.264,-0.0076284489188729425
10.268,-0.007631093378594721
10.272,-0.007626790121411099
10.276,-0.007624674553633676
10.28,-0.007624866877977078
10.284,-0.007630155797420636
10.288,-0.007634603297861811
10.292,-0.00763450713569011
10.296,-0.00763405036537453
10.3,-0.007633978243745754
10.304,-0.0076300355947060096
10.308,-0.007630925094794245
10.312,-0.007633858041031128
10.316,-0.0076300355947060096
10.32,-0.007628521040501718
10.324,-0.007632439648998537
10.328,-0.007632127121940509
10.332,-0.007633281068000921
10.336,-0.007631165500223497
10.34,-0.007627631540413483
10.344,-0.0076274872971559314
10.348,-0.007632607932799014
10.352,-0.007632535811170238
10.356,-0.007631502067824452
10.36,-0.007632006919225882
10.364,-0.007626717999782324
10.368,-0.007623857175174217
10.372,-0.007623184039972309
10.376,-0.007624506269833199
10.38,-0.007628521040501718
10.384,-0.007626717999782324
10.388,-0.00763099721642302
10.392,-0.007631694392167854
10.396,-0.007627992148557362
10.4,-0.007627006486297426
10.404,-0.0076321030813975834
10.408,-0.007625900621322864
10.412,-0.007625540013178986
10.416,-0.00762328020214401
10.42,-0.007629482662218729
10.424,-0.007631285702938123
10.428,-0.007628160432357839
10.432,-0.00762364081028789
10.436,-0.007622558985856253
10.44,-0.00762739113498423
10.444,-0.0076291701351607006
10.448,-0.007625347688835583
10.452,-0.007619746242333997
10.456,-0.007623304242686936
10.46,-0.007623424445401562
10.464,-0.007626116986209192
10.468,-0.007627511337698857
10.472,-0.007625179405035106
10.476,-0.00762729497281253
10.48,-0.007628569121587569
10.484,-0.007628905689188522
10.488,-0.007623256161601085
10.492,-0.0076240014184317684
10.496,-0.007630492365021589
10.5,-0.007634531176233035
10.504,-0.007633569554516024
10.508000000000001,-0.0076258284996940885
10.512,-0.00762546789155021
10.516,-0.007627078607926202
10.52,-0.007624938999605854
10.524000000000001,-0.007623833134631291
10.528,-0.0076247226347195265
10.532,-0.007629025891903149
10.536,-0.007627006486297426
10.540000000000001,-0.007625323648292658
10.544,-0.007623785053545441
10.548,-0.007625203445578032
10.552,-0.007622607066942103
10.556000000000001,-0.00761998664776325
10.56,-0.007621741607396794
10.564,-0.007627367094441306
10.568,-0.007623159999429385
10.572000000000001,-0.007628040229643212
10.576,-0.007634915824919839
10.58,-0.007624650513090751
10.584,-0.007624289904946872
10.588000000000001,-0.007617774917814125
10.592,-0.007618520174644808
10.596,-0.007625564053721911
10.6,-0.007625756378065313
10.604000000000001,-0.007626116986209192
10.608,-0.0076290018513602235
10.612,-0.007626453553810145
10.616,-0.0076258284996940885
10.620000000000001,-0.007627703662042259
10.624,-0.00763054044610744
10.628,-0.007628376797244167
10.632,-0.007625203445578032
10.636000000000001,-0.007625203445578032
10.64,-0.0076346513789476616
10.644,-0.007633569554516024
10.648,-0.0076274872971559314
10.652000000000001,-0.007631237621852273
10.656,-0.007634459054604259
10.66,-0.007638738271244956
10.664,-0.007637055433240188
10.668000000000001,-0.007628689324302195
10.672,-0.007628953770274373
10.676,-0.00762962690547628
10.68,-0.007633305108543847
10.684000000000001,-0.007631453986738601
10.688,-0.007628593162130493
10.692,-0.007629194175703625
10.696,-0.007632391567912686
10.700000000000001,-0.007631237621852273
10.704,-0.007630516405564515
10.708,-0.007629939432534308
10.712,-0.0076301077163347854
10.716000000000001,-0.007633088743657519
10.72,-0.007635564919578821
10.724,-0.00762739113498423
10.728,-0.007625227486120957
10.732000000000001,-0.007624674553633676
10.736,-0.007628545081044644
10.74,-0.007631021256965945
10.744,-0.00763268005442779
10.748000000000001,-0.007629073972988999
10.752,-0.007630660648822066
10.756,-0.00762592466186579
10.76,-0.007626477594353071
10.764,-0.007622943634543057
10.768,-0.007619674120705221
10.772,-0.0076271747700979034
10.776,-0.0076302760001352625
10.78,-0.0076291701351607006
10.784,-0.007630444283935739
10.788,-0.0076282085134436895
10.792,-0.0076301077163347854
10.796,-0.0076274872971559314
10.8,-0.007623328283229861
10.804,-0.007629674986562131
10.808,-0.007632656013884864
10.812,-0.007626237188923818
10.816,-0.0076284489188729425
10.82,-0.007628953770274373
10.824,-0.007627246891726679
10.828,-0.007627150729554978
10.832,-0.00762414566168932
10.836,-0.007626237188923818
10.84,-0.007625227486120957
10.844,-0.007624193742775171
10.848,-0.0076208280667656335
10.852,-0.007622390702055776
10.856,-0.007627150729554978
10.86,-0.007628088310729063
10.864,-0.007626333351095519
10.868,-0.007626790121411099
10.872,-0.007624073540060544
10.876,-0.007627583459327633
10.88,-0.007633665716687725
10.884,-0.007633064703114594
10.888,-0.007635733203379298
10.892,-0.007632487730084387
10.896,-0.007628328716158316
10.9,-0.007628160432357839
10.904,-0.007624073540060544
10.908,-0.007625852540237014
10.912,-0.007628280635072465
10.916,-0.007626597797067697
10.92,-0.007627679621499334
10.924,-0.007630227919049412
10.928,-0.007627775783671035
10.932,-0.007632055000311733
10.936,-0.007628496999958793
10.94,-0.007623905256260067
10.944,-0.007619289472018417
10.948,-0.007619385634190118
10.952,-0.007625756378065313
10.956,-0.007625948702408715
10.96,-0.007626213148380892
10.964,-0.007623111918343534
10.968,-0.007627198810640829
10.972,-0.007627078607926202
10.976,-0.0076258284996940885
10.98,-0.007621621404682167
10.984,-0.007626285270009668
10.988,-0.007624410107661498
10.992,-0.007619217350389641
10.996,-0.007622198377712374
11.0,-0.007620154931563727
11.004,-0.007619553917990595
11.008000000000001,-0.007623953337345918
11.012,-0.007624987080691704
11.016,-0.007622727269656729
11.02,-0.007622318580427
11.024000000000001,-0.00762364081028789
11.028,-0.007633064703114594
11.032,-0.007633449351801398
11.036,-0.007625948702408715
11.040000000000001,-0.007625419810464359
11.044,-0.00762409758060347
11.048,-0.0076247226347195265
11.052,-0.007624410107661498
11.056000000000001,-0.007623328283229861
11.06,-0.007618832701702837
11.064,-0.007619361593647193
11.068,-0.007619914526134474
11.072000000000001,-0.0076217896884826445
11.076,-0.007619818363962773
11.08,-0.007622534945313328
11.084,-0.0076215492830533915
11.088000000000001,-0.007621429080338765
11.092,-0.007621140593823662
11.096,-0.00762186181011142
11.1,-0.007623304242686936
11.104000000000001,-0.0076255159726360605
11.108,-0.007624193742775171
11.112,-0.00762227049934115
11.116,-0.007622751310199655
11.120000000000001,-0.007625540013178986
11.124,-0.007628160432357839
11.128,-0.00761815956650093
11.132,-0.0076244822292902735
11.136000000000001,-0.007625540013178986
11.14,-0.007619818363962773
11.144,-0.007621837769568495
11.148,-0.007620779985679783
11.152000000000001,-0.007622558985856253
11.156,-0.007621308877624139
11.16,-0.0076180634043292285
11.164,-0.007617149863698069
11.168000000000001,-0.007617582593470723
11.172,-0.007617871079985826
11.176,-0.007615947836551806
11.18,-0.007628016189100287
11.184000000000001,-0.007623857175174217
11.188,-0.0076186163368165095
11.192,-0.007616933498811741
11.196,-0.007617943201614602
11.200000000000001,-0.007618952904417464
11.204,-0.007617774917814125
11.208,-0.007621260796538289
11.212,-0.007619794323419847
11.216000000000001,-0.007619650080162296
11.22,-0.00761683733664004
11.224,-0.00761729410695562
11.228,-0.007620227053192502
11.232000000000001,-0.00761957795853352
11.236,-0.007618904823331613
11.24,-0.007615322782435749
11.244,-0.007615731471665478
11.248000000000001,-0.0076154429851503745
11.252,-0.0076180634043292285
11.256,-0.007619794323419847
11.26,-0.007618760580074061
11.264,-0.007618472093558958
11.268,-0.007618640377359435
11.272,-0.007622943634543057
11.276,-0.007626237188923818
11.28,-0.007619097147675015
11.284,-0.0076164767284961615
11.288,-0.007615635309493777
11.292,-0.00762094826948026
11.296,-0.00762277535074258
11.3,-0.007620203012649577
11.304,-0.007617558552927798
11.308,-0.007617173904240993
11.312,-0.007613375498458802
11.316,-0.0076145775256050655
11.32,-0.007614697728319692
11.324,-0.007613976512031934
11.328,-0.007614866012120168
11.332,-0.007616356525781535
11.336,-0.007614769849948467
11.34,-0.007611764782082809
11.344,-0.007611884984797436
11.348,-0.0076167892555541895
11.352,-0.007614289039089962
11.356,-0.007610226187335593
11.36,-0.007611043565795052
11.364,-0.007618712498988211
11.368,-0.0076135437822592794
11.372,-0.007613327417372952
11.376,-0.007617053701526368
11.38,-0.007616813296097115
11.384,-0.007615611268950852
11.388,-0.007617486431299022
11.392,-0.007617871079985826
11.396,-0.007618904823331613
11.4,-0.0076175104718419475
11.404,-0.007616981579897592
11.408,-0.007619049066589164
11.412,-0.007618496134101883
11.416,-0.007618736539531136
11.42,-0.007619241390932566
11.424,-0.007618039363786303
11.428,-0.007623039796714758
11.432,-0.007626501634895996
11.436,-0.007621621404682167
11.44,-0.0076205155397076054
11.444,-0.0076271026484691275
11.448,-0.007622919594000132
11.452,-0.007623712931916666
11.456,-0.007621717566853869
11.46,-0.007620154931563727
11.464,-0.007622943634543057
11.468,-0.007616284404152759
11.472,-0.007614793890491392
11.476,-0.007621693526310943
11.48,-0.007623761013002516
11.484,-0.007622583026399178
11.488,-0.007624434148204423
11.492,-0.007624434148204423
11.496,-0.00762414566168932
11.5,-0.007624987080691704
11.504,-0.00762364081028789
11.508000000000001,-0.007618231688129706
11.512,-0.007616596931210787
11.516,-0.007621020391109036
11.52,-0.007622294539884075
11.524000000000001,-0.007621741607396794
11.528,-0.007616861377182965
11.532,-0.007622414742598701
11.536,-0.007620587661336381
11.540000000000001,-0.007626285270009668
11.544,-0.007627367094441306
11.548,-0.007618135525958004
11.552,-0.007617149863698069
11.556000000000001,-0.007617871079985826
11.56,-0.007622462823684552
11.564,-0.007618712498988211
11.568,-0.0076148900526630935
11.572000000000001,-0.00761409671474656
11.576,-0.007614817931034318
11.58,-0.007615202579721122
11.584,-0.0076154670256933
11.588000000000001,-0.007613904390403158
11.592,-0.007615034295920645
11.596,-0.007618183607043855
11.6,-0.00761587571492303
11.604000000000001,-0.0076170296609834424
11.608,-0.007617101782612218
11.612,-0.007615370863521599
11.616,-0.0076164767284961615
11.620000000000001,-0.007616765215011264
11.624,-0.007620563620793456
11.628,-0.007618544215187734
11.632,-0.007618255728672631
11.636000000000001,-0.007622078174997747
11.64,-0.00761998664776325
11.644,-0.007614721768862617
11.648,-0.0076156833905796275
11.652000000000001,-0.007618592296273584
11.656,-0.007620659782965157
11.66,-0.007612077309140838
11.664,-0.007609961741363414
11.668000000000001,-0.007612365795655941
11.672,-0.007610995484709201
11.676,-0.007608543349330824
11.68,-0.007611668619911109
11.684000000000001,-0.007614264998547037
11.688,-0.007614721768862617
11.692,-0.0076086154709596
11.696,-0.007614289039089962
11.700000000000001,-0.00761404863366071
11.704,-0.007607846173585992
11.708,-0.0076114041739389305
11.712,-0.007610009822449265
11.716000000000001,-0.007608831835845927
11.72,-0.007612630241628119
11.724,-0.007615587228407926
11.728,-0.007617774917814125
11.732000000000001,-0.007614649647233841
11.736,-0.007611596498282333
11.74,-0.007611981146969137
11.744,-0.007611043565795052
11.748000000000001,-0.007611019525252127
11.752,-0.0076108512414516495
11.756,-0.007615827633837179
11.76,-0.007617606634013649
11.764000000000001,-0.007616068039266431
11.768,-0.007612317714570091
11.772,-0.007612461957827642
11.776,-0.007616019958180581
11.78,-0.0076141688363753355
11.784,-0.007611740741539885
11.788,-0.007616404606867386
11.792,-0.007618279769215556
11.796,-0.007620106850477876
11.8,-0.0076164767284961615
11.804,-0.0076148900526630935
11.808,-0.007617246025869769
11.812,-0.007616861377182965
11.816,-0.0076144092418045884
11.82,-0.007613231255201251
11.824,-0.007613976512031934
11.828,-0.007612461957827642
11.832,-0.0076177508772712005
11.836,-0.007617125823155144
11.84,-0.007616212282523983
11.844,-0.007617534512384873
11.848,-0.007613808228231457
11.852,-0.007612461957827642
11.856,-0.007614745809405543
11.86,-0.007613808228231457
11.864,-0.00761779895835705
11.868,-0.007618640377359435
11.872,-0.007613952471489009
11.876,-0.007610418511678995
11.88,-0.007612293674027166
11.884,-0.007607846173585992
11.888,-0.00760445645703353
11.892,-0.00760815870064402
11.896,-0.007611596498282333
11.9,-0.007611836903711585
11.904,-0.007610514673850696
11.908,-0.007611211849595528
11.912,-0.007608879916931778
11.916,-0.007609553052133685
11.92,-0.007611788822625734
11.924,-0.007603807362374548
11.928,-0.00760724516001286
11.932,-0.007613976512031934
11.936,-0.007610490633307771
11.94,-0.007612582160542268
11.944,-0.007609456889961984
11.948,-0.007611452255024781
11.952,-0.0076086154709596
11.956,-0.007612341755113016
11.96,-0.007614769849948467
11.964,-0.007607774051957216
11.968,-0.007608903957474703
11.972,-0.007608952038560554
11.976,-0.007613567822802204
11.98,-0.007614529444519215
11.984,-0.007613255295744176
11.988,-0.007612365795655941
11.992,-0.00761044255222192
11.996,-0.007614120755289486
12.0,-0.0076385219063586285
12.004,-0.007658643840787074
12.008000000000001,-0.007608447187159123
12.012,-0.007605394038207615
12.016,-0.007612053268597913
12.02,-0.0076121975118554645
12.024000000000001,-0.007613976512031934
12.028,-0.007655157962062911
12.032,-0.007645637907064506
12.036,-0.00759861460510269
12.040000000000001,-0.007596018226466762
12.044,-0.0076041920110613516
12.048,-0.00761226963348424
12.052,-0.0076076778897855146
12.056000000000001,-0.007608591430416675
12.06,-0.007610731038737023
12.064,-0.007608014457386469
12.068,-0.0076049853489778855
12.072000000000001,-0.007608687592588376
12.076,-0.0076108512414516495
12.08,-0.007612846606514447
12.084,-0.007613231255201251
12.088000000000001,-0.0076127504443427455
12.092,-0.007610875281994575
12.096,-0.007608423146616198
12.1,-0.007607148997841159
12.104000000000001,-0.007605898889609045
12.108,-0.007607966376300618
12.112,-0.00760952901159076
12.116,-0.007607725970871365
12.120000000000001,-0.007607004754583607
12.124,-0.007608495268244974
12.128,-0.007606523943725102
12.132,-0.007611259930681379
12.136000000000001,-0.0076110916468809025
12.14,-0.00761003386299219
12.144,-0.007613255295744176
12.148,-0.007611043565795052
12.152000000000001,-0.00760637970046755
12.156,-0.007605971011237821
12.16,-0.00760998578190634
12.164,-0.007605442119293465
12.168000000000001,-0.007605490200379316
12.172,-0.0076087837547600765
12.176,-0.007613567822802204
12.18,-0.0076095770926766105
12.184000000000001,-0.007608399106073273
12.188,-0.0076110916468809025
12.192,-0.007610009822449265
12.196,-0.007607100916755308
12.200000000000001,-0.007607076876212383
12.204,-0.007607725970871365
12.208,-0.007608952038560554
12.212,-0.007607413443813337
12.216000000000001,-0.007604841105720334
12.22,-0.007604648781376931
12.224,-0.007600826335051815
12.228,-0.007599263699761672
12.232000000000001,-0.007602413010884882
12.236,-0.007605634443636868
12.24,-0.0076037112002028465
12.244,-0.007601860078397601
12.248000000000001,-0.007601355226996171
12.252,-0.007600057037678206
12.256,-0.007601667754054199
12.26,-0.007600105118764057
12.264000000000001,-0.007609961741363414
12.268,-0.007608831835845927
12.272,-0.007609456889961984
12.276,-0.007607004754583607
12.280000000000001,-0.007604793024634483
12.284,-0.007604793024634483
12.288,-0.007603110186629715
12.292,-0.007603422713687743
12.296,-0.007606908592411907
12.3,-0.007608038497929394
12.304,-0.007608134660101095
12.308,-0.007606235457209999
12.312,-0.00760455261920523
12.316,-0.007605466159836391
12.32,-0.007603927565089174
12.324,-0.007607581727613813
12.328,-0.007605081511149587
12.332,-0.007605033430063736
12.336,-0.007605754646351493
12.34,-0.00760267745685706
12.344,-0.007601042699938142
12.348,-0.00760409584888965
12.352,-0.00760455261920523
12.356,-0.007603398673144818
12.36,-0.007604119889432576
12.364,-0.007606668186982654
12.368,-0.007602509173056583
12.372,-0.007601884118940526
12.376,-0.0076026053352282845
12.38,-0.007603615038031145
12.384,-0.007601595632425423
12.388,-0.007603446754230668
12.392,-0.007605394038207615
12.396,-0.007603230389344341
12.4,-0.007608831835845927
12.404,-0.007602316848713181
12.408,-0.007601283105367395
12.412,-0.007604720903005707
12.416,-0.007605081511149587
12.42,-0.0076086154709596
12.424,-0.007604889186806184
12.428,-0.007603038065000939
12.432,-0.007605658484179793
12.436,-0.0076017639162259
12.44,-0.007604071808346725
12.444,-0.0076042641326901275
12.448,-0.007600105118764057
12.452,-0.0076033265515160426
12.456,-0.007604119889432576
12.46,-0.007604672821919857
12.464,-0.007602124524369779
12.468,-0.0076040477678038
12.472,-0.007608326984444497
12.476,-0.007606980714040682
12.48,-0.007598061672615409
12.484,-0.007600201280935758
12.488,-0.007599480064648
12.492,-0.007602316848713181
12.496,-0.0076020524027410035
12.5,-0.007596114388638464
12.504,-0.0075997445106201775
12.508000000000001,-0.007598927132160719
12.512,-0.0075991194565041215
12.516,-0.007604768984091558
12.52,-0.0076052978760359135
12.524000000000001,-0.007600585929622562
12.528,-0.007600898456680591
12.532,-0.007601186943195694
12.536,-0.0076026053352282845
12.540000000000001,-0.007601042699938142
12.544,-0.0076017639162259
12.548,-0.007609048200732255
12.552,-0.007610971444166276
12.556000000000001,-0.007607173038384084
12.56,-0.007605826767980269
12.564,-0.007605634443636868
12.568,-0.007603687159659921
12.572000000000001,-0.007604672821919857
12.576,-0.007604672821919857
12.58,-0.00760592293015197
12.584,-0.007604143929975501
12.588000000000001,-0.007603302510973117
12.592,-0.007601547551339572
12.596,-0.007597797226643232
12.6,-0.0076020524027410035
12.604000000000001,-0.007597917429357858
12.608,-0.007600634010708413
12.612,-0.007598830969989018
12.616,-0.007606235457209999
12.620000000000001,-0.007609745376477088
12.624,-0.007605658484179793
12.628,-0.007606235457209999
12.632,-0.007600658051251338
12.636000000000001,-0.007598758848360242
12.64,-0.007607485565442113
12.644,-0.0076016437135112734
12.648,-0.007597508740128128
12.652000000000001,-0.007598061672615409
12.656,-0.007597436618499352
12.66,-0.007598830969989018
12.664,-0.007599071375418271
12.668000000000001,-0.00759902329433242
12.672,-0.007603110186629715
12.676,-0.007593854577603488
12.68,-0.007592844874800627
12.684000000000001,-0.007595633577779958
12.688,-0.007596474996782342
12.692,-0.007597580861756904
12.696,-0.007603566956945295
12.700000000000001,-0.007606259497752925
12.704,-0.007603903524546249
12.708,-0.007600297443107459
12.712,-0.007600994618852291
12.716000000000001,-0.007611211849595528
12.72,-0.007607004754583607
12.724,-0.007592508307199674
12.728,-0.007595224888550228
12.732000000000001,-0.0075945998344341716
12.736,-0.007597436618499352
12.74,-0.0076002253214786835
12.744,-0.007594575793891246
12.748000000000001,-0.007597436618499352
12.752,-0.007605105551692512
12.756,-0.007604865146263259
12.76,-0.007599504105190925
12.764000000000001,-0.007598662686188541
12.768,-0.007602196645998554
12.772,-0.007603110186629715
12.776,-0.007600297443107459
12.780000000000001,-0.007605321916578839
12.784,-0.0076042641326901275
12.788,-0.0076060912139524475
12.792,-0.007608375065530347
12.796000000000001,-0.007607269200555785
12.8,-0.007598710767274391
12.804,-0.0075949844831209755
12.808,-0.007602076443283929
12.812,-0.007611981146969137
12.816,-0.007605177673321287
12.82,-0.007600273402564534
12.824,-0.007598758848360242
12.828,-0.007601956240569302
12.832,-0.007601235024281544
12.836,-0.007600994618852291
12.84,-0.007600561889079637
12.844,-0.007597580861756904
12.848,-0.007598229956415886
12.852,-0.007599792591706028
12.856,-0.007599552186276776
12.86,-0.007598542483473914
12.864,-0.007598278037501737
12.868,-0.007601884118940526
12.872,-0.007605177673321287
12.876,-0.007605153632778362
12.88,-0.007606235457209999
12.884,-0.00760724516001286
12.888,-0.00760674030861143
12.892,-0.007605466159836391
12.896,-0.007605730605808569
12.9,-0.007600465726907936
12.904,-0.00759810975370126
12.908,-0.007591931334169467
12.912,-0.007600561889079637
12.916,-0.007597027929269623
12.92,-0.00759861460510269
12.924,-0.007598903091617794
12.928,-0.007595417212893631
12.932,-0.00759445559117662
12.936,-0.007595657618322883
12.94,-0.0075991915781328965
12.944,-0.007599768551163103
12.948,-0.007599167537589971
12.952,-0.007596474996782342
12.956,-0.007600273402564534
12.96,-0.007602749578485835
12.964,-0.007600754213423039
12.968,-0.0075988790510748685
12.972,-0.00759851844293099
12.976,-0.00759993683496358
12.98,-0.007597556821213979
12.984,-0.007599960875506505
12.988,-0.0076041920110613516
12.992,-0.007597388537413502
12.996,-0.0075973644968705765
13.0,-0.007599792591706028
13.004,-0.007601932200026377
13.008000000000001,-0.007603206348801416
13.012,-0.007604360294861829
13.016,-0.007600129159306982
13.02,-0.007598350159130513
13.024000000000001,-0.007602797659571686
13.028,-0.007602196645998554
13.032,-0.007596667321125745
13.036,-0.007595056604749751
13.040000000000001,-0.007596883686012071
13.044,-0.00759851844293099
13.048,-0.007598927132160719
13.052,-0.007600946537766441
13.056000000000001,-0.007605658484179793
13.06,-0.007603038065000939
13.064,-0.007600585929622562
13.068,-0.007599504105190925
13.072000000000001,-0.007602941902829238
13.076,-0.007598181875330036
13.08,-0.007598830969989018
13.084,-0.007607004754583607
13.088000000000001,-0.007603182308258491
13.092,-0.007602797659571686
13.096,-0.007608495268244974
13.1,-0.007609769417020013
13.104000000000001,-0.007608759714217151
13.108,-0.00760491322734911
13.112,-0.007602725537942911
13.116,-0.007605105551692512
13.120000000000001,-0.007601715835140049
13.124,-0.007602965943372163
13.128,-0.007602773619028761
13.132,-0.007606932632954832
13.136000000000001,-0.007608278903358646
13.14,-0.007606163335581223
13.144,-0.0076074374843562624
13.148,-0.007607725970871365
13.152000000000001,-0.0076041920110613516
13.156,-0.007605369997664689
13.16,-0.007605514240922241
13.164,-0.007603855443460398
13.168000000000001,-0.007606764349154355
13.172,-0.007601042699938142
13.176,-0.00760267745685706
13.18,-0.0076023649297990315
13.184000000000001,-0.007603735240745772
13.188,-0.007604937267892035
13.192,-0.0076077500114142904
13.196,-0.007607485565442113
13.200000000000001,-0.007603446754230668
13.204,-0.007599311780847523
13.208,-0.007597532780671054
13.212,-0.0075999849160494305
13.216000000000001,-0.007593854577603488
13.22,-0.007590681225937354
13.224,-0.007595200848007303
13.228,-0.007593662253260087
13.232000000000001,-0.007595417212893631
13.236,-0.007594407510090769
13.24,-0.007596619240039894
13.244,-0.007598253996958812
13.248000000000001,-0.007597797226643232
13.252,-0.007596234591353089
13.256,-0.0075988790510748685
13.26,-0.007599311780847523
13.264000000000001,-0.00760267745685706
13.268,-0.007602485132513658
13.272,-0.0075999849160494305
13.276,-0.007612245592941315
13.280000000000001,-0.00761181286316866
13.284,-0.007601884118940526
13.288,-0.007601667754054199
13.292,-0.0076007782539659645
13.296000000000001,-0.007600273402564534
13.3,-0.007601283105367395
13.304,-0.007597340456327651
13.308,-0.007598758848360242
13.312000000000001,-0.007599960875506505
13.316,-0.007602076443283929
13.32,-0.0076020524027410035
13.324,-0.007599335821390448
13.328,-0.0076038794840033236
13.332,-0.007602509173056583
13.336,-0.007600874416137666
13.34,-0.007602845740657537
13.344,-0.007599480064648
13.348,-0.0076010186593952166
13.352,-0.00760409584888965
13.356,-0.007602244727084405
13.36,-0.007600008956592356
13.364,-0.0075983261185875875
13.368,-0.007602172605455629
13.372,-0.007600826335051815
13.376,-0.0075971962130701
13.38,-0.0076007782539659645
13.384,-0.007601715835140049
13.388,-0.007603639078574071
13.392,-0.007598927132160719
13.396,-0.007602076443283929
13.4,-0.007603278470430192
13.404,-0.00760226876762733
13.408,-0.007600201280935758
13.412,-0.007601595632425423
13.416,-0.0076020524027410035
13.42,-0.007600201280935758
13.424,-0.007602749578485835
13.428,-0.007599504105190925
13.432,-0.007599552186276776
13.436,-0.007597821267186157
13.44,-0.007599960875506505
13.444,-0.007600826335051815
13.448,-0.007599552186276776
13.452,-0.007604360294861829
13.456,-0.0076045766597481555
13.46,-0.0076023649297990315
13.464,-0.007603446754230668
13.468,-0.00760308614608679
13.472,-0.007600032997135281
13.476,-0.007596234591353089
13.48,-0.00759628267243894
13.484,-0.007598806929446093
13.488,-0.007600297443107459
13.492,-0.007598374199673438
13.496,-0.007595080645292677
13.5,-0.0075919072936265425
13.504,-0.007592364063942122
13.508000000000001,-0.0075951527669214525
13.512,-0.0075949123614922
13.516,-0.007595008523663901
13.52,-0.007595489334522407
13.524000000000001,-0.007599888753877729
13.528,-0.007595224888550228
13.532,-0.0075962586318960145
13.536,-0.007598782888903167
13.540000000000001,-0.007606043132866597
13.544,-0.007603783321831622
13.548,-0.007595176807464378
13.552,-0.007593518010002535
13.556000000000001,-0.0075926285099143
13.56,-0.0075944315506336945
13.564,-0.0075944315506336945
13.568,-0.0075914986043968125
13.572000000000001,-0.007592027496341168
13.576,-0.0075885656581599304
13.58,-0.007584959576721141
13.584,-0.007590008090735447
13.588000000000001,-0.00759673944275452
13.592,-0.007598734807817317
13.596,-0.007591690928740215
13.6,-0.007592436185570898
13.604000000000001,-0.007590657185394429
13.608,-0.007589647482591567
13.612,-0.007593421847830834
13.616,-0.007591306280053411
13.620000000000001,-0.0075927727531718515
13.624,-0.007590416779965176
13.628,-0.007591330320596335
13.632,-0.0075970519698125485
13.636000000000001,-0.007592147699055795
13.64,-0.007586377968753732
13.644,-0.007585055738892842
13.648,-0.007586257766039105
13.652000000000001,-0.007586450090382508
13.656,-0.007588036766215575
13.66,-0.007584358563148009
13.664,-0.0075853923064937955
13.668000000000001,-0.007588156968930201
13.672,-0.007591811131454841
13.676,-0.00759450367226247
13.68,-0.00759810975370126
13.684000000000001,-0.00759993683496358
13.688,-0.007603807362374548
13.692,-0.007598470361845139
13.696,-0.007597677023928605
13.700000000000001,-0.007594792158777574
13.704,-0.007606908592411907
13.708,-0.007605081511149587
13.712,-0.007605081511149587
13.716000000000001,-0.007596402875153566
13.72,-0.007597749145557381
13.724,-0.007599864713334804
13.728,-0.00760044168636501
13.732000000000001,-0.00759902329433242
13.736,-0.007597268334698876
13.74,-0.00759851844293099
13.744,-0.007598782888903167
13.748000000000001,-0.007598061672615409
13.752,-0.007597436618499352
13.756,-0.007599912794420655
13.76,-0.0075981578347871104
13.764000000000001,-0.007594046901946891
13.768,-0.007593181442401581
13.772,-0.0075916668881972895
13.776,-0.007593469928916684
13.780000000000001,-0.007592941036972329
13.784,-0.007594359429004919
13.788,-0.007598422280759289
13.792,-0.00759450367226247
13.796000000000001,-0.007590705266480279
13.8,-0.007595753780494584
13.804,-0.007594143064118592
13.808,-0.007594575793891246
13.812000000000001,-0.00759450367226247
13.816,-0.0075925323477425985
13.82,-0.007594335388461993
13.824,-0.007593518010002535
13.828,-0.007590657185394429
13.832,-0.007591594766568514
13.836,-0.007594311347919069
13.84,-0.007593830537060563
13.844,-0.0075901523339929975
13.848,-0.00758902242847551
13.852,-0.007594046901946891
13.856,-0.007593926699232264
13.86,-0.007592027496341168
13.864,-0.0075935660910883855
13.868,-0.007592965077515254
13.872,-0.007594022861403965
13.876,-0.0075925323477425985
13.88,-0.007584935536178216
13.884,-0.007589118590647211
13.888,-0.007595200848007303
13.892,-0.007590993752995382
13.896,-0.007588445455445304
13.9,-0.0075852480632362445
13.904,-0.007585199982150394
13.908,-0.007583228657630522
13.912,-0.007582291076456437
13.916,-0.0075815217790828286
13.92,-0.007582170873741811
13.924,-0.00758303633328712
13.928,-0.007587724239157546
13.932,-0.007586858779612237
13.936,-0.007586017360609852
13.94,-0.007592412145027973
13.944,-0.0075917390098260654
13.948,-0.0075855605902942725
13.952,-0.00758075248170922
13.956,-0.007582435319713988
13.96,-0.007586137563324479
13.964,-0.007586089482238628
13.968,-0.007581401576368202
13.972,-0.0075874597931853685
13.976,-0.0075883252527306775
13.98,-0.007585344225407945
13.984,-0.007584478765862636
13.988,-0.00758308441437297
13.992,-0.0075850076578069916
13.996,-0.007585897157895227
14.0,-0.007585127860521618
14.004,-0.007581305414196501
14.008000000000001,-0.00758171410342623
14.012,-0.007586762617440536
14.016,-0.007584719171291888
14.02,-0.007580992887138473
14.024000000000001,-0.007584190279347532
14.028,-0.007584094117175832
14.032,-0.007585632711923048
14.036,-0.0075739009269755195
14.040000000000001,-0.007577915697644039
14.044,-0.0075818343061408566
14.048,-0.007579622576191733
14.052,-0.007580872684423846
14.056000000000001,-0.007581954508855483
14.06,-0.007584719171291888
14.064,-0.007586450090382508
14.068,-0.007586546252554208
14.072000000000001,-0.007584719171291888
14.076,-0.007583012292744194
14.08,-0.007587748279700471
14.084,-0.007584767252377739
14.088000000000001,-0.007588782023046258
14.092,-0.0075926285099143
14.096,-0.0075949844831209755
14.1,-0.007588613739245781
14.104000000000001,-0.007588541617617005
14.108,-0.00758709918504149
14.112,-0.007581858346683782
14.116,-0.007576905994841177
14.120000000000001,-0.007579021562618601
14.124,-0.0075780359003586656
14.128,-0.007580848643880921
14.132,-0.007586329887667881
14.136000000000001,-0.007583396941430999
14.14,-0.007581089049310174
14.144,-0.007581449657454053
14.148,-0.00757943025184833
14.152000000000001,-0.007582218954827661
14.156,-0.007584358563148009
14.16,-0.007581281373653576
14.164,-0.007579117724790302
14.168000000000001,-0.007580367833022416
14.172,-0.007579478332934181
14.176,-0.00758125733311065
14.18,-0.0075789734815327504
14.184000000000001,-0.007582964211658344
14.188,-0.007584647049663113
14.192,-0.007587363631013667
14.196,-0.007582723806229092
14.200000000000001,-0.007575872251495391
14.204,-0.007579093684247377
14.208,-0.0075773146840709075
14.212,-0.007580151468136088
14.216000000000001,-0.007576833873212402
14.22,-0.0075773146840709075
14.224,-0.007577050238098729
14.228,-0.007580271670850715
14.232000000000001,-0.007580872684423846
14.236,-0.0075770742786416545
14.24,-0.007574622143263278
14.244,-0.007576377102896822
14.248000000000001,-0.007579045603161526
14.252,-0.007575559724437363
14.256,-0.0075752471973793345
14.26,-0.007578108021987441
14.264000000000001,-0.0075783484274166936
14.268,-0.0075805601573658175
14.272,-0.007575199116293484
14.276,-0.007570583332051834
14.280000000000001,-0.007574237494576474
14.284,-0.007574429818919876
14.288,-0.007575030832493008
14.292,-0.00757527123792226
14.296000000000001,-0.007571472832140069
14.3,-0.0075741413324047725
14.304,-0.007575343359551036
14.308,-0.0075741413324047725
14.312000000000001,-0.007574550021634502
14.316,-0.007571040102367413
14.32,-0.0075746942648920535
14.324,-0.007577987819272815
14.328000000000001,-0.007580439954651192
14.332,-0.007576930035384103
14.336,-0.007577434886785534
14.34,-0.007582242995370587
14.344,-0.007588589698702856
14.348,-0.007579718738363434
14.352,-0.007580055305964387
14.356,-0.007579887022163911
14.36,-0.007579310049133704
14.364,-0.007578660954474722
14.368,-0.007573780724260894
14.372,-0.007573756683717969
14.376,-0.007573299913402388
14.38,-0.007574910629778381
14.384,-0.00757349223774579
14.388,-0.007576256900182196
14.392,-0.007580680360080444
14.396,-0.007582339157542287
14.4,-0.007576905994841177
14.404,-0.007580512076279967
14.408,-0.0075802476303077895
14.412,-0.007581425616911127
14.416,-0.007576881954298253
14.42,-0.007577482967871385
14.424,-0.0075850076578069916
14.428,-0.007583372900888074
14.432,-0.007580920765509697
14.436,-0.007582723806229092
14.44,-0.007579862981620986
14.444,-0.007577987819272815
14.448,-0.007582218954827661
14.452,-0.007578324386873768
14.456,-0.007575078913578858
14.46,-0.007578805197732273
14.464,-0.007576713670497776
14.468,-0.007580127427593163
14.472,-0.007581449657454053
14.476,-0.0075808005627950705
14.48,-0.0075877001986146215
14.484,-0.007587531914814144
14.488,-0.007585055738892842
14.492,-0.007583348860345149
14.496,-0.007583805630660728
14.5,-0.007581449657454053
14.504,-0.0075858009957235255
14.508000000000001,-0.007586498171468358
14.512,-0.007587820401329247
14.516,-0.0075815217790828286
14.52,-0.007578228224702067
14.524000000000001,-0.0075808005627950705
14.528,-0.007578612873388872
14.532,-0.0075834931036027
14.536,-0.0075804880357370425
14.540000000000001,-0.007582771887314942
14.544,-0.0075858009957235255
14.548,-0.007586017360609852
14.552,-0.007582723806229092
14.556000000000001,-0.007580127427593163
14.56,-0.00757760317058601
14.564,-0.007579189846419078
14.568,-0.007582435319713988
14.572000000000001,-0.007585416347036721
14.576,-0.007584190279347532
14.58,-0.007577819535472338
14.584,-0.0075785888328459465
14.588000000000001,-0.007584767252377739
14.592,-0.0075872193877561155
14.596,-0.007578276305787918
14.6,-0.007578829238275199
14.604000000000001,-0.007579814900535135
14.608,-0.007581545819625754
14.612,-0.007581233292567725
14.616,-0.007579718738363434
14.620000000000001,-0.007577266602985057
14.624,-0.007576545386697299
14.628,-0.0075789734815327504
14.632,-0.007584358563148009
14.636000000000001,-0.007584574928034337
14.64,-0.007580920765509697
14.644,-0.007581233292567725
14.648,-0.007582315116999362
14.652000000000001,-0.007582170873741811
14.656,-0.007581233292567725
14.66,-0.007580439954651192
14.664,-0.0075778676165581885
14.668000000000001,-0.007575944373124167
14.672,-0.007571064142910339
14.676,-0.007570463129337207
14.68,-0.007577482967871385
14.684000000000001,-0.007576545386697299
14.688,-0.007575126994664708
14.692,-0.007574261535119399
14.696,-0.007572458494400004
14.700000000000001,-0.007569020696761692
14.704,-0.007571352629425442
14.708,-0.007579646616734658
14.712,-0.0075783484274166936
14.716000000000001,-0.00757983894107806
14.72,-0.007577819535472338
14.724,-0.007583132495458821
14.728,-0.007580127427593163
14.732000000000001,-0.0075818343061408566
14.736,-0.007583637346860251
14.74,-0.007584791292920664
14.744,-0.007585536549751347
14.748000000000001,-0.007587435752642443
14.752,-0.007586257766039105
14.756,-0.007584550887491412
14.76,-0.007584719171291888
14.764000000000001,-0.007585825036266451
14.768,-0.007581762184512081
14.772,-0.007582964211658344
14.776,-0.007579358130219554
14.780000000000001,-0.007578564792303021
14.784,-0.007585752914637675
14.788,-0.007583517144145625
14.792,-0.007582795927857868
14.796000000000001,-0.007584430684776785
14.8,-0.007585151901064543
14.804,-0.00758308441437297
14.808,-0.007582603603514465
14.812000000000001,-0.007577482967871385
14.816,-0.007578108021987441
14.82,-0.007581930468312558
14.824,-0.007582916130572493
14.828000000000001,-0.00757714640027043
14.832,-0.0075784205490454695
14.836,-0.007582291076456437
14.84,-0.007579550454562957
14.844000000000001,-0.007575295278465185
14.848,-0.007575872251495391
14.852,-0.007577026197555804
14.856,-0.007574838508149605
14.86,-0.007575439521722737
14.864,-0.007577122359727505
14.868,-0.007576401143439747
14.872,-0.00757618477855342
14.876,-0.007575343359551036
14.88,-0.007574622143263278
14.884,-0.0075719296024556485
14.888,-0.007571833440283947
14.892,-0.0075752471973793345
14.896,-0.0075770742786416545
14.9,-0.007576304981268046
14.904,-0.007576329021810971
14.908,-0.007574189413490623
14.912,-0.007580127427593163
14.916,-0.007579550454562957
14.92,-0.007575078913578858
14.924,-0.007576737711040701
14.928,-0.007579718738363434
14.932,-0.007586810698526386
14.936,-0.0075828680494866435
14.94,-0.007579286008590779
14.944,-0.007579526414020031
14.948,-0.007582435319713988
14.952,-0.0075819064277696325
14.956,-0.007580343792479491
14.96,-0.007579165805876153
14.964,-0.007580079346507312
14.968,-0.0075826276440573905
14.972,-0.007580608238451668
14.976,-0.007581016927681398
14.98,-0.007580704400623369
14.984,-0.0075834931036027
14.988,-0.00758303633328712
14.992,-0.007580968846595548
14.996,-0.007582819968400793
15.0,-0.007586450090382508
15.004,-0.007582146833198885
15.008000000000001,-0.007581377535825277
15.012,-0.00758527210377917
15.016,-0.0075857769551806
15.02,-0.007591065874624158
15.024000000000001,-0.007593397807287908
15.028,-0.007587844441872172
15.032,-0.007583324819802223
15.036,-0.00757714640027043
15.040000000000001,-0.007578949440989825
15.044,-0.007578757116646423
15.048,-0.007577651251671861
15.052,-0.007578276305787918
15.056000000000001,-0.007579117724790302
15.06,-0.007581401576368202
15.064,-0.00758344502251685
15.068,-0.007582819968400793
15.072000000000001,-0.007580031265421462
15.076,-0.007580656319537519
15.08,-0.007583324819802223
15.084,-0.0075837335090319525
15.088000000000001,-0.007586954941783938
15.092,-0.0075812092520248
15.096,-0.007581690062883306
15.1,-0.0075811130898530985
15.104000000000001,-0.007582507441342764
15.108,-0.007584887455092365
15.112,-0.007582363198085212
15.116,-0.00758212279265596
15.120000000000001,-0.00757983894107806
15.124,-0.007582170873741811
15.128,-0.007585416347036721
15.132,-0.007582411279171063
15.136000000000001,-0.007577194481356281
15.14,-0.0075773146840709075
15.144,-0.007584478765862636
15.148,-0.0075789254004469
15.152000000000001,-0.007576329021810971
15.156,-0.007580391873565341
15.16,-0.007583252698173447
15.164,-0.007579814900535135
15.168000000000001,-0.007581449657454053
15.172,-0.00757618477855342
15.176,-0.007579598535648807
15.18,-0.007585584630837198
15.184000000000001,-0.0075834931036027
15.188,-0.00757796377872989
15.192,-0.00757394900806137
15.196,-0.00757430961620525
15.200000000000001,-0.007578757116646423
15.204,-0.007577242562442132
15.208,-0.007577266602985057
15.212,-0.007583132495458821
15.216000000000001,-0.007583997955004131
15.22,-0.007577362765156758
15.224,-0.007580632278994593
15.228,-0.007580728441166295
15.232000000000001,-0.007582964211658344
15.236,-0.007585608671380123
15.24,-0.007580271670850715
15.244,-0.007580271670850715
15.248000000000001,-0.007581545819625754
15.252,-0.007579935103249761
15.256,-0.007584647049663113
15.26,-0.0075813534952823515
15.264000000000001,-0.007587531914814144
15.268,-0.00758902242847551
15.272,-0.007583012292744194
15.276,-0.007589647482591567
15.280000000000001,-0.007591787090911916
15.284,-0.007582483400799839
15.288,-0.007582988252201269
15.292,-0.00758491149563529
15.296000000000001,-0.007587411712099518
15.3,-0.007587892522958023
15.304,-0.007586089482238628
15.308,-0.007583324819802223
15.312000000000001,-0.007578757116646423
15.316,-0.007581641981797455
15.32,-0.007579334089676629
15.324,-0.007580848643880921
15.328000000000001,-0.007582531481885689
15.332,-0.0075880608067585
15.336,-0.007584550887491412
15.34,-0.007581449657454053
15.344000000000001,-0.007583276738716373
15.348,-0.007583661387403177
15.352,-0.007582988252201269
15.356,-0.007585993320066927
15.36,-0.007589262833904763
15.364,-0.007588637779788706
15.368,-0.007588757982503333
15.372,-0.007585825036266451
15.376,-0.007580608238451668
15.38,-0.00758755595535707
15.384,-0.00758673857689761
15.388,-0.007586065441695703
15.392,-0.0075853201848650196
15.396,-0.00758527210377917
15.4,-0.007582771887314942
15.404,-0.007586017360609852
15.408,-0.007589503239334016
15.412,-0.007582964211658344
15.416,-0.007584166238804607
15.42,-0.007582555522428615
15.424,-0.007587411712099518
15.428,-0.007587051103955639
15.432,-0.007581065008767249
15.436,-0.007581497738539903
15.44,-0.0075819064277696325
15.444,-0.007586642414725909
15.448,-0.007578516711217171
15.452,-0.0075776272111289355
15.456,-0.007579502373477106
15.46,-0.00757796377872989
15.464,-0.007574525981091576
15.468,-0.007570847778024012
15.472,-0.007574069210775997
15.476,-0.007578108021987441
15.48,-0.007584647049663113
15.484,-0.007581882387226707
15.488,-0.007579358130219554
15.492,-0.0075853201848650196
15.496,-0.007579237927504929
15.5,-0.007575054873035933
15.504,-0.007577675292214786
15.508000000000001,-0.007574790427063755
15.512,-0.007578059940901591
15.516,-0.007580992887138473
15.52,-0.007579526414020031
15.524000000000001,-0.007574670224349128
15.528,-0.00756801099395883
15.532,-0.0075741413324047725
15.536,-0.007579887022163911
15.540000000000001,-0.007580824603337996
15.544,-0.007585199982150394
15.548,-0.007580079346507312
15.552,-0.007580968846595548
15.556000000000001,-0.00757943025184833
15.56,-0.00758171410342623
15.564,-0.007587483833728294
15.568,-0.0075874597931853685
15.572000000000001,-0.007585536549751347
15.576,-0.007583132495458821
15.58,-0.007583204617087597
15.584,-0.007584743211834813
15.588000000000001,-0.007576954075927028
15.592,-0.007576954075927028
15.596,-0.007580079346507312
15.6,-0.007584815333463589
15.604000000000001,-0.007580968846595548
15.608,-0.007584046036089981
15.612,-0.007586041401152778
15.616,-0.007581810265597931
15.620000000000001,-0.00757983894107806
15.624,-0.007585680793008899
15.628,-0.007586209684953255
15.632,-0.007582363198085212
15.636000000000001,-0.0075813534952823515
15.64,-0.00758161794125453
15.644,-0.007579598535648807
15.648,-0.007582267035913512
15.652000000000001,-0.007584887455092365
15.656,-0.00758760403644292
15.66,-0.007584334522605084
15.664,-0.007581858346683782
15.668000000000001,-0.007579959143792686
15.672,-0.007580319751936565
15.676,-0.007580512076279967
15.68,-0.00757567992715199
15.684000000000001,-0.007577579130043085
15.688,-0.007574622143263278
15.692,-0.007574261535119399
15.696,-0.007580151468136088
15.700000000000001,-0.007582315116999362
15.704,-0.007577843576015263
15.708,-0.0075773146840709075
15.712,-0.007575511643351513
15.716000000000001,-0.007573516278288716
15.72,-0.007575199116293484
15.724,-0.00757714640027043
15.728,-0.007572386372771228
15.732000000000001,-0.007571136264539115
15.736,-0.007572097886256125
15.74,-0.00757070353476646
15.744,-0.007567674426357877
15.748000000000001,-0.007569092818390467
15.752,-0.007569188980562168
15.756,-0.007571833440283947
15.76,-0.007575463562265662
15.764000000000001,-0.007571737278112246
15.768,-0.0075720738457132
15.772,-0.007570391007708431
15.776,-0.0075730354674302105
15.780000000000001,-0.007574790427063755
15.784,-0.007579334089676629
15.788,-0.007578781157189348
15.792,-0.007575030832493008
15.796000000000001,-0.007575199116293484
15.8,-0.007576449224525598
15.804,-0.007572843143086808
15.808,-0.007571544953768844
15.812000000000001,-0.007574790427063755
15.816,-0.007576497305611448
15.82,-0.00757116030508204
15.824,-0.007565438655865828
15.828000000000001,-0.0075724825349429295
15.832,-0.007574189413490623
15.836,-0.007570847778024012
15.84,-0.007569405345448496
15.844000000000001,-0.007569453426534346
15.848,-0.007568491804817335
15.852,-0.007568900494047065
15.856,-0.007572674859286332
15.860000000000001,-0.007562145101485066
15.864,-0.007559380439048661
15.868,-0.007562625912343571
15.872,-0.007563876020575685
15.876,-0.007561976817684589
15.88,-0.007564284709805414
15.884,-0.007563803898946909
15.888,-0.007563948142204461
15.892,-0.00756426066926249
15.896,-0.007561135398682205
15.9,-0.007561640250083636
15.904,-0.007565775223466781
15.908,-0.007567986953415905
15.912,-0.007570895859109862
15.916,-0.00757161707539762
15.92,-0.007567289777671072
15.924,-0.007562962479944525
15.928,-0.007567217656042297
15.932,-0.007568491804817335
15.936,-0.007566448358668688
15.94,-0.007571352629425442
15.944,-0.007576449224525598
15.948,-0.007571905561912723
15.952,-0.007570078480650403
15.956,-0.007566496439754539
15.96,-0.007566472399211614
15.964,-0.0075677225074437275
15.968,-0.007571136264539115
15.972,-0.007568780291332439
15.976,-0.007565775223466781
15.98,-0.007565510777494603
15.984,-0.007568227358845158
15.988,-0.007571064142910339
15.992,-0.007570871818566937
15.996,-0.007570054440107478
16.0,-0.007575223156836409
16.004,-0.007576593467783149
16.008,-0.007579622576191733
16.012,-0.007582170873741811
16.016000000000002,-0.007573179710687762
16.02,-0.007572578697114631
16.024,-0.0075743817378340255
