0.0,0.015231054254101227
0.004,0.01519535404785721
0.008,0.015166745801776148
0.012,0.015169366220955001
0.016,0.015158211409037678
0.02,0.015123544946139449
0.024,0.015106091511975709
0.028,0.015106860809349316
0.032,0.015112077607164098
0.036000000000000004,0.015081906725792894
0.04,0.01506704967026508
0.044,0.01507207414373646
0.048,0.015081690360906565
0.052000000000000005,0.015062746413081455
0.056,0.015047769154839016
0.06,0.01506190499407907
0.064,0.015077098617207841
0.068,0.015061135696705462
0.07200000000000001,0.015047504708866838
0.076,0.015057866182867625
0.08,0.015063900359141867
0.084,0.015052697466138694
0.088,0.015018295449212642
0.092,0.01501161217827942
0.096,0.015012718043253982
0.1,0.014997788866097393
0.10400000000000001,0.014959564402846225
0.108,0.01492944160256087
0.112,0.01491542596603544
0.116,0.01489979961313402
0.12,0.014867224677470287
0.124,0.014850228013622124
0.128,0.014854411068091121
0.132,0.014854603392434523
0.136,0.01483320730923104
0.14,0.014821908254056165
0.14400000000000002,0.014837149958270781
0.148,0.014847896080958375
0.152,0.014842006147941685
0.156,0.014843953431918631
0.16,0.014870614394022751
0.164,0.014892154720483787
0.168,0.014895255950521146
0.17200000000000001,0.01489751576155612
0.176,0.014926893305010791
0.18,0.014960790470535413
0.184,0.014974589742174515
0.188,0.014968194957756394
0.192,0.01497415701240186
0.196,0.01500526547494715
0.2,0.015008534988784985
0.20400000000000001,0.015006034772320759
0.20800000000000002,0.01500211616382394
0.212,0.015020194652103738
0.216,0.015028705004299281
0.22,0.015003991326172111
0.224,0.014995961784835072
0.228,0.01501303057031201
0.232,0.015015843313834265
0.23600000000000002,0.014999207258129983
0.24,0.014911867965682502
0.244,0.014912901709028288
0.248,0.01488838035524452
0.252,0.01485340136528826
0.256,0.014851381959682537
0.26,0.01485974806862053
0.264,0.014847319107928168
0.268,0.014821908254056165
0.272,0.014823374727174606
0.276,0.014839674215277935
0.28,0.014847703756614972
0.28400000000000003,0.014828904052047417
0.28800000000000003,0.014840106945050589
0.292,0.014863450312231019
0.296,0.01486770548832879
0.3,0.01484897790539001
0.304,0.014847872040415449
0.308,0.014869821056106217
0.312,0.014866936190955183
0.316,0.014859291298304949
0.32,0.014860493325451212
0.324,0.01487787463798618
0.328,0.014891986436683309
0.332,0.014879437273276322
0.336,0.014880687381508436
0.34,0.014901963261997294
0.34400000000000003,0.014924825818319219
0.34800000000000003,0.014917253047297761
0.352,0.014912685344141962
0.356,0.014920450439506822
0.36,0.014938841454844648
0.364,0.014937374981726207
0.368,0.014918334871729397
0.372,0.014923070858685675
0.376,0.014939730954932883
0.38,0.014932855359656256
0.384,0.014914031614545777
0.388,0.014916627993181704
0.392,0.014936533562723823
0.396,0.014940836819907445
0.4,0.014918743560959128
0.404,0.01490943987084705
0.40800000000000003,0.014919464777246885
0.41200000000000003,0.01492629229143766
0.41600000000000004,0.014913262317172167
0.42,0.014909319668132423
0.424,0.014921748628824786
0.428,0.014919825385390764
0.432,0.014890495923021944
0.436,0.0148819855708264
0.44,0.014897756166985373
0.444,0.014915642330921769
0.448,0.014906170357009215
0.452,0.014903069126971856
0.456,0.014917685777070417
0.46,0.014930090697219851
0.464,0.014919056088017156
0.468,0.014901434370052938
0.47200000000000003,0.014903694181087912
0.47600000000000003,0.014910088965506033
0.48,0.014908358046415413
0.484,0.014899559207704768
0.488,0.014914897074091086
0.492,0.014945693009578348
0.496,0.014964492714145903
0.5,0.014962208862568003
0.504,0.014971151944536201
0.508,0.015008126299555256
0.512,0.015019689800702308
0.516,0.015010987124163362
0.52,0.01500485678571742
0.524,0.015015098057003582
0.528,0.015016516449036173
0.532,0.015009568732130772
0.536,0.014996875325466234
0.54,0.015013270975741263
0.544,0.015025579733718998
0.548,0.015025603774261922
0.552,0.01501988212504571
0.556,0.015035123829260326
0.56,0.015046230560091798
0.5640000000000001,0.015031181180220584
0.5680000000000001,0.015006828110237291
0.5720000000000001,0.01501622796252107
0.5760000000000001,0.015039475167529799
0.58,0.015038465464726938
0.584,0.015018319489755568
0.588,0.015022911233454292
0.592,0.015026661558150634
0.596,0.015013391178455888
0.6,0.01492735007532637
0.604,0.014960069254247655
0.608,0.014975647526063226
0.612,0.014974902269232543
0.616,0.014977931377641125
0.62,0.014994904000946361
0.624,0.015003246069341428
0.628,0.015002717177397071
0.632,0.01499115367625002
0.636,0.015008991759100566
0.64,0.015010722678191184
0.644,0.01500216424490979
0.648,0.0149917066087373
0.652,0.015004832745174496
0.656,0.01502312759834062
0.66,0.015031325423478134
0.664,0.015028248233983701
0.668,0.0150371913159519
0.672,0.015054500506858089
0.676,0.015044836208602133
0.68,0.015033801599399437
0.684,0.015022406382052862
0.6880000000000001,0.015019954246674485
0.6920000000000001,0.015017502111296108
0.6960000000000001,0.014992956716969414
0.7000000000000001,0.014974565701631588
0.704,0.01497644086397976
0.708,0.014970935579649874
0.712,0.014943120671485344
0.716,0.014919729223219063
0.72,0.014922878534342272
0.724,0.014922037115339888
0.728,0.01490167477548219
0.732,0.01487874009753149
0.736,0.014885735895522742
0.74,0.014898645667073607
0.744,0.01488792358492894
0.748,0.01487244147528507
0.752,0.014884245381861375
0.756,0.014905929951579962
0.76,0.014907324303069628
0.764,0.014900641032136404
0.768,0.014905256816378054
0.772,0.014924513291261191
0.776,0.014917469412184088
0.78,0.014901458410595864
0.784,0.01490816572207201
0.788,0.014925162385920173
0.792,0.014928287656500457
0.796,0.014917301128383612
0.8,0.014926556737409839
0.804,0.014947231604325564
0.808,0.014951246374994084
0.812,0.014936004670779466
0.8160000000000001,0.014935764265350213
0.8200000000000001,0.014941654198366903
0.8240000000000001,0.01494588533392175
0.8280000000000001,0.014937783670955936
0.8320000000000001,0.014927638561841474
0.836,0.014943048549856569
0.84,0.01495360234820076
0.844,0.01494410633374528
0.848,0.014935259413948783
0.852,0.014955717915978183
0.856,0.014978556431757183
0.86,0.014985023337804078
0.864,0.014976512985608535
0.868,0.014987018702866875
0.872,0.015015939476005966
0.876,0.015023704571370826
0.88,0.015014256638001199
0.884,0.015021084152191973
0.888,0.015048682695470175
0.892,0.015051735844421684
0.896,0.015033801599399437
0.9,0.015040821437933614
0.904,0.015061111656162536
0.908,0.015061784791364444
0.912,0.015038176978211835
0.916,0.015034931504916924
0.92,0.015051807966050459
0.924,0.0150488028981848
0.928,0.015031373504563985
0.932,0.015022983355083069
0.936,0.01502627690946383
0.9400000000000001,0.015026156706749203
0.9440000000000001,0.015012044908052075
0.9480000000000001,0.015001274744821555
0.9520000000000001,0.015006130934492459
0.9560000000000001,0.014999399582473386
0.96,0.014984326162059245
0.964,0.014975286917919347
0.968,0.01497151255268008
0.972,0.01497644086397976
0.976,0.014967593944183262
0.98,0.014947736455726996
0.984,0.01494639018532318
0.988,0.014958939348730167
0.992,0.01494922696938836
0.996,0.014939610752218255
1.0,0.014934682440918577
1.004,0.01494958757753224
1.008,0.01496333876808549
1.012,0.014949852023504418
1.016,0.014944346739174533
1.02,0.014959444200131598
1.024,0.014967473741468637
1.028,0.014953770632001236
1.032,0.01494547664469202
1.036,0.01496521393043366
1.04,0.014979157445330314
1.044,0.014962184822025078
1.048,0.014954780334804097
1.052,0.014970262444447966
1.056,0.014990023770732533
1.06,0.0149915142843939
1.064,0.014984903135089453
1.068,0.01498927851390185
1.072,0.014997308055238887
1.076,0.014987932243498035
1.08,0.01497242609331124
1.084,0.014974926309775467
1.088,0.01498983144638913
1.092,0.01497470994488914
1.096,0.014965093727719035
1.1,0.014966127471064822
1.104,0.014974782066517917
1.108,0.01497608025583588
1.112,0.014958097929727783
1.116,0.014953890834715862
1.12,0.01497059901204892
1.124,0.0149802873508478
1.1280000000000001,0.014975960053121254
1.1320000000000001,0.014977474607325545
1.1360000000000001,0.014983196256541759
1.1400000000000001,0.015001755555680061
1.1440000000000001,0.015000385244733322
1.1480000000000001,0.014993774095428875
1.1520000000000001,0.015015554827319163
1.156,0.015031373504563985
1.16,0.015019954246674485
1.164,0.015013463300084665
1.168,0.015017766557268287
1.172,0.015024570030916137
1.176,0.015017165543695156
1.18,0.014992115297967032
1.184,0.014995408852347791
1.188,0.015007188718381172
1.192,0.014994663595517108
1.196,0.014979037242615687
1.2,0.014983484743056861
1.204,0.014989807405846206
1.208,0.01498754759481123
1.212,0.014974397417831112
1.216,0.014980720080620456
1.22,0.015003606677485307
1.224,0.01501617988143522
1.228,0.015006563664265114
1.232,0.015012141070223774
1.236,0.015037720207896255
1.24,0.015049596236101335
1.244,0.01503632585640659
1.248,0.015025050841774641
1.252,0.01503445069405842
1.256,0.015050317452389094
1.26,0.015053418682426453
1.264,0.015050389574017869
1.268,0.015053082114825499
1.272,0.015057601736895448
1.276,0.0150555582907468
1.28,0.015036566261835842
1.284,0.015039234762100546
1.288,0.015049211587414532
1.292,0.01503764808626748
1.296,0.01502038697644714
1.3,0.015012934408140308
1.304,0.015016901097722976
1.308,0.015012020867509149
1.312,0.014988340932727764
1.316,0.014974325296202335
1.32,0.015015939476005966
1.324,0.015003678799114082
1.328,0.014991273878964647
1.332,0.014994879960403436
1.336,0.014998558163471001
1.34,0.014982811607854954
1.344,0.014976032174750029
1.348,0.014984782932374825
1.352,0.014996370474064803
1.356,0.014987691838068782
1.36,0.014970358606619667
1.364,0.014981849986137944
1.368,0.014995553095605343
1.372,0.014994976122575138
1.3760000000000001,0.014977666931668947
1.3800000000000001,0.014980383513019502
1.3840000000000001,0.0149846627296602
1.3880000000000001,0.014986417689293744
1.3920000000000001,0.014976969755924115
1.3960000000000001,0.014979205526416165
1.4000000000000001,0.014989687203131579
1.4040000000000001,0.01498384535120074
1.408,0.014966151511607746
1.412,0.0149688680929583
1.416,0.01498343666197101
1.42,0.014979157445330314
1.424,0.014962016538224602
1.428,0.014952640726483748
1.432,0.014966295754865298
1.436,0.014971873160823958
1.44,0.014966319795408224
1.444,0.014960357740762759
1.448,0.014967978592870067
1.452,0.014974565701631588
1.456,0.014967041011695981
1.46,0.014963771497858146
1.464,0.014956246807922537
1.468,0.014970574971505996
1.472,0.014966728484637953
1.476,0.014947279685411414
1.48,0.014951030010107755
1.484,0.014956775699866894
1.488,0.014951078091193606
1.492,0.01493405738680252
1.496,0.014927542399669773
1.5,0.014937735589870086
1.504,0.014944755428404262
1.508,0.014928888670073588
1.512,0.014919993669191242
1.516,0.014939129941359751
1.52,0.014947952820613323
1.524,0.014942976428227792
1.528,0.014947039279982163
1.532,0.014958290254071185
1.536,0.014969348903816806
1.54,0.014968795971329526
1.544,0.014964492714145903
1.548,0.014981128769850185
1.552,0.01499338944674207
1.556,0.01498151341853699
1.56,0.014966872727895505
1.564,0.014972666498740492
1.568,0.014986946581238099
1.572,0.01498425404043047
1.576,0.014965670700749242
1.58,0.014968555565900273
1.584,0.01497959017510297
1.588,0.014976512985608535
1.592,0.014956054483579137
1.596,0.014962449267997256
1.6,0.014968579606443199
1.604,0.014971416390508379
1.608,0.014959323997416972
1.612,0.014952568604854973
1.616,0.014962016538224602
1.62,0.014968387282099796
1.624,0.01495557367272063
1.6280000000000001,0.014948553834186454
1.6320000000000001,0.014963170484285014
1.6360000000000001,0.01498252312133985
1.6400000000000001,0.014978604512843033
1.6440000000000001,0.014962978159941612
1.6480000000000001,0.014974012769144307
1.6520000000000001,0.01498379727011489
1.6560000000000001,0.01497608025583588
1.6600000000000001,0.01496699293061013
1.6640000000000001,0.014971440431051305
1.668,0.014981681702337466
1.672,0.014978580472300107
1.676,0.014962160781482154
1.68,0.01496425230871665
1.684,0.014986033040606939
1.688,0.014982595242968627
1.692,0.014955285186205527
1.696,0.014954924578061649
1.7,0.014967834349612515
1.704,0.014958146010813633
1.708,0.014948746158529857
1.712,0.014951150212822383
1.716,0.01496502160609026
1.72,0.014967257376582308
1.724,0.014959299956874046
1.728,0.01496004521370473
1.732,0.014975142674661795
1.736,0.014975527323348599
1.74,0.014972810741998044
1.744,0.014963386849171341
1.748,0.014974084890773084
1.752,0.014993870257600576
1.756,0.014986273446036192
1.76,0.01497663318832316
1.764,0.014987643756982931
1.768,0.01499201913579533
1.772,0.014991105595164169
1.776,0.014987667797525858
1.78,0.014983292418713458
1.784,0.014993317325113295
1.788,0.01498882174358627
1.792,0.01496817091721347
1.796,0.014969036376758778
1.8,0.014981441296908213
1.804,0.01498709082449565
1.808,0.014974012769144307
1.812,0.014972305890596614
1.816,0.014983100094370058
1.82,0.014992596108825536
1.824,0.014976921674838264
1.828,0.014959780767732552
1.832,0.01497237801222539
1.836,0.014989567000416953
1.84,0.014979373810216641
1.844,0.014969733552503611
1.848,0.014988581338157017
1.852,0.014998558163471001
1.856,0.014992379743939209
1.86,0.014983821310657815
1.864,0.015000553528533798
1.868,0.015006010731777833
1.872,0.014989014067929672
1.8760000000000001,0.014964011903287397
1.8800000000000001,0.01496882001187245
1.8840000000000001,0.014972546296025867
1.8880000000000001,0.014966584241380402
1.8920000000000001,0.014950885766850204
1.8960000000000001,0.014948553834186454
1.9000000000000001,0.014960237538048132
1.9040000000000001,0.014965598579120465
1.9080000000000001,0.01495867490275799
1.9120000000000001,0.014962256943653853
1.9160000000000001,0.01497612833692173
1.92,0.014988893865215045
1.924,0.014980840283335082
1.928,0.014981729783423317
1.932,0.015003919204543335
1.936,0.015018271408669718
1.94,0.015008486907699134
1.944,0.015001851717851762
1.948,0.0150189205033287
1.952,0.015028368436698327
1.956,0.01502134859816415
1.96,0.015002476771967818
1.964,0.015011540056650643
1.968,0.015021396679250001
1.972,0.015011491975564792
1.976,0.014990384378876412
1.98,0.014994086622486903
1.984,0.015010818840362886
1.988,0.015001899798937613
1.992,0.014977955418184051
1.996,0.014985840716263537
2.0,0.015005986691234909
2.004,0.015011828543165746
2.008,0.014999038974329507
2.012,0.015000721812334274
2.016,0.01501581927329134
2.02,0.015031589869450314
2.024,0.015010097624075128
2.028,0.015009111961815192
2.032,0.015021925571194358
2.036,0.015030484004475752
2.04,0.015021084152191973
2.044,0.015024666193087838
2.048,0.015028897328642684
2.052,0.015026252868920904
2.056,0.015024353666029808
2.06,0.01501617988143522
2.064,0.015020002327760336
2.068,0.015026805801408185
2.072,0.015025026801231717
2.076,0.015008655191499612
2.08,0.015015338462432835
2.084,0.015039138599928845
2.088,0.015045100654574312
2.092,0.01502957046384459
2.096,0.015024281544401033
2.1,0.015040508910875586
2.104,0.015043994789599748
2.108,0.015037816370067956
2.112,0.015030700369362078
2.116,0.015044235195029001
2.12,0.015038898194499594
2.124,0.015016035638177667
2.128,0.015015626948947938
2.132,0.01501358350279929
2.136,0.015007188718381172
2.14,0.014981080688764335
2.144,0.01496862768752905
2.148,0.014987331229924903
2.152,0.014994278946830305
2.156,0.014988340932727764
2.16,0.014974301255659411
2.164,0.014984806972917751
2.168,0.015010001461903427
2.172,0.015006563664265114
2.176,0.014997428257953515
2.18,0.015017309786952707
2.184,0.015034835342745224
2.188,0.015034066045371615
2.192,0.015021396679250001
2.196,0.015036590302378769
2.2,0.015064044602399419
2.204,0.015061111656162536
2.208,0.015045124695117236
2.212,0.015044836208602133
2.216,0.015051279074106104
2.22,0.0150508944254193
2.224,0.015034378572429643
2.228,0.015017117462609305
2.232,0.015026637517607709
2.236,0.01502231021988116
2.24,0.015007645488696751
2.244,0.015004448096487691
2.248,0.015014953813746032
2.2520000000000002,0.015016516449036173
2.2560000000000002,0.015007573367067975
2.2600000000000002,0.015002765258482922
2.2640000000000002,0.015012910367597384
2.2680000000000002,0.01502211789553776
2.2720000000000002,0.015013102691940786
2.2760000000000002,0.015007933975211853
2.2800000000000002,0.015022791030739667
2.2840000000000003,0.015036349896949516
2.2880000000000003,0.015033849680485288
2.2920000000000003,0.015025098922860492
2.2960000000000003,0.015020747584591019
2.3000000000000003,0.015023704571370826
2.3040000000000003,0.015005001028974972
2.308,0.014988100527298511
2.312,0.014988533257071167
2.316,0.015004664461374018
2.32,0.014995384811804867
2.324,0.014986201324407417
2.328,0.014980720080620456
2.332,0.014995024203660988
2.336,0.015002452731424894
2.34,0.014987066783952726
2.344,0.014987932243498035
2.348,0.015009977421360501
2.352,0.015023007395625993
2.356,0.015012429556738878
2.36,0.015011924705337448
2.364,0.015016396246321546
2.368,0.015028945409728534
2.372,0.015021108192734898
2.376,0.01500577032634858
2.38,0.015014473002887526
2.384,0.015017910800525839
2.388,0.015017742516725361
2.392,0.015003270109884352
2.396,0.014997187852524262
2.4,0.015011636218822344
2.404,0.01501942535473013
2.408,0.01498927851390185
2.412,0.014977017837009965
2.416,0.014988653459785792
2.42,0.01500206808273809
2.424,0.01498252312133985
2.428,0.014975527323348599
2.432,0.014991033473535394
2.436,0.014998389879670525
2.44,0.01499709169035256
2.444,0.015003222028798502
2.448,0.015015025935374807
2.452,0.01501988212504571
2.456,0.015015001894831882
2.46,0.014997187852524262
2.464,0.015010818840362886
2.468,0.015026012463491651
2.472,0.015016203921978145
2.476,0.014998654325642702
2.48,0.015011804502622822
2.484,0.01501810312486924
2.488,0.0150143528001729
2.492,0.015003029704455101
2.496,0.014999832312246041
2.5,0.015009568732130772
2.504,0.015002308488167342
2.508,0.014995240568547315
2.512,0.015006034772320759
2.516,0.015022646787482115
2.52,0.015024810436345388
2.524,0.01500024100147577
2.528,0.015006323258835861
2.532,0.015030484004475752
2.536,0.01504221578942328
2.54,0.015046398843892275
2.544,0.015041109924448718
2.548,0.015040653154133138
2.552,0.015052793628310395
2.556,0.015039619410787351
2.56,0.015032551491167324
2.564,0.015042792762453485
2.568,0.015043802465256348
2.572,0.015017910800525839
2.576,0.014999423623016312
2.58,0.015015001894831882
2.584,0.015018271408669718
2.588,0.015003101826083876
2.592,0.014992115297967032
2.596,0.014995841582120447
2.6,0.015011540056650643
2.604,0.015002596974682446
2.608,0.014992307622310432
2.612,0.014996610879494054
2.616,0.015019401314187204
2.62,0.015025988422948727
2.624,0.015010145705160979
2.628,0.015001779596222987
2.632,0.01501353542171344
2.636,0.015020675462962244
2.64,0.015001106461021079
2.644,0.015005289515490076
2.648,0.015024281544401033
2.652,0.015036133532063187
2.656,0.015013150773026637
2.66,0.015006058812863684
2.664,0.015011732380994045
2.668,0.015024521949830286
2.672,0.015010770759277035
2.676,0.014986778297437622
2.68,0.014990624784305665
2.684,0.01499663492003698
2.688,0.015006611745350965
2.692,0.015008294583355734
2.696,0.01500846286715621
2.7,0.01502572397697655
2.704,0.015036205653691964
2.708,0.015027286612266691
2.712,0.015033897761571139
2.716,0.015050245330760317
2.72,0.015049451992843783
2.724,0.015022887192911368
2.728,0.015025507612090221
2.732,0.015051639682249983
2.736,0.015049211587414532
2.74,0.015036614342921693
2.744,0.015032166842480519
2.748,0.015051663722792909
2.7520000000000002,0.015048875019813578
2.7560000000000002,0.015034402612972569
2.7600000000000002,0.01502495467960294
2.7640000000000002,0.015042167708337429
2.7680000000000002,0.015047144100722958
2.7720000000000002,0.015032335126280997
2.7760000000000002,0.015022550625310414
2.7800000000000002,0.015022694868567965
2.7840000000000003,0.01503079653153378
2.7880000000000003,0.01502033889536129
2.7920000000000003,0.015003558596399456
2.7960000000000003,0.015001851717851762
2.8000000000000003,0.015022742949653816
2.8040000000000003,0.015026108625663353
2.8080000000000003,0.015016636651750799
2.8120000000000003,0.01500343839368483
2.816,0.015025050841774641
2.82,0.015027214490637915
2.824,0.015008270542812807
2.828,0.015012814205425683
2.832,0.015040412748703885
2.836,0.015039787694587827
2.84,0.01503180623433664
2.844,0.015033104423654605
2.848,0.015049043303614054
2.852,0.015056736277350139
2.856,0.015047192181808808
2.86,0.015029257936786562
2.864,0.015029041571900235
2.868,0.015038393343098163
2.872,0.015026132666206279
2.876,0.015009977421360501
2.88,0.015009063880729341
2.884,0.015017838678897062
2.888,0.015005650123633954
2.892,0.014993004798055265
2.896,0.01499709169035256
2.9,0.015004784664088645
2.904,0.015002212325995641
2.908,0.014997452298496439
2.912,0.014999087055415358
2.916,0.015018752219528222
2.92,0.01501668473283665
2.924,0.014994158744115678
2.928,0.01499334136565622
2.932,0.015016708773379576
2.936,0.015016540489579098
2.94,0.01499658683895113
2.944,0.01500617901557831
2.948,0.015003414353141904
2.952,0.015003294150427279
2.956,0.014979998864332699
2.96,0.014955549632177706
2.964,0.014970238403905042
2.968,0.014971584674308857
2.972,0.014947664334098219
2.976,0.014929201197131616
2.98,0.014947904739527472
2.984,0.014967617984726187
2.988,0.014970719214763546
2.992,0.014960261578591058
2.996,0.014962449267997256
3.0,0.014989110230101374
3.004,0.014986057081149865
3.008,0.01497608025583588
3.012,0.014984566567488498
3.016,0.0150029335422834
3.02,0.014994759757688809
3.024,0.014984734851288975
3.028,0.014983292418713458
3.032,0.015012285313481326
3.036,0.015010049542989278
3.04,0.01497927764804494
3.044,0.014977594810040172
3.048,0.014984422324230947
3.052,0.01498562435137721
3.056,0.0149778111749265
3.06,0.014971368309422528
3.064,0.014984374243145096
3.068,0.014981849986137944
3.072,0.014974613782717439
3.076,0.014963627254600594
3.08,0.014967185254953533
3.084,0.014963531092428893
3.088,0.014958410456785812
3.092,0.014966752525180878
3.096,0.014975527323348599
3.1,0.014978123701984527
3.104,0.01495867490275799
3.108,0.01495456396991777
3.112,0.014962857957226985
3.116,0.014966415957579924
3.12,0.014957737321583904
3.124,0.014937975995299339
3.128,0.014937927914213488
3.132,0.014947327766497265
3.136,0.014948289388214277
3.14,0.014934393954403474
3.144,0.014932086062282648
3.148,0.014941173387508397
3.152,0.014948241307128426
3.156,0.014935595981549737
3.16,0.014934345873317623
3.164,0.014959011470358944
3.168,0.014962569470711883
3.172,0.014940187725248463
3.176,0.014921195696337505
3.18,0.014940812779364519
3.184,0.01496603130889312
3.188,0.014968579606443199
3.192,0.014972113566253211
3.196,0.014991346000593422
3.2,0.014993076919684042
3.204,0.014989951649103756
3.208,0.014981417256365289
3.212,0.014992379743939209
3.216,0.014996394514607728
3.22,0.014996274311893102
3.224,0.014975310958462272
3.228,0.01496744970092571
3.232,0.014981369175279438
3.236,0.014979662296731745
3.24,0.01496506968717611
3.244,0.014965790903463868
3.248,0.014977594810040172
3.2520000000000002,0.014974373377288186
3.2560000000000002,0.014958963389273093
3.2600000000000002,0.014964588876317604
3.2640000000000002,0.014974565701631588
3.2680000000000002,0.014985888797349387
3.2720000000000002,0.014967041011695981
3.2760000000000002,0.014970743255306472
3.2800000000000002,0.014980744121163382
3.2840000000000003,0.014997308055238887
3.2880000000000003,0.014987932243498035
3.2920000000000003,0.014979181485873239
3.2960000000000003,0.01497511863411887
3.3000000000000003,0.014998389879670525
3.3040000000000003,0.015005241434404225
3.3080000000000003,0.014989350635530625
3.3120000000000003,0.014988990027386746
3.3160000000000003,0.015000529487990874
3.3200000000000003,0.015001010298849378
3.3240000000000003,0.014988148608384362
3.3280000000000003,0.014990264176161786
3.332,0.015000409285276246
3.336,0.015003486474770681
3.34,0.014988990027386746
3.344,0.014994134703572753
3.348,0.01502404113897178
3.352,0.015015554827319163
3.356,0.015003967285629185
3.36,0.01500028908256162
3.364,0.015024353666029808
3.368,0.015040388708160959
3.372,0.015033248666912156
3.376,0.015019353233101353
3.38,0.01502942622058704
3.384,0.015050197249674466
3.388,0.015041278208249194
3.392,0.015029690666559218
3.396,0.015029209855700712
3.4,0.015039859816216604
3.404,0.015040196383817558
3.408,0.01502231021988116
3.412,0.015024762355259538
3.416,0.015041278208249194
3.42,0.015034907464374
3.424,0.015016035638177667
3.428,0.01502572397697655
3.432,0.01504536510054649
3.436,0.015038032734954283
3.44,0.015019281111472578
3.444,0.015003149907169727
3.448,0.015020435057532991
3.452,0.015028344396155403
3.456,0.015013270975741263
3.46,0.015008222461726957
3.464,0.015038417383641088
3.468,0.015041182046077493
3.472,0.015031589869450314
3.476,0.015028753085385132
3.48,0.015043417816569543
3.484,0.015039258802643472
3.488,0.015010145705160979
3.492,0.01499526460909024
3.496,0.015007212758924096
3.5,0.015011588137736493
3.504,0.01500343839368483
3.508,0.014979494012931268
3.512,0.014981898067223795
3.516,0.014997692703925692
3.52,0.014990023770732533
3.524,0.01497612833692173
3.528,0.01498521566214748
3.532,0.014994831879317586
3.536,0.015003149907169727
3.54,0.014986345567664967
3.544,0.01498288372948373
3.548,0.014995072284746839
3.552,0.015002693136854147
3.556,0.014993413487284996
3.56,0.014994904000946361
3.564,0.015012477637824729
3.568,0.01501887242224285
3.572,0.015013655624428067
3.576,0.01500206808273809
3.58,0.015007621448153825
3.584,0.015020603341333467
3.588,0.015002789299025848
3.592,0.014985696473005985
3.596,0.014995865622663371
3.6,0.015007381042724572
3.604,0.014999207258129983
3.608,0.01498521566214748
3.612,0.014994158744115678
3.616,0.014998726447271479
3.62,0.014997284014695963
3.624,0.014974782066517917
3.628,0.01498370110794319
3.632,0.01500668386697974
3.636,0.015005409718204701
3.64,0.014992187419595807
3.644,0.014996033906463849
3.648,0.015013174813569561
3.652,0.015019281111472578
3.656,0.015004063447800886
3.66,0.01500653962372219
3.664,0.015022502544224563
3.668,0.015020507179161766
3.672,0.01500476062354572
3.676,0.014994278946830305
3.68,0.015004279812687213
3.684,0.015013920070400245
3.688,0.014996033906463849
3.692,0.014998846649986105
3.696,0.015008871556385939
3.7,0.015011419853936017
3.704,0.014998101393155421
3.708,0.014996755122751606
3.712,0.01499800523098372
3.716,0.01500288546119755
3.72,0.014993100960226966
3.724,0.014970623052591845
3.728,0.014968844052415376
3.732,0.01499435106845908
3.736,0.015000385244733322
3.74,0.014988917905757971
3.744,0.014990168013990085
3.748,0.015011491975564792
3.7520000000000002,0.015039403045901024
3.7560000000000002,0.015030003193617246
3.7600000000000002,0.015026108625663353
3.7640000000000002,0.015042576397567158
3.7680000000000002,0.015052649385052843
3.7720000000000002,0.015043922667970973
3.7760000000000002,0.01503632585640659
3.7800000000000002,0.015050581898361271
3.7840000000000003,0.015062770453624379
3.7880000000000003,0.015056159304319932
3.7920000000000003,0.015044788127516282
3.7960000000000003,0.015060823169647432
3.8000000000000003,0.015064477332172073
3.8040000000000003,0.015043321654397842
3.8080000000000003,0.015029690666559218
3.8120000000000003,0.015028777125928058
3.8160000000000003,0.015035316153603729
3.8200000000000003,0.015024161341686406
3.8240000000000003,0.01500937640778737
3.8280000000000003,0.015009063880729341
3.8320000000000003,0.015027262571723765
3.8360000000000003,0.015026132666206279
3.84,0.015018079084326315
3.844,0.015028945409728534
3.848,0.015038850113413743
3.852,0.015041614775850148
3.856,0.01502719045009499
3.86,0.015023319922684023
3.864,0.015040100221645857
3.868,0.015043658221998796
3.872,0.015027118328466213
3.876,0.015018992624957475
3.88,0.01502937813950119
3.884,0.015036470099664141
3.888,0.015025387409375595
3.892,0.015005890529063207
3.896,0.015015602908405014
3.9,0.01502175728739388
3.904,0.015008559029327911
3.908,0.014999712109531414
3.912,0.015011948745880374
3.916,0.015030940774791331
3.92,0.01502957046384459
3.924,0.015014593205602151
3.928,0.0150213005170783
3.932,0.015033873721028213
3.936,0.01502206981445191
3.94,0.015015049975917733
3.944,0.015015506746233313
3.948,0.015028680963756357
3.952,0.015037575964638703
3.956,0.01502957046384459
3.96,0.015024329625486884
3.964,0.015034643018401822
3.968,0.015035340194146655
3.972,0.015017045340980528
3.976,0.015009809137560025
3.98,0.01501089096199166
3.984,0.015010794799819961
3.988,0.014992716311540163
3.992,0.01498562435137721
3.996,0.015000313123104545
4.0,0.015009592772673698
4.0040000000000004,0.015001082420478155
4.008,0.014989086189558447
4.0120000000000005,0.014991346000593422
4.016,0.015007525285982124
4.0200000000000005,0.014997356136324738
4.024,0.014989855486932055
4.0280000000000005,0.014998125433698347
4.032,0.015006900231866068
4.0360000000000005,0.015002837380111699
4.04,0.014985936878435238
4.0440000000000005,0.014981321094193588
4.048,0.014988340932727764
4.0520000000000005,0.014983148175455908
4.056,0.014970791336392323
4.0600000000000005,0.014973267512313624
4.064,0.014990552662676888
4.0680000000000005,0.014991057514078318
4.072,0.014976320661265132
4.0760000000000005,0.014981369175279438
4.08,0.015002813339568773
4.0840000000000005,0.015012838245968607
4.088,0.014997284014695963
4.0920000000000005,0.014977474607325545
4.096,0.014992740352083088
4.1,0.015001995961109314
4.104,0.014985888797349387
4.108,0.014977330364067993
4.112,0.01498105664822141
4.116,0.014991682568194376
4.12,0.014975599444977375
4.124,0.014961127038136367
4.128,0.01497232993113954
4.132,0.01499485591986051
4.136,0.01498370110794319
4.14,0.014973772363715054
4.144,0.014981898067223795
4.148,0.015010963083620437
4.152,0.015018319489755568
4.156,0.014998558163471001
4.16,0.014996466636236503
4.164,0.015012790164882757
4.168,0.015027406814981317
4.172,0.015017718476182437
4.176,0.015018607976270672
4.18,0.01502988299090262
4.184,0.015035700802290533
4.188,0.015025291247203894
4.192,0.015021685165765105
4.196,0.015034138167000392
4.2,0.015055846777261904
4.204,0.015039379005358098
4.208,0.015021877490108507
4.212,0.015028969450271459
4.216,0.01503454685623012
4.22,0.01502714236900914
4.224,0.015003486474770681
4.228,0.015019713841245234
4.232,0.015037816370067956
4.236,0.015037431721381151
4.24,0.015031205220763509
4.244,0.015042287911052055
4.248,0.015050245330760317
4.252,0.015042624478653009
4.256,0.015028007828554448
4.26,0.015030700369362078
4.264,0.015037936572782582
4.268,0.015030508045018676
4.272,0.015007741650868453
4.276,0.014997933109354945
4.28,0.015010794799819961
4.284,0.015008534988784985
4.288,0.014989542959874027
4.292,0.014983604945771488
4.296,0.014995793501034596
4.3,0.014994952082032212
4.304,0.014984686770203124
4.308,0.014980407553562428
4.312,0.014997740785011543
4.316,0.015001010298849378
4.32,0.014987932243498035
4.324,0.014973315593399475
4.328,0.014981176850936036
4.332,0.01499536077126194
4.336,0.014976585107237312
4.34,0.014956847821495669
4.344,0.014971656795937632
4.348,0.014987571635354156
4.352,0.014988557297614093
4.356,0.014969156579473404
4.36,0.014961968457138751
4.364,0.014982619283511552
4.368,0.014982787567312028
4.372,0.014972233768967839
4.376,0.01497663318832316
4.38,0.014992307622310432
4.384,0.01498983144638913
4.388,0.014983989594458291
4.392,0.014981152810393111
4.396,0.014996803203837457
4.4,0.015017381908581482
4.404,0.015000024636589443
4.408,0.014984085756629992
4.412,0.014992331662853358
4.416,0.01500339031259898
4.42,0.014997524420125216
4.424,0.014992379743939209
4.428,0.014989591040959878
4.432,0.015000481406905023
4.436,0.01499019205453301
4.44,0.01497617641800758
4.444,0.014996875325466234
4.448,0.015014953813746032
4.452,0.015006563664265114
4.456,0.014991754689823151
4.46,0.01500298162336925
4.464,0.015021036071106122
4.468,0.015036542221292918
4.472,0.015025627814804848
4.476,0.01502591630131995
4.48,0.015055486169118025
4.484,0.015067386237866034
4.488,0.015057601736895448
4.492,0.01505952498032947
4.496,0.015072603035680816
4.5,0.015078084279467776
4.5040000000000004,0.015062650250909753
4.508,0.015052625344509919
4.5120000000000005,0.01505998175064505
4.516,0.01505596697997653
4.5200000000000005,0.015034066045371615
4.524,0.015021204354906599
4.5280000000000005,0.015026252868920904
4.532,0.015035340194146655
4.5360000000000005,0.01503454685623012
4.54,0.015014737448859703
4.5440000000000005,0.01501723766532393
4.548,0.015025387409375595
4.5520000000000005,0.015018632016813596
4.556,0.015017862719439988
4.5600000000000005,0.015018800300614072
4.564,0.015028416517784178
4.5680000000000005,0.015023800733542527
4.572,0.015010794799819961
4.5760000000000005,0.015006852150780218
4.58,0.01502957046384459
4.5840000000000005,0.015019978287217411
4.588,0.014998606244556852
4.5920000000000005,0.01499288459534064
4.596,0.015000433325819173
4.6000000000000005,0.015009688934845397
4.604,0.01500161131242251
4.6080000000000005,0.014980167148133175
4.612,0.014991346000593422
4.616,0.015004231731601364
4.62,0.014992956716969414
4.624,0.014989951649103756
4.628,0.015000505447447948
4.632,0.015009280245615668
4.636,0.015006106893949534
4.64,0.014993028838598191
4.644,0.014996394514607728
4.648,0.015018992624957475
4.652,0.01500019292038992
4.656,0.014977979458726975
4.66,0.014978436229042555
4.664,0.014992499946653835
4.668,0.014994567433345408
4.672,0.01498389343228659
4.676,0.014962689673426509
4.68,0.014982619283511552
4.684,0.014984614648574349
4.688,0.014969036376758778
4.692,0.014971392349965454
4.696,0.01498562435137721
4.7,0.014995865622663371
4.704,0.01499298075751234
4.708,0.014990720946477366
4.712,0.015005529920919327
4.716,0.015034715140030597
4.72,0.01502312759834062
4.724,0.015016636651750799
4.728,0.015032888058768278
4.732,0.015047192181808808
4.736,0.015044163073400226
4.74,0.015027094287923289
4.744,0.015030556126104527
4.748,0.015045485303261115
4.752,0.015042071546165728
4.756,0.015024089220057631
4.76,0.015029185815157787
4.764,0.015039859816216604
4.768,0.01503312846419753
4.772,0.015010987124163362
4.776,0.015009809137560025
4.78,0.015022766990196742
4.784,0.015024738314716613
4.788,0.015000769893420125
4.792,0.014997211893067186
4.796,0.01500298162336925
4.8,0.015009953380817577
4.804,0.015007068515666544
4.808,0.014999087055415358
4.812,0.015011467935021868
4.816,0.015027815504211046
4.82,0.015017309786952707
4.824,0.015008775394214238
4.828,0.015024161341686406
4.832,0.015044427519372404
4.836,0.015040220424360482
4.84,0.015028320355612476
4.844,0.015030700369362078
4.848,0.015050557857818345
4.852,0.015039090518842996
4.856,0.01501485765157433
4.86,0.015022045773908983
4.864,0.01504130224879212
4.868,0.015037672126810404
4.872,0.015035051707631551
4.876,0.015035195950889103
4.88,0.01505043765510372
4.884,0.01505053381727542
4.888,0.015033056342568754
4.892,0.01503586908609101
4.896,0.015059068210013888
4.9,0.015058515277526607
4.904,0.015058972047842187
4.908,0.015058635480241235
4.912,0.015062578129280977
4.916,0.015083373198911334
4.92,0.015063347426654586
4.924,0.015048538452212623
4.928,0.015049764519901813
4.932,0.015065799562032963
4.936,0.015065775521490037
4.94,0.015034234329172093
4.944,0.01501120348904969
4.948,0.015015194219175283
4.952,0.015006876191323142
4.956,0.014987186986667352
4.96,0.014994206825201528
4.964,0.015014473002887526
4.968,0.015005169312775448
4.972,0.014989350635530625
4.976,0.01498759567589708
4.98,0.015012766124339832
4.984,0.015027935706925673
4.988,0.015006299218292937
4.992,0.015000793933963051
4.996,0.01501993020613156
5.0,0.015017069381523454
5.0040000000000004,0.014995288649633166
5.008,0.014989374676073551
5.0120000000000005,0.015001082420478155
5.016,0.015008583069870835
5.0200000000000005,0.014997740785011543
5.024,0.01498973528421743
5.0280000000000005,0.01499439914954493
5.032,0.015000793933963051
5.0360000000000005,0.014978796837186436
5.04,0.014970671133677695
5.0440000000000005,0.014980527756277054
5.048,0.014999928474417742
5.0520000000000005,0.015010794799819961
5.056,0.014995745419948745
5.0600000000000005,0.015000793933963051
5.064,0.015022550625310414
5.0680000000000005,0.01502673367977941
5.072,0.015016828976094201
5.0760000000000005,0.015022887192911368
5.08,0.0150441390328573
5.0840000000000005,0.015045725708690368
5.088,0.01502759913932472
5.0920000000000005,0.015024978720145866
5.096,0.01504683157366493
5.1000000000000005,0.015051735844421684
5.104,0.015029137734071937
5.1080000000000005,0.015016420286864472
5.112,0.015030219558503572
5.1160000000000005,0.015043273573311991
5.12,0.015032359166823921
5.124,0.015008366704984509
5.128,0.015017982922154614
5.132,0.01502668559869356
5.136,0.015010289948418529
5.14,0.015000361204190396
5.144,0.015015122097546508
5.148,0.01502394497680008
5.152,0.015022045773908983
5.156,0.01501065055656241
5.16,0.015015963516548892
5.164,0.015036229694234888
5.168,0.015027454896067168
5.172,0.015008126299555256
5.176,0.015009688934845397
5.18,0.015025291247203894
5.184,0.015027791463668122
5.188,0.015016131800349369
5.192,0.015002524853053669
5.196,0.01501166025936527
5.2,0.015014881692117255
5.204,0.015003678799114082
5.208,0.015000673731248424
5.212,0.015013246935198338
5.216,0.015013222894655412
5.22,0.014995480973976568
5.224,0.014996033906463849
5.228,0.015012092989137924
5.232,0.015033921802114063
5.236,0.01501262188108228
5.24,0.015004832745174496
5.244,0.015019497476358905
5.248,0.015030532085561602
5.252,0.01502404113897178
5.256,0.015012453597281804
5.26,0.015003678799114082
5.264,0.015020122530474963
5.268,0.015016155840892295
5.272,0.014998101393155421
5.276,0.015005842447977357
5.28,0.015017742516725361
5.284,0.015013511381170516
5.288,0.015008030137383555
5.292,0.015004039407257962
5.296,0.015021685165765105
5.3,0.015034618977858896
5.304,0.015008991759100566
5.308,0.01500120262319278
5.312,0.01502084374676272
5.316,0.015026565395978932
5.32,0.015024473868744436
5.324,0.015021228395449525
5.328,0.015030123396331871
5.332,0.015040629113590212
5.336,0.015025122963403418
5.34,0.015009232164529818
5.344,0.015033104423654605
5.348,0.015042432154309606
5.352,0.015030147436874797
5.356,0.015015218259718209
5.36,0.01502769530149642
5.364,0.01504368226254172
5.368,0.015047408546695137
5.372,0.015024930639060016
5.376,0.015029402180044114
5.38,0.015046158438463023
5.384,0.015046567127692752
5.388,0.015034763221116448
5.392,0.015031277342392286
5.396,0.015038225059297685
5.4,0.015049716438815962
5.404,0.01504098972173409
5.408,0.015036349896949516
5.412,0.015047721073753165
5.416,0.015042912965168112
5.42,0.015032815937139501
5.424,0.01503445069405842
5.428,0.01504820188461167
5.432,0.015063155102311184
5.436,0.015047961479182418
5.44,0.015029257936786562
5.444,0.015035748883376384
5.448,0.015041109924448718
5.452,0.015030171477417722
5.456,0.015017718476182437
5.46,0.015022766990196742
5.464,0.01503308038311168
5.468,0.01502719045009499
5.472,0.0150189205033287
5.476,0.015024401747115659
5.48,0.015046278641177649
5.484,0.015040268505446333
5.488,0.015026132666206279
5.492,0.015024281544401033
5.496,0.015037984653868432
5.5,0.015044716005887507
5.5040000000000004,0.015033849680485288
5.508,0.015024329625486884
5.5120000000000005,0.015033969883199914
5.516,0.015047600871038538
5.5200000000000005,0.015037575964638703
5.524,0.01503856162689864
5.5280000000000005,0.015039499208072725
5.532,0.015049620276644261
5.5360000000000005,0.0150464228844352
5.54,0.015036181613149038
5.5440000000000005,0.015047937438639492
5.548,0.015063419548283361
5.5520000000000005,0.015046206519548874
5.556,0.015040196383817558
5.5600000000000005,0.015048466330583848
5.564,0.015065126426831055
5.5680000000000005,0.01505921245327144
5.572,0.015045100654574312
5.5760000000000005,0.015040196383817558
5.58,0.015051735844421684
5.5840000000000005,0.015043922667970973
5.588,0.01502307951725477
5.5920000000000005,0.015029714707102142
5.596,0.015037672126810404
5.6000000000000005,0.015031205220763509
5.604,0.015014833611031404
5.6080000000000005,0.015016708773379576
5.612,0.01503353715342726
5.6160000000000005,0.015033657356141886
5.62,0.015007164677838246
5.6240000000000006,0.014991898933080703
5.628,0.015005842447977357
5.632,0.015016540489579098
5.636,0.01500617901557831
5.64,0.01499156236547975
5.644,0.015002524853053669
5.648,0.015017790597811212
5.652,0.015017982922154614
5.656,0.015015987557091817
5.66,0.015030484004475752
5.664,0.01504226387050913
5.668,0.015039787694587827
5.672,0.01502993107198847
5.676,0.015041542654221371
5.68,0.015058058507211028
5.684,0.015050605938904196
5.688,0.01503221492356637
5.692,0.015035508477947131
5.696,0.015052096452565562
5.7,0.01504820188461167
5.704,0.015035556559032982
5.708,0.015021396679250001
5.712,0.015027502977153018
5.716,0.015035628680661757
5.72,0.015016300084149845
5.724,0.01500699639403777
5.728,0.01502175728739388
5.732,0.015017670395096586
5.736,0.014999928474417742
5.74,0.014984061716087068
5.744,0.014993701973800098
5.748,0.015004424055944765
5.752,0.014984470405316797
5.756,0.014971079822907426
5.76,0.014979445931845418
5.764,0.014990143973447159
5.768,0.014979686337274669
5.772,0.014964156146544949
5.776,0.014965863025092643
5.78,0.014980647958991681
5.784,0.014979373810216641
5.788,0.014965045646633184
5.792,0.014977690972211874
5.796,0.014998630285099778
5.8,0.014999639987902639
5.804,0.015002717177397071
5.808,0.015010578434933633
5.812,0.015036205653691964
5.816,0.015055438088032174
5.82,0.015044932370773834
5.824,0.015044836208602133
5.828,0.015063611872626764
5.832,0.015072002022107685
5.836,0.015067843008181614
5.84,0.015069045035327877
5.844,0.015073540616854902
5.848,0.01508262794208065
5.852,0.015075968711690353
5.856,0.015065246629545682
5.86,0.015078781455212608
5.864,0.015082724104252352
5.868,0.015063395507740437
5.872,0.015047071979094183
5.876,0.015053899493284957
5.88,0.015073997387170482
5.884,0.015075079211602118
5.888,0.015045533384346966
5.892,0.015041230127163343
5.896,0.015053346560797676
5.9,0.015054764952830266
5.904,0.015042119627251578
5.908,0.015039859816216604
5.912,0.015045028532945535
5.916,0.015047600871038538
5.92,0.01502541144991852
5.924,0.015022839111825517
5.928,0.01503541231577543
5.932,0.015032287045195146
5.936,0.015012189151309625
5.94,0.015006130934492459
5.944,0.015019257070929654
5.948,0.015029161774614861
5.952,0.015019112827672102
5.956,0.014998870690529029
5.96,0.015001298785364481
5.964,0.015010073583532202
5.968,0.015010458232219007
5.972,0.015008534988784985
5.976,0.015015025935374807
5.98,0.015027719342039345
5.984,0.015024930639060016
5.988,0.015014713408316779
5.992,0.015009328326701519
5.996,0.015033056342568754
6.0,0.015038994356671295
6.0040000000000004,0.015027454896067168
6.008,0.015032815937139501
6.0120000000000005,0.015046038235748396
6.016,0.01504952411447256
6.0200000000000005,0.015034138167000392
6.024,0.015028320355612476
6.0280000000000005,0.015045966114119621
6.032,0.015049836641530588
6.0360000000000005,0.015030604207190377
6.04,0.015027575098781795
6.0440000000000005,0.015034835342745224
6.048,0.015043345694940766
6.0520000000000005,0.015027839544753972
6.056,0.015010410151133156
6.0600000000000005,0.015017381908581482
6.064,0.015036542221292918
6.0680000000000005,0.015022550625310414
6.072,0.015012958448683235
6.0760000000000005,0.01502668559869356
6.08,0.015042744681367634
6.0840000000000005,0.015044307316657778
6.088,0.015033248666912156
6.0920000000000005,0.0150303397612182
6.096,0.01505144735790658
6.1000000000000005,0.015053947574370808
6.104,0.015045196816746011
6.1080000000000005,0.015047528749409763
6.112,0.015056207385405782
6.1160000000000005,0.015056736277350139
6.12,0.015040148302731707
6.1240000000000006,0.015032743815510726
6.128,0.015046999857465406
6.132000000000001,0.015046759452036155
6.136,0.015016636651750799
6.140000000000001,0.01500704447512362
6.144,0.01502180536847973
6.148,0.015030724409905003
6.152,0.015032527450624398
6.156,0.015023247801055246
6.16,0.015033969883199914
6.164,0.01505185604713631
6.168,0.015045317019460639
6.172,0.015040869519019465
6.176,0.015056087182691157
6.18,0.01506286661579608
6.184,0.015060101953359675
6.188,0.015044235195029001
6.192,0.015038585667441564
6.196,0.015052096452565562
6.2,0.015046038235748396
6.204,0.015019617679073533
6.208,0.015016348165235695
6.212,0.01503125330184936
6.216,0.015029089652986086
6.22,0.015020987990020272
6.224,0.01501572311111964
6.228,0.015024473868744436
6.232,0.015030411882846975
6.236,0.015014232597458273
6.24,0.01500577032634858
6.244,0.015027382774438392
6.248,0.015034402612972569
6.252,0.015022766990196742
6.256,0.015019665760159383
6.26,0.015036013329348561
6.264,0.015057673858524225
6.268,0.015051038668676851
6.272,0.015038441424184014
6.276,0.015050966547048076
6.28,0.015068804629898624
6.284,0.015069069075870802
6.288,0.015060101953359675
6.292,0.015064309048371596
6.296,0.01508060853647493
6.3,0.015081882685249967
6.304,0.01506414076457112
6.308,0.01505733729092327
6.312,0.015059428818157769
6.316,0.015050678060532972
6.32,0.01502719045009499
6.324,0.015023319922684023
6.328,0.015035652721204683
6.332,0.015039258802643472
6.336,0.015020915868391497
6.34,0.015010626516019483
6.344,0.015018583935727746
6.348,0.015021084152191973
6.352,0.01500937640778737
6.356,0.015013415218998814
6.36,0.01502572397697655
6.364,0.015035123829260326
6.368,0.01503125330184936
6.372,0.015018319489755568
6.376,0.015029281977329488
6.38,0.015042744681367634
6.384,0.01503449877514427
6.388,0.015024473868744436
6.392,0.015032815937139501
6.396,0.015052433020166517
6.4,0.015049355830672082
6.404,0.015021637084679254
6.408,0.015018079084326315
6.412,0.01502961854493044
6.416,0.01502901753135731
6.42,0.015015867354377191
6.424,0.015017478070753184
6.428,0.015018896462785774
6.432,0.015019184949300877
6.436,0.015012189151309625
6.44,0.015007164677838246
6.444,0.015026709639236484
6.448,0.01503372947777066
6.452,0.015015074016460657
6.456,0.015009304286158594
6.46,0.01502627690946383
6.464,0.015036277775320739
6.468,0.015028705004299281
6.472,0.015009136002358116
6.476,0.015011780462079896
6.48,0.0150303397612182
6.484,0.015026252868920904
6.488,0.015015482705690386
6.492,0.015028368436698327
6.496,0.015034378572429643
6.5,0.015032743815510726
6.5040000000000004,0.015025892260777026
6.508,0.015031589869450314
6.5120000000000005,0.015050004925331064
6.516,0.015039499208072725
6.5200000000000005,0.015031012896420106
6.524,0.015040340627075108
6.5280000000000005,0.015060125993902601
6.532,0.01506418884565697
6.5360000000000005,0.015061424183220564
6.54,0.015046134397920097
6.5440000000000005,0.015060198115531376
6.548,0.015061544385935191
6.5520000000000005,0.01505582273671898
6.556,0.01505272150668162
6.5600000000000005,0.0150623136833088
6.564,0.015068636346098148
6.5680000000000005,0.015062025196793696
6.572,0.015050197249674466
6.5760000000000005,0.015059428818157769
6.58,0.015078180441639477
6.5840000000000005,0.0150711606031053
6.588,0.015060246196617227
6.5920000000000005,0.0150623136833088
6.596,0.015077579428066345
6.6000000000000005,0.015075511941374773
6.604,0.015061255899420088
6.6080000000000005,0.01504810572243997
6.612,0.015051327155191955
6.6160000000000005,0.015047913398096567
6.62,0.015022839111825517
6.6240000000000006,0.01501485765157433
6.628,0.015015025935374807
6.632000000000001,0.01500211616382394
6.636,0.014985383945947957
6.640000000000001,0.014974806107060841
6.644,0.014983220297084683
6.648000000000001,0.014983965553915367
6.652,0.014964901403375632
6.656000000000001,0.01496064622727786
6.66,0.014973147309598998
6.664,0.014985407986490883
6.668,0.014986658094722997
6.672,0.014981729783423317
6.676,0.014987427392096605
6.68,0.015006010731777833
6.684,0.015008366704984509
6.688,0.01499932746084461
6.692,0.015012333394567177
6.696,0.015018824341156999
6.7,0.015013222894655412
6.704,0.01500394324508626
6.708,0.015007236799467022
6.712,0.015030099355788947
6.716,0.015038080816040134
6.72,0.015017405949124409
6.724,0.01502161304413633
6.728,0.015033825639942362
6.732,0.01503180623433664
6.736,0.015014977854288956
6.74,0.015006828110237291
6.744,0.015006419421007562
6.748,0.015003991326172111
6.752,0.01498338858088516
6.756,0.01497004607956164
6.76,0.014976104296378806
6.764,0.01498059987790583
6.768,0.014970238403905042
6.772,0.014958819146015542
6.776,0.014965262011519511
6.78,0.0149732434717707
6.784,0.01496963739033191
6.788,0.014951679104766738
6.792,0.014961968457138751
6.796,0.014969036376758778
6.8,0.014964685038489306
6.804,0.014956102564664987
6.808,0.014955453470006005
6.812,0.014970671133677695
6.816,0.014969517187617283
6.82,0.01495643913226594
6.824,0.014956174686293762
6.828,0.014972089525710287
6.832,0.014971680836480558
6.836,0.014955285186205527
6.84,0.014957785402669755
6.844,0.014972666498740492
6.848,0.014981898067223795
6.852,0.01497415701240186
6.856,0.014966872727895505
6.86,0.014984302121516321
6.864,0.014991177716792946
6.868,0.014990720946477366
6.872,0.014991442162765123
6.876,0.015000024636589443
6.88,0.015005313556033
6.884,0.014996033906463849
6.888,0.014988220730013138
6.892,0.015001274744821555
6.896,0.015019906165588634
6.9,0.015004207691058438
6.904,0.015000120798761143
6.908,0.01501043419167608
6.912,0.015020747584591019
6.916,0.015027478936610094
6.92,0.01501714150315223
6.924,0.01501394411094317
6.928,0.01502444982820151
6.932,0.015028272274526628
6.936,0.01502252658476749
6.94,0.01502454599037321
6.944,0.015029786828730919
6.948,0.015035893126633936
6.952,0.015024978720145866
6.956,0.015019641719616457
6.96,0.01503714323486605
6.964,0.015038465464726938
6.968,0.015015218259718209
6.972,0.015001346866450332
6.976,0.015008294583355734
6.98,0.0150145451245163
6.984,0.015008991759100566
6.988,0.014989711243674505
6.992,0.014998389879670525
6.996,0.015016348165235695
7.0,0.01501262188108228
7.0040000000000004,0.015005938610149058
7.008,0.015025171044489269
7.0120000000000005,0.015038369302555237
7.016,0.01504957219555841
7.0200000000000005,0.015041903262365252
7.024,0.015047192181808808
7.0280000000000005,0.015079358428242816
7.032,0.015091763348392252
7.0360000000000005,0.01507293960328177
7.04,0.015073107887082247
7.0440000000000005,0.015079454590414517
7.048,0.015074069508799257
7.0520000000000005,0.015065631278232485
7.056,0.015056664155721362
7.0600000000000005,0.01506149630484934
7.064,0.015057577696352523
7.0680000000000005,0.015044042870685599
7.072,0.015041133964991642
7.0760000000000005,0.015051976249850937
7.08,0.015042624478653009
7.0840000000000005,0.015029690666559218
7.088,0.015024882557974165
7.0920000000000005,0.01503445069405842
7.096,0.015052649385052843
7.1000000000000005,0.015045196816746011
7.104,0.015025243166118044
7.1080000000000005,0.015033801599399437
7.112,0.015044427519372404
7.1160000000000005,0.015035219991432027
7.12,0.015027046206837438
7.1240000000000006,0.015020050408846186
7.128,0.015015699070576713
7.132000000000001,0.015006251137207086
7.136,0.014993485608913771
7.140000000000001,0.014996322392978953
7.144,0.01500480870463157
7.148000000000001,0.014999183217587059
7.152,0.01497644086397976
7.156000000000001,0.014973916606972606
7.16,0.014992548027739685
7.164000000000001,0.01500480870463157
7.168,0.014988509216528242
7.172,0.014984975256718228
7.176,0.0150007458528772
7.18,0.015023512247027424
7.184,0.015024401747115659
7.188,0.015025074882317567
7.192,0.015037672126810404
7.196,0.01505505343934537
7.2,0.015057409412552045
7.204,0.01505368312839863
7.208,0.015060510642589404
7.212,0.015072194346451087
7.216,0.015060101953359675
7.22,0.015047889357553641
7.224,0.015044788127516282
7.228,0.015056351628663334
7.232,0.015060654885846956
7.236,0.015037215356494825
7.24,0.015029690666559218
7.244,0.015045052573488461
7.248,0.01504079739739069
7.252,0.01502079566567687
7.256,0.015014833611031404
7.26,0.015019785962874009
7.264,0.015024089220057631
7.268,0.015007429123810423
7.272,0.014997380176867664
7.276,0.015021372638707077
7.28,0.015028200152897851
7.284,0.015015699070576713
7.288,0.01501622796252107
7.292,0.01502084374676272
7.296,0.015033008261482904
7.3,0.015039691532416128
7.304,0.015020435057532991
7.308,0.015025531652633147
7.312,0.015040725275761913
7.316,0.01503687878889387
7.32,0.01503495554545985
7.324,0.015039739613501977
7.328,0.015045725708690368
7.332,0.015043393776026617
7.336,0.015026613477064783
7.34,0.01502901753135731
7.344,0.015045485303261115
7.348,0.015046927735836631
7.352,0.015028825207013909
7.356,0.015021901530651431
7.36,0.015034787261659374
7.364,0.015045268938374788
7.368,0.015049331790129157
7.372,0.015035796964462235
7.376,0.015049403911757932
7.38,0.015062842575253156
7.384,0.015055005358259519
7.388,0.015047721073753165
7.392,0.01504820188461167
7.396,0.01505226473636604
7.4,0.015041326289335044
7.404,0.015022502544224563
7.408,0.01502490659851709
7.412,0.0150417590191077
7.416,0.015034066045371615
7.42,0.015015650989490864
7.424,0.015024281544401033
7.428,0.015046278641177649
7.432,0.015047120060180033
7.436,0.01503663838346462
7.44,0.015018704138442371
7.444,0.01503372947777066
7.448,0.01504272064082471
7.452,0.015027959747468598
7.456,0.015033609275056035
7.46,0.015036854748350946
7.464,0.015039379005358098
7.468,0.015035676761747607
7.472,0.015039787694587827
7.476,0.015059645183044095
7.48,0.015068948873156176
7.484,0.01505053381727542
7.488,0.015043802465256348
7.492,0.015058154669382729
7.496,0.015072819400567143
7.5,0.015068564224469371
7.5040000000000004,0.015050798263247598
7.508,0.015047672992667314
7.5120000000000005,0.015056135263777007
7.516,0.015045797830319143
7.5200000000000005,0.015029161774614861
7.524,0.015033272707455081
7.5280000000000005,0.015030267639589423
7.532,0.0150189205033287
7.5360000000000005,0.014998029271526646
7.54,0.014996154109178475
7.5440000000000005,0.015003871123457484
7.548,0.01500334223151313
7.5520000000000005,0.01497521479629057
7.556,0.014969973957932864
7.5600000000000005,0.014990023770732533
7.564,0.015002837380111699
7.5680000000000005,0.014995961784835072
7.572,0.014990384378876412
7.5760000000000005,0.015007933975211853
7.58,0.015017862719439988
7.5840000000000005,0.015013871989314394
7.588,0.01501622796252107
7.5920000000000005,0.01503358523451311
7.596,0.015039234762100546
7.6000000000000005,0.015036133532063187
7.604,0.015032623612796099
7.6080000000000005,0.015044764086973358
7.612,0.015061664588649817
7.6160000000000005,0.015061544385935191
7.62,0.015048418249497998
7.6240000000000006,0.015054019695999584
7.628,0.015064669656515475
7.632000000000001,0.015067987251439166
7.636,0.01505952498032947
7.640000000000001,0.015057457493637896
7.644,0.015064285007828672
7.648000000000001,0.015055991020519455
7.652,0.015040821437933614
7.656000000000001,0.015041638816393072
7.66,0.015058467196440757
7.664000000000001,0.015047432587238061
7.668,0.015039787694587827
7.672000000000001,0.015036277775320739
7.676,0.015037311518666526
7.68,0.015048009560268269
7.684,0.015030604207190377
7.688,0.01501170834045112
7.692,0.015021132233277824
7.696,0.015030748450447929
7.7,0.015018391611384343
7.704,0.015012862286511533
7.708,0.015017478070753184
7.712,0.015030700369362078
7.716,0.015032743815510726
7.72,0.015021132233277824
7.724,0.015028224193440777
7.728,0.015046254600634724
7.732,0.015042792762453485
7.736,0.015032094720851744
7.74,0.015028055909640299
7.744,0.015039547289158576
7.748,0.015046807533122005
7.752,0.015036301815863665
7.756,0.015030820572076704
7.76,0.015046975816922482
7.764,0.015051062709219777
7.768,0.015035893126633936
7.772,0.01503815293766891
7.776,0.01504322549222614
7.78,0.015048850979270651
7.784,0.015039547289158576
7.788,0.01502988299090262
7.792,0.015050365533474944
7.796,0.015054572628486865
7.8,0.015037672126810404
7.804,0.015034979586002774
7.808,0.015043321654397842
7.812,0.015060678926389882
7.816,0.015056255466491633
7.82,0.015039186681014696
7.824,0.015037816370067956
7.828,0.015045437222175264
7.832,0.015041374370420895
7.836,0.015029354098958263
7.84,0.015033440991255559
7.844,0.01503372947777066
7.848,0.015033609275056035
7.852,0.01502231021988116
7.856,0.015013102691940786
7.86,0.015029137734071937
7.864,0.015027070247380364
7.868,0.015009809137560025
7.872,0.015009977421360501
7.876,0.01502449790928736
7.88,0.015025675895890699
7.884,0.0150143528001729
7.888,0.015005097191146673
7.892,0.015016155840892295
7.896,0.015028296315069552
7.9,0.015018079084326315
7.904,0.015013415218998814
7.908,0.015027719342039345
7.912,0.01503404200482869
7.916,0.015033969883199914
7.92,0.015026661558150634
7.924,0.015033633315598961
7.928,0.015044523681544105
7.932,0.015036854748350946
7.936,0.015032575531710248
7.94,0.015040364667618034
7.944,0.015050245330760317
7.948,0.015055293844774623
7.952,0.01505510152043122
7.956,0.015034907464374
7.96,0.01504267255973886
7.964,0.015046543087149826
7.968,0.015040196383817558
7.972,0.01502983490981677
7.976,0.015046951776379556
7.98,0.015051567560621208
7.984,0.015036157572606113
7.988,0.015023728611913752
7.992,0.01503221492356637
7.996,0.015049956844245213
8.0,0.015046519046606902
8.004,0.015038994356671295
8.008000000000001,0.015047624911581464
8.012,0.015049740479358887
8.016,0.015051783925507534
8.02,0.01504536510054649
8.024000000000001,0.015047192181808808
8.028,0.015066472697234875
8.032,0.015058419115354906
8.036,0.015037792329525032
8.040000000000001,0.015044836208602133
8.044,0.01505637566920626
8.048,0.015058010426125177
8.052,0.015052481101252367
8.056000000000001,0.015050581898361271
8.06,0.015064381170000371
8.064,0.015068996954242027
8.068,0.015050654019990046
8.072000000000001,0.015036926869979721
8.076,0.015052625344509919
8.08,0.015058539318069534
8.084,0.015055894858347754
8.088000000000001,0.015044716005887507
8.092,0.015049235627957456
8.096,0.015072242427536938
8.1,0.015058635480241235
8.104000000000001,0.015048370168412147
8.108,0.01507212222482231
8.112,0.015078492968697507
8.116,0.015064910061944728
8.120000000000001,0.015045990154662545
8.124,0.015051471398449506
8.128,0.015066112089090995
8.132,0.01505505343934537
8.136000000000001,0.015038417383641088
8.14,0.015042071546165728
8.144,0.015053562925684003
8.148,0.015047168141265884
8.152000000000001,0.01502545953100437
8.156,0.014998077352612497
8.16,0.01500841478607036
8.164,0.015018704138442371
8.168000000000001,0.015002765258482922
8.172,0.015007020434580694
8.176,0.0150303397612182
8.18,0.015040629113590212
8.184000000000001,0.015036301815863665
8.188,0.015038201018754761
8.192,0.01505510152043122
8.196,0.015074117589885107
8.2,0.015072266468079862
8.204,0.015054740912287342
8.208,0.01507024706247414
8.212,0.015082315415022623
8.216,0.015068948873156176
8.22,0.015058034466668103
8.224,0.015054740912287342
8.228,0.015056447790835035
8.232,0.015039667491873202
8.236,0.015030099355788947
8.24,0.015033008261482904
8.244,0.015047216222351735
8.248,0.015034618977858896
8.252,0.015020939908934421
8.256,0.015018559895184821
8.26,0.015029281977329488
8.264,0.01503372947777066
8.268,0.015027743382582271
8.272,0.015020411016990066
8.276,0.015036854748350946
8.28,0.015044764086973358
8.284,0.015032599572253174
8.288,0.015032815937139501
8.292,0.015040004059474156
8.296,0.01504094164064824
8.3,0.015024738314716613
8.304,0.015023872855171304
8.308,0.015039042437757145
8.312,0.015051615641707058
8.316,0.015032503410081473
8.32,0.015023271841598173
8.324,0.01503642201857829
8.328,0.015046254600634724
8.332,0.015041061843362867
8.336,0.015028897328642684
8.34,0.015033344829083858
8.344,0.01505267342559577
8.348,0.015058851845127562
8.352,0.015045845911404994
8.356,0.01505947689924362
8.36,0.01506846806229767
8.364,0.015073011724910546
8.368,0.015063299345568736
8.372,0.015065895724204664
8.376,0.015081185509505135
8.38,0.015085488766688757
8.384,0.015068035332525017
8.388,0.0150664967377778
8.392,0.015079262266071114
8.396,0.015082940469138679
8.4,0.015077411144265869
8.404,0.015064068642942343
8.408,0.015065583197146635
8.412,0.015070848076047272
8.416,0.015058611439698309
8.42,0.015050197249674466
8.424,0.01505825083155443
8.428,0.015063972480770642
8.432,0.015060510642589404
8.436,0.015053490804055228
8.44,0.01506368399425554
8.444,0.015081329752762686
8.448,0.015071376967991629
8.452,0.015057553655809597
8.456,0.015055894858347754
8.46,0.015065150467373981
8.464,0.01506923735967128
8.468,0.015054861115001967
8.472,0.015040412748703885
8.476,0.015048995222528203
8.48,0.0150486105738414
8.484,0.015039138599928845
8.488,0.015036902829436797
8.492,0.015051759884964608
8.496,0.015045605505975742
8.5,0.015036157572606113
8.504,0.015027767423125196
8.508000000000001,0.015036974951065572
8.512,0.015054212020342985
8.516,0.015046302681720575
8.52,0.015030724409905003
8.524000000000001,0.015041085883905791
8.528,0.015060751048018657
8.532,0.01505007704695984
8.536,0.01504322549222614
8.540000000000001,0.015041278208249194
8.544,0.015045605505975742
8.548,0.015041566694764297
8.552,0.015024642152544912
8.556000000000001,0.015032912099311202
8.56,0.015049884722616438
8.564,0.015042648519195935
8.568,0.015029594504387516
8.572000000000001,0.015028224193440777
8.576,0.015046591168235677
8.58,0.015053418682426453
8.584,0.015036806667265095
8.588000000000001,0.015034017964285764
8.592,0.015048923100899428
8.596,0.015052481101252367
8.6,0.01503764808626748
8.604000000000001,0.01503678262672217
8.608,0.015040605073047287
8.612,0.015046927735836631
8.616,0.01503860970798449
8.620000000000001,0.015033392910169708
8.624,0.015045990154662545
8.628,0.015051086749762702
8.632,0.015038345262012313
8.636000000000001,0.015026036504034578
8.64,0.015031661991079089
8.644,0.015044042870685599
8.648,0.015046759452036155
8.652000000000001,0.015030556126104527
8.656,0.015026805801408185
8.66,0.015039210721557622
8.664,0.01504089355956239
8.668000000000001,0.01503267169388195
8.672,0.015031229261306435
8.676,0.015038946275585444
8.68,0.015046951776379556
8.684000000000001,0.015042047505622803
8.688,0.015048875019813578
8.692,0.015070848076047272
8.696,0.015069453724557607
8.700000000000001,0.015051230993020253
8.704,0.01503901839721422
8.708,0.015047240262894659
8.712,0.01506094337236206
8.716,0.01505510152043122
8.72,0.015033296747998007
8.724,0.015040316586532184
8.728,0.015046182479005948
8.732,0.01503358523451311
8.736,0.01502180536847973
8.74,0.015024329625486884
8.744,0.01502572397697655
8.748,0.015021925571194358
8.752,0.01500901579964349
8.756,0.015011876624251597
8.76,0.015030532085561602
8.764,0.015027935706925673
8.768,0.015019737881788158
8.772,0.015016973219351753
8.776,0.015034090085914541
8.78,0.015032166842480519
8.784,0.015027959747468598
8.788,0.015026252868920904
8.792,0.015036229694234888
8.796,0.015044235195029001
8.8,0.015033320788540932
8.804,0.01503663838346462
8.808,0.015048274006240446
8.812,0.015049548155015484
8.816,0.015035989288805637
8.82,0.015028296315069552
8.824,0.015041999424536953
8.828,0.015055702534004352
8.832,0.015037672126810404
8.836,0.015026613477064783
8.84,0.015032118761394668
8.844,0.015043778424713421
8.848,0.015050125128045691
8.852,0.015039787694587827
8.856,0.015037912532239657
8.86,0.015061592467021042
8.864,0.015053971614913734
8.868,0.015039907897302454
8.872,0.015052168574194339
8.876,0.015056904561150615
8.88,0.01505171180387876
8.884,0.015036349896949516
8.888,0.015034090085914541
8.892,0.015046350762806424
8.896,0.015054500506858089
8.9,0.01502673367977941
8.904,0.015015194219175283
8.908,0.015026517314893082
8.912,0.015030820572076704
8.916,0.015023295882141097
8.92,0.015016203921978145
8.924,0.015020026368303262
8.928,0.015032984220939979
8.932,0.015024161341686406
8.936,0.0150143528001729
8.94,0.01503348907234141
8.944,0.015045966114119621
8.948,0.015044114992314376
8.952,0.01504007618110293
8.956,0.015053755250027405
8.96,0.015069357562385905
8.964,0.015070319184102916
8.968,0.01504810572243997
8.972,0.015047360465609286
8.976,0.015062986818510708
8.98,0.015066953508093379
8.984,0.015056856480064764
8.988,0.015046398843892275
8.992,0.015051615641707058
8.996,0.015055125560974146
9.0,0.01503906647830007
9.004,0.015032094720851744
9.008000000000001,0.015046230560091798
9.012,0.01504500449240261
9.016,0.015035700802290533
9.02,0.015027454896067168
9.024000000000001,0.015035941207719786
9.028,0.015051615641707058
9.032,0.015049139465785755
9.036,0.015038513545812789
9.040000000000001,0.015050245330760317
9.044,0.015062457926566351
9.048,0.015051014628133927
9.052,0.01505313019591135
9.056000000000001,0.015059332655986067
9.06,0.015068684427183999
9.064,0.015062962777967781
9.068,0.01505606314214823
9.072000000000001,0.015052144533651413
9.076,0.015066256332348546
9.08,0.01505632758812041
9.084,0.015032142801937595
9.088000000000001,0.015024690233630763
9.092,0.015038297180926462
9.096,0.015040581032504361
9.1,0.01502252658476749
9.104000000000001,0.015011011164706288
9.108,0.01502252658476749
9.112,0.015027286612266691
9.116,0.015022791030739667
9.120000000000001,0.015025219125575119
9.124,0.015034162207543316
9.128,0.015041542654221371
9.132,0.015034667058944746
9.136000000000001,0.015033849680485288
9.14,0.015047312384523436
9.144,0.01506017407498845
9.148,0.015042095586708654
9.152000000000001,0.015025675895890699
9.156,0.015035532518490055
9.16,0.015041061843362867
9.164,0.015039138599928845
9.168000000000001,0.015013775827142693
9.172,0.015013799867685619
9.176,0.015022694868567965
9.18,0.015019257070929654
9.184000000000001,0.01500617901557831
9.188,0.015006924272408993
9.192,0.015012910367597384
9.196,0.015016877057180052
9.200000000000001,0.015008318623898658
9.204,0.01500699639403777
9.208,0.015029690666559218
9.212,0.015041518613678447
9.216000000000001,0.015030484004475752
9.22,0.015028079950183225
9.224,0.01504312933005444
9.228,0.015058635480241235
9.232,0.01505656799354966
9.236,0.015049956844245213
9.24,0.01505632758812041
9.244,0.015067626643295287
9.248,0.015061520345392265
9.252,0.015050413614560795
9.256,0.01506099145344791
9.26,0.015066713102664126
9.264,0.015065751480947112
9.268,0.01505185604713631
9.272,0.01505464475011564
9.276,0.01507435799531436
9.28,0.01506791512981039
9.284,0.0150464228844352
9.288,0.015049163506328681
9.292,0.015059452858700693
9.296,0.015057986385582253
9.3,0.01504541318163234
9.304,0.015028849247556833
9.308,0.015035388275232505
9.312,0.015036902829436797
9.316,0.015025507612090221
9.32,0.015026565395978932
9.324,0.015039379005358098
9.328,0.01504007618110293
9.332,0.015030868653162555
9.336,0.015018079084326315
9.34,0.01502856076104173
9.344,0.015050966547048076
9.348,0.015039210721557622
9.352,0.01503226300465222
9.356,0.015039547289158576
9.36,0.015046038235748396
9.364,0.015044764086973358
9.368,0.015043970749056824
9.372,0.015045605505975742
9.376,0.015061808831907369
9.38,0.015064260967285746
9.384,0.015049548155015484
9.388,0.015054380304143463
9.392,0.015074406076400211
9.396,0.015085152199087805
9.4,0.015064285007828672
9.404,0.015069501805643457
9.408,0.015074406076400211
9.412,0.015073636779026603
9.416,0.0150486105738414
9.42,0.015047360465609286
9.424,0.015042600438110084
9.428,0.015033416950712633
9.432,0.015031565828907387
9.436,0.015026853882494036
9.44,0.015021444760335852
9.444,0.015023199719969396
9.448,0.015016059678720594
9.452,0.014992668230454313
9.456,0.015009616813216622
9.46,0.01502622882837798
9.464,0.01500896771855764
9.468,0.014999447663559236
9.472,0.0149938942981435
9.476,0.015023800733542527
9.48,0.015030243599046499
9.484,0.015005217393861299
9.488,0.015009977421360501
9.492,0.015031637950536164
9.496,0.015047817235924866
9.5,0.015043057208425664
9.504,0.015039138599928845
9.508000000000001,0.015041470532592596
9.512,0.01505926053435729
9.516,0.015055317885317549
9.52,0.015052601303966993
9.524000000000001,0.01507705053612199
9.528,0.015076810130692737
9.532,0.015058923966756338
9.536,0.015056543953006736
9.540000000000001,0.015068924832613252
9.544,0.015096331051548052
9.548,0.015070896157133123
9.552,0.015050341492932018
9.556000000000001,0.015056760317893063
9.56,0.015076209117119606
9.564,0.01505926053435729
9.568,0.015044788127516282
9.572000000000001,0.015043081248968589
9.576,0.015041446492049672
9.58,0.015032960180397053
9.584,0.015027094287923289
9.588000000000001,0.015030219558503572
9.592,0.015030051274703096
9.596,0.015007212758924096
9.6,0.014986417689293744
9.604000000000001,0.014975960053121254
9.608,0.01498886982467212
9.612,0.015000890096134752
9.616,0.014980119067047324
9.620000000000001,0.014979133404787388
9.624,0.014986009000064015
9.628,0.015009544691587847
9.632,0.01500901579964349
9.636000000000001,0.015003149907169727
9.64,0.015022863152368443
9.644,0.015033849680485288
9.648,0.015031565828907387
9.652000000000001,0.015028320355612476
9.656,0.015038898194499594
9.66,0.015064982183573503
9.664,0.01505601506106238
9.668000000000001,0.015051976249850937
9.672,0.015065438953889084
9.676,0.015070848076047272
9.68,0.015079959441815947
9.684000000000001,0.01506414076457112
9.688,0.015063155102311184
9.692,0.01508354148271181
9.696,0.01508796494261006
9.700000000000001,0.015068636346098148
9.704,0.015074406076400211
9.708,0.015076762049606887
9.712,0.015070319184102916
9.716000000000001,0.015050678060532972
9.72,0.01503546039686128
9.724,0.015049283709043307
9.728,0.01507166545450673
9.732,0.015050173209131542
9.736,0.015047913398096567
9.74,0.015053082114825499
9.744,0.0150664967377778
9.748,0.015071401008534553
9.752,0.015058948007299263
9.756,0.015056495871920886
9.76,0.015071449089620404
9.764,0.01506745835949481
9.768,0.015061832872450295
9.772,0.015076834171235664
9.776,0.015075391738660147
9.78,0.015065631278232485
9.784,0.01505688052060769
9.788,0.015041494573135522
9.792,0.0150600298317309
9.796,0.015057217088208643
9.8,0.015030267639589423
9.804,0.015023920936257155
9.808,0.015042648519195935
9.812,0.0150464228844352
9.816,0.015036349896949516
9.82,0.015034570896773045
9.824,0.015048899060356502
9.828,0.015053298479711825
9.832,0.015036974951065572
9.836,0.01503805677549721
9.84,0.015047047938551257
9.844,0.015043369735483692
9.848,0.015041422451506746
9.852,0.015033296747998007
9.856,0.01503906647830007
9.86,0.015058154669382729
9.864,0.015064116724028194
9.868,0.015051423317363656
9.872,0.015064429251086222
9.876,0.015082315415022623
9.88,0.015074694562915315
9.884,0.015063804196970166
9.888,0.015071352927448703
9.892,0.015088662118354893
9.896,0.015083012590767456
9.9,0.015071641413963806
9.904,0.015078252563268254
9.908,0.015089912226587007
9.912,0.015083757847598139
9.916,0.015080536414846153
9.92,0.015076738009063962
9.924,0.015086883118178422
9.928,0.015091643145677625
9.932,0.015083517442168886
9.936,0.015072026062650611
9.94,0.015081305712219762
9.944,0.015079959441815947
9.948,0.015068852710984475
9.952,0.015055846777261904
9.956,0.01505363504731278
9.96,0.015051663722792909
9.964,0.015040869519019465
9.968,0.015025579733718998
9.972,0.015030580166647453
9.976,0.015048081681897044
9.98,0.015032647653339025
9.984,0.015016588570664948
9.988,0.015022093854994834
9.992,0.015042576397567158
9.996,0.01504947603338671
10.0,0.01503586908609101
10.004,0.015034835342745224
10.008000000000001,0.015057625777438374
10.012,0.01506286661579608
10.016,0.015065991886376369
10.02,0.015065871683661738
10.024000000000001,0.01507919014444234
10.028,0.015087027361435974
10.032,0.015075560022460624
10.036,0.01507695437395029
10.040000000000001,0.015102148862935965
10.044,0.015115154796658533
10.048,0.015103927863112434
10.052,0.015099768849186363
10.056000000000001,0.015115779850774589
10.06,0.015119842702528958
10.064,0.015110659215131508
10.068,0.01508979202387238
10.072000000000001,0.015093830835083824
10.076,0.015100682389817524
10.08,0.015092436483594159
10.084,0.015085608969403384
10.088000000000001,0.015088181307496387
10.092,0.015094648213543282
10.096,0.015074862846715791
10.1,0.015052577263424068
10.104000000000001,0.015050125128045691
10.108,0.015066280372891473
10.112,0.015056664155721362
10.116,0.01503714323486605
10.120000000000001,0.015032791896596577
10.124,0.015042624478653009
10.128,0.015038585667441564
10.132,0.015028488639412954
10.136000000000001,0.015006900231866068
10.14,0.015028993490814385
10.144,0.01503764808626748
10.148,0.015030772490990853
10.152000000000001,0.015032022599222967
10.156,0.015047047938551257
10.16,0.015055293844774623
10.164,0.01505510152043122
10.168000000000001,0.01505276958776747
10.172,0.015068395940668895
10.176,0.015082748144795278
10.18,0.015063419548283361
10.184000000000001,0.015048995222528203
10.188,0.015045749749233292
10.192,0.015061111656162536
10.196,0.015050053006416915
10.200000000000001,0.015037792329525032
10.204,0.01504094164064824
10.208,0.015055125560974146
10.212,0.015042912965168112
10.216000000000001,0.015030532085561602
10.22,0.015035292113060804
10.224,0.015042816802996411
10.228,0.015032695734424876
10.232000000000001,0.015021997692823133
10.236,0.01501815120595509
10.24,0.015031589869450314
10.244,0.015044018830142674
10.248,0.015028176112354926
10.252,0.015010145705160979
10.256,0.015027767423125196
10.26,0.015041614775850148
10.264,0.015031060977505957
10.268,0.015019040706043325
10.272,0.015013823908228544
10.276,0.015026421152721382
10.28,0.015021468800878778
10.284,0.015017550192381959
10.288,0.015037936572782582
10.292,0.015043538019284168
10.296,0.015041566694764297
10.3,0.015035941207719786
10.304,0.015039258802643472
10.308,0.015069309481300055
10.312,0.015084070374656167
10.316,0.015078949739013086
10.32,0.015086786956006721
10.324,0.015096763781320705
10.328,0.015088686158897817
10.332,0.015096090646118799
10.336,0.015098999551812755
10.34,0.01510592322817523
10.344,0.01511532308045901
10.348,0.01510984183667205
10.352,0.01510637999849081
10.356,0.01512044371610209
10.36,0.015119049364612424
10.364,0.015109913958300825
10.368,0.015105658782203053
10.372,0.015111885282820696
10.376,0.015130781149559954
10.38,0.015133377528195881
10.384,0.015108399404096534
10.388,0.015114169134398597
10.392,0.015128401135810352
10.396,0.015135997947374736
10.4,0.015125251824687143
10.404,0.015119001283526574
10.408,0.015125131621972517
10.412,0.01512409787862673
10.416,0.015113375796482063
10.42,0.015106259795776185
10.424,0.01512090048641767
10.428,0.015111596796305594
10.432,0.015097052267835809
10.436,0.015091498902420073
10.44,0.01508897464541292
10.444,0.015094431848656956
10.448,0.015070944238218973
10.452,0.01505236089853774
10.456,0.015063203183397034
10.46,0.015066905427007529
10.464,0.01505053381727542
10.468,0.015032238964109296
10.472,0.015042961046253963
10.476,0.015046446924978125
10.48,0.015040268505446333
10.484,0.015017550192381959
10.488,0.015026589436521859
10.492,0.015046519046606902
10.496,0.015034017964285764
10.5,0.015020507179161766
10.504,0.015031277342392286
10.508000000000001,0.015057818101781775
10.512,0.015067362197323108
10.516,0.015047480668323912
10.52,0.015038633748527415
10.524000000000001,0.015051615641707058
10.528,0.0150624098454805
10.532,0.015060125993902601
10.536,0.01505454858794394
10.540000000000001,0.015065487034974935
10.544,0.01507933438769989
10.548,0.015063924399684792
10.552,0.01505313019591135
10.556000000000001,0.015063058940139483
10.56,0.015063659953712614
10.564,0.015047071979094183
10.568,0.015037960613325508
10.572000000000001,0.0150486105738414
10.576,0.015061472264306415
10.58,0.015057745980153
10.584,0.015043874586885123
10.588000000000001,0.015043345694940766
10.592,0.015065943805290518
10.596,0.01506089529127621
10.6,0.015050509776732496
10.604000000000001,0.015067121791893857
10.608,0.015083517442168886
10.612,0.015079045901184788
10.616,0.015073877184455855
10.620000000000001,0.015083180874567932
10.624,0.015102966241395423
10.628,0.015097845605752343
10.632,0.01508431078008542
10.636000000000001,0.015081594198734866
10.64,0.015087700496637881
10.644,0.015097533078694315
10.648,0.015091234456447895
10.652000000000001,0.01507192990047891
10.656,0.015070126859759515
10.66,0.015073997387170482
10.664,0.0150665928999495
10.668000000000001,0.015057096885494017
10.672,0.015051038668676851
10.676,0.015053851412199106
10.68,0.015058539318069534
10.684000000000001,0.015038850113413743
10.688,0.01503906647830007
10.692,0.015061207818334237
10.696,0.015052048371479712
10.700000000000001,0.015039451126986875
10.704,0.015036133532063187
10.708,0.01505998175064505
10.712,0.015058779723498786
10.716000000000001,0.015047672992667314
10.72,0.015028753085385132
10.724,0.015046687330407378
10.728,0.015061808831907369
10.732000000000001,0.015034258369715017
10.736,0.015032431288452698
10.74,0.01504541318163234
10.744,0.015037744248439181
10.748000000000001,0.015024810436345388
10.752,0.015023440125398649
10.756,0.015030580166647453
10.76,0.015058491236983683
10.764,0.015048971181985279
10.768,0.015047624911581464
10.772,0.015070006657044888
10.776,0.015085344523431205
10.78,0.015074165670970958
10.784,0.01507385314391293
10.788,0.015080584495932003
10.792,0.015097629240866016
10.796,0.01509166718622055
10.8,0.015083709766512288
10.804,0.015084527144971747
10.808,0.015092797091738037
10.812,0.015080488333760302
10.816,0.015070511508446318
10.82,0.015060462561503554
10.824,0.015070174940845366
10.828,0.015078853576841385
10.832,0.01504459580317288
10.836,0.015035147869803252
10.84,0.015043393776026617
10.844,0.01505144735790658
10.848,0.01504459580317288
10.852,0.015037479802467002
10.856,0.015047120060180033
10.86,0.015055390006946324
10.864,0.0150508944254193
10.868,0.015053394641883527
10.872,0.015077531346980495
10.876,0.015085657050489235
10.88,0.015071280805819928
10.884,0.015055798696176053
10.888,0.015065751480947112
10.892,0.015091859510563953
10.896,0.015088037064238835
10.9,0.015063443588826287
10.904,0.01505971730467287
10.908,0.015073516576311976
10.912,0.015071953941021834
10.916,0.015053923533827883
10.92,0.015053490804055228
10.924,0.01506846806229767
10.928,0.015069646048901009
10.932,0.015039667491873202
10.936,0.015041374370420895
10.94,0.015067746846009913
10.944,0.0150623136833088
10.948,0.015050678060532972
10.952,0.01505728920983742
10.956,0.015076689927978112
10.96,0.015084695428772223
10.964,0.01507604083331913
10.968,0.015072146265365237
10.972,0.01508202692850752
10.976,0.01509988905190099
10.98,0.015086426347862843
10.984,0.015070799994961422
10.988,0.015079815198558395
10.992,0.015086041699176038
10.996,0.015075439819745998
11.0,0.015055438088032174
11.004,0.015058274872097356
11.008000000000001,0.015068612305555222
11.012,0.015065078345745204
11.016,0.015055942939433605
11.02,0.015048153803525819
11.024000000000001,0.015051158871391477
11.028,0.015059909629016273
11.032,0.015047480668323912
11.036,0.015034907464374
11.040000000000001,0.015050125128045691
11.044,0.015049884722616438
11.048,0.015040268505446333
11.052,0.015051567560621208
11.056000000000001,0.015061688629192743
11.06,0.015062770453624379
11.064,0.01505053381727542
11.068,0.015053346560797676
11.072000000000001,0.01506873250826985
11.076,0.015087748577723731
11.08,0.01506603996746222
11.084,0.015054332223057612
11.088000000000001,0.015065438953889084
11.092,0.01508750817229448
11.096,0.01507745922535172
11.1,0.015053009993196722
11.104000000000001,0.015061544385935191
11.108,0.015086498469491618
11.112,0.015080921063532957
11.116,0.015067530481123586
11.120000000000001,0.015082555820451876
11.124,0.015085128158544878
11.128,0.015082435617737248
11.132,0.015070271103017065
11.136000000000001,0.015067314116237258
11.14,0.015073420414140275
11.144,0.015061616507563966
11.148,0.015032743815510726
11.152000000000001,0.015026757720322335
11.156,0.015035821005005159
11.16,0.01504459580317288
11.164,0.01503495554545985
11.168000000000001,0.01502134859816415
11.172,0.015032551491167324
11.176,0.015047168141265884
11.18,0.01503998001893123
11.184000000000001,0.015035556559032982
11.188,0.015055005358259519
11.192,0.015063876318598941
11.196,0.015062193480594174
11.200000000000001,0.015049043303614054
11.204,0.015061592467021042
11.208,0.01508984010495823
11.212,0.015079574793129142
11.216000000000001,0.015060919331819134
11.22,0.015063467629369212
11.224,0.015073973346627556
11.228,0.01506750644058066
11.232000000000001,0.015059837507387498
11.236,0.015051976249850937
11.24,0.015055341925860473
11.244,0.015057890223410551
11.248000000000001,0.01504276872191056
11.252,0.015036974951065572
11.256,0.015049235627957456
11.26,0.015041590735307222
11.264,0.015025291247203894
11.268,0.015014376840715824
11.272,0.015023656490284976
11.276,0.015033296747998007
11.28,0.015020050408846186
11.284,0.015005746285805656
11.288,0.015014256638001199
11.292,0.015025171044489269
11.296,0.015014905732660181
11.3,0.015016348165235695
11.304,0.015018944543871624
11.308,0.015044667924801657
11.312,0.015050846344333449
11.316,0.015045821870862069
11.32,0.015058996088385113
11.324,0.01508330107728256
11.328,0.015084238658456643
11.332,0.015072026062650611
11.336,0.01507481476562994
11.34,0.01508887848324122
11.344,0.015090777686132316
11.348,0.015077339022637094
11.352,0.015070631711160945
11.356,0.015080103685073499
11.36,0.015079526712043292
11.364,0.015059765385758721
11.368,0.015055365966403398
11.372,0.015056543953006736
11.376,0.015059573061415319
11.38,0.015043393776026617
11.384,0.015028416517784178
11.388,0.01503454685623012
11.392,0.015035147869803252
11.396,0.0150213005170783
11.4,0.015009640853759549
11.404,0.015013655624428067
11.408,0.015032551491167324
11.412,0.015040677194676062
11.416,0.015019545557444756
11.42,0.015026036504034578
11.424,0.015048490371126773
11.428,0.01505413989871421
11.432,0.015042624478653009
11.436,0.015045028532945535
11.44,0.015053851412199106
11.444,0.015060246196617227
11.448,0.015048682695470175
11.452,0.015042143667794503
11.456,0.015072002022107685
11.46,0.015073781022284155
11.464,0.015058491236983683
11.468,0.015053971614913734
11.472,0.01507019898138829
11.476,0.01508157015819194
11.48,0.015072170305908161
11.484,0.01505226473636604
11.488,0.015063467629369212
11.492,0.015074838806172866
11.496,0.015060462561503554
11.5,0.015052601303966993
11.504,0.015054957277173668
11.508000000000001,0.015058010426125177
11.512,0.015050245330760317
11.516,0.015030171477417722
11.52,0.015028945409728534
11.524000000000001,0.015046350762806424
11.528,0.015031565828907387
11.532,0.015010025502446352
11.536,0.015009953380817577
11.540000000000001,0.015021060111649049
11.544,0.01502810399072615
11.548,0.015023368003769874
11.552,0.015013343097370038
11.556000000000001,0.015027046206837438
11.56,0.01502312759834062
11.564,0.015019040706043325
11.568,0.015020963949477347
11.572000000000001,0.015028055909640299
11.576,0.015037095153780199
11.58,0.015031325423478134
11.584,0.015029137734071937
11.588000000000001,0.015045990154662545
11.592,0.015065270670088607
11.596,0.015053947574370808
11.6,0.015052841709396246
11.604000000000001,0.015066713102664126
11.608,0.015071040400390675
11.612,0.01506464561597255
11.616,0.015052937871567947
11.620000000000001,0.015054284141971762
11.624,0.015069309481300055
11.628,0.015071040400390675
11.632,0.015052625344509919
11.636000000000001,0.015062554088738052
11.64,0.015071761616678432
11.644,0.015063082980682409
11.648,0.015052024330936787
11.652000000000001,0.015048442290040922
11.656,0.015067266035151407
11.66,0.0150623136833088
11.664,0.01503372947777066
11.668000000000001,0.015022502544224563
11.672,0.015033705437227736
11.676,0.015037095153780199
11.68,0.015026661558150634
11.684000000000001,0.015012958448683235
11.688,0.015010217826789754
11.692,0.015015747151662564
11.696,0.01500440001540184
11.700000000000001,0.014997981190440796
11.704,0.015013463300084665
11.708,0.015016877057180052
11.712,0.015009544691587847
11.716000000000001,0.01499851008238515
11.72,0.015007645488696751
11.724,0.015037311518666526
11.728,0.015044764086973358
11.732000000000001,0.01502887328809976
11.736,0.015035941207719786
11.74,0.015054043736542509
11.744,0.015060390439874779
11.748000000000001,0.015063804196970166
11.752,0.015068756548812774
11.756,0.015081546117649015
11.76,0.015092724970109262
11.764000000000001,0.015092700929566336
11.768,0.015094479929742806
11.772,0.015120515837730867
11.776,0.015124578689485236
11.78,0.015112798823451857
11.784,0.015117679053665685
11.788,0.01512628556803293
11.792,0.015143402434595717
11.796,0.01512267948659414
11.8,0.01509765328140894
11.804,0.015099071673441532
11.808,0.015099600565385887
11.812,0.015076786090149813
11.816,0.01506332338611166
11.82,0.015046951776379556
11.824,0.01504007618110293
11.828,0.01502500276068879
11.832,0.01500170747459421
11.836,0.014997139771438411
11.84,0.015006515583179263
11.844,0.01499247590611091
11.848,0.014969469106531432
11.852,0.01496333876808549
11.856,0.014976200458550507
11.86,0.01498389343228659
11.864,0.01496557453857754
11.868,0.01495598236195036
11.872,0.014975719647692001
11.876,0.014987259108296128
11.88,0.014982138472653046
11.884,0.014989615081502804
11.888,0.015003774961285783
11.892,0.015025796098605325
11.896,0.015032335126280997
11.9,0.015045196816746011
11.904,0.015069405643471756
11.908,0.015102293106193517
11.912,0.015099480362671261
11.916,0.01509673974077778
11.92,0.015111909323363622
11.924,0.015135228650001126
11.928,0.01514018100184373
11.932,0.01511779925638031
11.936,0.01511496247231513
11.94,0.01512308817582387
11.944,0.015117126121178404
11.948,0.015102245025107666
11.952,0.015098975511269831
11.956,0.015096090646118799
11.96,0.015086306145148217
11.964,0.015059741345215797
11.968,0.015047023898008332
11.972,0.015065198548459832
11.976,0.015063732075341391
11.98,0.015034811302202298
11.984,0.015022093854994834
11.988,0.015034282410257943
11.992,0.015039354964815174
11.996,0.015028007828554448
12.0,0.015004063447800886
12.004,0.015009616813216622
12.008000000000001,0.015019810003416935
12.012,0.015014905732660181
12.016,0.015005073150603747
12.02,0.015021637084679254
12.024000000000001,0.015032094720851744
12.028,0.015039955978388305
12.032,0.015038273140383536
12.036,0.015052865749939172
12.040000000000001,0.015083108752939157
12.044,0.015094287605399404
12.048,0.015083613604340587
12.052,0.015093878916169675
12.056000000000001,0.015109096579841367
12.06,0.0151167414724916
12.064,0.015114241256027372
12.068,0.015111476593590967
12.072000000000001,0.01512145341890495
12.076,0.015126237486947079
12.08,0.01510674060663469
12.084,0.015097172470550436
12.088000000000001,0.015099047632898606
12.092,0.015086979280350124
12.096,0.015065775521490037
12.1,0.015043153370597365
12.104000000000001,0.015045509343804041
12.108,0.015054284141971762
12.112,0.01503322462636923
12.116,0.015019641719616457
12.120000000000001,0.015019665760159383
12.124,0.015027118328466213
12.128,0.015031902396508342
12.132,0.015017814638354138
12.136000000000001,0.015010506313304858
12.14,0.015018175246498016
12.144,0.015017766557268287
12.148,0.015005938610149058
12.152000000000001,0.015013415218998814
12.156,0.015025387409375595
12.16,0.015024978720145866
12.164,0.015016925138265903
12.168000000000001,0.015018824341156999
12.172,0.015039499208072725
12.176,0.01505688052060769
12.18,0.015038393343098163
12.184000000000001,0.015033392910169708
12.188,0.015054692831201491
12.192,0.015064886021401803
12.196,0.015064501372714999
12.200000000000001,0.015068179575782568
12.204,0.015076930333407363
12.208,0.015091402740248372
12.212,0.015081233590590985
12.216000000000001,0.01506750644058066
12.22,0.015078853576841385
12.224,0.01508481563148685
12.228,0.015073492535769051
12.232000000000001,0.015058443155897832
12.236,0.015057217088208643
12.24,0.015064789859230102
12.244,0.015062097318422472
12.248000000000001,0.015039883856759528
12.252,0.015040124262188781
12.256,0.015045942073576695
12.26,0.015045052573488461
12.264000000000001,0.015038393343098163
12.268,0.015038946275585444
12.272,0.015045124695117236
12.276,0.015046230560091798
12.280000000000001,0.015034618977858896
12.284,0.015030267639589423
12.288,0.015046567127692752
12.292,0.015055414047489248
12.296,0.015037624045724554
12.3,0.015031661991079089
12.304,0.015044571762629955
12.308,0.015051279074106104
12.312,0.015045701668147443
12.316,0.01503231108573807
12.32,0.015041109924448718
12.324,0.015049956844245213
12.328,0.015041638816393072
12.332,0.015035604640118832
12.336,0.015031782193793716
12.34,0.015043153370597365
12.344,0.015040869519019465
12.348,0.015029041571900235
12.352,0.01503860970798449
12.356,0.015065775521490037
12.36,0.01506510238628813
12.364,0.015051110790305628
12.368,0.015047961479182418
12.372,0.015062698331995604
12.376,0.015072098184279386
12.38,0.015062986818510708
12.384,0.015049091384699904
12.388,0.015061977115707845
12.392,0.01506882867044155
12.396,0.015054788993373192
12.4,0.015046543087149826
12.404,0.015047721073753165
12.408,0.01505505343934537
12.412,0.015042792762453485
12.416,0.015036301815863665
12.42,0.015047312384523436
12.424,0.015057193047665719
12.428,0.015044884289687983
12.432,0.015029762788187993
12.436,0.015036542221292918
12.44,0.015047913398096567
12.444,0.015050245330760317
12.448,0.015037936572782582
12.452,0.015035580599575906
12.456,0.015050125128045691
12.46,0.015049259668500382
12.464,0.015034330491343792
12.468,0.015038753951242042
12.472,0.015044667924801657
12.476,0.015038802032327893
12.48,0.015024257503858107
12.484,0.015025195085032193
12.488,0.015039955978388305
12.492,0.015046350762806424
12.496,0.015025603774261922
12.5,0.015016348165235695
12.504,0.015029281977329488
12.508000000000001,0.01504231195159498
12.512,0.015033248666912156
12.516,0.015016396246321546
12.52,0.015019906165588634
12.524000000000001,0.015036590302378769
12.528,0.015033873721028213
12.532,0.015025483571547297
12.536,0.015040869519019465
12.540000000000001,0.015047672992667314
12.544,0.015046663289864454
12.548,0.015040725275761913
12.552,0.015051134830848552
12.556000000000001,0.015072410711337414
12.56,0.015073252130339799
12.564,0.015048394208955072
12.568,0.015047432587238061
12.572000000000001,0.015068516143383521
12.576,0.015076329319834231
12.58,0.015067482400037736
12.584,0.015059308615443141
12.588000000000001,0.015078300644354104
12.592,0.01508202692850752
12.596,0.015073492535769051
12.6,0.015065198548459832
12.604000000000001,0.015072699197852518
12.608,0.015077170738836616
12.612,0.015068900792070326
12.616,0.015053803331113256
12.620000000000001,0.01506140014267764
12.624,0.015068419981211821
12.628,0.015055125560974146
12.632,0.01502993107198847
12.636000000000001,0.015039667491873202
12.64,0.015051158871391477
12.644,0.01503678262672217
12.648,0.015028152071812
12.652000000000001,0.015036590302378769
12.656,0.01504637480334935
12.66,0.015045485303261115
12.664,0.015031012896420106
12.668000000000001,0.015037960613325508
12.672,0.015060101953359675
12.676,0.015064405210543298
12.68,0.01504459580317288
12.684000000000001,0.015046038235748396
12.688,0.01506414076457112
12.692,0.015074165670970958
12.696,0.015063852278056017
12.700000000000001,0.015055678493461427
12.704,0.015067674724381138
12.708,0.015074550319657763
12.712,0.01505409181762836
12.716000000000001,0.015051134830848552
12.72,0.0150531782769972
12.724,0.015062337723851725
12.728,0.015058322953183207
12.732000000000001,0.015046446924978125
12.736,0.015058467196440757
12.74,0.015068179575782568
12.744,0.015057890223410551
12.748000000000001,0.015045317019460639
12.752,0.015052601303966993
12.756,0.015063539750997989
12.76,0.015067338156780184
12.764000000000001,0.015039859816216604
12.768,0.015035171910346177
12.772,0.015051375236277805
12.776,0.015050413614560795
12.780000000000001,0.015035219991432027
12.784,0.015029137734071937
12.788,0.015030532085561602
12.792,0.015032022599222967
12.796000000000001,0.01502231021988116
12.8,0.0150189205033287
12.804,0.015038321221469387
12.808,0.015043586100370019
12.812,0.015030676328819154
12.816,0.01502211789553776
12.82,0.015034907464374
12.824,0.015052625344509919
12.828,0.015054885155544893
12.832,0.015045797830319143
12.836,0.015064020561856493
12.84,0.0150801998472452
12.844,0.015077170738836616
12.848,0.015074382035857287
12.852,0.015086714834377946
12.856,0.015090585361788913
12.86,0.015082892388052828
12.864,0.015066064008005144
12.868,0.015070968278761898
12.872,0.015083421279997185
12.876,0.015070848076047272
12.88,0.015050269371303243
12.884,0.015041109924448718
12.888,0.015053250398625975
12.892,0.015057529615266673
12.896,0.01504267255973886
12.9,0.015027527017695944
12.904,0.015033969883199914
12.908,0.015037672126810404
12.912,0.015030868653162555
12.916,0.015028440558327104
12.92,0.015034162207543316
12.924,0.015040965681191166
12.928,0.015034330491343792
12.932,0.015020507179161766
12.936,0.015032839977682427
12.94,0.015052096452565562
12.944,0.015036662424007544
12.948,0.015024185382229332
12.952,0.015033248666912156
12.956,0.015046711370950304
12.96,0.015040917600105315
12.964,0.015038874153956668
12.968,0.015039739613501977
12.972,0.015059428818157769
12.976,0.015059452858700693
12.98,0.01504947603338671
12.984,0.015050125128045691
12.988,0.015057529615266673
12.992,0.015054524547401015
12.996,0.01504272064082471
13.0,0.015040388708160959
13.004,0.015049091384699904
13.008000000000001,0.015059404777614843
13.012,0.015039595370244426
13.016,0.015032118761394668
13.02,0.015039931937845379
13.024000000000001,0.015049764519901813
13.028,0.015041999424536953
13.032,0.015032647653339025
13.036,0.015031493707278612
13.040000000000001,0.015046230560091798
13.044,0.015036446059121217
13.048,0.015032407247909772
13.052,0.015045749749233292
13.056000000000001,0.015055846777261904
13.06,0.015048586533298474
13.064,0.01504079739739069
13.068,0.015047769154839016
13.072000000000001,0.015061784791364444
13.076,0.015063659953712614
13.08,0.015046759452036155
13.084,0.015046711370950304
13.088000000000001,0.015057649817981298
13.092,0.01506140014267764
13.096,0.015050245330760317
13.1,0.015038273140383536
13.104000000000001,0.015055846777261904
13.108,0.015065414913346158
13.112,0.015062530048195128
13.116,0.015048875019813578
13.120000000000001,0.015065487034974935
13.124,0.015069501805643457
13.128,0.015071521211249179
13.132,0.015057577696352523
13.136000000000001,0.015062698331995604
13.14,0.015075896590061578
13.144,0.015080368131045676
13.148,0.015059068210013888
13.152000000000001,0.01507019898138829
13.156,0.015079646914757919
13.16,0.015073997387170482
13.164,0.015069886454330262
13.168000000000001,0.01506149630484934
13.172,0.01506979029215856
13.176,0.015063611872626764
13.18,0.01505724112875157
13.184000000000001,0.01506750644058066
13.188,0.01508431078008542
13.192,0.0150733482925115
13.196,0.015062217521137098
13.200000000000001,0.015062025196793696
13.204,0.01507700245503614
13.208,0.01508166632036364
13.212,0.015074285873685585
13.216000000000001,0.01506832381904012
13.22,0.015077723671323897
13.224,0.015090873848304017
13.228,0.015070799994961422
13.232000000000001,0.015055942939433605
13.236,0.01507111252201945
13.24,0.015073973346627556
13.244,0.015073035765453472
13.248000000000001,0.015061087615619612
13.252,0.015064453291629148
13.256,0.015085897455918486
13.26,0.01507846892815458
13.264000000000001,0.015070319184102916
13.268,0.015070992319304824
13.272,0.015082002887964595
13.276,0.01509130657807667
13.280000000000001,0.015080872982447107
13.284,0.015074694562915315
13.288,0.015086835037092572
13.292,0.015071785657221358
13.296000000000001,0.015058683561327085
13.3,0.015060654885846956
13.304,0.015059380737071918
13.308,0.015071809697764282
13.312000000000001,0.015056928601693541
13.316,0.015050846344333449
13.32,0.015069549886729308
13.324,0.015069261400214204
13.328,0.015058346993726131
13.332,0.015055654452918501
13.336,0.015059549020872394
13.34,0.015081498036563164
13.344,0.015070872116590197
13.348,0.015059428818157769
13.352,0.015076689927978112
13.356,0.015097581159780165
13.36,0.015089479496814351
13.364,0.015072338589708639
13.368,0.015084695428772223
13.372,0.015086931199264273
13.376,0.015083252996196709
13.38,0.01506510238628813
13.384,0.015071280805819928
13.388,0.015082868347509904
13.392,0.015087339888494002
13.396,0.015063996521313568
13.4,0.015056712236807213
13.404,0.015072675157309591
13.408,0.01508354148271181
13.412,0.015074694562915315
13.416,0.015059500939786544
13.42,0.015065871683661738
13.424,0.01507426183314266
13.428,0.015078565090326282
13.432,0.015074333954771436
13.436,0.015082411577194324
13.44,0.015073420414140275
13.444,0.015063419548283361
13.448,0.01505728920983742
13.452,0.015066376535063174
13.456,0.015085512807231683
13.46,0.015066640981035351
13.464,0.015040508910875586
13.468,0.015048826938727727
13.472,0.015063395507740437
13.476,0.015067410278408959
13.48,0.01505591889889068
13.484,0.015054163939257134
13.488,0.015076353360377158
13.492,0.015078492968697507
13.496,0.015068227656868419
13.5,0.015073612738483677
13.504,0.015083373198911334
13.508000000000001,0.015089599699528977
13.512,0.015080824901361256
13.516,0.015070174940845366
13.52,0.015086330185691142
13.524000000000001,0.015099288038327859
13.528,0.015077170738836616
13.532,0.01507339637359735
13.536,0.015085128158544878
13.540000000000001,0.015087387969579853
13.544,0.015075656184632325
13.548,0.015068804629898624
13.552,0.015075127292687968
13.556000000000001,0.015079021860641861
13.56,0.015066737143207052
13.564,0.01504637480334935
13.568,0.015051303114649028
13.572000000000001,0.015046278641177649
13.576,0.01503678262672217
13.58,0.015027719342039345
13.584,0.015032503410081473
13.588000000000001,0.015042287911052055
13.592,0.015046350762806424
13.596,0.015021276476535375
13.6,0.015020819706219796
13.604000000000001,0.015032864018225352
13.608,0.015038777991784966
13.612,0.01503449877514427
13.616,0.015034931504916924
13.620000000000001,0.015041879221822325
13.624,0.01504687965475078
13.628,0.015033248666912156
13.632,0.015031926437051266
13.636000000000001,0.015049860682073514
13.64,0.015059573061415319
13.644,0.015045990154662545
13.648,0.015041662856935999
13.652000000000001,0.015051086749762702
13.656,0.01506750644058066
13.66,0.015067987251439166
13.664,0.015048322087326297
13.668000000000001,0.01505185604713631
13.672,0.015060799129104508
13.676,0.015054163939257134
13.68,0.01505144735790658
13.684000000000001,0.015043826505799272
13.688,0.01505043765510372
13.692,0.015048995222528203
13.696,0.015033440991255559
13.700000000000001,0.01503130138293521
13.704,0.015050125128045691
13.708,0.015046158438463023
13.712,0.015029161774614861
13.716000000000001,0.015024762355259538
13.72,0.015033248666912156
13.724,0.01504322549222614
13.728,0.015039210721557622
13.732000000000001,0.015022238098252386
13.736,0.01503632585640659
13.74,0.01504536510054649
13.744,0.015030940774791331
13.748000000000001,0.01503029168013235
13.752,0.015037672126810404
13.756,0.015038777991784966
13.76,0.015036397978035366
13.764000000000001,0.015035724842833458
13.768,0.01503865778907034
13.772,0.015056592034092587
13.776,0.015047144100722958
13.780000000000001,0.015027334693352542
13.784,0.015033008261482904
13.788,0.015047071979094183
13.792,0.015046639249321528
13.796000000000001,0.015040917600105315
13.8,0.01503546039686128
13.804,0.0150486105738414
13.808,0.01505195220930801
13.812000000000001,0.01503998001893123
13.816,0.01504272064082471
13.82,0.015052625344509919
13.824,0.015058419115354906
13.828,0.015046230560091798
13.832,0.015047528749409763
13.836,0.015057697899067149
13.84,0.015068419981211821
13.844,0.01504683157366493
13.848,0.015037095153780199
13.852,0.015043850546342198
13.856,0.015049596236101335
13.86,0.015047216222351735
13.864,0.015037023032151422
13.868,0.015038898194499594
13.872,0.015050702101075897
13.876,0.015040148302731707
13.88,0.01502673367977941
13.884,0.01504007618110293
13.888,0.01504272064082471
13.892,0.01504272064082471
13.896,0.015031878355965417
13.9,0.015034114126457465
13.904,0.015055125560974146
13.908,0.015051591601164132
13.912,0.01503089269370548
13.916,0.015035195950889103
13.92,0.015057169007122792
13.924,0.015065462994432009
13.928,0.015055654452918501
13.932,0.015042985086796887
13.936,0.015052745547224545
13.94,0.015063852278056017
13.944,0.015051519479535357
13.948,0.015045821870862069
13.952,0.015060727007475733
13.956,0.015064765818687176
13.96,0.015052649385052843
13.964,0.015045196816746011
13.968,0.015051519479535357
13.972,0.015060702966932807
13.976,0.015058851845127562
13.98,0.015046134397920097
13.984,0.015049956844245213
13.988,0.015067674724381138
13.992,0.015070559589532169
13.996,0.01505459666902979
14.0,0.015058491236983683
14.004,0.015070511508446318
14.008000000000001,0.01506974221107271
14.012,0.015052697466138694
14.016,0.015051134830848552
14.02,0.015067843008181614
14.024000000000001,0.015062890656339006
14.028,0.015052889790482096
14.032,0.015042961046253963
14.036,0.01505560637183265
14.040000000000001,0.015072963643824695
14.044,0.015064477332172073
14.048,0.015050004925331064
14.052,0.015055341925860473
14.056000000000001,0.015061111656162536
14.06,0.01505582273671898
14.064,0.015050245330760317
14.068,0.015050822303790524
14.072000000000001,0.015062938737424857
14.076,0.015048971181985279
14.08,0.015032864018225352
14.084,0.015037047072694348
14.088000000000001,0.015047937438639492
14.092,0.015038176978211835
14.096,0.015020435057532991
14.1,0.015021949611737282
14.104000000000001,0.015036854748350946
14.108,0.015042792762453485
14.112,0.015031734112707865
14.116,0.015035292113060804
14.120000000000001,0.01504957219555841
14.124,0.01506048660204648
14.128,0.015051182911934403
14.132,0.015050774222704674
14.136000000000001,0.015053298479711825
14.14,0.015060390439874779
14.144,0.01505221665528019
14.148,0.015041158005534568
14.152000000000001,0.015052529182338218
14.156,0.015065198548459832
14.16,0.01504784127646779
14.164,0.015037263437580675
14.168000000000001,0.0150488028981848
14.172,0.015060823169647432
14.176,0.015062385804937576
14.18,0.015051735844421684
14.184000000000001,0.015057096885494017
14.188,0.015074886887258717
14.192,0.015068227656868419
14.196,0.015049451992843783
14.200000000000001,0.0150531782769972
14.204,0.01505865952078416
14.208,0.015061760750821518
14.212,0.01504856249275555
14.216000000000001,0.015046927735836631
14.22,0.015058419115354906
14.224,0.015059500939786544
14.228,0.015046446924978125
14.232000000000001,0.015038513545812789
14.236,0.01504779319538194
14.24,0.015056447790835035
14.244,0.015049644317187185
14.248000000000001,0.015033969883199914
14.252,0.01504368226254172
14.256,0.015056447790835035
14.26,0.015049668357730112
14.264000000000001,0.01504490833023091
14.268,0.015054332223057612
14.272,0.01506745835949481
14.276,0.015063491669912138
14.280000000000001,0.015053202317540124
14.284,0.015061472264306415
14.288,0.015087291807408152
14.292,0.015083878050312765
14.296000000000001,0.015069165238042503
14.3,0.015075007089973343
14.304,0.01508709948306475
14.308,0.015088541915640265
14.312000000000001,0.015073276170882723
14.316,0.015061664588649817
14.32,0.015081065306790509
14.324,0.015090945969932792
14.328000000000001,0.015068756548812774
14.332,0.015055486169118025
14.336,0.015060150034445526
14.34,0.015045629546518667
14.344,0.015031734112707865
14.348,0.015024521949830286
14.352,0.015039499208072725
14.356,0.015051014628133927
14.36,0.015032743815510726
14.364,0.015025507612090221
14.368,0.015035821005005159
14.372,0.015052529182338218
14.376,0.015045292978917713
14.38,0.015036854748350946
14.384,0.01504221578942328
14.388,0.0150508944254193
14.392,0.015051423317363656
14.396,0.01503906647830007
14.4,0.015052529182338218
14.404,0.01505962114250117
14.408,0.015057409412552045
14.412,0.015044355397743629
14.416,0.01504464388425873
14.42,0.015057818101781775
14.424,0.01506286661579608
14.428,0.015043105289511515
14.432,0.015039739613501977
14.436,0.015051807966050459
14.44,0.01505171180387876
14.444,0.01504449964100118
14.448,0.015034594937315971
14.452,0.015046086316834247
14.456,0.015054740912287342
14.46,0.015046567127692752
14.464,0.01503815293766891
14.468,0.015048033600811193
14.472,0.015050149168588616
14.476,0.01504728834398051
14.48,0.015040412748703885
14.484,0.015045677627604517
14.488,0.015058899926213412
14.492,0.01505779406123885
14.496,0.015035268072517878
14.5,0.015038489505269865
14.504,0.015046110357377173
14.508000000000001,0.015044066911228525
14.512,0.015045389141089414
14.516,0.015046519046606902
14.52,0.015054933236630744
14.524000000000001,0.015059188412728516
14.528,0.015053322520254752
14.532,0.015060606804761106
14.536,0.015075896590061578
14.540000000000001,0.0150779159956673
14.544,0.015068924832613252
14.548,0.015057409412552045
14.552,0.015068996954242027
14.556000000000001,0.015078228522725327
14.56,0.015069814332701485
14.564,0.015051567560621208
14.568,0.015054284141971762
14.572000000000001,0.015062049237336622
14.576,0.015057024763865242
14.58,0.015051687763335833
14.584,0.015053009993196722
14.588000000000001,0.01505642375029211
14.592,0.015049812600987663
14.596,0.015035219991432027
14.6,0.015038513545812789
14.604000000000001,0.015048850979270651
14.608,0.015031373504563985
14.612,0.01501795888161169
14.616,0.01501887242224285
14.620000000000001,0.015032479369538549
14.624,0.0150417590191077
14.628,0.015028007828554448
14.632,0.015019521516901831
14.636000000000001,0.015039475167529799
14.64,0.015045557424889892
14.644,0.015024642152544912
14.648,0.015029161774614861
14.652000000000001,0.015041422451506746
14.656,0.015056952642236466
14.66,0.0150463267222635
14.664,0.015041085883905791
14.668000000000001,0.015060775088561582
14.672,0.01508308471239623
14.676,0.015070848076047272
14.68,0.01505591889889068
14.684000000000001,0.015058851845127562
14.688,0.015064381170000371
14.692,0.015062674291452678
14.696,0.015047913398096567
14.700000000000001,0.015048129762982894
14.704,0.015059308615443141
14.708,0.015052577263424068
14.712,0.015036998991608498
14.716000000000001,0.015036301815863665
14.72,0.015038681829613265
14.724,0.015036253734777814
14.728,0.01502582013914825
14.732000000000001,0.015022983355083069
14.736,0.015039427086443949
14.74,0.01504418711394315
14.744,0.01502673367977941
14.748000000000001,0.015029402180044114
14.752,0.01505560637183265
14.756,0.015066833305378753
14.76,0.015067169872979708
14.764000000000001,0.015059813466844572
14.768,0.015070391305731692
14.772,0.01508303663131038
14.776,0.015077579428066345
14.780000000000001,0.01507197798156476
14.784,0.015081522077106089
14.788,0.015088830402155369
14.792,0.015078180441639477
14.796000000000001,0.015056135263777007
14.8,0.015063395507740437
14.804,0.015081642279820716
14.808,0.015069405643471756
14.812000000000001,0.01504774511429609
14.816,0.015034883423831075
14.82,0.015043321654397842
14.824,0.015043273573311991
14.828000000000001,0.015032359166823921
14.832,0.01502134859816415
14.836,0.015037551924095779
14.84,0.01504317741114029
14.844000000000001,0.015031782193793716
14.848,0.015035556559032982
14.852,0.015048947141442353
14.856,0.015049427952300859
14.86,0.015039475167529799
14.864,0.01503642201857829
14.868,0.015050581898361271
14.872,0.015066112089090995
14.876,0.015051880087679236
14.88,0.015032527450624398
14.884,0.015043658221998796
14.888,0.015066064008005144
14.892,0.015063347426654586
14.896,0.015055991020519455
14.9,0.01505829891264028
14.904,0.015072867481652994
14.908,0.01506832381904012
14.912,0.015056616074635511
14.916,0.015063227223939959
14.92,0.015077988117296076
14.924,0.015072170305908161
14.928,0.015061063575076685
14.932,0.015064621575429624
14.936,0.015077771752409748
14.94,0.015075920630604502
14.944,0.01505236089853774
14.948,0.015049187546871606
14.952,0.015061328021048865
14.956,0.015059020128928038
14.96,0.015051832006593385
14.964,0.015050557857818345
14.968,0.015052841709396246
14.972,0.015049403911757932
14.976,0.015036397978035366
14.98,0.015027478936610094
14.984,0.015036542221292918
14.988,0.015042023465079877
14.992,0.015033513112884334
14.996,0.015022935273997218
15.0,0.015031277342392286
15.004,0.015046014195205471
15.008000000000001,0.015042384073223756
15.012,0.015027046206837438
15.016,0.015033825639942362
15.02,0.015045244897831862
15.024000000000001,0.015043754384170497
15.028,0.01503541231577543
15.032,0.015035556559032982
15.036,0.01504226387050913
15.040000000000001,0.015044836208602133
15.044,0.015032888058768278
15.048,0.015033801599399437
15.052,0.015045701668147443
15.056000000000001,0.015039691532416128
15.06,0.015030195517960648
15.064,0.015022911233454292
15.068,0.015043586100370019
15.072000000000001,0.01505171180387876
15.076,0.015049355830672082
15.08,0.015038633748527415
15.084,0.015049355830672082
15.088000000000001,0.015071088481476525
15.092,0.015066809264835827
15.096,0.015063347426654586
15.1,0.015072675157309591
15.104000000000001,0.01507197798156476
15.108,0.015065030264659354
15.112,0.015055654452918501
15.116,0.015061015493990835
15.120000000000001,0.015080055603987648
15.124,0.015066761183749977
15.128,0.015048394208955072
15.132,0.01504810572243997
15.136000000000001,0.015063010859053632
15.14,0.015060582764218181
15.144,0.015043586100370019
15.148,0.01503322462636923
15.152000000000001,0.015051255033563178
15.156,0.01505149543899243
15.16,0.015036085450977338
15.164,0.015039547289158576
15.168000000000001,0.015052793628310395
15.172,0.01505240897962359
15.176,0.01504373034362757
15.18,0.015043874586885123
15.184000000000001,0.015058611439698309
15.188,0.015072915562738844
15.192,0.015053947574370808
15.196,0.015048850979270651
15.200000000000001,0.015061929034621996
15.204,0.015070751913875571
15.208,0.015068347859583045
15.212,0.01505971730467287
15.216000000000001,0.015056231425948708
15.22,0.015076858211778588
15.224,0.0150756321440894
15.228,0.015066713102664126
15.232000000000001,0.015069357562385905
15.236,0.015075247495402596
15.24,0.015082219252850922
15.244,0.015067482400037736
15.248000000000001,0.015063155102311184
15.252,0.015081017225704658
15.256,0.015084094415199091
15.26,0.015065871683661738
15.264000000000001,0.015051880087679236
15.268,0.015058875885670488
15.272,0.015060751048018657
15.276,0.015054716871744417
15.280000000000001,0.015039595370244426
15.284,0.0150441390328573
15.288,0.015053803331113256
15.292,0.01504094164064824
15.296000000000001,0.015028488639412954
15.3,0.015046567127692752
15.304,0.015051134830848552
15.308,0.01504490833023091
15.312000000000001,0.015035195950889103
15.316,0.015041182046077493
15.32,0.015056592034092587
15.324,0.015058827804584637
15.328000000000001,0.015046999857465406
15.332,0.01504454772208703
15.336,0.015069429684014682
15.34,0.015073588697940753
15.344000000000001,0.015061472264306415
15.348,0.015060342358788928
15.352,0.015073324251968574
15.356,0.015075199414316745
15.36,0.015068564224469371
15.364,0.015060823169647432
15.368,0.015073444454683201
15.372,0.015073324251968574
15.376,0.015058779723498786
15.38,0.015050221290217393
15.384,0.015062025196793696
15.388,0.015069573927272234
15.392,0.015053058074282573
15.396,0.015038898194499594
15.4,0.01503805677549721
15.404,0.015046278641177649
15.408,0.015048634614384325
15.412,0.01504094164064824
15.416,0.015043153370597365
15.42,0.015058130628839804
15.424,0.01505510152043122
15.428,0.015038345262012313
15.432,0.015045797830319143
15.436,0.015070751913875571
15.44,0.015063659953712614
15.444,0.015052168574194339
15.448,0.015047528749409763
15.452,0.01506286661579608
15.456,0.015070583630075095
15.46,0.015052529182338218
15.464,0.015042384073223756
15.468,0.015057144966579868
15.472,0.015065030264659354
15.476,0.015052168574194339
15.48,0.015058130628839804
15.484,0.015061015493990835
15.488,0.015072050103193535
15.492,0.015064236926742821
15.496,0.015058082547753954
15.5,0.015073756981741229
15.504,0.01508791686152421
15.508000000000001,0.015069549886729308
15.512,0.01505560637183265
15.516,0.015061135696705462
15.52,0.01507197798156476
15.524000000000001,0.015073684860112454
15.528,0.015044691965344581
15.532,0.015035676761747607
15.536,0.015038633748527415
15.540000000000001,0.01503358523451311
15.544,0.015023247801055246
15.548,0.015026541355436008
15.552,0.015031421585649836
15.556000000000001,0.015030267639589423
15.56,0.015012694002711055
15.564,0.015011996826966224
15.568,0.01503815293766891
15.572000000000001,0.015046807533122005
15.576,0.015033777558856511
15.58,0.015027575098781795
15.584,0.015039210721557622
15.588000000000001,0.01504805764135412
15.592,0.015007381042724572
15.596,0.014967065052238906
15.6,0.014974036809687234
15.604000000000001,0.014995721379405821
15.608,0.015002957582826324
15.612,0.01499978423116019
15.616,0.01501399219202902
15.620000000000001,0.015026108625663353
15.624,0.015021853449565581
15.628,0.015013054610854936
15.632,0.015021324557621226
15.636000000000001,0.015036710505093394
15.64,0.015035051707631551
15.644,0.015021949611737282
15.648,0.015026108625663353
15.652000000000001,0.01504637480334935
15.656,0.015055462128575099
15.66,0.015056856480064764
15.664,0.015045268938374788
15.668000000000001,0.015055630412375577
15.672,0.015065703399861262
15.676,0.015059188412728516
15.68,0.015058322953183207
15.684000000000001,0.01506801129198209
15.688,0.015074406076400211
15.692,0.01506704967026508
15.696,0.015051038668676851
15.700000000000001,0.015060751048018657
15.704,0.015075992752233279
15.708,0.015054716871744417
15.712,0.015043273573311991
15.716000000000001,0.015052072412022638
15.72,0.015058226791011506
15.724,0.01505272150668162
15.728,0.015040821437933614
15.732000000000001,0.015030099355788947
15.736,0.015050221290217393
15.74,0.015054043736542509
15.744,0.015036926869979721
15.748000000000001,0.015042119627251578
15.752,0.01505656799354966
15.756,0.015053394641883527
15.76,0.01504002810001708
15.764000000000001,0.01504267255973886
15.768,0.015054740912287342
15.772,0.015066953508093379
15.776,0.015042985086796887
15.780000000000001,0.015031902396508342
15.784,0.015048322087326297
15.788,0.015054500506858089
15.792,0.015048971181985279
15.796000000000001,0.015047312384523436
15.8,0.0150488028981848
15.804,0.015058851845127562
15.808,0.015052937871567947
15.812000000000001,0.01504901926307113
15.816,0.015059500939786544
15.82,0.015070848076047272
15.824,0.015065751480947112
15.828000000000001,0.01505149543899243
15.832,0.015057505574723747
15.836,0.015071737576135507
15.84,0.015072242427536938
15.844000000000001,0.01504728834398051
15.848,0.01504779319538194
15.852,0.015061544385935191
15.856,0.015060125993902601
15.860000000000001,0.015050918465962225
15.864,0.015044042870685599
15.868,0.01504865865492725
15.872,0.015053827371656182
15.876,0.015041158005534568
15.88,0.01503394584265699
15.884,0.01505601506106238
15.888,0.015055341925860473
15.892,0.015044523681544105
15.896,0.015037960613325508
15.9,0.015055317885317549
15.904,0.015075103252145044
15.908,0.015068876751527401
15.912,0.015054716871744417
15.916,0.015063876318598941
15.92,0.015077843874038524
15.924,0.015070006657044888
15.928,0.015068588265012298
15.932,0.015066761183749977
15.936,0.015070944238218973
15.94,0.015072242427536938
15.944,0.015061520345392265
15.948,0.01506007791281675
15.952,0.015077242860465393
15.956,0.015064429251086222
15.96,0.015050365533474944
15.964,0.015058851845127562
15.968,0.015071449089620404
15.972,0.015081522077106089
15.976,0.015065871683661738
15.98,0.015058875885670488
15.984,0.015069477765100533
15.988,0.015075920630604502
15.992,0.015069477765100533
15.996,0.015065078345745204
16.0,0.015070174940845366
16.004,0.015068684427183999
16.008,0.015055774655633129
16.012,0.015040316586532184
16.016000000000002,0.015052913831025022
16.02,0.015067193913522632
16.024,0.015045509343804041
16.028,0.015031541788364463
16.032,0.01503733555920945
16.036,0.015042696600281786
16.04,0.015054332223057612
16.044,0.015041903262365252
16.048000000000002,0.015032743815510726
16.052,0.015046350762806424
16.056,0.015051134830848552
16.06,0.015046807533122005
16.064,0.015051759884964608
16.068,0.01506291469688193
16.072,0.015067482400037736
16.076,0.015055414047489248
16.080000000000002,0.015057529615266673
16.084,0.015070487467903394
16.088,0.015074237792599735
16.092,0.015049932803702289
16.096,0.015044691965344581
16.1,0.015054019695999584
16.104,0.015061544385935191
16.108,0.01505642375029211
16.112000000000002,0.015045244897831862
16.116,0.015050990587591
16.12,0.015057577696352523
16.124,0.015048850979270651
16.128,0.015042864884082262
16.132,0.015045076614031386
16.136,0.015044523681544105
16.14,0.015041422451506746
16.144000000000002,0.0150303397612182
16.148,0.015037431721381151
16.152,0.015053538885141078
16.156,0.015046398843892275
16.16,0.015019906165588634
16.164,0.015016203921978145
16.168,0.015029690666559218
16.172,0.015033921802114063
16.176000000000002,0.015026974085208663
16.18,0.015015747151662564
16.184,0.015028729044842207
16.188,0.015035652721204683
16.192,0.015022406382052862
16.196,0.015020483138618842
16.2,0.01504221578942328
16.204,0.015052024330936787
16.208000000000002,0.01504952411447256
16.212,0.015044571762629955
16.216,0.015058130628839804
16.22,0.01507705053612199
16.224,0.015076185076576681
16.228,0.015065583197146635
16.232,0.015070944238218973
16.236,0.015086979280350124
16.240000000000002,0.01507969499584377
16.244,0.015073636779026603
16.248,0.0150623136833088
16.252,0.015073492535769051
16.256,0.015074237792599735
16.26,0.015050966547048076
16.264,0.015044355397743629
16.268,0.015052288776908965
16.272000000000002,0.015046446924978125
16.276,0.01502952238275874
16.28,0.015019257070929654
16.284,0.01502500276068879
16.288,0.015038032734954283
16.292,0.01502206981445191
16.296,0.015012333394567177
16.3,0.01502572397697655
16.304000000000002,0.015032743815510726
16.308,0.015025291247203894
16.312,0.015028416517784178
16.316,0.015033801599399437
16.32,0.015046639249321528
16.324,0.015038225059297685
16.328,0.015030628247733303
16.332,0.01504418711394315
16.336000000000002,0.015052601303966993
16.34,0.015045990154662545
16.344,0.015034667058944746
16.348,0.01504317741114029
16.352,0.01506378015642724
16.356,0.015067073710808006
16.36,0.015043826505799272
16.364,0.015043826505799272
16.368000000000002,0.015067097751350931
16.372,0.01507339637359735
16.376,0.015059741345215797
16.38,0.01505591889889068
16.384,0.015062097318422472
16.388,0.015062530048195128
16.392,0.015045437222175264
16.396,0.015043465897655393
16.4,0.015062049237336622
16.404,0.015064236926742821
16.408,0.015049836641530588
16.412,0.015038297180926462
16.416,0.015047192181808808
16.42,0.015055005358259519
16.424,0.015049379871215008
16.428,0.01502582013914825
16.432,0.015031613909993238
16.436,0.015047769154839016
16.44,0.015040677194676062
16.444,0.015030868653162555
16.448,0.015042696600281786
16.452,0.015048081681897044
16.456,0.01504363418145587
16.46,0.015036013329348561
16.464,0.015034402612972569
16.468,0.015060630845304032
16.472,0.015054500506858089
16.476,0.015035748883376384
16.48,0.015035436356318356
16.484,0.015052120493108488
16.488,0.01505947689924362
16.492,0.015051639682249983
16.496,0.015043321654397842
16.5,0.015056952642236466
16.504,0.015067434318951885
16.508,0.015061231858877163
16.512,0.015057409412552045
16.516000000000002,0.015063082980682409
16.52,0.015071136562562376
16.524,0.015064453291629148
16.528,0.01504459580317288
16.532,0.015056255466491633
16.536,0.015073444454683201
16.54,0.015058731642412936
16.544,0.015043273573311991
16.548000000000002,0.015045773789776219
16.552,0.01505459666902979
16.556,0.015047721073753165
16.56,0.015033272707455081
16.564,0.015027575098781795
16.568,0.015039595370244426
16.572,0.015040701235218988
16.576,0.01501983404395986
16.580000000000002,0.015028200152897851
16.584,0.015043826505799272
16.588,0.015045437222175264
16.592,0.015042744681367634
16.596,0.015040124262188781
16.6,0.015053923533827883
16.604,0.015066737143207052
16.608,0.015052457060709441
16.612000000000002,0.0150417590191077
16.616,0.015049548155015484
16.62,0.01506654481886365
16.624,0.015062962777967781
16.628,0.015049427952300859
16.632,0.015049091384699904
16.636,0.015060462561503554
16.64,0.015053490804055228
16.644000000000002,0.015035147869803252
16.648,0.015047865317010717
16.652,0.015072026062650611
16.656,0.015064236926742821
16.66,0.015042792762453485
16.664,0.01505464475011564
16.668,0.015074117589885107
16.672,0.015075127292687968
16.676000000000002,0.015056760317893063
16.68,0.01506043852096063
16.684,0.015070487467903394
16.688,0.01507919014444234
16.692,0.015061784791364444
16.696,0.015063467629369212
