time,channel2
0.0,-0.017117900306133464
0.004,-0.017117539697989587
0.008,-0.01711691464387353
0.012,-0.01711294795429086
0.016,-0.01711335664352059
0.02,-0.017116794441158902
0.024,-0.01711568857618434
0.028,-0.017117683941247137
0.032,-0.017120953455084974
0.036000000000000004,-0.017121722752458584
0.04,-0.01712025627934014
0.044,-0.017118020508848093
0.048,-0.017116385751929173
0.052000000000000005,-0.017119679306309935
0.056,-0.017121362144314704
0.06,-0.01712376619860723
0.064,-0.017121410225400552
0.068,-0.0171163136303004
0.07200000000000001,-0.01711787626559054
0.076,-0.017120376482054767
0.08,-0.01712080921182742
0.084,-0.01711929465762313
0.088,-0.01711797242776224
0.092,-0.01712025627934014
0.096,-0.017120448603683544
0.1,-0.01712092941454205
0.10400000000000001,-0.017123694076978453
0.108,-0.01712386236077893
0.112,-0.01712167467137273
0.116,-0.017119823549567488
0.12,-0.017122660333632668
0.124,-0.017120881333456198
0.128,-0.017122780536347294
0.132,-0.017122516090375114
0.136,-0.017124992266296418
0.14,-0.01712285265797607
0.14400000000000002,-0.017119414860337755
0.148,-0.01712294882014777
0.152,-0.01712381427969308
0.156,-0.017120184157711365
0.16,-0.01711929465762313
0.164,-0.017121097698342524
0.168,-0.01712092941454205
0.17200000000000001,-0.0171189821305651
0.176,-0.0171209774956279
0.18,-0.017122011238973684
0.184,-0.0171209774956279
0.188,-0.017119486981966532
0.192,-0.017121458306486405
0.196,-0.01712225164440294
0.2,-0.01712016011716844
0.20400000000000001,-0.01711955910359531
0.20800000000000002,-0.017122660333632668
0.212,-0.01712376619860723
0.216,-0.017123718117521378
0.22,-0.01712225164440294
0.224,-0.017123069022862397
0.228,-0.017121121738885452
0.232,-0.01712299690123362
0.23600000000000002,-0.017122203563317086
0.24,-0.01712386236077893
0.244,-0.01712193911734491
0.248,-0.017122227603860014
0.252,-0.017121506387572254
0.256,-0.01712181891463028
0.26,-0.017124343171637437
0.264,-0.017126410658329008
0.268,-0.017122684374175592
0.272,-0.017119366779251907
0.276,-0.017120136076625516
0.28,-0.017122227603860014
0.28400000000000003,-0.01712285265797607
0.28800000000000003,-0.01712157850920103
0.292,-0.017123381549920425
0.296,-0.01712585772584173
0.3,-0.017127035712445067
0.304,-0.017124655698695465
0.308,-0.017123381549920425
0.312,-0.017123044982319473
0.316,-0.017122732455261445
0.32,-0.017124054685122334
0.324,-0.01712157850920103
0.328,-0.01712249204983219
0.332,-0.017123044982319473
0.336,-0.017120953455084974
0.34,-0.0171231651850341
0.34400000000000003,-0.017125449036612
0.34800000000000003,-0.01712427105000866
0.352,-0.01712309306340532
0.356,-0.017123429631006278
0.36,-0.017125473077154924
0.364,-0.01712208336060246
0.368,-0.01712056880639817
0.372,-0.017121602549743955
0.376,-0.017122660333632668
0.38,-0.01712258821200389
0.384,-0.01712184295517321
0.388,-0.017124727820324242
0.392,-0.01712814157741963
0.396,-0.017128261780134255
0.4,-0.01712669914484411
0.404,-0.017123645995892604
0.40800000000000003,-0.01712234780657464
0.41200000000000003,-0.01712458357706669
0.41600000000000004,-0.017125977928556354
0.42,-0.017125208631182744
0.424,-0.017126314496157306
0.428,-0.017126386617786083
0.432,-0.017127829050361598
0.436,-0.017126434698871935
0.44,-0.01712742036113187
0.444,-0.017125064387925194
0.448,-0.017123333468834576
0.452,-0.017121915076801983
0.456,-0.017123381549920425
0.46,-0.0171231651850341
0.464,-0.01712309306340532
0.468,-0.017122419928203413
0.47200000000000003,-0.01712518459063982
0.47600000000000003,-0.017128069455790852
0.48,-0.017127324198960167
0.484,-0.017128550266649358
0.488,-0.01712862238827813
0.492,-0.017127684807104047
0.496,-0.017127300158417243
0.5,-0.017128550266649358
0.504,-0.017132300591345698
0.508,-0.017130930280398957
0.512,-0.017130136942482426
0.516,-0.01712686742864459
0.52,-0.017126891469187513
0.524,-0.017125665401498326
0.528,-0.017123477712092126
0.532,-0.01712244396874634
0.536,-0.017124727820324242
0.54,-0.01712417488783696
0.544,-0.01712290073906192
0.548,-0.017126627023215334
0.552,-0.01712737228004602
0.556,-0.017126314496157306
0.56,-0.017128261780134255
0.5640000000000001,-0.017128093496333777
0.5680000000000001,-0.017123742158064306
0.5720000000000001,-0.017125569239326625
0.5760000000000001,-0.017126146212356832
0.58,-0.017123141144491174
0.584,-0.017121290022685927
0.588,-0.017121362144314704
0.592,-0.017122660333632668
0.596,-0.01712030436042599
0.6,-0.017119222535994356
0.604,-0.01712056880639817
0.608,-0.017119535063052384
0.612,-0.017121458306486405
0.616,-0.017125665401498326
0.62,-0.017126122171813904
0.624,-0.017122612252546816
0.628,-0.017120689009112795
0.632,-0.01712025627934014
0.636,-0.017123213266119947
0.64,-0.017123742158064306
0.644,-0.017124222968922808
0.648,-0.017122107401145385
0.652,-0.01712309306340532
0.656,-0.017123573874263828
0.66,-0.017119102333279727
0.664,-0.017119006171108026
0.668,-0.01711979950902456
0.672,-0.01712234780657464
0.676,-0.01712290073906192
0.68,-0.017121121738885452
0.684,-0.01712020819825429
0.6880000000000001,-0.017122323766031716
0.6920000000000001,-0.017120184157711365
0.6960000000000001,-0.01712032840096892
0.7000000000000001,-0.017122059320059536
0.704,-0.017122227603860014
0.708,-0.017122179522774162
0.712,-0.01712244396874634
0.716,-0.01712249204983219
0.72,-0.017121698711915656
0.724,-0.017120376482054767
0.728,-0.01712052072531232
0.732,-0.017121963157887835
0.736,-0.017119679306309935
0.74,-0.01712025627934014
0.744,-0.017119511022509457
0.748,-0.01712020819825429
0.752,-0.01712052072531232
0.756,-0.017119631225224086
0.76,-0.017119126373822655
0.764,-0.01711823687373442
0.768,-0.017120689009112795
0.772,-0.017122516090375114
0.776,-0.017120376482054767
0.78,-0.017118717684592926
0.784,-0.01711929465762313
0.788,-0.01712386236077893
0.792,-0.017124655698695465
0.796,-0.017123333468834576
0.8,-0.01712234780657464
0.804,-0.017124102766208182
0.808,-0.017120857292913273
0.812,-0.01712208336060246
0.8160000000000001,-0.01712285265797607
0.8200000000000001,-0.01712016011716844
0.8240000000000001,-0.017122780536347294
0.8280000000000001,-0.017121049617256676
0.8320000000000001,-0.017121963157887835
0.836,-0.017124703779781314
0.84,-0.01712605005018513
0.844,-0.017124343171637437
0.848,-0.017125881766384653
0.852,-0.01712559327986955
0.856,-0.017123694076978453
0.86,-0.017124848023038867
0.864,-0.017127492482760645
0.868,-0.017125449036612
0.872,-0.01712451145543791
0.876,-0.017125617320412474
0.88,-0.01712508842846812
0.884,-0.017124054685122334
0.888,-0.01712814157741963
0.892,-0.017128093496333777
0.896,-0.017129776334338546
0.9,-0.017128694509906908
0.904,-0.01712578560421295
0.908,-0.017123694076978453
0.912,-0.01712609813127098
0.916,-0.017127131874616768
0.92,-0.017128261780134255
0.924,-0.01712980037488147
0.928,-0.017128261780134255
0.932,-0.01712645873941486
0.936,-0.017126122171813904
0.9400000000000001,-0.017126939550273366
0.9440000000000001,-0.017126987631359215
0.9480000000000001,-0.01712650682050071
0.9520000000000001,-0.0171279252125333
0.9560000000000001,-0.01712605005018513
0.96,-0.017128309861220103
0.964,-0.01712879067207861
0.968,-0.017129584009995143
0.972,-0.017128213699048402
0.976,-0.017128910874793235
0.98,-0.017129944618139024
0.984,-0.017126627023215334
0.988,-0.017125328833897373
0.992,-0.017125497117697848
0.996,-0.017126482779957784
1.0,-0.01712650682050071
1.004,-0.017126242374528533
1.008,-0.017124078725665258
1.012,-0.01712453549598084
1.016,-0.017125328833897373
1.02,-0.017124727820324242
1.024,-0.017128021374705
1.028,-0.017129511888366367
1.032,-0.017131290888542837
1.036,-0.017130136942482426
1.04,-0.017132060185916446
1.044,-0.017132420794060323
1.048,-0.017128357942305956
1.052,-0.017130401388454602
1.056,-0.017131795739944267
1.06,-0.01713167553722964
1.064,-0.01713066583442678
1.068,-0.017128189658505478
1.072,-0.01712864642882106
1.076,-0.017129824415424395
1.08,-0.017130906239856032
1.084,-0.01713174765885842
1.088,-0.017131026442570658
1.092,-0.01713157937505794
1.096,-0.017129511888366367
1.1,-0.017129535928909295
1.104,-0.01713162745614379
1.108,-0.01713350261849196
1.112,-0.01713518545649673
1.116,-0.017136123037670814
1.12,-0.017133718983378288
1.124,-0.017132565037317877
1.1280000000000001,-0.017131459172343315
1.1320000000000001,-0.017133983429350467
1.1360000000000001,-0.017134344037494347
1.1400000000000001,-0.0171325890778608
1.1440000000000001,-0.017131915942658893
1.1480000000000001,-0.017134392118580196
1.1520000000000001,-0.017135714348441085
1.156,-0.01713492101052455
1.16,-0.01713427191586557
1.164,-0.01713609899712789
1.168,-0.0171323967535174
1.172,-0.01713107452365651
1.176,-0.017134440199666045
1.18,-0.01713376706446414
1.184,-0.01713117068582821
1.188,-0.01713528161866843
1.192,-0.017134055550979244
1.196,-0.017136123037670814
1.2,-0.017134079591522168
1.204,-0.017131459172343315
1.208,-0.01713335837523441
1.212,-0.017133334334691483
1.216,-0.017129944618139024
1.22,-0.017134896969981626
1.224,-0.017135906672784487
1.228,-0.017137252943188304
1.232,-0.01713595475387034
1.236,-0.017134440199666045
1.24,-0.017134752726724076
1.244,-0.01713234867243155
1.248,-0.017129776334338546
1.252,-0.017131146645285287
1.256,-0.01712980037488147
1.26,-0.017128045415247928
1.264,-0.017126651063758262
1.268,-0.017127901171990374
1.272,-0.017129487847823442
1.276,-0.01713025714519705
1.28,-0.017129872496510247
1.284,-0.01713025714519705
1.288,-0.017129824415424395
1.292,-0.01712568944204125
1.296,-0.017127324198960167
1.3,-0.017130329266825825
1.304,-0.017129079158593713
1.308,-0.017129511888366367
1.312,-0.01713066583442678
1.316,-0.017129872496510247
1.32,-0.0171302090641112
1.324,-0.017130689874969705
1.328,-0.01713071391551263
1.332,-0.017129511888366367
1.336,-0.017128213699048402
1.34,-0.01713107452365651
1.344,-0.01713234867243155
1.348,-0.0171325890778608
1.352,-0.01713213230754522
1.356,-0.017136074956584965
1.36,-0.0171393444704228
1.364,-0.01713600283495619
1.368,-0.017133430496863184
1.372,-0.01713222846971692
1.3760000000000001,-0.017134752726724076
1.3800000000000001,-0.01713636344310007
1.3840000000000001,-0.017134464240208973
1.3880000000000001,-0.01713203614537352
1.3920000000000001,-0.01713290160491883
1.3960000000000001,-0.017131098564199435
1.4000000000000001,-0.017131867861573044
1.4040000000000001,-0.017131194726371136
1.408,-0.0171324929156891
1.412,-0.017133983429350467
1.416,-0.01713431999695142
1.42,-0.017131964023744745
1.424,-0.017131699577772566
1.428,-0.017131194726371136
1.432,-0.01712965613162392
1.436,-0.01713294968600468
1.44,-0.017134079591522168
1.444,-0.017135353740297208
1.448,-0.017132156348088148
1.452,-0.017131915942658893
1.456,-0.0171325890778608
1.46,-0.01713222846971692
1.464,-0.017131459172343315
1.468,-0.017130906239856032
1.472,-0.0171323967535174
1.476,-0.017131915942658893
1.48,-0.017130016739767797
1.484,-0.01712761268547527
1.488,-0.01713263715894665
1.492,-0.01713441615912312
1.496,-0.01713761355133218
1.5,-0.017135113334867953
1.504,-0.01713523353758258
1.508,-0.017134488280751897
1.512,-0.017137445267531703
1.516,-0.017139632956937902
1.52,-0.017140402254311512
1.524,-0.017138166483819463
1.528,-0.01713494505106748
1.532,-0.01713131492908576
1.536,-0.017134872929438702
1.54,-0.017136988497216125
1.544,-0.017134752726724076
1.548,-0.017136531726900543
1.552,-0.017133791105007064
1.556,-0.01713275736166128
1.56,-0.0171346806050953
1.564,-0.017134704645638224
1.568,-0.01713883961902137
1.572,-0.017138310727077014
1.576,-0.017135618186269384
1.58,-0.017134993132153328
1.584,-0.01713436807803727
1.588,-0.017135377780840132
1.592,-0.017137589510789256
1.596,-0.01713593071332741
1.6,-0.017136026875499113
1.604,-0.01713792607839021
1.608,-0.017136411524185918
1.612,-0.017136387483642993
1.616,-0.017133190091433933
1.62,-0.017134704645638224
1.624,-0.017135642226812308
1.6280000000000001,-0.01713559414572646
1.6320000000000001,-0.017138599213592117
1.6360000000000001,-0.01713802224056191
1.6400000000000001,-0.0171369644566732
1.6440000000000001,-0.017135882632241563
1.6480000000000001,-0.017135882632241563
1.6520000000000001,-0.017137805875675583
1.6560000000000001,-0.01714047437594029
1.6600000000000001,-0.017137829916218508
1.6640000000000001,-0.017137252943188304
1.668,-0.017140354173225663
1.672,-0.017140786902998317
1.676,-0.017142445700460158
1.68,-0.01714047437594029
1.684,-0.017138647294677966
1.688,-0.01713811840273361
1.692,-0.017137733754046806
1.696,-0.017138647294677966
1.7,-0.017139969524538858
1.704,-0.017141916808515803
1.708,-0.017138863659564296
1.712,-0.017137805875675583
1.716,-0.01713920022716525
1.72,-0.017140883065170018
1.724,-0.017138911740650145
1.728,-0.01713893578119307
1.732,-0.017139777200195456
1.736,-0.017137805875675583
1.74,-0.017137685672960958
1.744,-0.01713847901087749
1.748,-0.01713684425395857
1.752,-0.01713544990246891
1.756,-0.017139729119109604
1.76,-0.017140354173225663
1.764,-0.01713727698373123
1.768,-0.017136219199842515
1.772,-0.01713595475387034
1.776,-0.017139488713680352
1.78,-0.017137637591875105
1.784,-0.017138719416306743
1.788,-0.017141291754399747
1.792,-0.017141772565258253
1.796,-0.01713847901087749
1.8,-0.017138599213592117
1.804,-0.017141604281457775
1.808,-0.017141556200371926
1.812,-0.01714057053811199
1.816,-0.017137228902645376
1.82,-0.017133574740120738
1.824,-0.01713367090229244
1.828,-0.017134896969981626
1.832,-0.017135618186269384
1.836,-0.017135401821383057
1.84,-0.017137445267531703
1.844,-0.017131771699401343
1.848,-0.01713331029414856
1.852,-0.017137541429703404
1.856,-0.017136026875499113
1.86,-0.017136219199842515
1.864,-0.01713427191586557
1.868,-0.017130377347911677
1.872,-0.017131699577772566
1.8760000000000001,-0.017136267280928368
1.8800000000000001,-0.01713811840273361
1.8840000000000001,-0.01713727698373123
1.8880000000000001,-0.017137709713503882
1.8920000000000001,-0.01713472868618115
1.8960000000000001,-0.01713595475387034
1.9000000000000001,-0.017136435564728842
1.9040000000000001,-0.01713436807803727
1.9080000000000001,-0.017135882632241563
1.9120000000000001,-0.017136026875499113
1.9160000000000001,-0.017139320429879874
1.92,-0.017139368510965727
1.924,-0.017138310727077014
1.928,-0.017136291321471292
1.932,-0.017135666267355236
1.936,-0.01713595475387034
1.94,-0.01713879153793552
1.944,-0.017143335200548393
1.948,-0.017143743889778122
1.952,-0.017142710146432337
1.956,-0.017138599213592117
1.96,-0.017139464673137428
1.964,-0.01714304671403329
1.968,-0.01714451318715173
1.972,-0.01714249378154601
1.976,-0.01714047437594029
1.98,-0.017138310727077014
1.984,-0.01713989740291008
1.988,-0.017141027308427568
1.992,-0.0171417244841724
1.996,-0.017139969524538858
2.0,-0.017140931146255867
2.004,-0.01714198893014458
2.008,-0.017140907105712942
2.012,-0.01714121963277097
2.016,-0.01714016184888226
2.02,-0.01713802224056191
2.024,-0.0171368682945015
2.028,-0.017140233970511034
2.032,-0.017138238605448237
2.036,-0.017138334767619938
2.04,-0.01714107538951342
2.044,-0.017141291754399747
2.048,-0.017138190524362388
2.052,-0.01713670001070102
2.056,-0.01713737314590293
2.06,-0.017135642226812308
2.064,-0.01713583455115571
2.068,-0.017136675970158097
2.072,-0.017136315362014216
2.076,-0.017136411524185918
2.08,-0.017136627889072244
2.084,-0.017137084659387826
2.088,-0.01713787799730436
2.092,-0.01713751738916048
2.096,-0.017141916808515803
2.1,-0.017140089727253484
2.104,-0.017140522457026137
2.108,-0.01714117155168512
2.112,-0.01713879153793552
2.116,-0.01714066670028369
2.12,-0.01714131579494267
2.124,-0.017140594578654914
2.128,-0.017141916808515803
2.132,-0.017140834984084165
2.136,-0.01714299863294744
2.14,-0.017139488713680352
2.144,-0.017140594578654914
2.148,-0.017141844686887026
2.152,-0.017140955186798795
2.156,-0.01713828668653409
2.16,-0.017141363876028524
2.164,-0.01714275822751819
2.168,-0.017142157213945058
2.172,-0.017144200660093704
2.176,-0.01714482571420976
2.18,-0.01714203701123043
2.184,-0.017141532159828998
2.188,-0.017142325497745532
2.192,-0.017143214997833767
2.196,-0.017142565903174787
2.2,-0.017141652362543624
2.204,-0.017134440199666045
2.208,-0.017133045848176383
2.212,-0.01713542586192598
2.216,-0.01713737314590293
2.22,-0.017140955186798795
2.224,-0.017141532159828998
2.228,-0.017143190957290843
2.232,-0.017141940849058727
2.236,-0.01714249378154601
2.24,-0.017143960254664452
2.244,-0.01714316691674792
2.248,-0.017141940849058727
2.2520000000000002,-0.01714376793032105
2.2560000000000002,-0.017142517822088935
2.2600000000000002,-0.017142974592404516
2.2640000000000002,-0.0171417244841724
2.2680000000000002,-0.017141435997657297
2.2720000000000002,-0.017141844686887026
2.2760000000000002,-0.017141195592228046
2.2800000000000002,-0.01714081094354124
2.2840000000000003,-0.01714107538951342
2.2880000000000003,-0.01714335924109132
2.2920000000000003,-0.017146532592757453
2.2960000000000003,-0.0171438160114069
2.3000000000000003,-0.01714222933557383
2.3040000000000003,-0.017145546930497517
2.308,-0.017143431362720094
2.312,-0.01714614794407065
2.316,-0.017147085525244736
2.32,-0.017147686538817868
2.324,-0.017145715214297995
2.328,-0.01714364772760642
2.332,-0.017142565903174787
2.336,-0.01714775866044664
2.34,-0.017146821079272557
2.344,-0.017145018038553162
2.348,-0.017145522889954593
2.352,-0.017144969957467313
2.356,-0.017146628754929154
2.36,-0.017146436430585752
2.364,-0.017144753592580983
2.368,-0.017145354606154115
2.372,-0.017146893200901334
2.376,-0.017144993998010238
2.38,-0.017143239038376692
2.384,-0.017145763295383847
2.388,-0.017145210362896564
2.392,-0.01714367176814935
2.396,-0.01714468147095221
2.4,-0.01714660471438623
2.404,-0.017147734619903716
2.408,-0.01714725380904521
2.412,-0.01714634026841405
2.416,-0.01714696532253011
2.42,-0.017144753592580983
2.424,-0.017145138241267788
2.428,-0.01714222933557383
2.432,-0.01714340732217717
2.436,-0.017144657430409282
2.44,-0.01714376793032105
2.444,-0.017144296822265405
2.448,-0.01714737401175984
2.452,-0.017148167349676374
2.456,-0.01714888856596413
2.46,-0.017149008768678756
2.464,-0.01714670087655793
2.468,-0.017144753592580983
2.472,-0.017142613984260636
2.476,-0.01714350348434887
2.48,-0.017144441065522955
2.484,-0.017145018038553162
2.488,-0.01714903280922168
2.492,-0.01715021079582502
2.496,-0.01714710956578766
2.5,-0.017146412390042828
2.504,-0.017146412390042828
2.508,-0.01714275822751819
2.512,-0.017143094795119142
2.516,-0.01714239761937431
2.52,-0.017143118835662066
2.524,-0.0171440083357503
2.528,-0.017147398052302764
2.532,-0.0171507637283123
2.536,-0.017149177052479234
2.54,-0.017149225133565083
2.544,-0.01714737401175984
2.548,-0.017146027741356023
2.552,-0.017144561268237584
2.556,-0.01714203701123043
2.56,-0.017139777200195456
2.564,-0.017139272348794025
2.568,-0.01714331116000547
2.572,-0.017143094795119142
2.576,-0.017141099430056345
2.58,-0.01714427278172248
2.584,-0.017142950551861588
2.588,-0.017139488713680352
2.592,-0.01714432086280833
2.596,-0.01714057053811199
2.6,-0.01713893578119307
2.604,-0.0171391521460794
2.608,-0.017139825281281305
2.612,-0.01713852709196334
2.616,-0.01713970507856668
2.62,-0.017139777200195456
2.624,-0.017138551132506268
2.628,-0.017139104064993547
2.632,-0.017140017605624707
2.636,-0.017141508119286074
2.64,-0.017140258011053962
2.644,-0.017136267280928368
2.648,-0.017138767497392595
2.652,-0.017139224267708173
2.656,-0.01713903194336477
2.66,-0.017140907105712942
2.664,-0.017140762862455392
2.668,-0.017141844686887026
2.672,-0.017142157213945058
2.676,-0.01714107538951342
2.68,-0.01714112347059927
2.684,-0.017143118835662066
2.688,-0.017145354606154115
2.692,-0.01714417661955078
2.696,-0.017143383281634245
2.7,-0.01714189276797288
2.704,-0.017142926511318664
2.708,-0.017146027741356023
2.712,-0.017144609349323433
2.716,-0.017145018038553162
2.72,-0.01714715764687351
2.724,-0.017148768363249505
2.728,-0.01714686916035841
2.732,-0.01714624410624235
2.736,-0.017144344903351254
2.74,-0.017143888133035676
2.744,-0.01714275822751819
2.748,-0.01714131579494267
2.7520000000000002,-0.017144969957467313
2.7560000000000002,-0.017146917241444258
2.7600000000000002,-0.01714684511981548
2.7640000000000002,-0.017148816444335354
2.7680000000000002,-0.01714888856596413
2.7720000000000002,-0.01714573925484092
2.7760000000000002,-0.01714674895764378
2.7800000000000002,-0.017143888133035676
2.7840000000000003,-0.017146171984613576
2.7880000000000003,-0.017145042079096087
2.7920000000000003,-0.01714345540326302
2.7960000000000003,-0.01713989740291008
2.8000000000000003,-0.017140498416483213
2.8040000000000003,-0.017142157213945058
2.8080000000000003,-0.017140017605624707
2.8120000000000003,-0.017139921443453006
2.816,-0.01713903194336477
2.82,-0.017140330132682735
2.824,-0.0171440083357503
2.828,-0.017144128538464927
2.832,-0.017140426294854436
2.836,-0.01714020992996811
2.84,-0.017140594578654914
2.844,-0.01713975315965253
2.848,-0.017139969524538858
2.852,-0.017141339835485596
2.856,-0.017139921443453006
2.86,-0.017136916375587348
2.864,-0.017137685672960958
2.868,-0.017138743456849667
2.872,-0.017137829916218508
2.876,-0.01713583455115571
2.88,-0.017137829916218508
2.884,-0.017137036578301974
2.888,-0.01713787799730436
2.892,-0.017140762862455392
2.896,-0.017141676403086552
2.9,-0.017140089727253484
2.904,-0.017140786902998317
2.908,-0.017140955186798795
2.912,-0.017139416592051575
2.916,-0.017137565470246332
2.92,-0.017137853956761435
2.924,-0.017139681038023755
2.928,-0.01714148407874315
2.932,-0.01714888856596413
2.936,-0.017151965755458562
2.94,-0.017151941714915638
2.944,-0.01714893664704998
2.948,-0.017147638457732015
2.952,-0.01714747017393154
2.956,-0.01715045120125427
2.96,-0.01715186959328686
2.964,-0.01715290333663265
2.968,-0.01715136474188543
2.972,-0.017151028174284478
2.976,-0.017150667566140598
2.98,-0.01715223020143074
2.984,-0.017152518687945845
2.988,-0.017156461336985587
2.992,-0.01715468233680912
2.996,-0.017152254241973666
3.0,-0.017150330998539645
3.004,-0.017148648160534876
3.008,-0.017151508985142984
3.012,-0.017151557066228833
3.016,-0.017148455836191474
3.02,-0.01714826351184807
3.024,-0.017150379079625497
3.028,-0.01714944149845141
3.032,-0.017149249174108008
3.036,-0.01714929725519386
3.04,-0.017148816444335354
3.044,-0.01715249464740292
3.048,-0.017151821512201012
3.052,-0.01715381687726381
3.056,-0.017153768796177957
3.06,-0.017153215863690677
3.064,-0.017154538093551566
3.068,-0.017153985161064287
3.072,-0.01714994634985284
3.076,-0.017147181687416437
3.08,-0.017145210362896564
3.084,-0.017145162281810716
3.088,-0.01714634026841405
3.092,-0.01715021079582502
3.096,-0.017148095228047597
3.1,-0.01714953766062311
3.104,-0.017149008768678756
3.108,-0.017150691606683525
3.112,-0.017149128971393382
3.116,-0.017150138674196243
3.12,-0.017149249174108008
3.124,-0.017151653228400534
3.128,-0.01715045120125427
3.132,-0.017149513620080187
3.136,-0.017150138674196243
3.14,-0.017149153011936306
3.144,-0.01715045120125427
3.148,-0.017151052214827402
3.152,-0.017152831215003873
3.156,-0.017153095660976052
3.16,-0.01715254272848877
3.164,-0.01715254272848877
3.168,-0.0171552352692964
3.172,-0.017159875094080974
3.176,-0.017163096526832962
3.18,-0.01716268783760323
3.184,-0.017159995296795603
3.188,-0.017159778931909273
3.192,-0.01716030782385363
3.196,-0.017159490445394172
3.2,-0.017157879729018177
3.204,-0.01715778356684648
3.208,-0.0171574229587026
3.212,-0.017156485377528514
3.216,-0.017156870026215316
3.22,-0.017157374877616746
3.224,-0.017155115066581773
3.228,-0.01715391303943551
3.232,-0.017154225566493538
3.236,-0.017152783133918024
3.24,-0.017151100295913255
3.244,-0.017153672634006255
3.248,-0.01715415344486476
3.2520000000000002,-0.01715614880992756
3.2560000000000002,-0.017156220931556335
3.2600000000000002,-0.017156629620786065
3.2640000000000002,-0.017157278715445045
3.2680000000000002,-0.017155884363955383
3.2720000000000002,-0.017150427160711346
3.2760000000000002,-0.01714802310641882
3.2800000000000002,-0.017145354606154115
3.2840000000000003,-0.01714533056561119
3.2880000000000003,-0.017147325930673987
3.2920000000000003,-0.017148167349676374
3.2960000000000003,-0.017152422525774143
3.3000000000000003,-0.01714944149845141
3.3040000000000003,-0.01715208595817319
3.3080000000000003,-0.01715492274223837
3.3120000000000003,-0.01715417748540769
3.3160000000000003,-0.017153792836720885
3.3200000000000003,-0.0171531437420619
3.3240000000000003,-0.01715350435020578
3.3280000000000003,-0.017153528390748705
3.332,-0.017152302323059518
3.336,-0.01715432172866524
3.34,-0.017155139107124698
3.344,-0.017152711012289247
3.348,-0.01715259080957462
3.352,-0.017152470606859992
3.356,-0.01715391303943551
3.36,-0.01715198979600149
3.364,-0.017154538093551566
3.368,-0.017156557499157288
3.372,-0.017157182553273347
3.376,-0.017153792836720885
3.38,-0.01715186959328686
3.384,-0.017153937079978435
3.388,-0.017152855255546797
3.392,-0.017152614850117546
3.396,-0.01715583628286953
3.4,-0.017157374877616746
3.404,-0.017156870026215316
3.408,-0.01715650941807144
3.412,-0.017157062350558718
3.416,-0.0171575191208743
3.42,-0.017156677701871913
3.424,-0.017154994863867148
3.428,-0.017154802539523745
3.432,-0.01715624497209926
3.436,-0.017155403553096877
3.44,-0.017154994863867148
3.444,-0.01715547567472565
3.448,-0.017155884363955383
3.452,-0.017154754458437893
3.456,-0.017155667999069053
3.46,-0.017151749390572235
3.464,-0.01715600456667001
3.468,-0.017155259309839323
3.472,-0.01715061948505475
3.476,-0.017149729984966514
3.48,-0.017153720715092108
3.484,-0.017153360106948227
3.488,-0.01715400920160721
3.492,-0.017152855255546797
3.496,-0.017153384147491155
3.5,-0.017153215863690677
3.504,-0.017152855255546797
3.508,-0.017152783133918024
3.512,-0.017156485377528514
3.516,-0.01715674982350069
3.52,-0.017156220931556335
3.524,-0.017156317093728037
3.528,-0.017157543161417224
3.532,-0.01715857690476301
3.536,-0.017160163580596077
3.54,-0.017156389215356813
3.544,-0.017153384147491155
3.548,-0.01715458617463742
3.552,-0.01715547567472565
3.556,-0.01715715851273042
3.56,-0.017156677701871913
3.564,-0.017157999931732806
3.568,-0.01715843266150546
3.572,-0.01715766336413185
3.576,-0.017155499715268578
3.58,-0.017160836715797986
3.584,-0.017159250039964918
3.588,-0.017155355472011025
3.592,-0.01715557183689735
3.596,-0.017153576471834558
3.6,-0.017153792836720885
3.604,-0.01715487466115252
3.608,-0.017155018904410072
3.612,-0.017152783133918024
3.616,-0.017152013836544414
3.62,-0.017151292620256657
3.624,-0.017152422525774143
3.628,-0.017153720715092108
3.632,-0.017157639323588925
3.636,-0.017157471039788447
3.64,-0.017152109998716115
3.644,-0.01715547567472565
3.648,-0.017159057715621515
3.652,-0.017157951850646953
3.656,-0.017155379512553953
3.66,-0.017153624552920407
3.664,-0.017155139107124698
3.668,-0.017156389215356813
3.672,-0.017155956485584156
3.676,-0.017157543161417224
3.68,-0.01715838458041961
3.684,-0.017156437296442662
3.688,-0.01715684598567239
3.692,-0.01715939428322247
3.696,-0.01715838458041961
3.7,-0.017155259309839323
3.704,-0.017149128971393382
3.708,-0.017147085525244736
3.712,-0.017150090593110394
3.716,-0.017148984728135832
3.72,-0.01714888856596413
3.724,-0.017149369376822637
3.728,-0.01714884048487828
3.732,-0.017149994430938693
3.736,-0.017148407755105625
3.74,-0.017146893200901334
3.744,-0.017147686538817868
3.748,-0.017147085525244736
3.7520000000000002,-0.017149225133565083
3.7560000000000002,-0.017148215430762222
3.7600000000000002,-0.017151052214827402
3.7640000000000002,-0.017152783133918024
3.7680000000000002,-0.01714989826876699
3.7720000000000002,-0.01714665279547208
3.7760000000000002,-0.017146989363073035
3.7800000000000002,-0.017148335633476848
3.7840000000000003,-0.017146628754929154
3.7880000000000003,-0.01714720572795936
3.7920000000000003,-0.017149369376822637
3.7960000000000003,-0.017146676836015007
3.8000000000000003,-0.017143719849235198
3.8040000000000003,-0.01714436894389418
3.8080000000000003,-0.017148239471305147
3.8120000000000003,-0.01714879240379243
3.8160000000000003,-0.017148960687592904
3.8200000000000003,-0.017150330998539645
3.8240000000000003,-0.017147494214474465
3.8280000000000003,-0.017144657430409282
3.8320000000000003,-0.017145522889954593
3.8360000000000003,-0.017148287552391
3.84,-0.017148455836191474
3.844,-0.017146220065699425
3.848,-0.017145619052126294
3.852,-0.017146292187328202
3.856,-0.0171460998629848
3.86,-0.017145498849411668
3.864,-0.01714436894389418
3.868,-0.017142565903174787
3.872,-0.01714432086280833
3.876,-0.017146051781898947
3.88,-0.01714920109302216
3.884,-0.017150883931026928
3.888,-0.017148143309133446
3.892,-0.017147301890131063
3.896,-0.017147301890131063
3.9,-0.017149128971393382
3.904,-0.017148167349676374
3.908,-0.017148071187504672
3.912,-0.01714775866044664
3.916,-0.017145258443982413
3.92,-0.017145378646697042
3.924,-0.017146292187328202
3.928,-0.017148600079449027
3.932,-0.017150330998539645
3.936,-0.017149128971393382
3.94,-0.017147229768502286
3.944,-0.01714696532253011
3.948,-0.01714742209284569
3.952,-0.017151244539170805
3.956,-0.01715025887691087
3.96,-0.017151244539170805
3.964,-0.01715025887691087
3.968,-0.017150691606683525
3.972,-0.01715025887691087
3.976,-0.01714989826876699
3.98,-0.01714792694424712
3.984,-0.017147950984790043
3.988,-0.01714737401175984
3.992,-0.017150186755282095
3.996,-0.01715213403925904
4.0,-0.017147494214474465
4.0040000000000004,-0.017148407755105625
4.008,-0.017151941714915638
4.0120000000000005,-0.017151412822971283
4.016,-0.017149369376822637
4.0200000000000005,-0.017147830782075418
4.024,-0.017147301890131063
4.0280000000000005,-0.017148143309133446
4.032,-0.017149633822794812
4.0360000000000005,-0.01715477849898082
4.04,-0.017148503917277326
4.0440000000000005,-0.01714747017393154
4.048,-0.017142373578831385
4.0520000000000005,-0.01714367176814935
4.056,-0.017148503917277326
4.0600000000000005,-0.017150499282340123
4.064,-0.017151148376999104
4.0680000000000005,-0.017148768363249505
4.072,-0.01714624410624235
4.0760000000000005,-0.017145402687239967
4.08,-0.01714929725519386
4.0840000000000005,-0.017151100295913255
4.088,-0.017147902903704194
4.0920000000000005,-0.017145474808868744
4.096,-0.017145907538641397
4.1,-0.01714934533627971
4.104,-0.017150186755282095
4.108,-0.017149874228224067
4.112,-0.017148816444335354
4.116,-0.017149994430938693
4.12,-0.017153336066405303
4.124,-0.017153937079978435
4.128,-0.017153937079978435
4.132,-0.017155523755811503
4.136,-0.01715436980975109
4.14,-0.017155379512553953
4.144,-0.01715619689101341
4.148,-0.01715158110677176
4.152,-0.017147686538817868
4.156,-0.017145114200724863
4.16,-0.0171440083357503
4.164,-0.017149008768678756
4.168,-0.017149177052479234
4.172,-0.017150427160711346
4.176,-0.017150523322883048
4.18,-0.017148455836191474
4.184,-0.017147950984790043
4.188,-0.017146724917100856
4.192,-0.017146941281987182
4.196,-0.01714802310641882
4.2,-0.01714737401175984
4.204,-0.017149729984966514
4.208,-0.01715098009319863
4.212,-0.017150379079625497
4.216,-0.017147566336103242
4.22,-0.017150427160711346
4.224,-0.017145498849411668
4.228,-0.01714492187638146
4.232,-0.017146027741356023
4.236,-0.017144128538464927
4.24,-0.017141604281457775
4.244,-0.017140834984084165
4.248,-0.01714468147095221
4.252,-0.017144128538464927
4.256,-0.01714436894389418
4.26,-0.01714477763312391
4.264,-0.01714573925484092
4.268,-0.017146051781898947
4.272,-0.01714578733592677
4.276,-0.01714492187638146
4.28,-0.01714432086280833
4.284,-0.017145570971040445
4.288,-0.01714316691674792
4.292,-0.017141820646344102
4.296,-0.017142061051773357
4.3,-0.01714275822751819
4.304,-0.017142926511318664
4.308,-0.017144657430409282
4.312,-0.01714415257900785
4.316,-0.01714528248452534
4.32,-0.017146821079272557
4.324,-0.01714578733592677
4.328,-0.01714766249827494
4.332,-0.017146532592757453
4.336,-0.017146989363073035
4.34,-0.01714569117375507
4.344,-0.017146051781898947
4.348,-0.017148768363249505
4.352,-0.01714797502533297
4.356,-0.017148335633476848
4.36,-0.017149778066052366
4.364,-0.017146292187328202
4.368,-0.017144993998010238
4.372,-0.01714528248452534
4.376,-0.01714660471438623
4.38,-0.017145859457555545
4.384,-0.01714477763312391
4.388,-0.01714376793032105
4.392,-0.017143960254664452
4.396,-0.0171440083357503
4.4,-0.017140233970511034
4.404,-0.017141556200371926
4.408,-0.017144296822265405
4.412,-0.017144489146608807
4.416,-0.017138983862278922
4.42,-0.017136531726900543
4.424,-0.017138262645991165
4.428,-0.017139512754223277
4.432,-0.017139080024450623
4.436,-0.017140354173225663
4.44,-0.01714045033539736
4.444,-0.01713920022716525
4.448,-0.017138334767619938
4.452,-0.017135065253782104
4.456,-0.0171370606188449
4.46,-0.01713980124073838
4.464,-0.01713554606464061
4.468,-0.017135161415953806
4.472,-0.017136675970158097
4.476,-0.017138358808162866
4.48,-0.017140642659740763
4.484,-0.01713975315965253
4.488,-0.01713852709196334
4.492,-0.01714213317340213
4.496,-0.017141435997657297
4.5,-0.017140137808339333
4.5040000000000004,-0.0171390559839077
4.508,-0.017141508119286074
4.5120000000000005,-0.017143479443805947
4.516,-0.017142613984260636
4.5200000000000005,-0.01714350348434887
4.524,-0.01713956083530913
4.5280000000000005,-0.017137036578301974
4.532,-0.017142950551861588
4.5360000000000005,-0.017145402687239967
4.54,-0.017142253376116755
4.5440000000000005,-0.017141556200371926
4.548,-0.01714316691674792
4.5520000000000005,-0.017145378646697042
4.556,-0.017143118835662066
4.5600000000000005,-0.017142373578831385
4.564,-0.017140594578654914
4.5680000000000005,-0.017138166483819463
4.572,-0.01713883961902137
4.5760000000000005,-0.01714335924109132
4.58,-0.017142878430232815
4.5840000000000005,-0.017138983862278922
4.588,-0.01714117155168512
4.5920000000000005,-0.017139608916394978
4.596,-0.017140089727253484
4.6000000000000005,-0.017139969524538858
4.604,-0.017141556200371926
4.6080000000000005,-0.01714477763312391
4.612,-0.017141604281457775
4.616,-0.01714258994371771
4.62,-0.017142253376116755
4.624,-0.017139969524538858
4.628,-0.017139464673137428
4.632,-0.017137397186445854
4.636,-0.017138719416306743
4.64,-0.017138238605448237
4.644,-0.017137493348617555
4.648,-0.017136748091786873
4.652,-0.017136940416130272
4.656,-0.01713761355133218
4.66,-0.017138767497392595
4.664,-0.0171395367947662
4.668,-0.017140690740826615
4.672,-0.01714066670028369
4.676,-0.017139584875852053
4.68,-0.017138070321647762
4.684,-0.017137493348617555
4.688,-0.017139128105536472
4.692,-0.017140378213768587
4.696,-0.017136627889072244
4.7,-0.017140282051596886
4.704,-0.01714189276797288
4.708,-0.01714509016018194
4.712,-0.017145042079096087
4.716,-0.01714451318715173
4.72,-0.017146436430585752
4.724,-0.017144657430409282
4.728,-0.01714263802480356
4.732,-0.017142421659917233
4.736,-0.01714208509231628
4.74,-0.017141363876028524
4.744,-0.017142854389689887
4.748,-0.01714275822751819
4.752,-0.01714239761937431
4.756,-0.017140546497569062
4.76,-0.017142421659917233
4.764,-0.017140762862455392
4.768,-0.01714004164616763
4.772,-0.017140233970511034
4.776,-0.01713883961902137
4.78,-0.017139777200195456
4.784,-0.017142181254487982
4.788,-0.017143118835662066
4.792,-0.017143335200548393
4.796,-0.017146051781898947
4.8,-0.017146027741356023
4.804,-0.01714405641683615
4.808,-0.01714081094354124
4.812,-0.017138719416306743
4.816,-0.017141964889601655
4.82,-0.01714386409249275
4.824,-0.01714121963277097
4.828,-0.017140354173225663
4.832,-0.01713920022716525
4.836,-0.017139104064993547
4.84,-0.017142517822088935
4.844,-0.017142950551861588
4.848,-0.017141964889601655
4.852,-0.017139128105536472
4.856,-0.017138238605448237
4.86,-0.017139993565081783
4.864,-0.01714121963277097
4.868,-0.017142565903174787
4.872,-0.01714112347059927
4.876,-0.017139128105536472
4.88,-0.01713843092979164
4.884,-0.017136531726900543
4.888,-0.017137805875675583
4.892,-0.017140233970511034
4.896,-0.017139584875852053
4.9,-0.01713710869993075
4.904,-0.017137950118933137
4.908,-0.017138863659564296
4.912,-0.017135618186269384
4.916,-0.017137228902645376
4.92,-0.01714011376779641
4.924,-0.017141147511142193
4.928,-0.017139681038023755
4.932,-0.017136820213415647
4.936,-0.01713939255150865
4.94,-0.017139681038023755
4.944,-0.01713720486210245
4.948,-0.01713956083530913
4.952,-0.01714107538951342
4.956,-0.017139416592051575
4.96,-0.01714131579494267
4.964,-0.01714189276797288
4.968,-0.01713888770010722
4.972,-0.017136483645814694
4.976,-0.017141435997657297
4.98,-0.01714275822751819
4.984,-0.017145258443982413
4.988,-0.01714528248452534
4.992,-0.017145162281810716
4.996,-0.017143840051949823
5.0,-0.01714097922734172
5.0040000000000004,-0.017139272348794025
5.008,-0.01714004164616763
5.0120000000000005,-0.017140282051596886
5.016,-0.01714263802480356
5.0200000000000005,-0.017144753592580983
5.024,-0.017143118835662066
5.0280000000000005,-0.017142205295030907
5.032,-0.01714016184888226
5.0360000000000005,-0.017142277416659683
5.04,-0.017143695808692273
5.0440000000000005,-0.017141796605801177
5.048,-0.017140834984084165
5.0520000000000005,-0.017143695808692273
5.056,-0.01714335924109132
5.0600000000000005,-0.017146051781898947
5.064,-0.017146676836015007
5.0680000000000005,-0.017147566336103242
5.072,-0.017146821079272557
5.0760000000000005,-0.017142349538288457
5.08,-0.017142205295030907
5.0840000000000005,-0.017144200660093704
5.088,-0.017142517822088935
5.0920000000000005,-0.017141435997657297
5.096,-0.01714213317340213
5.1000000000000005,-0.01714249378154601
5.104,-0.017142445700460158
5.1080000000000005,-0.017144561268237584
5.112,-0.017147181687416437
5.1160000000000005,-0.017146580673843306
5.12,-0.017145811376469696
5.124,-0.017147085525244736
5.128,-0.017143599646520572
5.132,-0.01714117155168512
5.136,-0.017142613984260636
5.14,-0.0171417244841724
5.144,-0.017137998200018986
5.148,-0.017138262645991165
5.152,-0.017143239038376692
5.156,-0.017142349538288457
5.16,-0.01714061861919784
5.164,-0.01714131579494267
5.168,-0.017144801673666835
5.172,-0.017145883498098473
5.176,-0.01714472955203806
5.18,-0.01714468147095221
5.184,-0.01714239761937431
5.188,-0.017143239038376692
5.192,-0.017141051348970492
5.196,-0.01714273418697526
5.2,-0.01714275822751819
5.204,-0.01713984932182423
5.208,-0.017138503051420416
5.212,-0.01714198893014458
5.216,-0.01714345540326302
5.22,-0.017144200660093704
5.224,-0.017146075822441875
5.228,-0.017145258443982413
5.232,-0.017145546930497517
5.236,-0.01714634026841405
5.24,-0.01714634026841405
5.244,-0.01714432086280833
5.248,-0.01714249378154601
5.252,-0.017141796605801177
5.256,-0.017142325497745532
5.26,-0.017145114200724863
5.264,-0.017146772998186708
5.268,-0.017149153011936306
5.272,-0.017149056849764605
5.276,-0.01714472955203806
5.28,-0.017143094795119142
5.284,-0.01714684511981548
5.288,-0.017145883498098473
5.292,-0.01714573925484092
5.296,-0.017143070754576217
5.3,-0.017141460038200225
5.304,-0.01714367176814935
5.308,-0.017146292187328202
5.312,-0.017146580673843306
5.316,-0.01714634026841405
5.32,-0.017144080457379078
5.324,-0.017142253376116755
5.328,-0.017140522457026137
5.332,-0.01714263802480356
5.336,-0.01714350348434887
5.34,-0.017145042079096087
5.344,-0.017145955619727246
5.348,-0.017145402687239967
5.352,-0.017144248741179553
5.356,-0.017142325497745532
5.36,-0.01714203701123043
5.364,-0.017144873795295612
5.368,-0.01714364772760642
5.372,-0.01714367176814935
5.376,-0.017144657430409282
5.38,-0.017146724917100856
5.384,-0.01714533056561119
5.388,-0.017146989363073035
5.392,-0.017148047146961744
5.396,-0.01715098009319863
5.4,-0.017149826147138215
5.404,-0.017149778066052366
5.408,-0.017151436863514207
5.412,-0.01714970594442359
5.416,-0.01714696532253011
5.42,-0.01714684511981548
5.424,-0.017145715214297995
5.428,-0.017147806741532493
5.432,-0.017148095228047597
5.436,-0.017149489579537262
5.44,-0.01715213403925904
5.444,-0.017152158079801964
5.448,-0.017152278282516593
5.452,-0.01715364859346333
5.456,-0.017151965755458562
5.46,-0.017152350404145367
5.464,-0.017154538093551566
5.468,-0.017152374444688295
5.472,-0.017149754025509438
5.476,-0.017148047146961744
5.48,-0.01714518632235364
5.484,-0.017144537227694656
5.488,-0.017146123903527724
5.492,-0.017145763295383847
5.496,-0.01714893664704998
5.5,-0.017149056849764605
5.5040000000000004,-0.01714766249827494
5.508,-0.017151508985142984
5.5120000000000005,-0.0171529514177185
5.516,-0.017150234836367944
5.5200000000000005,-0.017147446133388613
5.524,-0.017147902903704194
5.5280000000000005,-0.017146628754929154
5.532,-0.01714747017393154
5.5360000000000005,-0.01714686916035841
5.54,-0.01714778270098957
5.5440000000000005,-0.017147902903704194
5.548,-0.017147734619903716
5.5520000000000005,-0.01714727784958814
5.556,-0.01714734997121691
5.5600000000000005,-0.017148720282163653
5.564,-0.01714660471438623
5.5680000000000005,-0.017144296822265405
5.572,-0.017148864525421203
5.5760000000000005,-0.017149128971393382
5.58,-0.01714862411999195
5.5840000000000005,-0.017148648160534876
5.588,-0.01714634026841405
5.5920000000000005,-0.017145474808868744
5.596,-0.017144873795295612
5.6000000000000005,-0.01714542672778289
5.604,-0.017144104497922003
5.6080000000000005,-0.017148095228047597
5.612,-0.017149681903880665
5.6160000000000005,-0.017148984728135832
5.62,-0.01714869624162073
5.6240000000000006,-0.01714797502533297
5.628,-0.017145643092669218
5.632,-0.017145570971040445
5.636,-0.01714436894389418
5.64,-0.017147494214474465
5.644,-0.017147398052302764
5.648,-0.017146724917100856
5.652,-0.01714742209284569
5.656,-0.01714468147095221
5.66,-0.01714636430895698
5.664,-0.017149657863337737
5.668,-0.01714985018768114
5.672,-0.017149465538994334
5.676,-0.017148191390219298
5.68,-0.017151028174284478
5.684,-0.01714797502533297
5.688,-0.017146268146785278
5.692,-0.0171484798767344
5.696,-0.017149008768678756
5.7,-0.017149585741708964
5.704,-0.017150403120168422
5.708,-0.01715254272848877
5.712,-0.01715189363382979
5.716,-0.017150186755282095
5.72,-0.017149754025509438
5.724,-0.01715189363382979
5.728,-0.017153600512377482
5.732,-0.017152614850117546
5.736,-0.01714715764687351
5.74,-0.017148768363249505
5.744,-0.01715331202586238
5.748,-0.017149729984966514
5.752,-0.017147325930673987
5.756,-0.017152614850117546
5.76,-0.017152879296089725
5.764,-0.01715213403925904
5.768,-0.017150499282340123
5.772,-0.017150667566140598
5.776,-0.017149249174108008
5.78,-0.017152807174460948
5.784,-0.017155619917983204
5.788,-0.017156389215356813
5.792,-0.01715350435020578
5.796,-0.017155667999069053
5.8,-0.017155619917983204
5.804,-0.017155211228753475
5.808,-0.017152783133918024
5.812,-0.01715131666079958
5.816,-0.01715146090405713
5.82,-0.01715249464740292
5.824,-0.017150162714739167
5.828,-0.01714852795782025
5.832,-0.017150379079625497
5.836,-0.017149922309309916
5.84,-0.017150739687769374
5.844,-0.017153576471834558
5.848,-0.017151653228400534
5.852,-0.01715025887691087
5.856,-0.017151653228400534
5.86,-0.017151508985142984
5.864,-0.017151292620256657
5.868,-0.017150186755282095
5.872,-0.017149489579537262
5.876,-0.01715021079582502
5.88,-0.01715355243129163
5.884,-0.017152350404145367
5.888,-0.017152278282516593
5.892,-0.01715634113427096
5.896,-0.017153696674549183
5.9,-0.017151052214827402
5.904,-0.017151436863514207
5.908,-0.017148143309133446
5.912,-0.017146388349499903
5.916,-0.017146316227871126
5.92,-0.01714862411999195
5.924,-0.01714802310641882
5.928,-0.017144849754752684
5.932,-0.01714701340361596
5.936,-0.01714686916035841
5.94,-0.017144969957467313
5.944,-0.017146821079272557
5.948,-0.01714985018768114
5.952,-0.017146532592757453
5.956,-0.017146436430585752
5.96,-0.017146724917100856
5.964,-0.0171460037008131
5.968,-0.01714492187638146
5.972,-0.01714355156543472
5.976,-0.017145258443982413
5.98,-0.01714725380904521
5.984,-0.017143960254664452
5.988,-0.01714528248452534
5.992,-0.017147181687416437
5.996,-0.017146123903527724
6.0,-0.017147806741532493
6.0040000000000004,-0.017147325930673987
6.008,-0.017148816444335354
6.0120000000000005,-0.01715146090405713
6.016,-0.017152206160887817
6.0200000000000005,-0.017151100295913255
6.024,-0.017151653228400534
6.0280000000000005,-0.017150787768855227
6.032,-0.0171509560526557
6.0360000000000005,-0.01714737401175984
6.04,-0.017147133606330585
6.0440000000000005,-0.017145114200724863
6.048,-0.017146580673843306
6.0520000000000005,-0.017147902903704194
6.056,-0.01714766249827494
6.0600000000000005,-0.01714725380904521
6.064,-0.017144657430409282
6.0680000000000005,-0.017147806741532493
6.072,-0.017148143309133446
6.0760000000000005,-0.017149417457908486
6.08,-0.017151244539170805
6.0840000000000005,-0.017148239471305147
6.088,-0.01714441702498003
6.0920000000000005,-0.017147325930673987
6.096,-0.017145450768325816
6.1000000000000005,-0.017147854822618342
6.104,-0.017145498849411668
6.1080000000000005,-0.017144897835838536
6.112,-0.01714920109302216
6.1160000000000005,-0.01714742209284569
6.12,-0.01714734997121691
6.1240000000000006,-0.017149585741708964
6.128,-0.017146484511671604
6.132000000000001,-0.0171460998629848
6.136,-0.017147325930673987
6.140000000000001,-0.017148576038906103
6.144,-0.017145378646697042
6.148,-0.01714273418697526
6.152,-0.017141003267884643
6.156,-0.017141532159828998
6.16,-0.017147638457732015
6.164,-0.017149585741708964
6.168,-0.01714766249827494
6.172,-0.017148167349676374
6.176,-0.017147446133388613
6.18,-0.01715045120125427
6.184,-0.017149008768678756
6.188,-0.01714686916035841
6.192,-0.01714884048487828
6.196,-0.017149609782251888
6.2,-0.017146772998186708
6.204,-0.01714761441718909
6.208,-0.017147398052302764
6.212,-0.017145306525068266
6.216,-0.017146460471128677
6.22,-0.017146292187328202
6.224,-0.01714432086280833
6.228,-0.017144200660093704
6.232,-0.01714634026841405
6.236,-0.017146532592757453
6.24,-0.017147037444158884
6.244,-0.017145210362896564
6.248,-0.017143984295207377
6.252,-0.017142012970687504
6.256,-0.017141772565258253
6.26,-0.017142445700460158
6.264,-0.017143960254664452
6.268,-0.017141700443629476
6.272,-0.017143070754576217
6.276,-0.017142854389689887
6.28,-0.017143239038376692
6.284,-0.017143239038376692
6.288,-0.01714593157918432
6.292,-0.017148551998363175
6.296,-0.01714778270098957
6.3,-0.017147085525244736
6.304,-0.01714451318715173
6.308,-0.01714222933557383
6.312,-0.01714117155168512
6.316,-0.0171440083357503
6.32,-0.0171461960251565
6.324,-0.017143984295207377
6.328,-0.017143118835662066
6.332,-0.01714350348434887
6.336,-0.017143431362720094
6.34,-0.01714249378154601
6.344,-0.017138719416306743
6.348,-0.017140738821912464
6.352,-0.017145570971040445
6.356,-0.01714852795782025
6.36,-0.01714737401175984
6.364,-0.01714720572795936
6.368,-0.017147325930673987
6.372,-0.017148143309133446
6.376,-0.017148215430762222
6.38,-0.017145402687239967
6.384,-0.01714869624162073
6.388,-0.017151605147314685
6.392,-0.017150090593110394
6.396,-0.017146941281987182
6.4,-0.01714792694424712
6.404,-0.017152278282516593
6.408,-0.01714939341736556
6.412,-0.017147061484701808
6.416,-0.017145883498098473
6.42,-0.017145522889954593
6.424,-0.017147830782075418
6.428,-0.017145042079096087
6.432,-0.017143888133035676
6.436,-0.01714720572795936
6.44,-0.01714826351184807
6.444,-0.017149225133565083
6.448,-0.017149489579537262
6.452,-0.017151148376999104
6.456,-0.01715249464740292
6.46,-0.01715263889066047
6.464,-0.017154345769208164
6.468,-0.017154081323235988
6.472,-0.0171531437420619
6.476,-0.01715122049862788
6.48,-0.01714903280922168
6.484,-0.017150282917453796
6.488,-0.017148335633476848
6.492,-0.01714634026841405
6.496,-0.017148167349676374
6.5,-0.017149465538994334
6.5040000000000004,-0.017147950984790043
6.508,-0.017147446133388613
6.5120000000000005,-0.01714953766062311
6.516,-0.017151412822971283
6.5200000000000005,-0.01715405728269306
6.524,-0.017155716080154905
6.5280000000000005,-0.017155379512553953
6.532,-0.017153528390748705
6.5360000000000005,-0.01715355243129163
6.54,-0.017151845552743936
6.5440000000000005,-0.017153191823147753
6.548,-0.017152109998716115
6.5520000000000005,-0.017154994863867148
6.556,-0.017156220931556335
6.5600000000000005,-0.017151773431115163
6.564,-0.017151557066228833
6.5680000000000005,-0.01715213403925904
6.572,-0.017150835849941076
6.5760000000000005,-0.017149225133565083
6.58,-0.01714869624162073
6.5840000000000005,-0.017151004133741553
6.588,-0.017153239904233602
6.5920000000000005,-0.01715189363382979
6.596,-0.017152759093375096
6.6000000000000005,-0.017152254241973666
6.604,-0.017151508985142984
6.6080000000000005,-0.01715299949880435
6.612,-0.01715011463365332
6.6160000000000005,-0.017151292620256657
6.62,-0.017149778066052366
6.6240000000000006,-0.017150499282340123
6.628,-0.01715162918785761
6.632000000000001,-0.0171505714039689
6.636,-0.017146821079272557
6.640000000000001,-0.017148287552391
6.644,-0.017147950984790043
6.648000000000001,-0.01714903280922168
6.652,-0.017150787768855227
6.656000000000001,-0.01714862411999195
6.66,-0.01714761441718909
6.664,-0.017149249174108008
6.668,-0.017150835849941076
6.672,-0.017149729984966514
6.676,-0.017147133606330585
6.68,-0.017146724917100856
6.684,-0.017146917241444258
6.688,-0.017144897835838536
6.692,-0.017145114200724863
6.696,-0.017143623687063497
6.7,-0.017140786902998317
6.704,-0.017141051348970492
6.708,-0.01714636430895698
6.712,-0.01714650855221453
6.716,-0.017146123903527724
6.72,-0.017149080890307533
6.724,-0.017147061484701808
6.728,-0.017148576038906103
6.732,-0.017148503917277326
6.736,-0.01714792694424712
6.74,-0.017148816444335354
6.744,-0.01715158110677176
6.748,-0.017149249174108008
6.752,-0.017146941281987182
6.756,-0.017146123903527724
6.76,-0.017145378646697042
6.764,-0.017149465538994334
6.768,-0.017151773431115163
6.772,-0.01715506698549592
6.776,-0.01715600456667001
6.78,-0.017152061917630263
6.784,-0.017150835849941076
6.788,-0.017151773431115163
6.792,-0.017149369376822637
6.796,-0.01714944149845141
6.8,-0.017147325930673987
6.804,-0.017150427160711346
6.808,-0.01715153302568591
6.812,-0.017151028174284478
6.816,-0.017151557066228833
6.82,-0.017155499715268578
6.824,-0.01715350435020578
6.828,-0.01715405728269306
6.832,-0.017153215863690677
6.836,-0.01715122049862788
6.84,-0.017151412822971283
6.844,-0.017148864525421203
6.848,-0.017149225133565083
6.852,-0.017147638457732015
6.856,-0.01714761441718909
6.86,-0.017150739687769374
6.864,-0.017152446566317068
6.868,-0.01715098009319863
6.872,-0.017149104930850458
6.876,-0.01714792694424712
6.88,-0.01715172535002931
6.884,-0.01715273505283217
6.888,-0.01715569203961198
6.892,-0.017155932445041232
6.896,-0.017154490012465717
6.9,-0.017154201525950614
6.904,-0.01715506698549592
6.908,-0.017155547796354427
6.912,-0.017157086391101646
6.916,-0.017160331864396555
6.92,-0.017160596310368734
6.924,-0.01716203874294425
6.928,-0.01716126944557064
6.932,-0.017161798337514998
6.936,-0.017160067418424376
6.94,-0.017159370242679543
6.944,-0.017156365174813885
6.948,-0.01715477849898082
6.952,-0.01715547567472565
6.956,-0.01715610072884171
6.96,-0.017159322161593694
6.964,-0.017154393850294016
6.968,-0.017156990228929945
6.972,-0.017161918540229623
6.976,-0.017161149242856014
6.98,-0.01715917791833614
6.984,-0.017159057715621515
6.988,-0.017155259309839323
6.992,-0.017156797904586542
6.996,-0.017155619917983204
7.0,-0.017157879729018177
7.0040000000000004,-0.01715939428322247
7.008,-0.017158048012818655
7.0120000000000005,-0.017156918107301168
7.016,-0.017156389215356813
7.0200000000000005,-0.017157398918159674
7.024,-0.01716163005371452
7.0280000000000005,-0.017156990228929945
7.032,-0.01715701426947287
7.0360000000000005,-0.01716045206711118
7.04,-0.017158961553449814
7.0440000000000005,-0.01715715851273042
7.048,-0.01715867306693471
7.0520000000000005,-0.017160884796883834
7.056,-0.01716492360809528
7.0600000000000005,-0.017167183419130254
7.064,-0.017164106229635823
7.0680000000000005,-0.017162832080860783
7.072,-0.017162158945658874
7.0760000000000005,-0.017162327229459352
7.08,-0.017164490878322624
7.0840000000000005,-0.017162207026744727
7.088,-0.01716172621588622
7.0920000000000005,-0.017161846418600846
7.096,-0.017161822378057922
7.1000000000000005,-0.01716163005371452
7.104,-0.017162759959232006
7.1080000000000005,-0.017165644824383038
7.112,-0.017163385013348062
7.1160000000000005,-0.017164082189092895
7.12,-0.017164683202666026
7.1240000000000006,-0.017164779364837728
7.128,-0.01716300036466126
7.132000000000001,-0.017161918540229623
7.136,-0.017160500148197033
7.140000000000001,-0.0171597068102805
7.144,-0.017160788634712137
7.148000000000001,-0.017160067418424376
7.152,-0.017159875094080974
7.156000000000001,-0.017160476107654105
7.16,-0.017159225999421993
7.164000000000001,-0.01716035590493948
7.168,-0.01715826437770498
7.172,-0.017157903769561104
7.176,-0.017158504783134236
7.18,-0.017161197323941866
7.184,-0.01716300036466126
7.188,-0.017162255107830576
7.192,-0.01716355329714854
7.196,-0.01716415431072167
7.2,-0.01716086075634091
7.204,-0.01716487552700943
7.208,-0.017166558365014198
7.212,-0.017162327229459352
7.216,-0.017162832080860783
7.22,-0.017160908837426762
7.224,-0.017162711878146157
7.228,-0.01716432259452215
7.232,-0.017165452500039636
7.236,-0.01716574098655474
7.24,-0.01716263975651738
7.244,-0.017163024405204185
7.248,-0.017163841783663644
7.252,-0.01716273591868908
7.256,-0.017161798337514998
7.26,-0.017163793702577795
7.264,-0.017164947648638205
7.268,-0.01716715937858733
7.272,-0.017166077554155692
7.276,-0.017167471905645357
7.28,-0.01716917878419305
7.284,-0.017169419189622306
7.288,-0.017168962419306724
7.292,-0.01716816908139019
7.296,-0.017168385446276517
7.3,-0.017170981824912446
7.304,-0.01716756806781706
7.308,-0.017166967054243927
7.312,-0.017165668864925963
7.316,-0.017164755324294803
7.32,-0.017165019770266982
7.324,-0.017166366040670795
7.328,-0.017164250472893373
7.332,-0.017160091458967304
7.336,-0.017159322161593694
7.34,-0.017163433094433914
7.344,-0.01716482744592358
7.348,-0.01716432259452215
7.352,-0.017162832080860783
7.356,-0.017163072486290034
7.36,-0.01716364945932024
7.364,-0.017163360972805138
7.368,-0.0171623753105452
7.372,-0.017162327229459352
7.376,-0.017164947648638205
7.38,-0.01716533229732501
7.384,-0.01716422643235045
7.388,-0.017168193121933115
7.392,-0.01716857777061992
7.396,-0.017168697973334545
7.4,-0.017168409486819445
7.404,-0.01716542845949671
7.408,-0.01716533229732501
7.412,-0.01716776039216046
7.416,-0.017170933743826597
7.42,-0.01716980383830911
7.424,-0.01716826524356189
7.428,-0.017168866257135023
7.432,-0.017168000797589716
7.436,-0.01716867393279162
7.44,-0.017169154743650127
7.444,-0.01716792867596094
7.448,-0.017170236568081764
7.452,-0.017170380811339314
7.456,-0.017166366040670795
7.46,-0.017164587040494325
7.464,-0.01716802483813264
7.468,-0.017167688270531684
7.472,-0.01716949131125108
7.476,-0.017168962419306724
7.48,-0.01716473128375188
7.484,-0.017166678567728823
7.488,-0.017167471905645357
7.492,-0.017170164446452987
7.496,-0.017170164446452987
7.5,-0.017167976757046788
7.5040000000000004,-0.017166077554155692
7.508,-0.017169779797766183
7.5120000000000005,-0.017169563432879856
7.516,-0.01716756806781706
7.5200000000000005,-0.0171666545271859
7.524,-0.017167087256958553
7.5280000000000005,-0.017165644824383038
7.532,-0.01716331289171929
7.5360000000000005,-0.01716268783760323
7.54,-0.01716391390529242
7.5440000000000005,-0.017165115932438683
7.548,-0.017163673499863166
7.5520000000000005,-0.017164274513436297
7.556,-0.017166558365014198
7.5600000000000005,-0.01716701513532978
7.564,-0.017167712311074612
7.5680000000000005,-0.01716624583795617
7.572,-0.017164250472893373
7.5760000000000005,-0.017163336932262213
7.58,-0.01716624583795617
7.5840000000000005,-0.01716689493261515
7.588,-0.017168722013877473
7.5920000000000005,-0.0171688422165921
7.596,-0.01717004424373836
7.6000000000000005,-0.01717153475739973
7.604,-0.017166534324471273
7.6080000000000005,-0.017166366040670795
7.612,-0.01716583714872644
7.6160000000000005,-0.017164130270178747
7.62,-0.01716598139198399
7.6240000000000006,-0.017168601811162847
7.628,-0.017168722013877473
7.632000000000001,-0.01716766422998876
7.636,-0.017166366040670795
7.640000000000001,-0.0171644668377797
7.644,-0.01716629391904202
7.648000000000001,-0.01716432259452215
7.652,-0.017160980959055536
7.656000000000001,-0.01716203874294425
7.66,-0.017165404418953787
7.664000000000001,-0.017167399784016584
7.668,-0.01716761614890291
7.672000000000001,-0.017168337365190668
7.676,-0.0171688422165921
7.68,-0.01717177516282898
7.684,-0.01717086162219782
7.688,-0.017171751122286055
7.692,-0.017171654960114354
7.696,-0.01717163091957143
7.7,-0.01716776039216046
7.704,-0.01716487552700943
7.708,-0.017167495946188282
7.712,-0.01717021252753884
7.716,-0.017171438595228027
7.72,-0.017173337798119123
7.724,-0.017170645257311493
7.728,-0.01716670260827175
7.732,-0.017166462202842497
7.736,-0.017166918973158078
7.74,-0.01716300036466126
7.744,-0.01716071651308336
7.748,-0.0171622791483735
7.752,-0.017162207026744727
7.756,-0.017163216729547588
7.76,-0.017162928243032484
7.764,-0.01716396198637827
7.768,-0.017166630486642975
7.772,-0.0171666545271859
7.776,-0.017166558365014198
7.78,-0.01716651028392835
7.784,-0.017166870892072226
7.788,-0.017167976757046788
7.792,-0.01716340905389099
7.796,-0.017160428026568256
7.8,-0.017162928243032484
7.804,-0.017161606013171595
7.808,-0.01716131752665649
7.812,-0.01716172621588622
7.816,-0.017160668431997508
7.82,-0.01716126944557064
7.824,-0.01716314460791881
7.828,-0.017164851486466504
7.832,-0.0171645629999514
7.836,-0.017161437729371117
7.84,-0.017164995729724058
7.844,-0.017168000797589716
7.848,-0.017166822810986377
7.852,-0.017166269878499094
7.856,-0.01716600543252692
7.86,-0.01716328885117636
7.864,-0.01716340905389099
7.868,-0.017162351270002277
7.872,-0.017163841783663644
7.876,-0.01716249551325983
7.88,-0.01715944236430832
7.884,-0.017159923175166826
7.888,-0.017163673499863166
7.892,-0.017162976324118333
7.896,-0.017162110864573026
7.9,-0.01716391390529242
7.904,-0.017163481175519763
7.908,-0.017165356337867935
7.912,-0.01716391390529242
7.916,-0.017164034108007046
7.92,-0.01716259167543153
7.924,-0.0171619906618584
7.928,-0.017162471472716902
7.932,-0.017161581972628667
7.936,-0.017162711878146157
7.94,-0.017162928243032484
7.944,-0.01716401006746412
7.948,-0.017165813108183516
7.952,-0.017163240770090512
7.956,-0.017162519553802755
7.96,-0.017162928243032484
7.964,-0.01716290420248956
7.968,-0.017161606013171595
7.972,-0.017163216729547588
7.976,-0.0171619906618584
7.98,-0.01716254359434568
7.984,-0.017163168648461735
7.988,-0.017160908837426762
7.992,-0.01716223106728765
7.996,-0.017161149242856014
8.0,-0.01716172621588622
8.004,-0.017163529256605616
8.008000000000001,-0.017162423391631054
8.012,-0.017158360539876683
8.016,-0.017158240337162057
8.02,-0.017158961553449814
8.024000000000001,-0.01715994721570975
8.028,-0.01715903367507859
8.032,-0.01716136560774234
8.036,-0.01716112520231309
8.040000000000001,-0.01715968276973757
8.044,-0.017158721148020563
8.048,-0.017161846418600846
8.052,-0.01716259167543153
8.056000000000001,-0.017161197323941866
8.06,-0.01715838458041961
8.064,-0.017157398918159674
8.068,-0.017161197323941866
8.072000000000001,-0.017161798337514998
8.076,-0.017161918540229623
8.08,-0.01716792867596094
8.084,-0.017167207459673182
8.088000000000001,-0.01716578906764059
8.092,-0.017165692905468887
8.096,-0.017164394716150926
8.1,-0.01716432259452215
8.104000000000001,-0.017163168648461735
8.108,-0.017165404418953787
8.112,-0.017161606013171595
8.116,-0.017157999931732806
8.120000000000001,-0.017157975891189878
8.124,-0.01716004337788145
8.128,-0.017164490878322624
8.132,-0.017166774729900525
8.136000000000001,-0.0171666545271859
8.14,-0.0171666545271859
8.144,-0.017164130270178747
8.148,-0.017166798770443453
8.152000000000001,-0.01716610159469862
8.156,-0.017165909270355217
8.16,-0.017168217162476043
8.164,-0.017167231500216106
8.168000000000001,-0.017167207459673182
8.172,-0.017166558365014198
8.176,-0.017170284649167613
8.18,-0.017166077554155692
8.184000000000001,-0.01716559674329719
8.188,-0.01716742382455951
8.192,-0.01716610159469862
8.196,-0.017163673499863166
8.2,-0.017166125635241544
8.204,-0.01716648624338542
8.208,-0.017165164013524532
8.212,-0.01716432259452215
8.216,-0.017166269878499094
8.22,-0.01716715937858733
8.224,-0.017168481608448218
8.228,-0.017168481608448218
8.232,-0.0171689383787638
8.236,-0.017168481608448218
8.24,-0.01716725554075903
8.244,-0.017167640189445835
8.248,-0.017168601811162847
8.252,-0.017167447865102433
8.256,-0.017165188054067457
8.26,-0.01716588522981229
8.264,-0.017166774729900525
8.268,-0.01717095778436952
8.272,-0.017168770094963322
8.276,-0.017168962419306724
8.28,-0.017168289284104816
8.284,-0.017169659595051557
8.288,-0.017164202391807524
8.292,-0.017164490878322624
8.296,-0.017167207459673182
8.3,-0.01716651028392835
8.304,-0.01716816908139019
8.308,-0.017168145040847266
8.312,-0.01716497168918113
8.316,-0.017163072486290034
8.32,-0.01716259167543153
8.324,-0.01716071651308336
8.328,-0.017160067418424376
8.332,-0.01716146176991404
8.336,-0.017165957351441066
8.34,-0.017168000797589716
8.344,-0.017167303621844883
8.348,-0.01716574098655474
8.352,-0.01716639008121372
8.356,-0.017161197323941866
8.36,-0.017160908837426762
8.364,-0.017162711878146157
8.368,-0.01716415431072167
8.372,-0.017166125635241544
8.376,-0.017164851486466504
8.38,-0.017163360972805138
8.384,-0.01716542845949671
8.388,-0.017164514918865552
8.392,-0.017163769662034867
8.396,-0.017164130270178747
8.4,-0.017163240770090512
8.404,-0.01716487552700943
8.408,-0.017165308256782086
8.412,-0.017164082189092895
8.416,-0.017165933310898142
8.42,-0.017167447865102433
8.424,-0.017167399784016584
8.428,-0.01716792867596094
8.432,-0.01716852968953407
8.436,-0.017166558365014198
8.44,-0.017165091891895756
8.444,-0.017163577337691464
8.448,-0.017165957351441066
8.452,-0.01716689493261515
8.456,-0.017166967054243927
8.46,-0.017163841783663644
8.464,-0.017162759959232006
8.468,-0.017162062783487173
8.472,-0.017165861189269365
8.476,-0.017164082189092895
8.48,-0.017165404418953787
8.484,-0.01716619775687032
8.488,-0.01716482744592358
8.492,-0.017164130270178747
8.496,-0.01716701513532978
8.5,-0.017165716946011815
8.504,-0.017163529256605616
8.508000000000001,-0.01716331289171929
8.512,-0.017165644824383038
8.516,-0.017168048878675565
8.52,-0.017165692905468887
8.524000000000001,-0.017163240770090512
8.528,-0.017162567634888604
8.532,-0.017160283783310703
8.536,-0.01715888943182104
8.540000000000001,-0.017162832080860783
8.544,-0.017162351270002277
8.548,-0.01716538037841086
8.552,-0.017162255107830576
8.556000000000001,-0.01715994721570975
8.56,-0.017161750256429145
8.564,-0.017162711878146157
8.568,-0.017165308256782086
8.572000000000001,-0.017161581972628667
8.576,-0.01716172621588622
8.58,-0.017161245405027715
8.584,-0.017163625418777317
8.588000000000001,-0.017164659162123102
8.592,-0.017164635121580177
8.596,-0.017162110864573026
8.6,-0.01716223106728765
8.604000000000001,-0.017161846418600846
8.608,-0.01716131752665649
8.612,-0.017162567634888604
8.616,-0.017166077554155692
8.620000000000001,-0.017163433094433914
8.624,-0.01716328885117636
8.628,-0.01716391390529242
8.632,-0.017162832080860783
8.636000000000001,-0.017161485810456966
8.64,-0.017160596310368734
8.644,-0.017160644391454583
8.648,-0.017157086391101646
8.652000000000001,-0.017157639323588925
8.656,-0.017158456702048384
8.66,-0.017157446999245523
8.664,-0.017159778931909273
8.668000000000001,-0.017163072486290034
8.672,-0.017161942580772548
8.676,-0.01715843266150546
8.68,-0.017158192256076208
8.684000000000001,-0.01715838458041961
8.688,-0.01715674982350069
8.692,-0.01715903367507859
8.696,-0.017159827012995125
8.700000000000001,-0.017159514485937097
8.704,-0.01716249551325983
8.708,-0.017166438162299572
8.712,-0.01716557270275426
8.716,-0.01716776039216046
8.72,-0.017171823243914832
8.724,-0.017170981824912446
8.728,-0.017169010500392577
8.732,-0.017163433094433914
8.736,-0.017160187621139005
8.74,-0.017162207026744727
8.744,-0.017163481175519763
8.748,-0.017165212094610385
8.752,-0.01716629391904202
8.756,-0.01716401006746412
8.76,-0.017162567634888604
8.764,-0.017162832080860783
8.768,-0.017164851486466504
8.772,-0.017162086824030098
8.776,-0.017163577337691464
8.78,-0.017163120567375886
8.784,-0.017161846418600846
8.788,-0.01716350521606269
8.792,-0.01716624583795617
8.796,-0.017163986026921194
8.8,-0.01716588522981229
8.804,-0.017168241203018967
8.808,-0.017163793702577795
8.812,-0.017162976324118333
8.816,-0.017165164013524532
8.82,-0.017165260175696233
8.824,-0.017164635121580177
8.828,-0.017164851486466504
8.832,-0.017165404418953787
8.836,-0.01716300036466126
8.84,-0.017163168648461735
8.844,-0.01716259167543153
8.848,-0.017162158945658874
8.852,-0.017164034108007046
8.856,-0.01716391390529242
8.86,-0.017165091891895756
8.864,-0.017166678567728823
8.868,-0.0171689383787638
8.872,-0.01716766422998876
8.876,-0.017164995729724058
8.88,-0.017165115932438683
8.884,-0.017168385446276517
8.888,-0.017168866257135023
8.892,-0.017169323027450605
8.896,-0.017168794135506246
8.9,-0.017170645257311493
8.904,-0.017169010500392577
8.908,-0.01716776039216046
8.912,-0.01716761614890291
8.916,-0.017168601811162847
8.92,-0.017170140405910063
8.924,-0.017169323027450605
8.928,-0.017170140405910063
8.932,-0.017167856554332162
8.936,-0.017169659595051557
8.94,-0.01717172708174313
8.944,-0.017176102460555526
8.948,-0.017175862055126275
8.952,-0.017173361838662048
8.956,-0.017174251338750283
8.96,-0.017174179217121506
8.964,-0.017172063649344083
8.968,-0.017172448298030888
8.972,-0.017172448298030888
8.976,-0.017172905068346466
8.98,-0.017172856987260617
8.984,-0.01717187132500068
8.988,-0.01717309739268987
8.992,-0.01717177516282898
8.996,-0.01717218385205871
9.0,-0.017171582838485577
9.004,-0.017171751122286055
9.008000000000001,-0.01717153475739973
9.012,-0.01717172708174313
9.016,-0.01717112606817
9.02,-0.017172207892601637
9.024000000000001,-0.017170933743826597
9.028,-0.017170332730253465
9.032,-0.017170741419483194
9.036,-0.017169058581478425
9.040000000000001,-0.017167736351617537
9.044,-0.017167712311074612
9.048,-0.017168818176049174
9.052,-0.017171198189798773
9.056000000000001,-0.01717062121676857
9.06,-0.017172905068346466
9.064,-0.017175261041553144
9.068,-0.017172712744003067
9.072000000000001,-0.017171029905998298
9.076,-0.017171510716856804
9.08,-0.017170789500569043
9.084,-0.017171895365543605
9.088000000000001,-0.017174635987437088
9.092,-0.0171734099197479
9.096,-0.017172929108889394
9.1,-0.01717328971703327
9.104000000000001,-0.01717213577097286
9.108,-0.017169635554508633
9.112,-0.017170380811339314
9.116,-0.017172905068346466
9.120000000000001,-0.017173866690063478
9.124,-0.017174804271237562
9.128,-0.017175621649697024
9.132,-0.01717689579847206
9.136000000000001,-0.01717538124426777
9.14,-0.017174179217121506
9.144,-0.017171895365543605
9.148,-0.017173530122462526
9.152000000000001,-0.017174804271237562
9.156,-0.017174996595580964
9.16,-0.017176102460555526
9.164,-0.01717437154146491
9.168000000000001,-0.017175140838838518
9.172,-0.017173890730606402
9.176,-0.017171654960114354
9.18,-0.017172304054773335
9.184000000000001,-0.01717422729820736
9.188,-0.01717542932535362
9.192,-0.017176270744356004
9.196,-0.01717665539304281
9.200000000000001,-0.017173578203548374
9.204,-0.017174635987437088
9.208,-0.017177112163358387
9.212,-0.017175285082096068
9.216000000000001,-0.017173385879204972
9.22,-0.017174900433409263
9.224,-0.01717420325766443
9.228,-0.017172496379116737
9.232,-0.017173890730606402
9.236,-0.0171737945684347
9.24,-0.01717441962255076
9.244,-0.017174660027980012
9.248,-0.017172977189975243
9.252,-0.017173073352146944
9.256,-0.017172304054773335
9.26,-0.01717278486563184
9.264,-0.017174756190151713
9.268,-0.01717523700101022
9.272,-0.017175453365896546
9.276,-0.01717482831178049
9.28,-0.017175044676666817
9.284,-0.017171967487172382
9.288,-0.01717004424373836
9.292,-0.01716766422998876
9.296,-0.017168649892248696
9.3,-0.01717177516282898
9.304,-0.01717081354111197
9.308,-0.01717062121676857
9.312,-0.017173722446805928
9.316,-0.01717792954181785
9.32,-0.0171758860956692
9.324,-0.017173337798119123
9.328,-0.017171246270884625
9.332,-0.01716985191939496
9.336,-0.01717059717622564
9.34,-0.017170645257311493
9.344,-0.017170837581654896
9.348,-0.017166918973158078
9.352,-0.017166173716327393
9.356,-0.01716711129750148
9.36,-0.017168000797589716
9.364,-0.017167327662387807
9.368,-0.01716557270275426
9.372,-0.017170284649167613
9.376,-0.017172087689887008
9.38,-0.0171713183925134
9.384,-0.017167712311074612
9.388,-0.017166534324471273
9.392,-0.017166822810986377
9.396,-0.017165644824383038
9.4,-0.017167039175872704
9.404,-0.017168722013877473
9.408,-0.01716944323016523
9.412,-0.017170140405910063
9.416,-0.01716807291921849
9.42,-0.017169467270708155
9.424,-0.017165668864925963
9.428,-0.017163937945835345
9.432,-0.017164202391807524
9.436,-0.017162711878146157
9.44,-0.017162759959232006
9.444,-0.017164394716150926
9.448,-0.017165115932438683
9.452,-0.0171667506893576
9.456,-0.01716689493261515
9.46,-0.017168481608448218
9.464,-0.017170140405910063
9.468,-0.01716917878419305
9.472,-0.017169323027450605
9.476,-0.017172063649344083
9.48,-0.017172977189975243
9.484,-0.017169900000480808
9.488,-0.017168385446276517
9.492,-0.017170693338397342
9.496,-0.017168890297677947
9.5,-0.017169827878852035
9.504,-0.017170140405910063
9.508000000000001,-0.0171690345409355
9.512,-0.017167808473246313
9.516,-0.01716715937858733
9.52,-0.017168818176049174
9.524000000000001,-0.017166053513612767
9.528,-0.01716852968953407
9.532,-0.01717237617640211
9.536,-0.01717172708174313
9.540000000000001,-0.017171053946541222
9.544,-0.01716944323016523
9.548,-0.017168890297677947
9.552,-0.017168625851705772
9.556000000000001,-0.017169755757223258
9.56,-0.017169900000480808
9.564,-0.017171053946541222
9.568,-0.01717004424373836
9.572000000000001,-0.017171053946541222
9.576,-0.017169659595051557
9.58,-0.017170020203195437
9.584,-0.017168409486819445
9.588000000000001,-0.017168289284104816
9.592,-0.01717295314943232
9.596,-0.017171895365543605
9.6,-0.017169371108536453
9.604000000000001,-0.01717223193314456
9.608,-0.017175813974040426
9.612,-0.017174083054949805
9.616,-0.01717110202762707
9.620000000000001,-0.017172832946717693
9.624,-0.0171712222303417
9.628,-0.017169515351794007
9.632,-0.01717021252753884
9.636000000000001,-0.017170428892425166
9.64,-0.01717172708174313
9.644,-0.017174539825265386
9.648,-0.017173337798119123
9.652000000000001,-0.017172856987260617
9.656,-0.017168649892248696
9.66,-0.01717062121676857
9.664,-0.017170140405910063
9.668000000000001,-0.01717045293296809
9.672,-0.017169274946364752
9.676,-0.017168289284104816
9.68,-0.01716766422998876
9.684000000000001,-0.017168962419306724
9.688,-0.017168722013877473
9.692,-0.017167351702930732
9.696,-0.017167063216415628
9.700000000000001,-0.017169827878852035
9.704,-0.01716934706799353
9.708,-0.017169635554508633
9.712,-0.017173361838662048
9.716000000000001,-0.01717146263577095
9.72,-0.017167736351617537
9.724,-0.017166678567728823
9.728,-0.01716280804031786
9.732,-0.017164442797236775
9.736,-0.017166534324471273
9.74,-0.017169731716680334
9.744,-0.017171342433056326
9.748,-0.017169924041023736
9.752,-0.017170020203195437
9.756,-0.01716761614890291
9.76,-0.01716917878419305
9.764,-0.017171005865455374
9.768,-0.01717030868971054
9.772,-0.01717021252753884
9.776,-0.017174611946894163
9.78,-0.017174684068522936
9.784,-0.01717482831178049
9.788,-0.017174179217121506
9.792,-0.01717177516282898
9.796,-0.0171734099197479
9.8,-0.017173986892778104
9.804,-0.01717506871720974
9.808,-0.017175693771325797
9.812,-0.017176703474128658
9.816,-0.01717884308244901
9.82,-0.017177496812045192
9.824,-0.01717542932535362
9.828,-0.017176511149785256
9.832,-0.01717237617640211
9.836,-0.017172063649344083
9.84,-0.017172856987260617
9.844,-0.017174083054949805
9.848,-0.01717415517657858
9.852,-0.0171734099197479
9.856,-0.01717268870346014
9.86,-0.01717086162219782
9.864,-0.017171414554685103
9.868,-0.01717136647359925
9.872,-0.017171943446629458
9.876,-0.017173265676490346
9.88,-0.017171174149255848
9.884,-0.017170741419483194
9.888,-0.017172255973687486
9.892,-0.017171342433056326
9.896,-0.017170188486995912
9.9,-0.017169130703107202
9.904,-0.017170885662740745
9.908,-0.017165957351441066
9.912,-0.01716843352736237
9.916,-0.01717050101405394
9.92,-0.017171847284457756
9.924,-0.017168818176049174
9.928,-0.017168770094963322
9.932,-0.017170020203195437
9.936,-0.01716898645984965
9.94,-0.017168914338220875
9.944,-0.017167904635418015
9.948,-0.017168217162476043
9.952,-0.017167135338044405
9.956,-0.017167712311074612
9.96,-0.01717218385205871
9.964,-0.017172496379116737
9.968,-0.01717304931160402
9.972,-0.017174539825265386
9.976,-0.017174587906351235
9.98,-0.017171005865455374
9.984,-0.01716920282473598
9.988,-0.017169274946364752
9.992,-0.017169058581478425
9.996,-0.017171943446629458
10.0,-0.01717542932535362
10.004,-0.01717523700101022
10.008000000000001,-0.017175405284810694
10.012,-0.01717278486563184
10.016,-0.017172832946717693
10.02,-0.01717446770363661
10.024000000000001,-0.01717365032517715
10.028,-0.01717533316318192
10.032,-0.01717615054164138
10.036,-0.017175501446982395
10.040000000000001,-0.01717583801458335
10.044,-0.01717314547377572
10.048,-0.017173890730606402
10.052,-0.017178242068875877
10.056000000000001,-0.01717985278525187
10.06,-0.017178650758105606
10.064,-0.01717446770363661
10.068,-0.017175092757752666
10.072000000000001,-0.017177232366073016
10.076,-0.017175092757752666
10.08,-0.01717309739268987
10.084,-0.01717401093332103
10.088000000000001,-0.017175910136212124
10.092,-0.01717898732570656
10.096,-0.017177833379646148
10.1,-0.017176414987613558
10.104000000000001,-0.017176583271414032
10.108,-0.01717473214960879
10.112,-0.017173217595404498
10.116,-0.017174900433409263
10.120000000000001,-0.017176583271414032
10.124,-0.01717639094707063
10.128,-0.017172255973687486
10.132,-0.01717365032517715
10.136000000000001,-0.017172856987260617
10.14,-0.01716968363559448
10.144,-0.017171847284457756
10.148,-0.01717410709549273
10.152000000000001,-0.0171757899334975
10.156,-0.01717615054164138
10.16,-0.01717730448770179
10.164,-0.01717802570398955
10.168000000000001,-0.017175958217297976
10.172,-0.01717648710924233
10.176,-0.017178867122991933
10.18,-0.017178698839191455
10.184000000000001,-0.017175453365896546
10.188,-0.017176270744356004
10.192,-0.017177833379646148
10.196,-0.017177857420189072
10.200000000000001,-0.017179756623080168
10.204,-0.017180549960996702
10.208,-0.01717639094707063
10.212,-0.017173337798119123
10.216000000000001,-0.01717497255503804
10.22,-0.01717675155521451
10.224,-0.01717776125801737
10.228,-0.01717689579847206
10.232000000000001,-0.017178386312133427
10.236,-0.01717853055539098
10.24,-0.017175309122638992
10.244,-0.017175549528068247
10.248,-0.01717740064987349
10.252,-0.017175261041553144
10.256,-0.017174611946894163
10.26,-0.017178554595933905
10.264,-0.01717470810906586
10.268,-0.017175958217297976
10.272,-0.017179468136565065
10.276,-0.017179756623080168
10.28,-0.0171781699472471
10.284,-0.017178795001363156
10.288,-0.01717766509584567
10.292,-0.017178915204077782
10.296,-0.017179155609507037
10.3,-0.017177232366073016
10.304,-0.017176054379469678
10.308,-0.017174660027980012
10.312,-0.017176559230871108
10.316,-0.017175261041553144
10.32,-0.01717487639286634
10.324,-0.017175934176755052
10.328,-0.017176583271414032
10.332,-0.017174131136035657
10.336,-0.017175910136212124
10.34,-0.01717538124426777
10.344,-0.017178650758105606
10.348,-0.01718076632588303
10.352,-0.017182881893660452
10.356,-0.01718163178542834
10.36,-0.017183362704518958
10.364,-0.017182497244973647
10.368,-0.017178338231047578
10.372,-0.017177953582360773
10.376,-0.017178218028332953
10.38,-0.01717756893367397
10.384,-0.017180477839367925
10.388,-0.01717985278525187
10.392,-0.017181078852941057
10.396,-0.017177232366073016
10.4,-0.017179107528421184
10.404,-0.017177785298560296
10.408,-0.017176318825441857
10.412,-0.01717492447395219
10.416,-0.017171053946541222
10.42,-0.01717021252753884
10.424,-0.017173217595404498
10.428,-0.017175862055126275
10.432,-0.017176631352499885
10.436,-0.017176439028156482
10.44,-0.017175549528068247
10.444,-0.017173530122462526
10.448,-0.01717701600118669
10.452,-0.017177833379646148
10.456,-0.01717790550127492
10.46,-0.017179011366249483
10.464,-0.017173698406263
10.468,-0.01717802570398955
10.472,-0.017179924906880646
10.476,-0.01718095865022643
10.48,-0.017181703907057113
10.484,-0.017180309555567447
10.488,-0.01717994894742357
10.492,-0.017180670163711328
10.496,-0.017180213393395746
10.5,-0.017182881893660452
10.504,-0.0171802614744816
10.508000000000001,-0.017175405284810694
10.512,-0.017178338231047578
10.516,-0.0171802614744816
10.52,-0.017177857420189072
10.524000000000001,-0.017176222663270155
10.528,-0.01717381860897763
10.532,-0.017174996595580964
10.536,-0.017174034973863956
10.540000000000001,-0.017174179217121506
10.544,-0.017176679433585734
10.548,-0.017177088122815463
10.552,-0.017176270744356004
10.556000000000001,-0.017174131136035657
10.56,-0.01717812186616125
10.564,-0.0171781699472471
10.568,-0.017177232366073016
10.572000000000001,-0.017175549528068247
10.576,-0.01717401093332103
10.58,-0.017171943446629458
10.584,-0.017173674365720076
10.588000000000001,-0.017173890730606402
10.592,-0.017173001230518167
10.596,-0.017171703041200203
10.6,-0.017171991527715307
10.604000000000001,-0.017172568500745514
10.608,-0.017174179217121506
10.612,-0.017174587906351235
10.616,-0.01717634286598478
10.620000000000001,-0.01717639094707063
10.624,-0.017176414987613558
10.628,-0.01717429941983613
10.632,-0.017173506081919598
10.636000000000001,-0.017174660027980012
10.64,-0.01717437154146491
10.644,-0.017175621649697024
10.648,-0.017175453365896546
10.652000000000001,-0.017175212960467295
10.656,-0.017177977622903698
10.66,-0.017178218028332953
10.664,-0.01718095865022643
10.668000000000001,-0.01717884308244901
10.672,-0.017180141271766973
10.676,-0.017180549960996702
10.68,-0.017179275812221662
10.684000000000001,-0.017179516217650913
10.688,-0.017179660460908467
10.692,-0.01718112693402691
10.696,-0.017184420488407667
10.700000000000001,-0.017183506947776508
10.704,-0.017186007164240735
10.708,-0.0171852138263242
10.712,-0.017183915637006237
10.716000000000001,-0.017185598475011006
10.72,-0.01718562251555393
10.724,-0.01718163178542834
10.728,-0.01718204047465807
10.732000000000001,-0.017182713609859974
10.736,-0.01718223279900147
10.74,-0.017180934609683507
10.744,-0.017182833812574603
10.748000000000001,-0.017185093623609576
10.752,-0.01718571867772563
10.756,-0.01718583888044026
10.76,-0.017184035839720866
10.764,-0.017182881893660452
10.768,-0.01718396371809209
10.772,-0.017184348366778894
10.776,-0.017182881893660452
10.78,-0.017180429758282077
10.784,-0.017180838447511806
10.788,-0.017180453798825
10.792,-0.01718050187991085
10.796,-0.017181078852941057
10.8,-0.017181199055655683
10.804,-0.017181391379999085
10.808,-0.0171827376504029
10.812,-0.017180549960996702
10.816,-0.017179564298736766
10.82,-0.017180718244797177
10.824,-0.017179924906880646
10.828,-0.01717848247430513
10.832,-0.017178746920277307
10.836,-0.017180670163711328
10.84,-0.017181703907057113
10.844,-0.017182425123344874
10.848,-0.017180165312309897
10.852,-0.017180333596110375
10.856,-0.017177785298560296
10.86,-0.017176823676843287
10.864,-0.017180670163711328
10.868,-0.017182449163887798
10.872,-0.01718172794760004
10.876,-0.01718172794760004
10.88,-0.01718319442071848
10.884,-0.01718564655609686
10.888,-0.017185670596639783
10.892,-0.017184252204607193
10.896,-0.01718405988026379
10.9,-0.017183506947776508
10.904,-0.01718112693402691
10.908,-0.017180429758282077
10.912,-0.017180309555567447
10.916,-0.01718112693402691
10.92,-0.017180117231224045
10.924,-0.017177112163358387
10.928,-0.017176703474128658
10.932,-0.01717853055539098
10.936,-0.017180333596110375
10.94,-0.017179227731135813
10.944,-0.017179516217650913
10.948,-0.017175910136212124
10.952,-0.01717441962255076
10.956,-0.01717473214960879
10.96,-0.017175621649697024
10.964,-0.01717790550127492
10.968,-0.017180670163711328
10.972,-0.017182473204430723
10.976,-0.017184925339809098
10.98,-0.017184901299266173
10.984,-0.017180189352852822
10.988,-0.01717716024444424
10.992,-0.01718091056914058
10.996,-0.01718204047465807
11.0,-0.017180189352852822
11.004,-0.01717761701475982
11.008000000000001,-0.01717944409602214
11.012,-0.01718305017746093
11.016,-0.017185309988495902
11.02,-0.017184324326235966
11.024000000000001,-0.01718177602868589
11.028,-0.017183218461261404
11.032,-0.01718665625889972
11.036,-0.017184925339809098
11.040000000000001,-0.017186079285869512
11.044,-0.017186271610212914
11.048,-0.017187593840073803
11.052,-0.017185766758811484
11.056000000000001,-0.01718218471791562
11.06,-0.01717968450145139
11.064,-0.01718127117728446
11.068,-0.01718365119103406
11.072000000000001,-0.017180934609683507
11.076,-0.017179972987966495
11.08,-0.017179924906880646
11.084,-0.017179708541994316
11.088000000000001,-0.017183218461261404
11.092,-0.017182160677372695
11.096,-0.017182064515200993
11.1,-0.017184348366778894
11.104000000000001,-0.017186031204783663
11.108,-0.017183314623433105
11.112,-0.017180646123168403
11.116,-0.01718050187991085
11.120000000000001,-0.017181199055655683
11.124,-0.017184636853293998
11.128,-0.017182665528774125
11.132,-0.017177785298560296
11.136000000000001,-0.017181703907057113
11.14,-0.017184949380352026
11.144,-0.017183242501804332
11.148,-0.017184901299266173
11.152000000000001,-0.017184997461437874
11.156,-0.017185406150667604
11.16,-0.017186079285869512
11.164,-0.017182617447688273
11.168000000000001,-0.017181319258370308
11.172,-0.01718295401528923
11.176,-0.017183434826147734
11.18,-0.017184805137094472
11.184000000000001,-0.017187882326588907
11.188,-0.017186007164240735
11.192,-0.017186584137270942
11.196,-0.01718648797509924
11.200000000000001,-0.01718564655609686
11.204,-0.017186271610212914
11.208,-0.01718675242107142
11.212,-0.0171850215019808
11.216000000000001,-0.01718552635338223
11.22,-0.017183723312662835
11.224,-0.01718278573148875
11.228,-0.017184444528950595
11.232000000000001,-0.01718538211012468
11.236,-0.017187233231929926
11.24,-0.017187641921159656
11.244,-0.01718422816406427
11.248000000000001,-0.0171850215019808
11.252,-0.017185261907410054
11.256,-0.017188555461790815
11.26,-0.017186512015642166
11.264,-0.017182473204430723
11.268,-0.01718451665057937
11.272,-0.017186920704871895
11.276,-0.017185911002069034
11.28,-0.017187377475187476
11.284,-0.017190118097080955
11.288,-0.017189709407851226
11.292,-0.01718903627264932
11.296,-0.017187353434644552
11.3,-0.017187738083331357
11.304,-0.017187353434644552
11.308,-0.017187425556273325
11.312,-0.017187377475187476
11.316,-0.017185165745238352
11.32,-0.01718461281275107
11.324,-0.017184540691122296
11.328,-0.017183675231576986
11.332,-0.017183843515377464
11.336,-0.01718571867772563
11.34,-0.017185935042611962
11.344,-0.017187930407674756
11.348,-0.017189204556449796
11.352,-0.017190887394454565
11.356,-0.01719040658359606
11.36,-0.0171896853673083
11.364,-0.017187641921159656
11.368,-0.01718843525907619
11.372,-0.017190887394454565
11.376,-0.017187690002245504
11.38,-0.017191175880969668
11.384,-0.017189300718621497
11.388,-0.01718903627264932
11.392,-0.01718821889418986
11.396,-0.017187281313015775
11.4,-0.01718725727247285
11.404,-0.017189613245679525
11.408,-0.01718684858324312
11.412,-0.017187281313015775
11.416,-0.017190238299795584
11.42,-0.0171896853673083
11.424,-0.01718903627264932
11.428,-0.017187738083331357
11.432,-0.017188242934732787
11.436,-0.0171895892051366
11.44,-0.0171894930429649
11.444,-0.017189372840250274
11.448,-0.017187690002245504
11.452,-0.017187593840073803
11.456,-0.017189372840250274
11.46,-0.017191632651285246
11.464,-0.01718990173219463
11.468,-0.01718843525907619
11.472,-0.017190334461967282
11.476,-0.017189396880793198
11.48,-0.01718843525907619
11.484,-0.017191055678255043
11.488,-0.01719242598920178
11.492,-0.01719461367860798
11.496,-0.017193243367661242
11.5,-0.017190238299795584
11.504,-0.01718975748893708
11.508000000000001,-0.01718894011047762
11.512,-0.017188795867220066
11.516,-0.01718680050215727
11.52,-0.01718716111030115
11.524000000000001,-0.017188002529303532
11.528,-0.017190070015995106
11.532,-0.017192137502686677
11.536,-0.017192450029744708
11.540000000000001,-0.017190574867396537
11.544,-0.017190238299795584
11.548,-0.017189204556449796
11.552,-0.017186632218356795
11.556000000000001,-0.017185814839897333
11.56,-0.017191969218886202
11.564,-0.0171894930429649
11.568,-0.017190118097080955
11.572000000000001,-0.017193531854176342
11.576,-0.01718841121853326
11.58,-0.017187353434644552
11.584,-0.017190719110654087
11.588000000000001,-0.017189877691651704
11.592,-0.01718944496187905
11.596,-0.01718817081310401
11.6,-0.017186415853470464
11.604000000000001,-0.01718665625889972
11.608,-0.017188531421247887
11.612,-0.017187690002245504
11.616,-0.017188892029391768
11.620000000000001,-0.017187185150844074
11.624,-0.01718612736695536
11.628,-0.017186439894013392
11.632,-0.017185550393925157
11.636000000000001,-0.017186439894013392
11.64,-0.017184348366778894
11.644,-0.017184949380352026
11.648,-0.017185141704695428
11.652000000000001,-0.01718415604243549
11.656,-0.017184083920806715
11.66,-0.01718579079935441
11.664,-0.01718684858324312
11.668000000000001,-0.017187954448217684
11.672,-0.01718574271826856
11.676,-0.017187473637359178
11.68,-0.017191656691828174
11.684000000000001,-0.017192065381057903
11.688,-0.01719040658359606
11.692,-0.01718821889418986
11.696,-0.017188916069934692
11.700000000000001,-0.017191079718797967
11.704,-0.017191392245855995
11.708,-0.017193579935262195
11.712,-0.017195142570552335
11.716000000000001,-0.01719343569200464
11.72,-0.017190815272825788
11.724,-0.017191632651285246
11.728,-0.017192257705401306
11.732000000000001,-0.017192450029744708
11.736,-0.017191656691828174
11.74,-0.017193411651461717
11.744,-0.01719360397580512
11.748000000000001,-0.01718985365110878
11.752,-0.017190695070111162
11.756,-0.01719086335391164
11.76,-0.01719305104331784
11.764000000000001,-0.017192762556802736
11.768,-0.01719264235408811
11.772,-0.017194493475893354
11.776,-0.017193363570375868
11.78,-0.017191031637712115
11.784,-0.01719345973254757
11.788,-0.017193531854176342
11.792,-0.017192233664858378
11.796,-0.017192450029744708
11.8,-0.01719232982703008
11.804,-0.017190238299795584
11.808,-0.0171874015157304
11.812,-0.017187377475187476
11.816,-0.01718624756966999
11.82,-0.017186632218356795
11.824,-0.01718881990776299
11.828,-0.017189613245679525
11.832,-0.01718884394830592
11.836,-0.017189469002421975
11.84,-0.01719228174594423
11.844,-0.017193507813633418
11.848,-0.017194325192092876
11.852,-0.017193676097433896
11.856,-0.017192401948658856
11.86,-0.017193964583949
11.864,-0.017195407016524514
11.868,-0.017197017732900506
11.872,-0.017193772259605597
11.876,-0.017192450029744708
11.88,-0.017193676097433896
11.884,-0.01719593590846887
11.888,-0.01719437327317873
11.892,-0.017199782395336913
11.896,-0.017200575733253447
11.9,-0.01719999876022324
11.904,-0.017194733881322605
11.908,-0.017194757921865533
11.912,-0.01719757066538779
11.916,-0.017197931273531666
11.92,-0.017196560962584928
11.924,-0.017192810637888585
11.928,-0.0171940607461207
11.932,-0.017193219327118314
11.936,-0.017192065381057903
11.94,-0.017190142137623883
11.944,-0.017191849016171577
11.948,-0.017193243367661242
11.952,-0.017189156475363947
11.956,-0.017190382543053134
11.96,-0.017190839313368716
11.964,-0.01718615140749829
11.968,-0.017184636853293998
11.972,-0.017187473637359178
11.976,-0.01718944496187905
11.98,-0.01718973344839415
11.984,-0.01719141628639892
11.988,-0.017188892029391768
11.992,-0.017184997461437874
11.996,-0.01718807465093231
12.0,-0.017186463934556317
12.004,-0.01718833909690449
12.008000000000001,-0.01719009405653803
12.012,-0.01719026234033851
12.016,-0.017192762556802736
12.02,-0.01719675328692833
12.024000000000001,-0.01719588782738302
12.028,-0.01719461367860798
12.032,-0.017191199921512593
12.036,-0.017188892029391768
12.040000000000001,-0.017190334461967282
12.044,-0.017190166178166807
12.048,-0.01719151244857062
12.052,-0.01719252215137348
12.056000000000001,-0.017194397313721653
12.06,-0.01719192113780035
12.064,-0.017192762556802736
12.068,-0.017194733881322605
12.072000000000001,-0.017195094489466486
12.076,-0.017192618313545183
12.08,-0.01719456559752213
12.084,-0.017193892462320223
12.088000000000001,-0.01719538297598159
12.092,-0.0171916807323711
12.096,-0.01719141628639892
12.1,-0.017194012665034848
12.104000000000001,-0.017192065381057903
12.108,-0.017191127799883816
12.112,-0.017189877691651704
12.116,-0.01719329144874709
12.120000000000001,-0.017194541556979203
12.124,-0.017190526786310684
12.128,-0.017190190218709732
12.132,-0.017190671029568238
12.136000000000001,-0.017193123164946613
12.14,-0.01719394054340607
12.144,-0.017193387610918792
12.148,-0.017189565164593676
12.152000000000001,-0.017186415853470464
12.156,-0.017187233231929926
12.16,-0.017186680299442644
12.164,-0.01718867566450544
12.168000000000001,-0.01719095951608334
12.172,-0.017188795867220066
12.176,-0.01718831505636156
12.18,-0.01719242598920178
12.184000000000001,-0.01719497428675186
12.188,-0.017193868421777298
12.192,-0.017189613245679525
12.196,-0.017191632651285246
12.200000000000001,-0.017195046408380637
12.204,-0.0171961522733552
12.208,-0.017195455097610366
12.212,-0.017198388043847247
12.216000000000001,-0.017197642787016562
12.22,-0.01719665712475663
12.224,-0.017196176313898123
12.228,-0.017196008030097645
12.232000000000001,-0.017195238732724036
12.236,-0.01719771490864534
12.24,-0.017200623814339296
12.244,-0.01719867653036235
12.248000000000001,-0.017198700570905275
12.252,-0.017202619179402093
12.256,-0.017202258571258216
12.26,-0.0172009123008544
12.264000000000001,-0.017196777327471255
12.268,-0.017198123597875068
12.272,-0.017197618746473638
12.276,-0.01719689753018588
12.280000000000001,-0.017198556327647725
12.284,-0.017198460165476024
12.288,-0.017198652489819426
12.292,-0.01719990259805154
12.296,-0.01719922946284963
12.3,-0.017198291881675546
12.304,-0.017196368638241526
12.308,-0.01719694561127173
12.312,-0.017200215125109566
12.316,-0.017199205422306706
12.32,-0.01719959007099351
12.324,-0.017203027868631822
12.328,-0.01720410969306346
12.332,-0.017199806435879837
12.336,-0.017200335327824192
12.34,-0.0172011046251978
12.344,-0.017198916935791602
12.348,-0.017198460165476024
12.352,-0.01720182584148556
12.356,-0.017203869287634208
12.36,-0.017199469868278885
12.364,-0.017200816138682698
12.368,-0.01719985451696569
12.372,-0.017200335327824192
12.376,-0.017202907665917196
12.38,-0.017202234530715288
12.384,-0.017202715341573794
12.388,-0.017205672328353603
12.392,-0.017206706071699388
12.396,-0.01720406161197761
12.4,-0.01720562424726775
12.404,-0.017206778193328165
12.408,-0.01720384524709128
12.412,-0.01719985451696569
12.416,-0.017200816138682698
12.42,-0.017201633517142156
12.424,-0.01720451838229319
12.428,-0.017203268274061077
12.432,-0.017204903030979993
12.436,-0.017205552125638974
12.44,-0.017205335760752647
12.444,-0.017202955747003045
12.448,-0.01720394140926298
12.452,-0.017201393111712905
12.456,-0.017200215125109566
12.46,-0.0172031961524323
12.464,-0.017203989490348834
12.468,-0.017205816571611153
12.472,-0.017206056977040404
12.476,-0.01720502323369462
12.48,-0.017205311720209723
12.484,-0.017202643219945017
12.488,-0.017201801800942634
12.492,-0.01719968623316521
12.496,-0.017201633517142156
12.5,-0.017202619179402093
12.504,-0.01720370100383373
12.508000000000001,-0.017200840179225622
12.512,-0.017200070881852016
12.516,-0.017201753719856782
12.52,-0.01719858036819065
12.524000000000001,-0.01719821976004677
12.528,-0.01720014300348079
12.532,-0.01719648884095615
12.536,-0.017202354733429914
12.540000000000001,-0.017205143436409245
12.544,-0.017201897963114336
12.548,-0.01719771490864534
12.552,-0.017195286813809888
12.556000000000001,-0.01719345973254757
12.56,-0.017193988624491924
12.564,-0.017199061179049156
12.568,-0.017202883625374272
12.572000000000001,-0.017204542422836113
12.576,-0.017203580801119105
12.58,-0.017197883192445817
12.584,-0.017195262773266964
12.588000000000001,-0.017199013097963303
12.592,-0.01720040744945297
12.596,-0.017199541989907658
12.6,-0.017199614111536435
12.604000000000001,-0.01719841208439017
12.608,-0.017199541989907658
12.612,-0.017198916935791602
12.616,-0.017199061179049156
12.620000000000001,-0.01719721005724391
12.624,-0.017199710273708136
12.628,-0.017201994125286037
12.632,-0.017203316355146926
12.636000000000001,-0.017200431489995893
12.64,-0.017196825408557104
12.644,-0.017197835111359965
12.648,-0.017199277543935482
12.652000000000001,-0.017200936341397324
12.656,-0.017198700570905275
12.66,-0.017199205422306706
12.664,-0.017200070881852016
12.668000000000001,-0.017200575733253447
12.672,-0.017201465233341682
12.676,-0.017198460165476024
12.68,-0.017197787030274116
12.684000000000001,-0.017199277543935482
12.688,-0.017197354300501462
12.692,-0.017197089854529283
12.696,-0.01719766682755949
12.700000000000001,-0.017198388043847247
12.704,-0.017201633517142156
12.708,-0.017200022800766164
12.712,-0.017197498543759012
12.716000000000001,-0.01720023916565249
12.72,-0.017198508246561873
12.724,-0.01719807551678922
12.728,-0.01719999876022324
12.732000000000001,-0.017197017732900506
12.736,-0.01719293084060321
12.74,-0.01719730621941561
12.744,-0.01719754662484486
12.748000000000001,-0.017198243800589694
12.752,-0.017200311287281268
12.756,-0.017198940976334526
12.76,-0.017199373706107184
12.764000000000001,-0.017196344597698598
12.768,-0.01719790723298874
12.772,-0.017197979354617518
12.776,-0.017195815705754243
12.780000000000001,-0.01718975748893708
12.784,-0.0171918730567145
12.788,-0.017193483773090493
12.792,-0.017194926205666008
12.796000000000001,-0.01719218558377253
12.8,-0.017191488408027696
12.804,-0.017193988624491924
12.808,-0.0171962484355269
12.812,-0.017196464800413227
12.816,-0.01719781107081704
12.82,-0.017197979354617518
12.824,-0.01719898905742038
12.828,-0.017197618746473638
12.832,-0.017194902165123083
12.836,-0.01719579166521132
12.84,-0.017194132867749474
12.844,-0.01719345973254757
12.848,-0.017190935475540414
12.852,-0.017193724178519745
12.856,-0.017196969651814657
12.86,-0.01719973431425106
12.864,-0.01719721005724391
12.868,-0.01719355589471927
12.872,-0.017194253070464103
12.876,-0.017193075083860764
12.88,-0.01718913243482102
12.884,-0.017190671029568238
12.888,-0.017192257705401306
12.892,-0.01718975748893708
12.896,-0.01718821889418986
12.9,-0.017188194853646935
12.904,-0.017186512015642166
12.908,-0.017187954448217684
12.912,-0.01718884394830592
12.916,-0.017186680299442644
12.92,-0.017185694637182707
12.924,-0.017183506947776508
12.928,-0.017184540691122296
12.932,-0.017186439894013392
12.936,-0.01718583888044026
12.94,-0.01718579079935441
12.944,-0.017184684934379846
12.948,-0.017183747353205762
12.952,-0.017182665528774125
12.956,-0.017186728380528492
12.96,-0.017184684934379846
12.964,-0.017183579069405285
12.968,-0.01718451665057937
12.972,-0.017182617447688273
12.976,-0.017184396447864743
12.98,-0.0171826414882312
12.984,-0.0171851176641525
12.988,-0.017186007164240735
12.992,-0.017187617880616728
12.996,-0.017187617880616728
13.0,-0.017186560096728018
13.004,-0.017185285947952978
13.008000000000001,-0.01718487725872325
13.012,-0.017184660893836922
13.016,-0.01718379543429161
13.02,-0.017183987758635014
13.024000000000001,-0.0171825453260595
13.028,-0.017184132001892567
13.032,-0.01718379543429161
13.036,-0.017184252204607193
13.040000000000001,-0.017184396447864743
13.044,-0.017185141704695428
13.048,-0.017183915637006237
13.052,-0.01718204047465807
13.056000000000001,-0.017180790366425953
13.06,-0.01718136733945616
13.064,-0.017183627150491137
13.068,-0.01718437240732182
13.072000000000001,-0.017176967920100837
13.076,-0.017166053513612767
13.08,-0.017162014702401324
13.084,-0.017158552864220085
13.088000000000001,-0.017156797904586542
13.092,-0.017157350837073822
13.096,-0.0171597068102805
13.1,-0.017161702175343296
13.104000000000001,-0.017161509850999894
13.108,-0.017158745188563487
13.112,-0.017157350837073822
13.116,-0.017158913472363965
13.120000000000001,-0.017160692472540436
13.124,-0.017159995296795603
13.128,-0.017156725782957766
13.132,-0.017156677701871913
13.136000000000001,-0.01715852882367716
13.14,-0.017156942147844093
13.144,-0.017160283783310703
13.148,-0.017161341567199416
13.152000000000001,-0.01716259167543153
13.156,-0.01716254359434568
13.16,-0.01715715851273042
13.164,-0.0171574229587026
13.168000000000001,-0.017156725782957766
13.172,-0.017156533458614363
13.176,-0.0171598029724522
13.18,-0.017159153877793216
13.184000000000001,-0.0171598991346239
13.188,-0.017158817310192264
13.192,-0.01715624497209926
13.196,-0.017156773864043615
13.200000000000001,-0.017159586607565874
13.204,-0.017160428026568256
13.208,-0.017161509850999894
13.212,-0.017165356337867935
13.216000000000001,-0.017167495946188282
13.22,-0.01716953939233693
13.224,-0.01716776039216046
13.228,-0.017168145040847266
13.232000000000001,-0.017170332730253465
13.236,-0.01716970767613741
13.24,-0.01717254446020259
13.244,-0.01717492447395219
13.248000000000001,-0.017172448298030888
13.252,-0.017169755757223258
13.256,-0.017170164446452987
13.26,-0.01717172708174313
13.264000000000001,-0.01716920282473598
13.268,-0.017169010500392577
13.272,-0.017172087689887008
13.276,-0.017171294351970474
13.280000000000001,-0.017170404851882242
13.284,-0.017167495946188282
13.288,-0.01716826524356189
13.292,-0.017171077987084147
13.296000000000001,-0.01717050101405394
13.3,-0.01717021252753884
13.304,-0.01717280890617477
13.308,-0.01717506871720974
13.312000000000001,-0.017173385879204972
13.316,-0.017172304054773335
13.32,-0.01716944323016523
13.324,-0.017172664662917215
13.328,-0.017175669730782873
13.332,-0.017174515784722462
13.336,-0.017174491744179534
13.34,-0.017171943446629458
13.344,-0.017173025271061095
13.348,-0.017173770527891777
13.352,-0.01717228001423041
13.356,-0.017173265676490346
13.36,-0.017173938811692255
13.364,-0.01717446770363661
13.368,-0.01717665539304281
13.372,-0.017175188919924367
13.376,-0.017175285082096068
13.38,-0.017176006298383825
13.384,-0.01717482831178049
13.388,-0.01717456386580831
13.392,-0.01717401093332103
13.396,-0.01717432346037906
13.4,-0.017178746920277307
13.404,-0.017183506947776508
13.408,-0.017183843515377464
13.412,-0.017180838447511806
13.416,-0.017180381677196224
13.42,-0.017176943879557913
13.424,-0.017177184284987164
13.428,-0.01717752085258812
13.432,-0.01717538124426777
13.436,-0.017176727514671586
13.44,-0.017177977622903698
13.444,-0.017176775595757435
13.448,-0.01717564569023995
13.452,-0.017174515784722462
13.456,-0.017173433960290824
13.46,-0.017175501446982395
13.464,-0.017180069150138196
13.468,-0.017181175015112758
13.472,-0.017180069150138196
13.476,-0.017180069150138196
13.48,-0.017178867122991933
13.484,-0.017181703907057113
13.488,-0.017182881893660452
13.492,-0.017181078852941057
13.496,-0.01718100673131228
13.5,-0.017180069150138196
13.504,-0.0171802614744816
13.508000000000001,-0.01718100673131228
13.512,-0.01718314633963263
13.516,-0.01718187219085759
13.52,-0.017179804704166017
13.524000000000001,-0.01717985278525187
13.528,-0.017180934609683507
13.532,-0.017181751988142965
13.536,-0.017183987758635014
13.540000000000001,-0.01718506958306665
13.544,-0.01718766596170258
13.548,-0.017185502312839305
13.552,-0.017184396447864743
13.556000000000001,-0.017187016867043596
13.56,-0.017186271610212914
13.564,-0.017182881893660452
13.568,-0.017183987758635014
13.572000000000001,-0.017189300718621497
13.576,-0.01718826697527571
13.58,-0.017186007164240735
13.584,-0.01718451665057937
13.588000000000001,-0.0171852138263242
13.592,-0.017185285947952978
13.596,-0.017184492610036444
13.6,-0.017184588772208145
13.604000000000001,-0.017187930407674756
13.608,-0.017188146772561086
13.612,-0.01718583888044026
13.616,-0.017185766758811484
13.620000000000001,-0.01718506958306665
13.624,-0.017185285947952978
13.628,-0.017190550826853612
13.632,-0.017184396447864743
13.636000000000001,-0.01718420412352134
13.64,-0.017185261907410054
13.644,-0.017183771393748687
13.648,-0.01718422816406427
13.652000000000001,-0.017183675231576986
13.656,-0.017181391379999085
13.66,-0.017182473204430723
13.664,-0.017185670596639783
13.668000000000001,-0.017186439894013392
13.672,-0.017185261907410054
13.676,-0.017186536056185094
13.68,-0.017187209191387
13.684000000000001,-0.017187858286045982
13.688,-0.017186223529127062
13.692,-0.01718857950233374
13.696,-0.017188892029391768
13.700000000000001,-0.017183314623433105
13.704,-0.01718543019121053
13.708,-0.017186824542700194
13.712,-0.017183266542347257
13.716000000000001,-0.01718557443446808
13.72,-0.017187882326588907
13.724,-0.017187016867043596
13.728,-0.01718680050215727
13.732000000000001,-0.01719035850251021
13.736,-0.017192474070287633
13.74,-0.017191728813456948
13.744,-0.017192401948658856
13.748000000000001,-0.017192810637888585
13.752,-0.017194806002951382
13.756,-0.017196825408557104
13.76,-0.01719552721923914
13.764000000000001,-0.017190334461967282
13.768,-0.01719394054340607
13.772,-0.017195455097610366
13.776,-0.017193243367661242
13.780000000000001,-0.017195094489466486
13.784,-0.017196585003127852
13.788,-0.017194685800236757
13.792,-0.01719538297598159
13.796000000000001,-0.017198532287104797
13.8,-0.01719562338141084
13.804,-0.017194301151549952
13.808,-0.01719091143499749
13.812000000000001,-0.017191079718797967
13.816,-0.017190286380881433
13.82,-0.017194325192092876
13.824,-0.01719295488114614
13.828,-0.017190839313368716
13.832,-0.017188747786134217
13.836,-0.01718776212387428
13.84,-0.017188002529303532
13.844,-0.017189565164593676
13.848,-0.017192594273002258
13.852,-0.017193844381234374
13.856,-0.0171964407598703
13.86,-0.01719612823281227
13.864,-0.017193243367661242
13.868,-0.01719552721923914
13.872,-0.017196536922042
13.876,-0.01719547913815329
13.88,-0.017197426422130235
13.884,-0.01719858036819065
13.888,-0.0171917768945428
13.892,-0.017192570232459334
13.896,-0.017195551259782067
13.9,-0.01719766682755949
13.904,-0.017196777327471255
13.908,-0.017199445827735957
13.912,-0.01720086421976855
13.916,-0.017201705638770933
13.92,-0.017202667260487945
13.924,-0.017199109260135004
13.928,-0.017198868854705753
13.932,-0.017198099557332144
13.936,-0.01719826784113262
13.94,-0.017199421787193032
13.944,-0.017201994125286037
13.948,-0.017201897963114336
13.952,-0.017202258571258216
13.956,-0.017201585436056308
13.96,-0.01719918138176378
13.964,-0.017199710273708136
13.968,-0.017199782395336913
13.972,-0.017199710273708136
13.976,-0.017201080584654877
13.98,-0.017203075949717674
13.984,-0.01719913330067793
13.988,-0.017198916935791602
13.992,-0.017198123597875068
13.996,-0.017200888260311475
14.0,-0.01719898905742038
14.004,-0.017200431489995893
14.008000000000001,-0.01719817167896092
14.012,-0.017201224827912427
14.016,-0.01720379716600543
14.02,-0.017200431489995893
14.024000000000001,-0.01719949390882181
14.028,-0.017199445827735957
14.032,-0.017199013097963303
14.036,-0.017198436124933096
14.040000000000001,-0.01719898905742038
14.044,-0.017197354300501462
14.048,-0.017200287246738343
14.052,-0.017198772692534052
14.056000000000001,-0.017200118962937865
14.06,-0.017200335327824192
14.064,-0.017201970084743112
14.068,-0.0172079561799315
14.072000000000001,-0.01720648970681306
14.076,-0.017205263639123874
14.08,-0.017205167476952173
14.084,-0.017203580801119105
14.088000000000001,-0.017202859584831347
14.092,-0.017204398179578563
14.096,-0.017203676963290806
14.1,-0.017201224827912427
14.104000000000001,-0.017200840179225622
14.108,-0.017205744449982376
14.112,-0.017207763855588098
14.116,-0.017208557193504632
14.120000000000001,-0.01720831678807538
14.124,-0.017206922436585715
14.128,-0.017205407882381424
14.132,-0.0172080523421032
14.136000000000001,-0.01720535980129557
14.14,-0.01720502323369462
14.144,-0.01720447030120734
14.148,-0.01720132099008413
14.152000000000001,-0.01720502323369462
14.156,-0.017203124030803523
14.16,-0.017198772692534052
14.164,-0.01720115270628365
14.168000000000001,-0.01719985451696569
14.172,-0.01719766682755949
14.176,-0.01719999876022324
14.18,-0.017203412517318627
14.184000000000001,-0.01720293170646012
14.188,-0.01720437413903564
14.192,-0.017207283044729595
14.196,-0.017206874355499866
14.200000000000001,-0.017207234963643743
14.204,-0.017206513747355986
14.208,-0.0172076676934164
14.212,-0.0172101438693377
14.216000000000001,-0.017207643652873472
14.22,-0.017206682031156464
14.224,-0.017210312153138178
14.228,-0.0172079561799315
14.232000000000001,-0.01720629738246966
14.236,-0.01720968709902212
14.24,-0.01720836486916123
14.244,-0.017209711139565046
14.248000000000001,-0.017208124463731978
14.252,-0.017206874355499866
14.256,-0.017207427287987145
14.26,-0.017208605274590484
14.264000000000001,-0.017207427287987145
14.268,-0.017208749517848034
14.272,-0.017209614977393345
14.276,-0.017207787896131026
14.280000000000001,-0.017210288112595253
14.284,-0.01720999962608015
14.288,-0.01720999962608015
14.292,-0.01720908608544899
14.296000000000001,-0.017208557193504632
14.3,-0.017209398612507018
14.304,-0.017209807301736747
14.308,-0.01720822062590368
14.312000000000001,-0.017206682031156464
14.316,-0.01720848507187586
14.32,-0.01720807638264613
14.324,-0.01720639354464136
14.328000000000001,-0.017205143436409245
14.332,-0.017205912733782854
14.336,-0.017207379206901297
14.34,-0.017208124463731978
14.344,-0.017208605274590484
14.348,-0.017208653355676333
14.352,-0.01720822062590368
14.356,-0.01720740324744422
14.36,-0.01720406161197761
14.364,-0.017204326057949786
14.368,-0.01720918224762069
14.372,-0.017207835977216875
14.376,-0.017206177179755033
14.38,-0.01720745132853007
14.384,-0.017208605274590484
14.388,-0.017207499409615922
14.392,-0.01721127377485519
14.396,-0.01721064872073913
14.4,-0.017209759220650895
14.404,-0.017206513747355986
14.408,-0.017205167476952173
14.412,-0.017210841045082532
14.416,-0.017212908531774106
14.42,-0.017210288112595253
14.424,-0.017208124463731978
14.428,-0.017207234963643743
14.432,-0.017204662625550742
14.436,-0.01720629738246966
14.44,-0.017205263639123874
14.444,-0.01720552808509605
14.448,-0.0172054800040102
14.452,-0.017206465666270137
14.456,-0.017205648287810675
14.46,-0.01720447030120734
14.464,-0.017206105058126257
14.468,-0.017203075949717674
14.472,-0.017204782828265368
14.476,-0.017206201220297958
14.48,-0.017205239598580946
14.484,-0.01720420585523516
14.488,-0.017205191517495097
14.492,-0.017204903030979993
14.496,-0.017203003828088897
14.5,-0.01720394140926298
14.504,-0.017205600206724826
14.508000000000001,-0.017205287679666798
14.512,-0.01720374908491958
14.516,-0.017201657557685084
14.52,-0.017205095355323396
14.524000000000001,-0.017202066246914813
14.528,-0.017203388476775702
14.532,-0.017205864652697005
14.536,-0.017205191517495097
14.540000000000001,-0.01720447030120734
14.544,-0.017205191517495097
14.548,-0.01720689839604279
14.552,-0.017208028301560277
14.556000000000001,-0.01721040831530988
14.56,-0.017208869720562663
14.564,-0.017210312153138178
14.568,-0.01720999962608015
14.572000000000001,-0.017208653355676333
14.576,-0.017210961247797158
14.58,-0.017212475802001453
14.584,-0.01721293257231703
14.588000000000001,-0.017209927504451373
14.592,-0.017210841045082532
14.596,-0.017210432355852803
14.6,-0.017208244666446604
14.604000000000001,-0.017208388909704157
14.608,-0.017210288112595253
14.612,-0.017210961247797158
14.616,-0.01721627420778364
14.620000000000001,-0.017213269139917983
14.624,-0.017209350531421166
14.628,-0.017209446693592867
14.632,-0.017211201653226413
14.636000000000001,-0.01721110549105471
14.64,-0.017209302450335317
14.644,-0.017207427287987145
14.648,-0.017206826274414014
14.652000000000001,-0.01720807638264613
14.656,-0.01721168246408492
14.66,-0.01721324509937506
14.664,-0.01721543278878126
14.668000000000001,-0.017216081883440242
14.672,-0.017212451761458525
14.676,-0.017211634382999066
14.68,-0.0172124277209156
14.684000000000001,-0.017213004693945808
14.688,-0.017212499842544377
14.692,-0.017213773991319414
14.696,-0.017212115193857572
14.700000000000001,-0.017211634382999066
14.704,-0.01721100932888301
14.708,-0.01721156226137029
14.712,-0.017212716207430704
14.716000000000001,-0.017214038437291593
14.72,-0.017212956612859955
14.724,-0.017212620045259003
14.728,-0.017210792963996684
14.732000000000001,-0.0172080523421032
14.736,-0.017208797598933886
14.74,-0.017211802666799544
14.744,-0.017211201653226413
14.748000000000001,-0.01720790809884565
14.752,-0.017205311720209723
14.756,-0.0172078600177598
14.76,-0.017209206288163616
14.764000000000001,-0.017208797598933886
14.768,-0.0172079561799315
14.772,-0.017207186882557894
14.776,-0.01720740324744422
14.780000000000001,-0.01720932649087824
14.784,-0.017209566896307493
14.788,-0.017209062044906062
14.792,-0.017207932139388576
14.796000000000001,-0.01720836486916123
14.8,-0.01720740324744422
14.804,-0.01720831678807538
14.808,-0.017209110125991915
14.812000000000001,-0.017210937207254234
14.816,-0.017210792963996684
14.82,-0.017212475802001453
14.824,-0.017210360234224027
14.828000000000001,-0.017209446693592867
14.832,-0.01721182670734247
14.836,-0.017214735613036426
14.84,-0.01721124973431226
14.844000000000001,-0.017209206288163616
14.848,-0.017208124463731978
14.852,-0.017208004261017353
14.856,-0.017210215990966476
14.86,-0.01721091316671131
14.864,-0.01721009578825185
14.868,-0.0172102400315094
14.872,-0.017209975585537225
14.876,-0.01721040831530988
14.88,-0.017210191950423552
14.884,-0.017211129531597636
14.888,-0.017211994991142947
14.892,-0.01720771577450225
14.896,-0.01720639354464136
14.9,-0.017207138801472042
14.904,-0.017210288112595253
14.908,-0.01721536066715248
14.912,-0.017217091586243103
14.916,-0.017214567329235948
14.92,-0.017212860450688254
14.924,-0.0172125238830873
14.928,-0.01721091316671131
14.932,-0.017210480436938656
14.936,-0.017209879423365524
14.94,-0.017213221058832134
14.944,-0.01721278832905948
14.948,-0.017212259437115122
14.952,-0.0172146154103218
14.956,-0.017215072180637378
14.96,-0.017212620045259003
14.964,-0.017212043072228796
14.968,-0.01720983134227967
14.972,-0.01720790809884565
14.976,-0.017210167909880624
14.98,-0.017209278409792392
14.984,-0.017209614977393345
14.988,-0.017210167909880624
14.992,-0.017210312153138178
14.996,-0.01720694647712864
15.0,-0.017206561828441835
15.004,-0.017206826274414014
15.008000000000001,-0.017208605274590484
15.012,-0.017207523450158847
15.016,-0.01720999962608015
15.02,-0.017209807301736747
15.024000000000001,-0.017207932139388576
15.028,-0.017205672328353603
15.032,-0.0172076676934164
15.036,-0.017208340828618305
15.040000000000001,-0.017208869720562663
15.044,-0.017210167909880624
15.048,-0.01721064872073913
15.052,-0.01720968709902212
15.056000000000001,-0.017210047707166
15.06,-0.01721055255856743
15.064,-0.017209807301736747
15.068,-0.01720735516635837
15.072000000000001,-0.017206706071699388
15.076,-0.01720968709902212
15.08,-0.017208124463731978
15.084,-0.017208749517848034
15.088000000000001,-0.01720898992327729
15.092,-0.017210071747708926
15.096,-0.01720908608544899
15.1,-0.01721060063965328
15.104000000000001,-0.01721168246408492
15.108,-0.017210624680196206
15.112,-0.01720694647712864
15.116,-0.017205143436409245
15.120000000000001,-0.017206273341926735
15.124,-0.017204446260664412
15.128,-0.017203580801119105
15.132,-0.017203556760576177
15.136000000000001,-0.017207114760929117
15.14,-0.017207619612330548
15.144,-0.01721105740996886
15.148,-0.017212764288516553
15.152000000000001,-0.017212235396572198
15.156,-0.017212644085801927
15.16,-0.017213028734488732
15.164,-0.017213076815574584
15.168000000000001,-0.01721283641014533
15.172,-0.017212547923630226
15.176,-0.01721319701828921
15.18,-0.017211033369425935
15.184000000000001,-0.017210119828794775
15.188,-0.017211369937026887
15.192,-0.017210167909880624
15.196,-0.017208869720562663
15.200000000000001,-0.017210047707166
15.204,-0.017210264072052325
15.208,-0.017210288112595253
15.212,-0.017209206288163616
15.216000000000001,-0.01721009578825185
15.22,-0.017210047707166
15.224,-0.017209350531421166
15.228,-0.017212451761458525
15.232000000000001,-0.017211538220827365
15.236,-0.017209807301736747
15.24,-0.017211225693769337
15.244,-0.017210071747708926
15.248000000000001,-0.017209302450335317
15.252,-0.01721117761268349
15.256,-0.017210889126168385
15.26,-0.01721156226137029
15.264000000000001,-0.017212956612859955
15.268,-0.017213485504804314
15.272,-0.017210360234224027
15.276,-0.01721274024797363
15.280000000000001,-0.017213918234576967
15.284,-0.01721266812634485
15.288,-0.017212884491231182
15.292,-0.017214783694122278
15.296000000000001,-0.017212547923630226
15.3,-0.017211033369425935
15.304,-0.017212812369602405
15.308,-0.017213076815574584
15.312000000000001,-0.017212547923630226
15.316,-0.017211442058655664
15.32,-0.017212644085801927
15.324,-0.01721197095060002
15.328000000000001,-0.01721218731548635
15.332,-0.0172123315587439
15.336,-0.01720932649087824
15.34,-0.01720999962608015
15.344000000000001,-0.017209663058479194
15.348,-0.017210768923453756
15.352,-0.017211634382999066
15.356,-0.017210841045082532
15.36,-0.01721485581575105
15.364,-0.017219423518906853
15.368,-0.017216586734841673
15.372,-0.017219014829677123
15.376,-0.017219183113477598
15.38,-0.017218293613389366
15.384,-0.017214639450864724
15.388,-0.017212115193857572
15.392,-0.017214807734665202
15.396,-0.017216971383528474
15.4,-0.017214687531950577
15.404,-0.017214399045435473
15.408,-0.01721216327494342
15.412,-0.017214735613036426
15.416,-0.0172168992618997
15.42,-0.017218582099904466
15.424,-0.017219423518906853
15.428,-0.017216226126697792
15.432,-0.017216009761811465
15.436,-0.017215240464437856
15.44,-0.017213966315662816
15.444,-0.0172192792756493
15.448,-0.01721963988379318
15.452,-0.017217524316015757
15.456,-0.01721677905918507
15.46,-0.01721740411330113
15.464,-0.017219856248679506
15.468,-0.017221491005598426
15.472,-0.017216586734841673
15.476,-0.017216658856470446
15.48,-0.017217764721445008
15.484,-0.01721949564053563
15.488,-0.017219183113477598
15.492,-0.017215649153667585
15.496,-0.017214903896836904
15.5,-0.01721562511312466
15.504,-0.01721644249158412
15.508000000000001,-0.017219808167593657
15.512,-0.01721846189718984
15.516,-0.01721949564053563
15.52,-0.017220817870396518
15.524000000000001,-0.01722283727600224
15.528,-0.017221947775914005
15.532,-0.017222308384057885
15.536,-0.017220769789310666
15.540000000000001,-0.017221611208313052
15.544,-0.017222404546229586
15.548,-0.017220721708224817
15.552,-0.017219952410851207
15.556000000000001,-0.01722274111383054
15.56,-0.017221995856999857
15.564,-0.017219615843250255
15.568,-0.01722293343817394
15.572000000000001,-0.017223630613918774
15.576,-0.017222260302972033
15.58,-0.017221779492113527
15.584,-0.017224303749120682
15.588000000000001,-0.01722466435726456
15.592,-0.01722358253283292
15.596,-0.0172215631272272
15.6,-0.017220481302795562
15.604000000000001,-0.01722370273554755
15.608,-0.017222356465143734
15.612,-0.017222380505686658
15.616,-0.01722617891146885
15.620000000000001,-0.017225722141153272
15.624,-0.01722677992504198
15.628,-0.017223125762517343
15.632,-0.017221803532656454
15.636000000000001,-0.017220457262252638
15.64,-0.017222813235459315
15.644,-0.017224688397807483
15.648,-0.01722526537083769
15.652000000000001,-0.01722552981680987
15.656,-0.017225698100610348
15.66,-0.017227741546758994
15.664,-0.017227332857529264
15.668000000000001,-0.017223774857176324
15.672,-0.01722216414080033
15.676,-0.01722201989754278
15.68,-0.01722343828957537
15.684000000000001,-0.017221731411027678
15.688,-0.017219543721621478
15.692,-0.017221779492113527
15.696,-0.017221034235282845
15.700000000000001,-0.017220168775737534
15.704,-0.01722182757319938
15.708,-0.017226419316898105
15.712,-0.01722557789789572
15.716000000000001,-0.017224784559979184
15.72,-0.01722293343817394
15.724,-0.017225241330294766
15.728,-0.017223822938262176
15.732000000000001,-0.01722274111383054
15.736,-0.017221226559626247
15.74,-0.017223534451747072
15.744,-0.017221851613742303
15.748000000000001,-0.017219976451394132
15.752,-0.017218918667505422
15.756,-0.01721848593773277
15.76,-0.017220625546053116
15.764000000000001,-0.01722141888396965
15.768,-0.01722329404631782
15.772,-0.017224832641065037
15.776,-0.017226515479069806
15.780000000000001,-0.01722562597898157
15.784,-0.01722471243835041
15.788,-0.017224736478893336
15.792,-0.017229352263134986
15.796000000000001,-0.017227933871102396
15.8,-0.017223510411204148
15.804,-0.017220697667681893
15.808,-0.017220673627138965
15.812000000000001,-0.017218942708048347
15.816,-0.017220361100080937
15.82,-0.017223895059890953
15.824,-0.0172238469788051
15.828000000000001,-0.01722370273554755
15.832,-0.017223630613918774
15.836,-0.0172259385060396
15.84,-0.017223558492289997
15.844000000000001,-0.017225049005951364
15.848,-0.01722526537083769
15.852,-0.017226828006127834
15.856,-0.017225553857352794
15.860000000000001,-0.017226515479069806
15.864,-0.017227669425130217
15.868,-0.017230626411910026
15.872,-0.017232237128286018
15.876,-0.0172304100470237
15.88,-0.017229256100963285
15.884,-0.01722978499290764
15.888,-0.01723151591199826
15.892,-0.017228582965761376
15.896,-0.017226755884499057
15.9,-0.017228150235988723
15.904,-0.01722964074965009
15.908,-0.01722781366838777
15.912,-0.01722721265481464
15.916,-0.017228991654991106
15.92,-0.0172283185197892
15.924,-0.017226058708754224
15.928,-0.017224736478893336
15.932,-0.01722735689807219
15.936,-0.017226755884499057
15.94,-0.01722781366838777
15.944,-0.01722740497915804
15.948,-0.017224135465320204
15.952,-0.017227140533185862
15.956,-0.01722668376287028
15.96,-0.017225986587125448
15.964,-0.01722735689807219
15.968,-0.017225505776266945
15.972,-0.01722334212740367
15.976,-0.01722644335744103
15.98,-0.0172259385060396
15.984,-0.01722663568178443
15.988,-0.017223534451747072
15.992,-0.017224592235635782
15.996,-0.01722629911418348
16.0,-0.017224472032921156
16.004,-0.017223414249032447
16.008,-0.01722670780341321
16.012,-0.017226828006127834
16.016000000000002,-0.01722307768143149
16.02,-0.01722293343817394
16.024,-0.017222140100257407
16.028,-0.017220962113654068
16.032,-0.017222957478716865
16.036,-0.017225698100610348
16.04,-0.0172282223576175
16.044,-0.017227380938615113
16.048000000000002,-0.017224880722150886
16.052,-0.017225986587125448
16.056,-0.017224135465320204
16.06,-0.01722471243835041
16.064,-0.017223462330118296
16.068,-0.017222043938085706
16.072,-0.017221779492113527
16.076,-0.017221611208313052
16.080000000000002,-0.01722310172197442
16.084,-0.017224952843779662
16.088,-0.017222861316545164
16.092,-0.017223053640888566
16.096,-0.01722471243835041
16.1,-0.017224592235635782
16.104,-0.0172215631272272
16.108,-0.017221370802883797
16.112000000000002,-0.017222500708401287
16.116,-0.0172237508166334
16.12,-0.01722401526260558
16.124,-0.017221899694828156
16.128,-0.017221346762340873
16.132,-0.017223630613918774
16.136,-0.017224784559979184
16.14,-0.017223029600345642
16.144000000000002,-0.017220433221709713
16.148,-0.01722399122206265
16.152,-0.01722730881698634
16.156,-0.017223630613918774
16.16,-0.017223871019348025
16.164,-0.017226924168299535
16.168,-0.01722721265481464
16.172,-0.017232189047200166
16.176000000000002,-0.017234184412262966
16.18,-0.017231035101139755
16.184,-0.017231035101139755
16.188,-0.01722988115507934
16.192,-0.017226226992554702
16.196,-0.01722577022223912
16.2,-0.01722827043870335
16.204,-0.01722988115507934
16.208000000000002,-0.017229448425306687
16.212,-0.017227260735900488
16.216,-0.017224568195092858
16.22,-0.01722923206042036
16.224,-0.01723055429028125
16.228,-0.017230938938968054
16.232,-0.017229520546935464
