time,channel3
0.0,-0.013591609429312876
0.004,-0.013588508199275517
0.008,-0.013589181334477424
0.012,-0.013588940929048172
0.016,-0.01359194599691383
0.02,-0.013597282997443238
0.024,-0.013600432308566448
0.028,-0.013601345849197607
0.032,-0.01359834078133195
0.036000000000000004,-0.013595311672923367
0.04,-0.013601345849197607
0.044,-0.013600576551824
0.048,-0.013598533105675352
0.052000000000000005,-0.013597355119072015
0.056,-0.013586801320727824
0.06,-0.013583555847432913
0.064,-0.013580238252509227
0.068,-0.013579517036221468
0.07200000000000001,-0.013581560482370116
0.076,-0.013581921090513994
0.08,-0.013580959468796984
0.084,-0.013579877644365348
0.088,-0.013580310374138002
0.092,-0.013582594225715902
0.096,-0.013584613631321624
0.1,-0.013585935861182515
0.10400000000000001,-0.013585334847609383
0.108,-0.013585671415210335
0.112,-0.013588508199275517
0.116,-0.013591056496825595
0.12,-0.013585959901725439
0.124,-0.01358139219856964
0.128,-0.013593484591661046
0.132,-0.013599638970649914
0.136,-0.01359555207835262
0.14,-0.013594758740436086
0.14400000000000002,-0.013596585821698405
0.148,-0.013589421739906677
0.152,-0.01358824375330334
0.156,-0.013594013483605403
0.16,-0.013584854036750877
0.164,-0.01357920450916344
0.168,-0.013576944698128465
0.17200000000000001,-0.01357367518429063
0.176,-0.013573506900490152
0.18,-0.013577473590072822
0.184,-0.013577401468444045
0.188,-0.013575694589896352
0.192,-0.013574396400578387
0.196,-0.013575694589896352
0.2,-0.013578867941562486
0.20400000000000001,-0.013579468955135617
0.20800000000000002,-0.01357636772509826
0.212,-0.0135731703328892
0.216,-0.013582041293228621
0.22,-0.013592210442886008
0.224,-0.013590695888681717
0.228,-0.013581584522913042
0.232,-0.013577353387358194
0.23600000000000002,-0.01357920450916344
0.24,-0.013579637238936095
0.244,-0.013574757008722266
0.248,-0.013576223481840708
0.252,-0.013582233617572024
0.256,-0.01358692152344245
0.26,-0.013581368158026713
0.264,-0.013574540643835939
0.268,-0.013577233184643569
0.272,-0.013574276197863762
0.276,-0.013570501832624494
0.28,-0.013566078372726246
0.28400000000000003,-0.01356773717018809
0.28800000000000003,-0.013575021454694445
0.292,-0.01357874773884786
0.296,-0.013581608563455966
0.3,-0.013584998280008429
0.304,-0.013583002914945632
0.308,-0.013574011751891582
0.312,-0.013566679386299378
0.316,-0.013567689089102239
0.32,-0.01356691979172863
0.324,-0.013566030291640396
0.328,-0.013567544845844687
0.332,-0.013571655778684907
0.336,-0.013570093143394765
0.34,-0.013556149628498113
0.34400000000000003,-0.013558842169305743
0.34800000000000003,-0.013561077939797791
0.352,-0.013562520372373307
0.356,-0.013565309075352638
0.36,-0.013564323413092702
0.364,-0.013569299805478231
0.368,-0.013580286333595077
0.372,-0.013575526306095875
0.376,-0.013563650277890795
0.38,-0.013558770047676966
0.384,-0.013555837101440085
0.388,-0.0135504279792819
0.392,-0.013548023924989374
0.396,-0.013543143694775545
0.4,-0.013543864911063304
0.404,-0.013542085910886834
0.40800000000000003,-0.013545331384181744
0.41200000000000003,-0.013548072006075225
0.41600000000000004,-0.01354713442490114
0.42,-0.013545427546353446
0.424,-0.013544826532780314
0.428,-0.013543696627262826
0.432,-0.013542735005545816
0.436,-0.013545187140924193
0.44,-0.013546821897843111
0.444,-0.013543816829977453
0.448,-0.013547591195216719
0.452,-0.013566559183584752
0.456,-0.013568482427018773
0.46,-0.013549706762994142
0.464,-0.013542374397401937
0.468,-0.01354352834346235
0.47200000000000003,-0.013549851006251694
0.47600000000000003,-0.013546172803184129
0.48,-0.013540210748538664
0.484,-0.013536941234700827
0.488,-0.013538720234877297
0.492,-0.01353896064030655
0.496,-0.01353631618058477
0.5,-0.013538287505104642
0.504,-0.01354266288391704
0.508,-0.013547495033045018
0.512,-0.0135504279792819
0.516,-0.013547855641188896
0.52,-0.01354571603286855
0.524,-0.013544369762464734
0.528,-0.01354626896535583
0.532,-0.013556967006957571
0.536,-0.013568770913533876
0.54,-0.013563049264317664
0.544,-0.01354622088426998
0.548,-0.013542422478487788
0.552,-0.013537133559044229
0.556,-0.013537542248273958
0.56,-0.013535522842668237
0.5640000000000001,-0.013536556586014024
0.5680000000000001,-0.013538215383475867
0.5720000000000001,-0.013543143694775545
0.5760000000000001,-0.013549634641365367
0.58,-0.013549081708878086
0.584,-0.013545211181467117
0.588,-0.013545115019295418
0.592,-0.01354499481658079
0.596,-0.013551870411857415
0.6,-0.01355691892587172
0.604,-0.013551461722627686
0.608,-0.013551269398284283
0.612,-0.013556005385240561
0.616,-0.013554298506692868
0.62,-0.013550500100910676
0.624,-0.013549538479193666
0.628,-0.013548384533133253
0.632,-0.013547975843903524
0.636,-0.013544802492237388
0.64,-0.013537830734789062
0.644,-0.013541893586543431
0.648,-0.01354956251973659
0.652,-0.013553120520089529
0.656,-0.013552615668688098
0.66,-0.013557207412386824
0.664,-0.013561510669570447
0.668,-0.013557159331300974
0.672,-0.01355636599338444
0.676,-0.013564756142865357
0.68,-0.013571319211083954
0.684,-0.013565813926754069
0.6880000000000001,-0.01355078858742578
0.6920000000000001,-0.013549346154850263
0.6960000000000001,-0.013549033627792235
0.7000000000000001,-0.013545211181467117
0.704,-0.013543215816404322
0.708,-0.013544514005722286
0.712,-0.013545884316669025
0.716,-0.013546749776214334
0.72,-0.013550115452223871
0.724,-0.013550980911769182
0.728,-0.013554466790493344
0.732,-0.013552591628145174
0.736,-0.013546172803184129
0.74,-0.01354448996517936
0.744,-0.013540138626909887
0.748,-0.013538431748362193
0.752,-0.01353860003216267
0.756,-0.013537518207731034
0.76,-0.01353170039634312
0.764,-0.013537422045559333
0.768,-0.013546869978928962
0.772,-0.01354672573567141
0.776,-0.013545163100381266
0.78,-0.013546990181643587
0.784,-0.013552663749773949
0.788,-0.013547543114130868
0.792,-0.013539321248450429
0.796,-0.013535210315610209
0.8,-0.013533503437062515
0.804,-0.013534729504751703
0.808,-0.013537566288816884
0.812,-0.013541052167541047
0.8160000000000001,-0.013541581059485403
0.8200000000000001,-0.013542085910886834
0.8240000000000001,-0.013546148762641203
0.8280000000000001,-0.013548793222362982
0.8320000000000001,-0.013547831600645972
0.836,-0.01354549966798222
0.84,-0.013544345721921808
0.844,-0.01353997034310941
0.848,-0.013546557451870932
0.852,-0.013561534710113371
0.856,-0.013565212913180937
0.86,-0.013551221317198433
0.864,-0.01354037903233914
0.868,-0.013539705897137233
0.872,-0.013540859843197646
0.876,-0.013541773383828806
0.88,-0.013543937032692079
0.884,-0.013547350789787466
0.888,-0.013548312411504476
0.892,-0.013547254627615765
0.896,-0.01354718250598699
0.9,-0.01354667765458556
0.904,-0.013545523708525147
0.908,-0.013546148762641203
0.912,-0.013548673019648357
0.916,-0.013548072006075225
0.92,-0.01354448996517936
0.924,-0.013541653181114178
0.928,-0.013552471425430547
0.932,-0.013562544412916233
0.936,-0.01355408214180654
0.9400000000000001,-0.013545427546353446
0.9440000000000001,-0.013544249559750107
0.9480000000000001,-0.013542061870343909
0.9520000000000001,-0.013542903289346292
0.9560000000000001,-0.013546341086984605
0.96,-0.01354453804626521
0.964,-0.013540499235053766
0.968,-0.013541004086455196
0.972,-0.013545980478840727
0.976,-0.013549466357564889
0.98,-0.013548673019648357
0.984,-0.013548985546706385
0.988,-0.013546918060014812
0.992,-0.013551197276655508
0.996,-0.013548576857476655
1.0,-0.013546148762641203
1.004,-0.013544562086808135
1.008,-0.01354809604661815
1.012,-0.013548528776390805
1.016,-0.013545211181467117
1.02,-0.01354307157314677
1.024,-0.013540499235053766
1.028,-0.013539321248450429
1.032,-0.013539080843021176
1.036,-0.013541124289169823
1.04,-0.013543336019118947
1.044,-0.013541773383828806
1.048,-0.013548961506163458
1.052,-0.01355636599338444
1.056,-0.013553288803890007
1.06,-0.013545211181467117
1.064,-0.01354230227577316
1.068,-0.013549346154850263
1.072,-0.013548697060191281
1.076,-0.013543961073235003
1.08,-0.013543744708348677
1.084,-0.013552952236289053
1.088,-0.013556341952841515
1.092,-0.013550500100910676
1.096,-0.013547663316845494
1.1,-0.013546052600469502
1.104,-0.01354499481658079
1.108,-0.013545163100381266
1.112,-0.013549298073764413
1.116,-0.013552014655114967
1.12,-0.01355422638506409
1.124,-0.01355408214180654
1.1280000000000001,-0.013553192641718306
1.1320000000000001,-0.013555572655467906
1.1360000000000001,-0.013554971641894774
1.1400000000000001,-0.013558433480076012
1.1440000000000001,-0.0135549956824377
1.1480000000000001,-0.013552086776743744
1.1520000000000001,-0.013554514871579194
1.156,-0.013556702560985394
1.16,-0.013559731669393976
1.164,-0.013559491263964725
1.168,-0.013556606398813693
1.172,-0.013552158898372519
1.176,-0.013547110384358213
1.18,-0.013554586993207971
1.184,-0.013558938331477444
1.188,-0.013557039128586348
1.192,-0.013561198142512419
1.196,-0.013559803791022753
1.2,-0.013553505168776334
1.204,-0.013551437682084761
1.208,-0.01355175020914279
1.212,-0.013549370195393188
1.216,-0.013553865776920212
1.22,-0.01355713529075805
1.224,-0.013557568020530703
1.228,-0.01356143854794167
1.232,-0.013565669683496517
1.236,-0.013563986845491748
1.24,-0.013563097345403514
1.244,-0.013560404804595885
1.248,-0.013553817695834362
1.252,-0.01355768822324533
1.256,-0.013570165265023542
1.26,-0.013573338616689676
1.264,-0.013567424643130061
1.268,-0.013557207412386824
1.272,-0.013550235654938498
1.276,-0.013551557884799387
1.28,-0.013555163966238177
1.284,-0.013557087209672199
1.288,-0.013556293871755665
1.292,-0.013557399736730227
1.296,-0.013561270264141194
1.3,-0.013562039561514801
1.304,-0.013563289669746915
1.308,-0.013562231885858204
1.312,-0.013559683588308126
1.316,-0.013554562952665045
1.32,-0.013560044196452006
1.324,-0.013572833765288245
1.328,-0.013579348752420992
1.332,-0.013575622468267576
1.336,-0.013566102413269172
1.34,-0.013557447817816077
1.344,-0.01355408214180654
1.348,-0.013561414507398745
1.352,-0.013565982210554545
1.356,-0.013563698358976646
1.36,-0.013560212480252482
1.364,-0.013560909655997315
1.368,-0.013563698358976646
1.372,-0.013564732102322431
1.3760000000000001,-0.013564972507751684
1.3800000000000001,-0.013563698358976646
1.3840000000000001,-0.013560885615454389
1.3880000000000001,-0.013563962804948823
1.3920000000000001,-0.013565285034809712
1.3960000000000001,-0.013567472724215912
1.4000000000000001,-0.013569924859594289
1.4040000000000001,-0.01356490038612291
1.408,-0.013557952669217508
1.412,-0.013561871277714325
1.416,-0.013568530508104623
1.42,-0.013567544845844687
1.424,-0.013567713129645165
1.428,-0.01356514079155216
1.432,-0.013563241588661065
1.436,-0.013562135723686503
1.44,-0.013558505601704789
1.444,-0.01355778438541703
1.448,-0.013561919358800176
1.452,-0.013564203210378076
1.456,-0.013566655345756453
1.46,-0.013568626670276324
1.464,-0.013567015953900332
1.468,-0.013564203210378076
1.472,-0.013565813926754069
1.476,-0.013568025656703193
1.48,-0.01356910748113483
1.484,-0.013566102413269172
1.488,-0.013563794521148346
1.492,-0.013567881413445641
1.496,-0.01357244911660144
1.5,-0.013578507333418607
1.504,-0.013573290535603825
1.508,-0.013563409872461542
1.512,-0.01356276077780256
1.516,-0.013562953102145963
1.52,-0.013563650277890795
1.524,-0.013564996548294609
1.528,-0.013562328048029905
1.532,-0.013556005385240561
1.536,-0.013558721966591115
1.54,-0.013560092277537857
1.544,-0.013559731669393976
1.548,-0.013559851872108604
1.552,-0.013559875912651528
1.556,-0.013561174101969492
1.56,-0.013562808858888411
1.564,-0.013564611899607806
1.568,-0.013564323413092702
1.572,-0.013566535143041826
1.576,-0.013575742670982202
1.58,-0.013572016386828787
1.584,-0.013564083007663449
1.588,-0.01356778525127394
1.592,-0.013574059832977433
1.596,-0.013564371494178553
1.6,-0.01355494760135185
1.604,-0.01355444274995042
1.608,-0.013555236087866953
1.612,-0.013555188006781103
1.616,-0.013553505168776334
1.62,-0.01355326476334708
1.624,-0.013553505168776334
1.6280000000000001,-0.013553240722804156
1.6320000000000001,-0.013555308209495728
1.6360000000000001,-0.01355783246650288
1.6400000000000001,-0.013559371061250098
1.6440000000000001,-0.01355997207482323
1.6480000000000001,-0.013559948034280305
1.6520000000000001,-0.013559875912651528
1.6560000000000001,-0.0135618472371714
1.6600000000000001,-0.01356564564295359
1.6640000000000001,-0.013569900819051363
1.668,-0.013576896617042615
1.672,-0.013562159764229429
1.676,-0.013545691992325623
1.68,-0.01354718250598699
1.684,-0.01355088474959748
1.688,-0.013550259695481423
1.692,-0.01354997120896632
1.696,-0.013547062303272362
1.7,-0.01354571603286855
1.704,-0.013548937465620534
1.708,-0.013551605965885238
1.712,-0.013552663749773949
1.716,-0.013553457087690483
1.72,-0.013554827398637222
1.724,-0.013556197709583964
1.728,-0.013557952669217508
1.732,-0.013560789453282688
1.736,-0.01356139046685582
1.74,-0.0135595633855935
1.744,-0.01356783333235979
1.748,-0.013569011318963129
1.752,-0.013559851872108604
1.756,-0.01355444274995042
1.76,-0.013551557884799387
1.764,-0.013548745141277132
1.768,-0.013548216249332775
1.772,-0.013547831600645972
1.776,-0.0135459564382978
1.78,-0.01354549966798222
1.784,-0.01354718250598699
1.788,-0.013549370195393188
1.792,-0.013552471425430547
1.796,-0.01355732761510145
1.8,-0.013562544412916233
1.804,-0.013566727467385228
1.808,-0.013569083440591904
1.812,-0.013562640575087933
1.816,-0.01356134238576997
1.82,-0.013568193940503669
1.824,-0.013569540210907484
1.828,-0.013566991913357406
1.832,-0.01356687171064278
1.836,-0.01356276077780256
1.84,-0.013563818561691272
1.844,-0.013564828264494132
1.848,-0.013560813493825614
1.852,-0.013557976709760432
1.856,-0.013558361358447237
1.86,-0.013560236520795407
1.864,-0.01356417916983515
1.868,-0.013565068669923385
1.872,-0.013561053899254867
1.8760000000000001,-0.013555644777096683
1.8800000000000001,-0.013558890250391593
1.8840000000000001,-0.013563962804948823
1.8880000000000001,-0.013564443615807328
1.8920000000000001,-0.013561246223598269
1.8960000000000001,-0.013563866642777122
1.9000000000000001,-0.013570333548824018
1.9040000000000001,-0.013572256792258038
1.9080000000000001,-0.013568626670276324
1.9120000000000001,-0.013563097345403514
1.9160000000000001,-0.01355855368279064
1.92,-0.013560356723510034
1.924,-0.01355453891212212
1.928,-0.013543624505634051
1.932,-0.013544057235406705
1.936,-0.013546076641012428
1.94,-0.01354622088426998
1.944,-0.013545932397754876
1.948,-0.013548528776390805
1.952,-0.013550115452223871
1.956,-0.013547495033045018
1.96,-0.013545740073411474
1.964,-0.013552231020001295
1.968,-0.013554586993207971
1.972,-0.013555524574382055
1.976,-0.01355860176387649
1.98,-0.013562448250744532
1.984,-0.013563241588661065
1.988,-0.013556390033927366
1.992,-0.01354773543847427
1.996,-0.013541220451341525
2.0,-0.013536460423842323
2.004,-0.013540956005369345
2.008,-0.013543720667805752
2.012,-0.013543648546176975
2.016,-0.013540763681025945
2.02,-0.01354230227577316
2.024,-0.013543408140747722
2.028,-0.013544105316492555
2.032,-0.01354590835721195
2.036,-0.013546172803184129
2.04,-0.013543143694775545
2.044,-0.01354713442490114
2.048,-0.01354910574942101
2.052,-0.01354641320861338
2.056,-0.013545018857123716
2.06,-0.013547038262729438
2.064,-0.013548769181820056
2.068,-0.013549394235936114
2.072,-0.013549009587249309
2.076,-0.01354499481658079
2.08,-0.013541220451341525
2.084,-0.013540162667452813
2.088,-0.01353667678872865
2.092,-0.013541989748715132
2.096,-0.013544754411151537
2.1,-0.013543624505634051
2.104,-0.013538239424018791
2.108,-0.01353357555869129
2.112,-0.013538696194334371
2.116,-0.013540282870167439
2.12,-0.013539633775508457
2.124,-0.013540763681025945
2.128,-0.013547951803360598
2.132,-0.013552279101087146
2.136,-0.01354352834346235
2.14,-0.013534128491178571
2.144,-0.013532085045029923
2.148,-0.013533936166835169
2.152,-0.01353631618058477
2.156,-0.013535931531897966
2.16,-0.013530089679967128
2.164,-0.013533311112719113
2.168,-0.013535066072352657
2.172,-0.013529897355623726
2.176,-0.013530137761052977
2.18,-0.013528142395990182
2.184,-0.013532710099145981
2.188,-0.013539729937680158
2.192,-0.013542422478487788
2.196,-0.01354403319486378
2.2,-0.013543336019118947
2.204,-0.013545571789610997
2.208,-0.013554250425607017
2.212,-0.013549947168423395
2.216,-0.01353448909932245
2.22,-0.013530306044853455
2.224,-0.01353504203180973
2.228,-0.013536364261670621
2.232,-0.013535931531897966
2.236,-0.013531411909828017
2.24,-0.013522949638718324
2.244,-0.013522132260258866
2.248,-0.013524416111836765
2.2520000000000002,-0.013527349058073648
2.2560000000000002,-0.013529801193452025
2.2600000000000002,-0.013532686058603055
2.2640000000000002,-0.013534272734436123
2.2680000000000002,-0.01353525839669606
2.2720000000000002,-0.013535859410269191
2.2760000000000002,-0.013536965275243753
2.2800000000000002,-0.013537205680673006
2.2840000000000003,-0.013537662450988586
2.2880000000000003,-0.013538527910533895
2.2920000000000003,-0.013545812195040249
2.2960000000000003,-0.013557063169129272
2.3000000000000003,-0.013550956871226255
2.3040000000000003,-0.013540499235053766
2.308,-0.013533479396519589
2.312,-0.013528406841962359
2.316,-0.013530474328653931
2.32,-0.01352489692269527
2.324,-0.013526411476899562
2.328,-0.013528310679790658
2.332,-0.013527757747303377
2.336,-0.013525546017354253
2.34,-0.013524584395637243
2.344,-0.013526916328300992
2.348,-0.013528791490649164
2.352,-0.013527877950018002
2.356,-0.013529176139335967
2.36,-0.013529296342050594
2.364,-0.013528647247391612
2.368,-0.013528527044676985
2.372,-0.013528310679790658
2.376,-0.013528310679790658
2.38,-0.013530257963767604
2.384,-0.0135390087213924
2.388,-0.01354033095125329
2.392,-0.013528527044676985
2.396,-0.013526147030927384
2.4,-0.013527757747303377
2.404,-0.013524512274008466
2.408,-0.013530065639424202
2.412,-0.01352718077427317
2.416,-0.013518285773390823
2.42,-0.013519151232936132
2.424,-0.013522468827859818
2.428,-0.013526820166129291
2.432,-0.013529031896078415
2.436,-0.013528190477076032
2.44,-0.01352708461210147
2.444,-0.013526387436356637
2.448,-0.013527685625674602
2.452,-0.013531123423312913
2.456,-0.013535234356153133
2.46,-0.01353165231525727
2.464,-0.013524295909122139
2.468,-0.013531820599057746
2.472,-0.01352946462585107
2.476,-0.013525497936268402
2.48,-0.013529152098793042
2.484,-0.013528743409563313
2.488,-0.013530402207025156
2.492,-0.01353042624756808
2.496,-0.013527397139159498
2.5,-0.0135298733150808
2.504,-0.013533359193804963
2.508,-0.013532806261317682
2.512,-0.013531868680143597
2.516,-0.013532541815345503
2.52,-0.013532710099145981
2.524,-0.013532181207201625
2.528,-0.0135344410182366
2.532,-0.013537037396872528
2.536,-0.013529224220421817
2.54,-0.013518814665335178
2.544,-0.013523310246862203
2.548,-0.013533936166835169
2.552,-0.013532806261317682
2.556,-0.013529031896078415
2.56,-0.013533695761405918
2.564,-0.01353677295090035
2.568,-0.01352936846367937
2.572,-0.013524704598351868
2.576,-0.013523815098263633
2.58,-0.013524247828036288
2.584,-0.013524656517266018
2.588,-0.013526892287758068
2.592,-0.013531556153085569
2.596,-0.013537109518501305
2.6,-0.013532830301860607
2.604,-0.013526868247215142
2.608,-0.01352722885535902
2.612,-0.013528839571735014
2.616,-0.013533431315433738
2.62,-0.01353114746385584
2.624,-0.013529224220421817
2.628,-0.013530786855711959
2.632,-0.013531940801772372
2.636,-0.013530955139512437
2.64,-0.013528430882505283
2.644,-0.013524127625321661
2.648,-0.013522300544059342
2.652,-0.013526483598528339
2.656,-0.013529440585308146
2.66,-0.013532830301860607
2.664,-0.013530474328653931
2.668,-0.013524560355094317
2.672,-0.013525666220068878
2.676,-0.01351941567890831
2.68,-0.013517468394931365
2.684,-0.013523815098263633
2.688,-0.01352754138241705
2.692,-0.013531003220598288
2.696,-0.013535450721039462
2.7,-0.013531556153085569
2.704,-0.013524872882152345
2.708,-0.013521290841256481
2.712,-0.013520160935738993
2.716,-0.013520257097910694
2.72,-0.013521338922342332
2.724,-0.013521218719627704
2.728,-0.013526074909298608
2.732,-0.013532974545118159
2.736,-0.013528334720333582
2.74,-0.013523310246862203
2.744,-0.013521723571029135
2.748,-0.013515737475840745
2.7520000000000002,-0.013517396273302588
2.7560000000000002,-0.013524271868579213
2.7600000000000002,-0.01352306984143295
2.7640000000000002,-0.013525065206495747
2.7680000000000002,-0.013526820166129291
2.7720000000000002,-0.013524704598351868
2.7760000000000002,-0.013523286206319278
2.7800000000000002,-0.013525017125409896
2.7840000000000003,-0.0135299694772525
2.7880000000000003,-0.013531171504398764
2.7920000000000003,-0.013532806261317682
2.7960000000000003,-0.013535955572440892
2.8000000000000003,-0.01353850386999097
2.8040000000000003,-0.013533431315433738
2.8080000000000003,-0.013522949638718324
2.8120000000000003,-0.013518574259905927
2.816,-0.013522132260258866
2.82,-0.013528815531192088
2.824,-0.013526627841785889
2.828,-0.013526459557985412
2.832,-0.01353042624756808
2.836,-0.013529584828565696
2.84,-0.013525666220068878
2.844,-0.013522420746773968
2.848,-0.01352165144940036
2.852,-0.013525017125409896
2.856,-0.013524632476723093
2.86,-0.01352850300413406
2.864,-0.013532085045029923
2.868,-0.013534416977693675
2.872,-0.01353576324809749
2.876,-0.013535138193981432
2.88,-0.013538167302390016
2.884,-0.013537061437415454
2.888,-0.013533166869461561
2.892,-0.013524536314551392
2.896,-0.013520834070940901
2.9,-0.013522829436003699
2.904,-0.013523791057720709
2.908,-0.01352941654476522
2.912,-0.013530185842138828
2.916,-0.01352525753083915
2.92,-0.013524223787493362
2.924,-0.013530714734083184
2.928,-0.013533359193804963
2.932,-0.013530666652997334
2.936,-0.013530209882681754
2.94,-0.01353170039634312
2.944,-0.013534392937150749
2.948,-0.013539561653879682
2.952,-0.013539249126821652
2.956,-0.013535522842668237
2.96,-0.013531772517971895
2.964,-0.013530618571911483
2.968,-0.013536099815698444
2.972,-0.013537614369902735
2.976,-0.013534657383122928
2.98,-0.013541124289169823
2.984,-0.013550211614395572
2.988,-0.013550355857653124
2.992,-0.013549995249509245
2.996,-0.013554322547235792
3.0,-0.01354961060082244
3.004,-0.013532469693716728
3.008,-0.013528478963591134
3.012,-0.013525594098440103
3.016,-0.013525882584955207
3.02,-0.01352891169336379
3.024,-0.013532445653173804
3.028,-0.013534368896607824
3.032,-0.01353088301788366
3.036,-0.013529777152909098
3.04,-0.013536556586014024
3.044,-0.013538816397048998
3.048,-0.013540691559397168
3.052,-0.013542374397401937
3.056,-0.0135435764245482
3.06,-0.013542831167717517
3.064,-0.013540859843197646
3.068,-0.013542638843374115
3.072,-0.01353915296464995
3.076,-0.0135344410182366
3.08,-0.013534921829095105
3.084,-0.01354033095125329
3.088,-0.013539898221480634
3.092,-0.013537614369902735
3.096,-0.013536123856241368
3.1,-0.013529825233994949
3.104,-0.01352850300413406
3.108,-0.013534200612807348
3.112,-0.013536532545471098
3.116,-0.01354220611360146
3.12,-0.01354672573567141
3.124,-0.013540643478311317
3.128,-0.0135390087213924
3.132,-0.01353484970746633
3.136,-0.013531003220598288
3.14,-0.013528478963591134
3.144,-0.013527397139159498
3.148,-0.013532493734259654
3.152,-0.013539802059308933
3.156,-0.013533743842491766
3.16,-0.013526748044500516
3.164,-0.013527156733730245
3.168,-0.013534008288463946
3.172,-0.013533287072176187
3.176,-0.013534657383122928
3.18,-0.01353535455886776
3.184,-0.013535691126468713
3.188,-0.013536244058955994
3.192,-0.01353484970746633
3.196,-0.01353362363977714
3.2,-0.013541364694599076
3.204,-0.013542446519030712
3.208,-0.013536099815698444
3.212,-0.0135344410182366
3.216,-0.01353992226202356
3.22,-0.013540739640483019
3.224,-0.013534465058779525
3.228,-0.013530282004310529
3.232,-0.013529945436709576
3.236,-0.013531003220598288
3.24,-0.01354220611360146
3.244,-0.013537373964473482
3.248,-0.013521507206142808
3.2520000000000002,-0.01352621915255616
3.2560000000000002,-0.013535643045382862
3.2600000000000002,-0.013539080843021176
3.2640000000000002,-0.013540090545824036
3.2680000000000002,-0.013540643478311317
3.2720000000000002,-0.013542855208260441
3.2760000000000002,-0.013544514005722286
3.2800000000000002,-0.013541821464914656
3.2840000000000003,-0.013533311112719113
3.2880000000000003,-0.013526243193099086
3.2920000000000003,-0.01352585854441228
3.2960000000000003,-0.013526098949841534
3.3000000000000003,-0.013535378599410685
3.3040000000000003,-0.013538840437591923
3.3080000000000003,-0.013537999018589538
3.3120000000000003,-0.013536171937327219
3.3160000000000003,-0.013534200612807348
3.3200000000000003,-0.013532541815345503
3.3240000000000003,-0.013523670855006081
3.3280000000000003,-0.013526868247215142
3.332,-0.013536195977870143
3.336,-0.013540282870167439
3.34,-0.013542494600116563
3.344,-0.013545740073411474
3.348,-0.013548985546706385
3.352,-0.013540595397225467
3.356,-0.013533936166835169
3.36,-0.013530546450282708
3.364,-0.01353667678872865
3.368,-0.013539080843021176
3.372,-0.013540403072882064
3.376,-0.013535474761582386
3.38,-0.013535114153438508
3.384,-0.013535691126468713
3.388,-0.013536917194157902
3.392,-0.013536003653526743
3.396,-0.013535835369726265
3.4,-0.013538527910533895
3.404,-0.0135389125592207
3.408,-0.013537662450988586
3.412,-0.013537614369902735
3.416,-0.013539778018766008
3.42,-0.01353987418093771
3.424,-0.01354230227577316
3.428,-0.01354713442490114
3.432,-0.013544850573323238
3.436,-0.01354184550545758
3.44,-0.013540523275596692
3.444,-0.013543504302919424
3.448,-0.013535474761582386
3.452,-0.013530282004310529
3.456,-0.013528983814992564
3.46,-0.013529632909651547
3.464,-0.013531748477428971
3.468,-0.013534392937150749
3.472,-0.013535090112895581
3.476,-0.013534416977693675
3.48,-0.013533960207378095
3.484,-0.013533936166835169
3.488,-0.01353581132918334
3.492,-0.013541028126998122
3.496,-0.013543504302919424
3.5,-0.013543864911063304
3.504,-0.013536845072529126
3.508,-0.013530762815169035
3.512,-0.013539802059308933
3.516,-0.01355636599338444
3.52,-0.0135528079930315
3.524,-0.01354302349206092
3.528,-0.013539657816051383
3.532,-0.013540859843197646
3.536,-0.013540811762111795
3.54,-0.013534392937150749
3.544,-0.013531556153085569
3.548,-0.013534416977693675
3.552,-0.013537373964473482
3.556,-0.013537373964473482
3.56,-0.013534416977693675
3.564,-0.013533238991090336
3.568,-0.01353489778855218
3.572,-0.013534561220951227
3.576,-0.013528358760876508
3.58,-0.013538311545647568
3.584,-0.013544249559750107
3.588,-0.013547014222186512
3.592,-0.013550620303625301
3.596,-0.013550235654938498
3.6,-0.013546004519383651
3.604,-0.013542422478487788
3.608,-0.013548336452047402
3.612,-0.013546341086984605
3.616,-0.01353850386999097
3.62,-0.01353631618058477
3.624,-0.013536195977870143
3.628,-0.013537133559044229
3.632,-0.013537854775331988
3.636,-0.01353850386999097
3.64,-0.013539393370079204
3.644,-0.013541004086455196
3.648,-0.013542037829800983
3.652,-0.013536748910357424
3.656,-0.013534825666923404
3.66,-0.013544417843550585
3.664,-0.013554827398637222
3.668,-0.01355586114198301
3.672,-0.013549826965708769
3.676,-0.0135435764245482
3.68,-0.013546172803184129
3.684,-0.013552591628145174
3.688,-0.01354453804626521
3.692,-0.013535090112895581
3.696,-0.013537806694246137
3.7,-0.013539393370079204
3.704,-0.01353763841044566
3.708,-0.01352900785553549
3.712,-0.013526531679614187
3.716,-0.013530955139512437
3.72,-0.013532806261317682
3.724,-0.013541028126998122
3.728,-0.01354646128969923
3.732,-0.013546894019471886
3.736,-0.013547422911416243
3.74,-0.01354220611360146
3.744,-0.013537878815874912
3.748,-0.013536147896784293
3.7520000000000002,-0.013536845072529126
3.7560000000000002,-0.013539128924107026
3.7600000000000002,-0.013540018424195261
3.7640000000000002,-0.01354398511377793
3.7680000000000002,-0.013542326316316087
3.7720000000000002,-0.01353311878837571
3.7760000000000002,-0.013531363828742166
3.7800000000000002,-0.013545667951782699
3.7840000000000003,-0.013548985546706385
3.7880000000000003,-0.013543167735318471
3.7920000000000003,-0.013537999018589538
3.7960000000000003,-0.013535498802125312
3.8000000000000003,-0.013538479829448044
3.8040000000000003,-0.01354307157314677
3.8080000000000003,-0.013542590762288264
3.8120000000000003,-0.01353429677497905
3.8160000000000003,-0.01352677208504344
3.8200000000000003,-0.013523815098263633
3.8240000000000003,-0.013525161368667448
3.8280000000000003,-0.013521867814286687
3.8320000000000003,-0.013515641313669044
3.8360000000000003,-0.013528310679790658
3.84,-0.01353480162638048
3.844,-0.01353210908557285
3.848,-0.013531964842315298
3.852,-0.013535210315610209
3.856,-0.013532926464032308
3.86,-0.013526459557985412
3.864,-0.013526074909298608
3.868,-0.013529512706936921
3.872,-0.013531435950370941
3.876,-0.013534272734436123
3.88,-0.013530546450282708
3.884,-0.013524536314551392
3.888,-0.013520209016824844
3.892,-0.013515376867696867
3.896,-0.013517011624615783
3.9,-0.013530907058426586
3.904,-0.013534729504751703
3.908,-0.013530546450282708
3.912,-0.013528719369020387
3.916,-0.013530282004310529
3.92,-0.01352576238224058
3.924,-0.01352018497628192
3.928,-0.013522997719804175
3.932,-0.013522757314374922
3.936,-0.013520930233112603
3.94,-0.01352362277392023
3.944,-0.013523358327948053
3.948,-0.013517973246332795
3.952,-0.013520593665511648
3.956,-0.013519079111307357
3.96,-0.01351653081375728
3.964,-0.013522300544059342
3.968,-0.013526363395813711
3.972,-0.013529272301507668
3.976,-0.01352845492304821
3.98,-0.013527252895901946
3.984,-0.013527757747303377
3.988,-0.013528310679790658
3.992,-0.01352946462585107
3.996,-0.01353261393697428
4.0,-0.0135344410182366
4.0040000000000004,-0.013535498802125312
4.008,-0.013540499235053766
4.0120000000000005,-0.013541701262200029
4.016,-0.013536821031986201
4.0200000000000005,-0.013536244058955994
4.024,-0.013536484464385247
4.0280000000000005,-0.013532782220774756
4.032,-0.013535450721039462
4.0360000000000005,-0.013534176572264422
4.04,-0.013531868680143597
4.0440000000000005,-0.013536147896784293
4.048,-0.01352992139616665
4.0520000000000005,-0.013525618138983028
4.056,-0.013529031896078415
4.0600000000000005,-0.013528118355447255
4.064,-0.013525738341697655
4.0680000000000005,-0.013523767017177783
4.072,-0.013523815098263633
4.0760000000000005,-0.013525906625498131
4.08,-0.013527445220245349
4.0840000000000005,-0.013528743409563313
4.088,-0.013528142395990182
4.0920000000000005,-0.013525065206495747
4.096,-0.013527300976987797
4.1,-0.013534200612807348
4.104,-0.013539297207907502
4.108,-0.013537710532074436
4.112,-0.013537878815874912
4.116,-0.013543167735318471
4.12,-0.013546533411328008
4.124,-0.013550980911769182
4.128,-0.013554154263435316
4.132,-0.013544634208436912
4.136,-0.013529128058250116
4.14,-0.013516338489413877
4.144,-0.01352165144940036
4.148,-0.013528767450106238
4.152,-0.01353398424792102
4.156,-0.013535210315610209
4.16,-0.01353357555869129
4.164,-0.013534681423665852
4.168,-0.013538984680849474
4.172,-0.013542350356859011
4.176,-0.013542422478487788
4.18,-0.013540282870167439
4.184,-0.01353850386999097
4.188,-0.013540595397225467
4.192,-0.013544706330065687
4.196,-0.013542398437944862
4.2,-0.013538239424018791
4.204,-0.013534753545294629
4.208,-0.013545475627439296
4.212,-0.013550307776567273
4.216,-0.013543215816404322
4.22,-0.013538479829448044
4.224,-0.013540715599940094
4.228,-0.01354225419468731
4.232,-0.01354078772156887
4.236,-0.013542927329889218
4.24,-0.013545355424724669
4.244,-0.013547855641188896
4.248,-0.013552832033574427
4.252,-0.013554394668864569
4.256,-0.013547831600645972
4.26,-0.01354723058707284
4.264,-0.013543384100204798
4.268,-0.013541364694599076
4.272,-0.013549754844079992
4.276,-0.013555476493296205
4.28,-0.013555380331124503
4.284,-0.01355362537149096
4.288,-0.013545066938209567
4.292,-0.01353576324809749
4.296,-0.01353448909932245
4.3,-0.013537758613160287
4.304,-0.013541268532427375
4.308,-0.013542927329889218
4.312,-0.013544682289522762
4.316,-0.013546052600469502
4.32,-0.013547903722274747
4.324,-0.013549730803537068
4.328,-0.013551125155026733
4.332,-0.01355078858742578
4.336,-0.013549826965708769
4.34,-0.013552639709231025
4.344,-0.013554346587778718
4.348,-0.013554010020177764
4.352,-0.013559226817992546
4.356,-0.013563746440062497
4.36,-0.013567544845844687
4.364,-0.013558169034103834
4.368,-0.013548312411504476
4.372,-0.013545740073411474
4.376,-0.013549177871049787
4.38,-0.01355006737113802
4.384,-0.013547879681731823
4.388,-0.013543480262376499
4.392,-0.013545595830153922
4.396,-0.013553433047147559
4.4,-0.013555091844609402
4.404,-0.013553937898548989
4.408,-0.01355001929005217
4.412,-0.013551533844256463
4.416,-0.0135504279792819
4.42,-0.013547927762817673
4.424,-0.013547975843903524
4.428,-0.013550764546882853
4.432,-0.013558289236818462
4.436,-0.01355951530450765
4.44,-0.01355590922306886
4.444,-0.013555572655467906
4.448,-0.01356006823699493
4.452,-0.013559491263964725
4.456,-0.013553841736377288
4.46,-0.013552783952488576
4.464,-0.013553553249862184
4.468,-0.01355403406072069
4.472,-0.013550307776567273
4.476,-0.013548697060191281
4.48,-0.013553192641718306
4.484,-0.013554923560808924
4.488,-0.01354961060082244
4.492,-0.013546797857300185
4.496,-0.013548961506163458
4.5,-0.013549947168423395
4.5040000000000004,-0.013553697493119736
4.508,-0.013554130222892391
4.5120000000000005,-0.013552567587602248
4.516,-0.013553601330948035
4.5200000000000005,-0.01355134151991306
4.524,-0.01354819220878985
4.5280000000000005,-0.013546076641012428
4.532,-0.01354352834346235
4.5360000000000005,-0.013541821464914656
4.54,-0.013547422911416243
4.5440000000000005,-0.013550235654938498
4.548,-0.013551726168599865
4.5520000000000005,-0.013553192641718306
4.556,-0.013551702128056939
4.5600000000000005,-0.013547302708701615
4.564,-0.013555043763523551
4.5680000000000005,-0.013559250858535472
4.572,-0.013567448683672986
4.5760000000000005,-0.01357006910285184
4.58,-0.013566847670099854
4.5840000000000005,-0.013565525440238965
4.588,-0.013565285034809712
4.5920000000000005,-0.013555596696010832
4.596,-0.013543912992149154
4.6000000000000005,-0.013545547749068071
4.604,-0.013548288370961552
4.6080000000000005,-0.013549177871049787
4.612,-0.013549802925165843
4.616,-0.013552471425430547
4.62,-0.013553745574205587
4.624,-0.013553120520089529
4.628,-0.013551774249685714
4.632,-0.013552639709231025
4.636,-0.013554683155379672
4.64,-0.013553457087690483
4.644,-0.013543456221833573
4.648,-0.013547326749244542
4.652,-0.013561126020883642
4.656,-0.013569660413622111
4.66,-0.01357362710320478
4.664,-0.013564083007663449
4.668,-0.013556101547412262
4.672,-0.013552182938915445
4.676,-0.013551509803713536
4.68,-0.013548817262905907
4.684,-0.013546605532956783
4.688,-0.013545932397754876
4.692,-0.01354275904608874
4.696,-0.013535474761582386
4.7,-0.013538479829448044
4.704,-0.013549225952135638
4.708,-0.013557063169129272
4.712,-0.013553913858006063
4.716,-0.013555236087866953
4.72,-0.013553336884975857
4.724,-0.013548576857476655
4.728,-0.013548480695304954
4.732,-0.013547398870873317
4.736,-0.01354590835721195
4.74,-0.013541581059485403
4.744,-0.013539898221480634
4.748,-0.013539778018766008
4.752,-0.013539826099851859
4.756,-0.013542494600116563
4.76,-0.01354672573567141
4.764,-0.013549129789963936
4.768,-0.01354905766833516
4.772,-0.013549802925165843
4.776,-0.013548793222362982
4.78,-0.013546148762641203
4.784,-0.0135528079930315
4.788,-0.013564732102322431
4.792,-0.013569131521677755
4.796,-0.01356509271046631
4.8,-0.013560332682967108
4.804,-0.01355732761510145
4.808,-0.013566775548471079
4.812,-0.013567039994443256
4.816,-0.0135572795340156
4.82,-0.013549586560279516
4.824,-0.013548216249332775
4.828,-0.013551918492943266
4.832,-0.01355225506054422
4.836,-0.013551581925342313
4.84,-0.013562880980517186
4.844,-0.013566655345756453
4.848,-0.013558409439533087
4.852,-0.013551678087514014
4.856,-0.013546581492413858
4.86,-0.01355184637131449
4.864,-0.013556774682614169
4.868,-0.013556269831212739
4.872,-0.013552735871402726
4.876,-0.013551269398284283
4.88,-0.013548384533133253
4.884,-0.013544153397578406
4.888,-0.013546293005898755
4.892,-0.01354915383050686
4.896,-0.013551581925342313
4.9,-0.013553312844432931
4.904,-0.013554394668864569
4.908,-0.013551509803713536
4.912,-0.013553144560632455
4.916,-0.013552423344344696
4.92,-0.013551149195569658
4.924,-0.013550716465797003
4.928,-0.013549394235936114
4.932,-0.013554106182349465
4.936,-0.013556510236641992
4.94,-0.013549706762994142
4.944,-0.013540114586366963
4.948,-0.013540811762111795
4.952,-0.013539681856594307
4.956,-0.01353997034310941
4.96,-0.013541148329712748
4.964,-0.013542085910886834
4.968,-0.013546701695128484
4.972,-0.013541869546000507
4.976,-0.013540715599940094
4.98,-0.013545211181467117
4.984,-0.013549538479193666
4.988,-0.013548216249332775
4.992,-0.013544898654409089
4.996,-0.01354266288391704
5.0,-0.01353814326184709
5.0040000000000004,-0.01354261480283119
5.008,-0.013544610167893986
5.0120000000000005,-0.013544273600293033
5.016,-0.013546244924812904
5.0200000000000005,-0.013546894019471886
5.024,-0.01354672573567141
5.0280000000000005,-0.013543672586719901
5.032,-0.013541701262200029
5.0360000000000005,-0.013542638843374115
5.04,-0.013540980045912272
5.0440000000000005,-0.013543480262376499
5.048,-0.0135435764245482
5.0520000000000005,-0.013539898221480634
5.056,-0.013543504302919424
5.0600000000000005,-0.01354961060082244
5.064,-0.013551101114483807
5.0680000000000005,-0.013543552384005274
5.072,-0.013539753978223082
5.0760000000000005,-0.013537854775331988
5.08,-0.013540907924283497
5.0840000000000005,-0.013545427546353446
5.088,-0.013543600465091125
5.0920000000000005,-0.013541557018942477
5.096,-0.01353997034310941
5.1000000000000005,-0.013537902856417839
5.104,-0.013536292140041845
5.1080000000000005,-0.013535234356153133
5.112,-0.013534200612807348
5.1160000000000005,-0.01353398424792102
5.12,-0.013534753545294629
5.124,-0.013536195977870143
5.128,-0.013538167302390016
5.132,-0.01354256672174534
5.136,-0.013545595830153922
5.14,-0.013542951370432143
5.144,-0.01353718164013008
5.148,-0.013541220451341525
5.152,-0.013548769181820056
5.156,-0.013549586560279516
5.16,-0.013549634641365367
5.164,-0.013547206546529914
5.168,-0.013546293005898755
5.172,-0.013543768748891603
5.176,-0.013540066505281112
5.18,-0.013544009154320854
5.184,-0.013547374830330392
5.188,-0.013545740073411474
5.192,-0.013543937032692079
5.196,-0.013544345721921808
5.2,-0.013544249559750107
5.204,-0.013543552384005274
5.208,-0.013543336019118947
5.212,-0.013543864911063304
5.216,-0.013544826532780314
5.22,-0.01354626896535583
5.224,-0.01354641320861338
5.228,-0.013554514871579194
5.232,-0.013558890250391593
5.236,-0.013551822330771564
5.24,-0.013546581492413858
5.244,-0.013544610167893986
5.248,-0.01354225419468731
5.252,-0.013538527910533895
5.256,-0.013545331384181744
5.26,-0.013547855641188896
5.264,-0.01354444188409351
5.268,-0.013538888518677773
5.272,-0.01353535455886776
5.276,-0.013535787288640414
5.28,-0.013539489532250905
5.284,-0.013540258829624514
5.288,-0.013539898221480634
5.292,-0.013547663316845494
5.296,-0.01354992312788047
5.3,-0.013547855641188896
5.304,-0.013546821897843111
5.308,-0.013549177871049787
5.312,-0.013556558317727842
5.316,-0.013559178736906695
5.32,-0.013551870411857415
5.324,-0.013549274033221488
5.328,-0.013558361358447237
5.332,-0.013557592061073629
5.336,-0.013546990181643587
5.34,-0.013539128924107026
5.344,-0.013539705897137233
5.348,-0.013543311978576023
5.352,-0.013542446519030712
5.356,-0.0135390087213924
5.36,-0.013538744275420221
5.364,-0.013540811762111795
5.368,-0.013544922694952015
5.372,-0.013554274466149941
5.376,-0.0135641310887493
5.38,-0.013559827831565677
5.384,-0.013547783519560121
5.388,-0.013540523275596692
5.392,-0.013540763681025945
5.396,-0.013538431748362193
5.4,-0.013530955139512437
5.404,-0.013529729071823248
5.408,-0.013539249126821652
5.412,-0.013545139059838342
5.416,-0.013547062303272362
5.42,-0.01354646128969923
5.424,-0.01354646128969923
5.428,-0.013547999884446448
5.432,-0.013550908790140405
5.436,-0.013552543547059323
5.44,-0.013551461722627686
5.444,-0.013550259695481423
5.448,-0.013548072006075225
5.452,-0.013555524574382055
5.456,-0.013561534710113371
5.46,-0.013558794088219892
5.464,-0.013562520372373307
5.468,-0.013557471858359002
5.472,-0.013536845072529126
5.476,-0.013530738774626109
5.48,-0.013532445653173804
5.484,-0.013532637977517204
5.488,-0.013535931531897966
5.492,-0.013538527910533895
5.496,-0.013537373964473482
5.5,-0.013537470126645183
5.5040000000000004,-0.01353408041009272
5.508,-0.013534368896607824
5.5120000000000005,-0.013535498802125312
5.516,-0.013530738774626109
5.5200000000000005,-0.013533647680320067
5.524,-0.01353535455886776
5.5280000000000005,-0.013531027261141212
5.532,-0.013528190477076032
5.5360000000000005,-0.013533743842491766
5.54,-0.013532854342403533
5.5440000000000005,-0.013525666220068878
5.548,-0.013521771652114985
5.5520000000000005,-0.013524079544235812
5.556,-0.013526796125586367
5.5600000000000005,-0.01352703653101562
5.564,-0.013524512274008466
5.5680000000000005,-0.013518694462620552
5.572,-0.01352439207129384
5.5760000000000005,-0.013532229288287475
5.58,-0.01353773457261736
5.5840000000000005,-0.013539802059308933
5.588,-0.013531844639600672
5.5920000000000005,-0.013528190477076032
5.596,-0.013529152098793042
5.6000000000000005,-0.013524536314551392
5.604,-0.013525834503869356
5.6080000000000005,-0.013526026828212757
5.612,-0.013528430882505283
5.6160000000000005,-0.01353119554494169
5.62,-0.013526459557985412
5.6240000000000006,-0.013522060138630089
5.628,-0.013518622340991777
5.632,-0.013516987584072859
5.636,-0.013525473895725476
5.64,-0.013527637544588751
5.644,-0.013524488233465541
5.648,-0.013521627408857435
5.652,-0.013517300111130887
5.656,-0.013516747178643606
5.66,-0.013523262165776352
5.664,-0.013524055503692886
5.668,-0.013519247395107833
5.672,-0.01352261307111737
5.676,-0.01353160423417142
5.68,-0.013532229288287475
5.684,-0.01351576151638367
5.688,-0.013505856812698462
5.692,-0.01351078512399814
5.696,-0.013514920097381287
5.7,-0.013517877084161094
5.704,-0.013520088814110218
5.708,-0.01352210821971594
5.712,-0.01352388721989241
5.716,-0.013524969044324046
5.72,-0.013525185409210374
5.724,-0.01352489692269527
5.728,-0.013527373098616572
5.732,-0.01353408041009272
5.736,-0.013533503437062515
5.74,-0.013532926464032308
5.744,-0.01353576324809749
5.748,-0.013537999018589538
5.752,-0.013532806261317682
5.756,-0.013525666220068878
5.76,-0.013521218719627704
5.764,-0.01351708374624456
5.768,-0.01351900698967858
5.772,-0.013518285773390823
5.776,-0.013519896489766816
5.78,-0.013526074909298608
5.784,-0.013525233490296225
5.788,-0.013520425381711172
5.792,-0.013515881719098297
5.796,-0.013522805395460772
5.8,-0.013531123423312913
5.804,-0.013534681423665852
5.808,-0.013530041598881277
5.812,-0.013525017125409896
5.816,-0.013528983814992564
5.82,-0.013529945436709576
5.824,-0.01352621915255616
5.828,-0.013518237692304973
5.832,-0.013516819300272383
5.836,-0.013530065639424202
5.84,-0.01351977628705219
5.844,-0.013514727773037884
5.848,-0.01351900698967858
5.852,-0.013515184543353464
5.856,-0.01351338150263407
5.86,-0.013513237259376518
5.864,-0.013514126759464753
5.868,-0.013518405976105449
5.872,-0.013519151232936132
5.876,-0.013514727773037884
5.88,-0.013510664921283515
5.884,-0.013514174840550603
5.888,-0.013516819300272383
5.892,-0.013514631610866183
5.896,-0.013512251597116581
5.9,-0.013501986285287494
5.904,-0.01349657716312931
5.908,-0.013514583529780333
5.912,-0.013521362962885256
5.916,-0.013518333854476674
5.92,-0.013514054637835976
5.924,-0.01351576151638367
5.928,-0.01352393530097826
5.932,-0.013523742976634858
5.936,-0.01351241988091706
5.94,-0.013507707934503708
5.944,-0.013506914596587174
5.948,-0.013507924299390035
5.952,-0.01350982350228113
5.956,-0.013510472596940113
5.96,-0.013512900691775563
5.964,-0.013513958475664275
5.968,-0.013517804962532317
5.972,-0.013516747178643606
5.976,-0.013512131394401956
5.98,-0.013521747611572061
5.984,-0.013524584395637243
5.988,-0.01352210821971594
5.992,-0.013520305178996545
5.996,-0.013527012490472693
6.0,-0.01353088301788366
6.0040000000000004,-0.013522420746773968
6.008,-0.013520305178996545
6.0120000000000005,-0.013517179908416261
6.016,-0.013513718070235024
6.0200000000000005,-0.013514246962179378
6.024,-0.013512395840374133
6.0280000000000005,-0.013508717637306569
6.032,-0.013508116623733437
6.0360000000000005,-0.013508429150791465
6.04,-0.013509198448165073
6.0440000000000005,-0.013511121691599095
6.048,-0.013513405543176994
6.0520000000000005,-0.013513333421548219
6.056,-0.013504101853064918
6.0600000000000005,-0.013510448556397187
6.064,-0.013524103584778737
6.0680000000000005,-0.013530113720510053
6.072,-0.013537349923930556
6.0760000000000005,-0.013529128058250116
6.08,-0.013513694029692097
6.0840000000000005,-0.013508837840021194
6.088,-0.013509030164364597
6.0920000000000005,-0.01350809258319051
6.096,-0.013505760650526761
6.1000000000000005,-0.013504534582837572
6.104,-0.01350297194754743
6.1080000000000005,-0.01350109678519926
6.112,-0.013504149934150769
6.1160000000000005,-0.013505279839668255
6.12,-0.013506602069529146
6.1240000000000006,-0.01350982350228113
6.128,-0.013512540083631685
6.132000000000001,-0.013509222488707999
6.136,-0.013514631610866183
6.140000000000001,-0.013518285773390823
6.144,-0.013513814232406725
6.148,-0.013511770786258077
6.152,-0.013521723571029135
6.156,-0.013519535881622937
6.16,-0.013509006123821672
6.164,-0.01350073617705538
6.168,-0.013493764419607054
6.172,-0.013499582230994967
6.176,-0.013505111555867779
6.18,-0.013509559056308953
6.184,-0.01350972734010943
6.188,-0.013503356596234235
6.192,-0.013495423217068897
6.196,-0.013496817568558563
6.2,-0.013506986718215949
6.204,-0.013510400475311336
6.208,-0.013511939070058553
6.212,-0.013510953407798617
6.216,-0.013509078245450447
6.22,-0.013505303880211181
6.224,-0.01350515963695363
6.228,-0.013511530380828824
6.232,-0.013511289975399571
6.236,-0.013503597001663488
6.24,-0.013499894758052997
6.244,-0.013503741244921038
6.248,-0.013504486501751721
6.252,-0.01350443842066587
6.256,-0.013506890556044248
6.26,-0.013516362529956801
6.264,-0.01351657889484313
6.268,-0.013507467529074455
6.272,-0.013503597001663488
6.276,-0.013501361231171438
6.28,-0.013497250298331218
6.284,-0.013490927635541874
6.288,-0.013488403378534719
6.292,-0.013495783825212777
6.296,-0.013501289109542661
6.3,-0.013496336757700058
6.304,-0.013492081581602287
6.308,-0.013496865649644413
6.312,-0.013497707068646798
6.316,-0.013491672892372556
6.32,-0.01348900439210785
6.324,-0.013493211487119773
6.328,-0.013498211920048228
6.332,-0.013496505041500535
6.336,-0.0134933316898344
6.34,-0.01349037470305459
6.344,-0.013489244797537103
6.348,-0.013486023364785117
6.352,-0.01348174414814442
6.356,-0.013484604972752527
6.36,-0.013489244797537103
6.364,-0.013488884189393225
6.368,-0.013487874486590362
6.372,-0.013487754283875737
6.376,-0.013487153270302605
6.38,-0.013487297513560157
6.384,-0.01348941308133758
6.388,-0.013489052473193701
6.392,-0.0134933316898344
6.396,-0.01349616847389958
6.4,-0.013504847109895602
6.404,-0.013505400042382883
6.408,-0.013497610906475097
6.412,-0.013493091284405147
6.416,-0.013487153270302605
6.42,-0.013485831040441716
6.424,-0.013484364567323274
6.428,-0.013484100121351096
6.432,-0.013484532851123752
6.436,-0.013485879121527567
6.44,-0.013489316919165878
6.444,-0.01348991793273901
6.448,-0.013487850446047438
6.452,-0.013485470432297836
6.456,-0.013490182378711189
6.46,-0.013491817135630108
6.464,-0.013491216122056976
6.468,-0.013488187013648392
6.472,-0.01348585508098464
6.476,-0.013500255366196876
6.48,-0.013510857245626917
6.484,-0.013506842474958397
6.488,-0.013506650150614996
6.492,-0.01350160163660069
6.496,-0.0134978993929902
6.5,-0.013496697365843937
6.5040000000000004,-0.013488932270479075
6.508,-0.013481431621086393
6.5120000000000005,-0.01347950837765237
6.516,-0.013485446391754911
6.5200000000000005,-0.013486600337815324
6.524,-0.013491240162599902
6.5280000000000005,-0.01349688969018734
6.532,-0.013493980784493383
6.5360000000000005,-0.013486408013471922
6.54,-0.013489292878622954
6.5440000000000005,-0.013491696932915482
6.548,-0.01348991793273901
6.5520000000000005,-0.013491889257258884
6.556,-0.013496841609101489
6.5600000000000005,-0.01349881293362136
6.564,-0.013494942406210393
6.5680000000000005,-0.013492442189746165
6.572,-0.013493163406033922
6.5760000000000005,-0.013492033500516436
6.58,-0.013491528649115006
6.5840000000000005,-0.013492321987031538
6.588,-0.013492370068117389
6.5920000000000005,-0.013489605405680982
6.596,-0.013483547188863815
6.6000000000000005,-0.013492418149203239
6.604,-0.01350434225849417
6.6080000000000005,-0.01350489519098145
6.612,-0.013494413514266036
6.6160000000000005,-0.01349246623028909
6.62,-0.013497658987560947
6.6240000000000006,-0.013497057973987816
6.628,-0.013488235094734242
6.632000000000001,-0.013481022931856664
6.636,-0.013484508810580826
6.640000000000001,-0.01348708114867383
6.644,-0.013486792662158726
6.648000000000001,-0.013481551823801018
6.652,-0.013483042337462385
6.656000000000001,-0.01348991793273901
6.66,-0.013488715905592747
6.664,-0.013491432486943305
6.668,-0.01349328360874855
6.672,-0.013489557324595131
6.676,-0.013487177310845531
6.68,-0.013488619743421046
6.684,-0.013491696932915482
6.688,-0.013492682595175418
6.692,-0.013490134297625338
6.696,-0.01349688969018734
6.7,-0.013498260001134079
6.704,-0.013490230459797038
6.708,-0.013481672026515646
6.712,-0.013480181512854279
6.716,-0.013484196283522798
6.72,-0.013487441756817709
6.724,-0.013489773689481458
6.728,-0.013493259568205624
6.732,-0.013491071878799424
6.736,-0.013486191648585595
6.74,-0.013485061743068107
6.744,-0.013485422351211985
6.748,-0.013487009027045053
6.752,-0.013488812067764448
6.756,-0.013492321987031538
6.76,-0.013497995555161901
6.764,-0.013497274338874142
6.768,-0.013492802797890044
6.772,-0.013490254500339964
6.776,-0.013487369635188932
6.78,-0.013490567027397994
6.784,-0.0134956155414123
6.788,-0.01349059106794092
6.792,-0.013487153270302605
6.796,-0.013484604972752527
6.8,-0.013478907364079239
6.804,-0.013476142701642834
6.808,-0.013475421485355077
6.812,-0.013472272174231867
6.816,-0.01347200772825969
6.82,-0.013474988755582422
6.824,-0.013478522715392436
6.828,-0.013479556458738221
6.832,-0.01347895544516509
6.836,-0.013481431621086393
6.84,-0.01348580699989879
6.844,-0.01348809085147669
6.848,-0.013479628580366998
6.852,-0.013483042337462385
6.856,-0.013492586433003717
6.86,-0.013497370501045844
6.864,-0.01349200945997351
6.868,-0.013487898527133288
6.872,-0.01348950924350928
6.876,-0.013492634514089568
6.88,-0.013489076513736625
6.884,-0.013483042337462385
6.888,-0.013480830607513261
6.892,-0.013484268405151573
6.896,-0.01348631185130022
6.9,-0.01348672054052995
6.904,-0.01348991793273901
6.908,-0.013497370501045844
6.912,-0.013500447690540278
6.916,-0.013489028432650775
6.92,-0.013492105622145211
6.924,-0.013499149501222314
6.928,-0.013496096352270805
6.932,-0.013496697365843937
6.936,-0.013493644216892428
6.94,-0.013488812067764448
6.944,-0.01348849954070642
6.948,-0.013491648851829631
6.952,-0.013487922567676213
6.956,-0.013481792229230271
6.96,-0.013482825972576058
6.964,-0.013485230026868585
6.968,-0.013489292878622954
6.972,-0.01349196137888766
6.976,-0.013491240162599902
6.98,-0.013494269271008484
6.984,-0.01349347593309195
6.988,-0.013487754283875737
6.992,-0.01348443668895205
6.996,-0.013485831040441716
7.0,-0.013494317352094335
7.0040000000000004,-0.013491817135630108
7.008,-0.01348900439210785
7.0120000000000005,-0.0134910478382565
7.016,-0.013492490270832016
7.0200000000000005,-0.013488836108307374
7.024,-0.013487321554103081
7.0280000000000005,-0.013489389040794655
7.032,-0.013490182378711189
7.0360000000000005,-0.01348443668895205
7.04,-0.013490278540882888
7.0440000000000005,-0.013499894758052997
7.048,-0.013502346893431374
7.0520000000000005,-0.013487778324418663
7.056,-0.013478763120821689
7.0600000000000005,-0.013484316486237423
7.064,-0.013486960945959203
7.0680000000000005,-0.013487465797360633
7.072,-0.013487009027045053
7.0760000000000005,-0.013482561526603879
7.08,-0.013480518080455233
7.0840000000000005,-0.013480518080455233
7.088,-0.013477777458561753
7.0920000000000005,-0.01347621482327161
7.096,-0.013474171377122963
7.1000000000000005,-0.013467440025103888
7.104,-0.01347337803920643
7.1080000000000005,-0.013480373837197681
7.112,-0.01348311445909116
7.1160000000000005,-0.013484917499810555
7.12,-0.013494581798066514
7.1240000000000006,-0.013500375568911501
7.128,-0.01349465391969529
7.132000000000001,-0.013490518946312143
7.136,-0.013489725608395607
7.140000000000001,-0.013487369635188932
7.144,-0.013480758485884484
7.148000000000001,-0.013474531985266842
7.152,-0.013476503309786713
7.156000000000001,-0.013479580499281147
7.16,-0.01348388375646477
7.164000000000001,-0.01348311445909116
7.168,-0.013474940674496571
7.172,-0.013474531985266842
7.176,-0.013481143134571289
7.18,-0.013481672026515646
7.184,-0.013482946175290684
7.188,-0.013487850446047438
7.192,-0.013492730676261269
7.196,-0.013487153270302605
7.2,-0.013485927202613417
7.204,-0.013496192514442507
7.208,-0.013491937338344735
7.212,-0.013480998891313737
7.216,-0.013475902296213581
7.22,-0.013475084917754123
7.224,-0.013477464931503725
7.228,-0.013479700701995773
7.232,-0.013475637850241404
7.236,-0.013468738214421853
7.24,-0.013463593538235848
7.244,-0.013465757187099121
7.248,-0.013474315620380515
7.252,-0.013470300849711996
7.256,-0.013468233363020422
7.26,-0.013467920835962394
7.264,-0.013474003093322485
7.268,-0.013483859715921843
7.272,-0.013484532851123752
7.276,-0.013476551390872563
7.28,-0.01347150287685826
7.284,-0.013471022065999753
7.288,-0.01347164712011581
7.292,-0.013476238863814535
7.296,-0.013478690999192912
7.3,-0.013476503309786713
7.304,-0.01347479643123902
7.308,-0.013466358200672253
7.312,-0.013467415984560964
7.316,-0.013473618444635682
7.32,-0.013477825539647603
7.324,-0.013478114026162707
7.328,-0.013477224526074472
7.332,-0.01347393097169371
7.336,-0.013472945309433774
7.34,-0.013475229161011675
7.344,-0.013476022498928208
7.348,-0.013474676228524394
7.352,-0.013471406714686558
7.356,-0.013469675795595938
7.36,-0.013469339227994984
7.364,-0.013470637417312949
7.368,-0.01347128651197193
7.372,-0.013470397011883696
7.376,-0.013469291146909134
7.38,-0.013469603673967163
7.384,-0.013478426553220735
7.388,-0.013475373404269226
7.392,-0.013472440458032343
7.396,-0.013470300849711996
7.4,-0.013468377606277974
7.404,-0.013477488972046649
7.408,-0.013485518513383686
7.412,-0.01348539831066906
7.416,-0.013484268405151573
7.42,-0.013478690999192912
7.424,-0.013474556025809768
7.428,-0.013474195417665888
7.432,-0.013473906931150786
7.436,-0.01346885841713648
7.44,-0.013466598606101506
7.444,-0.013468786295507703
7.448,-0.013469146903651584
7.452,-0.0134706854983988
7.456,-0.013478065945076856
7.46,-0.01347530128264045
7.464,-0.013467824673790693
7.468,-0.01347128651197193
7.472,-0.013475373404269226
7.476,-0.013477344728789097
7.48,-0.013472296214774792
7.484,-0.013469243065823283
7.488,-0.013466334160129326
7.492,-0.013465973551985448
7.496,-0.01346753618727559
7.5,-0.013471839444459212
7.5040000000000004,-0.013472248133688941
7.508,-0.01346753618727559
7.5120000000000005,-0.013466406281758103
7.516,-0.013471118228171455
7.5200000000000005,-0.013475782093498955
7.524,-0.013479652620909922
7.5280000000000005,-0.013475950377299432
7.532,-0.013465636984384494
7.5360000000000005,-0.013467464065646815
7.54,-0.013477392809874948
7.5440000000000005,-0.013472248133688941
7.548,-0.013462728078690537
7.5520000000000005,-0.013457727645762084
7.556,-0.013458785429650795
7.5600000000000005,-0.013458520983678616
7.564,-0.01345328014532091
7.5680000000000005,-0.013460348064940937
7.572,-0.013466189916871775
7.5760000000000005,-0.0134684016468209
7.58,-0.013469988322653966
7.5840000000000005,-0.013473666525721533
7.588,-0.013480085350682578
7.5920000000000005,-0.013473906931150786
7.596,-0.013468497808992601
7.6000000000000005,-0.013466646687187356
7.604,-0.013467560227818516
7.6080000000000005,-0.013468449727906751
7.612,-0.013468209322477498
7.6160000000000005,-0.013464026268008501
7.62,-0.013460732713627742
7.6240000000000006,-0.013463713740950473
7.628,-0.013460107659511684
7.632000000000001,-0.013452222361432198
7.636,-0.013456357334815343
7.640000000000001,-0.013469291146909134
7.644,-0.013470661457855875
7.648000000000001,-0.01346515617352599
7.652,-0.013463088686834417
7.656000000000001,-0.013460155740597534
7.66,-0.013468521849535526
7.664000000000001,-0.013477320688246173
7.668,-0.013477921701819304
7.672000000000001,-0.013474628147438543
7.676,-0.013472320255317718
7.68,-0.013474219458208814
7.684,-0.013471935606630913
7.688,-0.013473257836491804
7.692,-0.013473305917577654
7.696,-0.013469747917224715
7.7,-0.013467776592704843
7.704,-0.01346200686240278
7.708,-0.013462151105660332
7.712,-0.01346388202475095
7.716,-0.013472368336403568
7.72,-0.013488643783963972
7.724,-0.01349475008186699
7.728,-0.01349037470305459
7.732,-0.013481912431944897
7.736,-0.013472584701289895
7.74,-0.013468690133336002
7.744,-0.013468882457679405
7.748,-0.013466093754700075
7.752,-0.013466286079043476
7.756,-0.01346525233569769
7.76,-0.013464458997781157
7.764,-0.01346662264664443
7.768,-0.013464122430180202
7.772,-0.013465108092440139
7.776,-0.013465685065470344
7.78,-0.013472176012060166
7.784,-0.013474507944723917
7.788,-0.01347611866109991
7.792,-0.013479868985796251
7.796,-0.013481143134571289
7.8,-0.01347657543141549
7.804,-0.013472103890431391
7.808,-0.013472176012060166
7.812,-0.013470541255141247
7.816,-0.013465829308727896
7.82,-0.013457823807933783
7.824,-0.013464002227465577
7.828,-0.013469146903651584
7.832,-0.01346835356573505
7.836,-0.013466959214245384
7.84,-0.01346753618727559
7.844,-0.013462343430003734
7.848,-0.013459242199966375
7.852,-0.013458761389107869
7.856,-0.013458593105307393
7.86,-0.013457679564676233
7.864,-0.013457823807933783
7.868,-0.013461766456973527
7.872,-0.013468377606277974
7.876,-0.013471382674143632
7.88,-0.013467728511618992
7.884,-0.013462752119233463
7.888,-0.013462679997604686
7.892,-0.013466189916871775
7.896,-0.01345647753752997
7.9,-0.013455756321242211
7.904,-0.013468738214421853
7.908,-0.01347119034980023
7.912,-0.013468425687363825
7.916,-0.013466742849359057
7.92,-0.013467656389990217
7.924,-0.01346799295759117
7.928,-0.013466959214245384
7.932,-0.013468449727906751
7.936,-0.01346804103867702
7.94,-0.013468786295507703
7.944,-0.013468834376593554
7.948,-0.013466694768273207
7.952,-0.013467608308904366
7.956,-0.013465781227642045
7.96,-0.013456189051014866
7.964,-0.013456814105130922
7.968,-0.013464651322124559
7.972,-0.013467175579131711
7.976,-0.013469892160482265
7.98,-0.013470372971340771
7.984,-0.013472656822918672
7.988,-0.013471382674143632
7.992,-0.013468618011707227
7.996,-0.013463833943665099
8.0,-0.013457919970105484
8.004,-0.013457174713274801
8.008000000000001,-0.013458977753994196
8.012,-0.01346104524068577
8.016,-0.013464002227465577
8.02,-0.013462367470546658
8.024000000000001,-0.013458184416077663
8.028,-0.013460949078514068
8.032,-0.0134639301058368
8.036,-0.013468569930621377
8.040000000000001,-0.013468882457679405
8.044,-0.013466887092616607
8.048,-0.013470348930797847
8.052,-0.013472296214774792
8.056000000000001,-0.01347580613404188
8.06,-0.013472536620204045
8.064,-0.01346977195776764
8.068,-0.01346931518745206
8.072000000000001,-0.01346804103867702
8.076,-0.01346347333552122
8.08,-0.013463617578778772
8.084,-0.013469483471252536
8.088000000000001,-0.013465564862755719
8.092,-0.013460299983855086
8.096,-0.01346469940321041
8.1,-0.013468762254964779
8.104000000000001,-0.013463641619321698
8.108,-0.01345931432159515
8.112,-0.013461574132630124
8.116,-0.013468978619851106
8.120000000000001,-0.01346835356573505
8.124,-0.013465348497869392
8.128,-0.013465011930268438
8.132,-0.013465011930268438
8.136000000000001,-0.013461766456973527
8.14,-0.013452991658805806
8.144,-0.013447245969046668
8.148,-0.013459170078337598
8.152000000000001,-0.013463329092263669
8.156,-0.013458977753994196
8.16,-0.013456068848300239
8.164,-0.013456237132100717
8.168000000000001,-0.013457270875446502
8.172,-0.013450852050485457
8.176,-0.013446620914930612
8.18,-0.013448592239450483
8.184000000000001,-0.013450226996369401
8.188,-0.01345063568559913
8.192,-0.013450900131571308
8.196,-0.013455395713098332
8.2,-0.013455684199613436
8.204,-0.013446644955473536
8.208,-0.013443856252494207
8.212,-0.013442293617204063
8.216,-0.013443591806522028
8.22,-0.013448135469134903
8.224,-0.01344647667167306
8.228,-0.013446644955473536
8.232,-0.013454265807580844
8.236,-0.013461429889372573
8.24,-0.013461526051544274
8.244,-0.013458184416077663
8.248,-0.013448183550220753
8.252,-0.013435778630071317
8.256,-0.013430874359314563
8.26,-0.013430730116057011
8.264,-0.013430008899769254
8.268,-0.013434720846182606
8.272,-0.013439577035853509
8.276,-0.01344063481974222
8.28,-0.0134408992657144
8.284,-0.013437677832962413
8.288,-0.013434167913695325
8.292,-0.013433711143379745
8.296,-0.01343241295406178
8.3,-0.013434913170526008
8.304,-0.013442245536118213
8.308,-0.01344561121212775
8.312,-0.013442485941547466
8.316,-0.013436163278758122
8.32,-0.013431042643115041
8.324,-0.013430345467370208
8.328,-0.013438807738479901
8.332,-0.013441884927974334
8.336,-0.01343748550861901
8.34,-0.013430970521486264
8.344,-0.013427508683305027
8.348,-0.013427051912989447
8.352,-0.013433302454150016
8.356,-0.013443687968693729
8.36,-0.013444433225524412
8.364,-0.013440610779199296
8.368,-0.013436716211245403
8.372,-0.013430609913342386
8.376,-0.013422291885490245
8.38,-0.013424359372181817
8.384,-0.013438591373593572
8.388,-0.013437317224818534
8.392,-0.013432461035147631
8.396,-0.013433711143379745
8.4,-0.013436307522015674
8.404,-0.013439048143909154
8.408,-0.013437004697760506
8.412,-0.01343779803567704
8.416,-0.013437052778846357
8.42,-0.0134296723321683
8.424,-0.013425922007471959
8.428,-0.013423782399151611
8.432,-0.01342094561508643
8.436,-0.013426595142673867
8.44,-0.013433927508266072
8.444,-0.013437148941018058
8.448,-0.013434312156952876
8.452,-0.013436596008530777
8.456,-0.013435129535412335
8.46,-0.013438495211421873
8.464,-0.013444192820095159
8.468,-0.013448015266420277
8.472,-0.013449962550397222
8.476,-0.013446548793301835
8.48,-0.013440995427886099
8.484,-0.013427604845476728
8.488,-0.013423013101778002
8.492,-0.01342560948041393
8.496,-0.013426186453444138
8.5,-0.013420705209657177
8.504,-0.013421835115174665
8.508000000000001,-0.013426739385931419
8.512,-0.01342871071045129
8.516,-0.013428277980678636
8.52,-0.013426907669731895
8.524000000000001,-0.01343099456202919
8.528,-0.013433855386637297
8.532,-0.013435850751700094
8.536,-0.01344231765774699
8.540000000000001,-0.013447558496104696
8.544,-0.013440009765626164
8.548,-0.013433542859579269
8.552,-0.01343231679189008
8.556000000000001,-0.013427628886019654
8.56,-0.01342008015554112
8.564,-0.013420849452914729
8.568,-0.013428013534706457
8.572000000000001,-0.013427268277875774
8.576,-0.013425296953355903
8.58,-0.013422844817977526
8.584,-0.013422075520603918
8.588000000000001,-0.013429071318595168
8.592,-0.013431259008001368
8.596,-0.013429383845653198
8.6,-0.013430585872799461
8.604000000000001,-0.013436571967987851
8.608,-0.013439793400739836
8.612,-0.013434817008354307
8.616,-0.013431475372887695
8.620000000000001,-0.013433542859579269
8.624,-0.013441524319830455
8.628,-0.013442509982090392
8.632,-0.013432100427003752
8.636000000000001,-0.013423253507207255
8.64,-0.013425080588469576
8.644,-0.013433903467723147
8.648,-0.013435754589528393
8.652000000000001,-0.013434792967811382
8.656,-0.01344241381991869
8.66,-0.013450299117998176
8.664,-0.013445827577014078
8.668000000000001,-0.013441524319830455
8.672,-0.013440875225171473
8.676,-0.013438350968164321
8.68,-0.013437629751876562
8.684000000000001,-0.013435490143556215
8.688,-0.013432581237862257
8.692,-0.013433614981208044
8.696,-0.013432436994604707
8.700000000000001,-0.013430682034971162
8.704,-0.013438230765449694
8.708,-0.01343875965739405
8.712,-0.013433903467723147
8.716,-0.013432677400033958
8.72,-0.013436043076043496
8.724,-0.013437966319477516
8.728,-0.01344135603602998
8.732,-0.013443639887607878
8.736,-0.013441524319830455
8.74,-0.013441331995487053
8.744,-0.013444529387696113
8.748,-0.01344479383366829
8.752,-0.013444769793125366
8.756,-0.013444601509324888
8.76,-0.013443687968693729
8.764,-0.013448640320536333
8.768,-0.013445707374299452
8.772,-0.013440370373770043
8.776,-0.013443591806522028
8.78,-0.013445803536471151
8.784,-0.013440658860285146
8.788,-0.013437124900475132
8.792,-0.013443279279464
8.796,-0.013446164144615032
8.8,-0.013442125333403587
8.804,-0.013441884927974334
8.808,-0.013446861320359865
8.812,-0.013448976888137287
8.816,-0.013443567765979103
8.82,-0.013441764725259708
8.824,-0.013439841481825686
8.828,-0.013440923306257324
8.832,-0.013444216860638085
8.836,-0.01344601990135748
8.84,-0.013447967185334427
8.844,-0.013451188618086411
8.848,-0.013451645388401991
8.852,-0.01344739021230422
8.856,-0.0134433754416357
8.86,-0.013443038874034747
8.864,-0.013445298685069721
8.868,-0.013443712009236655
8.872,-0.013440779062999772
8.876,-0.013437629751876562
8.88,-0.013437966319477516
8.884,-0.013438783697936975
8.888,-0.01344008188725494
8.892,-0.013445683333756526
8.896,-0.013443014833491822
8.9,-0.013438158643820919
8.904,-0.013441283914401202
8.908,-0.013444096657923458
8.912,-0.013448423955650006
8.916,-0.013448375874564156
8.92,-0.013445082320183394
8.924,-0.01344474575258244
8.928,-0.013439552995310584
8.932,-0.013435754589528393
8.936,-0.013439336630424256
8.94,-0.0134433754416357
8.944,-0.013439528954767658
8.948,-0.013425657561499781
8.952,-0.013430369507913133
8.956,-0.013443904333580057
8.96,-0.01344063481974222
8.964,-0.013432989927091988
8.968,-0.01343332649469294
8.972,-0.013428470305022037
8.976,-0.013428830913165917
8.98,-0.0134296723321683
8.984,-0.013433999629894848
8.988,-0.013439961684540314
8.992,-0.013441163711686577
8.996,-0.013440009765626164
9.0,-0.013438350968164321
9.004,-0.013436331562558598
9.008000000000001,-0.013435706508442542
9.012,-0.013435033373240634
9.016,-0.013434744886725532
9.02,-0.013438783697936975
9.024000000000001,-0.01344474575258244
9.028,-0.013447414252847146
9.032,-0.013439000062823303
9.036,-0.013425657561499781
9.040000000000001,-0.013421161979972757
9.044,-0.013422291885490245
9.048,-0.013426114331815361
9.052,-0.013428109696878158
9.056000000000001,-0.013429047278052244
9.06,-0.013434312156952876
9.064,-0.013435754589528393
9.068,-0.013431547494516471
9.072000000000001,-0.013429816575425852
9.076,-0.01343286972437736
9.08,-0.013434119832609474
9.084,-0.013432581237862257
9.088000000000001,-0.013433350535235866
9.092,-0.013435658427356691
9.096,-0.013433110129806613
9.1,-0.013430465670084834
9.104000000000001,-0.013434961251611859
9.108,-0.013434841048897233
9.112,-0.013432220629718378
9.116,-0.013431331129630143
9.120000000000001,-0.013430321426827282
9.124,-0.013429912737597553
9.128,-0.013431138805286742
9.132,-0.01343373518392267
9.136000000000001,-0.0134341438731524
9.14,-0.013436908535588805
9.144,-0.013437461468076086
9.148,-0.013437918238391666
9.152000000000001,-0.013433110129806613
9.156,-0.01343089839985749
9.16,-0.013425224831727128
9.164,-0.013420368642056224
9.168000000000001,-0.013428133737421084
9.172,-0.013428374142850336
9.176,-0.013427148075161148
9.18,-0.01342505654792665
9.184000000000001,-0.013421234101601533
9.188,-0.0134205369258567
9.192,-0.01342556139932808
9.196,-0.013426547061588016
9.200000000000001,-0.013423469872093583
9.204,-0.013424888264126173
9.208,-0.01342683554810312
9.212,-0.013426258575072913
9.216000000000001,-0.013425417156070528
9.22,-0.013425320993898827
9.224,-0.013428109696878158
9.228,-0.013429023237509318
9.232,-0.013425176750641277
9.236,-0.013436379643644449
9.24,-0.013438110562735068
9.244,-0.013432797602748585
9.248,-0.013427148075161148
9.252,-0.013425345034441753
9.256,-0.013425008466840799
9.26,-0.013423662196436984
9.264,-0.013425393115527604
9.268,-0.013422436128747797
9.272,-0.013421137939429832
9.276,-0.013422460169290721
9.28,-0.013423710277522835
9.284,-0.013420320560970374
9.288,-0.013412627587234289
9.292,-0.013412146776375783
9.296,-0.013420200358255746
9.3,-0.01342241208820487
9.304,-0.013424744020868622
9.308,-0.013425417156070528
9.312,-0.013428133737421084
9.316,-0.013434913170526008
9.32,-0.01343784611676289
9.324,-0.01344231765774699
9.328,-0.013446404550044283
9.332,-0.013440370373770043
9.336,-0.013428951115880543
9.34,-0.013420368642056224
9.344,-0.013419046412195334
9.348,-0.013421041777258131
9.352,-0.013421161979972757
9.356,-0.013422652493634123
9.36,-0.013424744020868622
9.364,-0.013428374142850336
9.368,-0.013430225264655581
9.372,-0.01342734039950455
9.376,-0.01342140238540201
9.38,-0.0134180607499354
9.384,-0.013419767628483093
9.388,-0.01342830202122156
9.392,-0.013437605711333638
9.396,-0.013440514617027595
9.4,-0.01343500933269771
9.404,-0.013432196589175454
9.408,-0.013432581237862257
9.412,-0.01343094648094334
9.416,-0.013429455967281973
9.42,-0.013425200791184201
9.424,-0.01342140238540201
9.428,-0.013420657128571326
9.432,-0.013421883196260516
9.436,-0.013425224831727128
9.44,-0.013428061615792308
9.444,-0.013428903034794692
9.448,-0.013428013534706457
9.452,-0.01341455083066831
9.456,-0.013420416723142075
9.46,-0.013435369940841588
9.464,-0.013440610779199296
9.468,-0.013443928374122982
9.472,-0.013438831779022825
9.476,-0.013428734750994216
9.48,-0.013426859588646044
9.484,-0.013427701007648429
9.488,-0.013426643223759718
9.492,-0.013426114331815361
9.496,-0.013426931710274821
9.5,-0.01342734039950455
9.504,-0.013427652926562578
9.508000000000001,-0.013427412521133325
9.512,-0.013429455967281973
9.516,-0.013433422656864641
9.52,-0.013433422656864641
9.524000000000001,-0.013430273345741432
9.528,-0.013426186453444138
9.532,-0.013424984426297875
9.536,-0.013424263210010116
9.540000000000001,-0.013437365305904385
9.544,-0.013447245969046668
9.548,-0.01344068290082807
9.552,-0.013434720846182606
9.556000000000001,-0.013430393548456059
9.56,-0.01342683554810312
9.564,-0.013428590507736664
9.568,-0.013431186886372593
9.572000000000001,-0.013427436561676252
9.576,-0.013424287250553042
9.58,-0.01342277269634875
9.584,-0.013421690871917113
9.588000000000001,-0.013420705209657177
9.592,-0.01342145046648786
9.596,-0.013423061182863853
9.6,-0.013426258575072913
9.604000000000001,-0.01342551331824223
9.608,-0.013416113465958453
9.612,-0.013414791236097562
9.616,-0.013425248872270052
9.620000000000001,-0.013429648291625376
9.624,-0.013434841048897233
9.628,-0.013434480440753353
9.632,-0.01343561034627084
9.636000000000001,-0.013441163711686577
9.64,-0.013434817008354307
9.644,-0.013421979358432217
9.648,-0.013414671033382937
9.652000000000001,-0.013412579506148438
9.656,-0.01341592114161505
9.66,-0.013418637722965605
9.664,-0.013417483776905192
9.668000000000001,-0.013412795871034765
9.672,-0.01341084858705782
9.676,-0.013410728384343193
9.68,-0.013418926209480708
9.684000000000001,-0.013421690871917113
9.688,-0.013422940980149227
9.692,-0.013426859588646044
9.696,-0.013427773129277204
9.700000000000001,-0.013427628886019654
9.704,-0.013428446264479112
9.708,-0.013425224831727128
9.712,-0.013425272912812978
9.716000000000001,-0.013424816142497397
9.72,-0.013423541993722359
9.724,-0.013421186020515683
9.728,-0.013416570236274033
9.732,-0.013415440330756544
9.736,-0.013416546195731106
9.74,-0.013416810641703285
9.744,-0.01341957530413969
9.748,-0.013418926209480708
9.752,-0.013422868858520452
9.756,-0.013427051912989447
9.76,-0.013425633520956857
9.764,-0.013428782832080067
9.768,-0.01342921556185272
9.772,-0.013423349669378956
9.776,-0.013422171682775619
9.78,-0.013421017736715207
9.784,-0.013418493479708053
9.788,-0.013419695506854316
9.792,-0.013419407020339212
9.796,-0.013419431060882139
9.8,-0.013422051480060992
9.804,-0.01342464785869692
9.808,-0.013426547061588016
9.812,-0.013428350102307411
9.816,-0.013429287683481497
9.82,-0.013427051912989447
9.824,-0.01342236400711902
9.828,-0.013414430627953684
9.832,-0.01342866262936544
9.836,-0.013438639454679423
9.84,-0.013439841481825686
9.844,-0.01344008188725494
9.848,-0.013438567333050648
9.852,-0.013429335764567348
9.856,-0.013421474507030786
9.86,-0.013423878561323313
9.864,-0.013428830913165917
9.868,-0.01342774908873428
9.872,-0.013421378344859085
9.876,-0.013417051047132537
9.88,-0.013416281749758929
9.884,-0.013410512019456866
9.888,-0.01341459891175416
9.892,-0.013423878561323313
9.896,-0.013419046412195334
9.9,-0.013422892899063376
9.904,-0.013424744020868622
9.908,-0.013422508250376572
9.912,-0.013424816142497397
9.916,-0.013430826278228713
9.92,-0.013431307089087218
9.924,-0.013425705642585632
9.928,-0.013422003398975141
9.932,-0.01341784438504907
9.936,-0.013419358939253362
9.94,-0.01342048884477085
9.944,-0.013418325195907577
9.948,-0.01341500760098389
9.952,-0.013409430195025229
9.956,-0.013409622519368631
9.96,-0.01341642599301648
9.964,-0.013416474074102331
9.968,-0.01341363729003715
9.972,-0.013416041344329676
9.976,-0.013419166614909961
9.98,-0.01341779630396322
9.984,-0.013419382979796288
9.988,-0.013420344601513298
9.992,-0.01341957530413969
9.996,-0.013421474507030786
10.0,-0.01342652302104509
10.004,-0.013429744453797077
10.008000000000001,-0.013425801804757333
10.012,-0.013421258142144458
10.016,-0.013418950250023633
10.02,-0.013413469006236673
10.024000000000001,-0.013410680303257342
10.028,-0.013409790803169107
10.032,-0.013407098262361479
10.036,-0.013407795438106312
10.040000000000001,-0.013411906370946532
10.044,-0.013413348803522046
10.048,-0.013421787034088814
10.052,-0.013426811507560194
10.056000000000001,-0.013426619183216791
10.06,-0.013422291885490245
10.064,-0.013420368642056224
10.068,-0.013422460169290721
10.072000000000001,-0.013422508250376572
10.076,-0.013417940547220772
10.08,-0.013413997898181028
10.084,-0.0134251046290125
10.088000000000001,-0.013435874792243018
10.092,-0.01342921556185272
10.096,-0.013418878128394858
10.1,-0.013413252641350347
10.104000000000001,-0.013411738087146054
10.108,-0.013412627587234289
10.112,-0.01341226697909041
10.116,-0.013409622519368631
10.120000000000001,-0.01341500760098389
10.124,-0.013415320128041919
10.128,-0.013417916506677847
10.132,-0.013429936778140479
10.136000000000001,-0.013431547494516471
10.14,-0.013422291885490245
10.144,-0.013416522155188182
10.148,-0.013417652060705668
10.152000000000001,-0.013424792101954472
10.156,-0.013423325628836032
10.16,-0.013416209628130154
10.164,-0.013412242938547484
10.168000000000001,-0.013410704343800268
10.172,-0.013405511586528411
10.176,-0.01340272288354908
10.18,-0.013405271181099158
10.184000000000001,-0.013413300722436195
10.188,-0.013415199925327291
10.192,-0.013414767195554638
10.196,-0.01341688276333206
10.200000000000001,-0.013421762993545888
10.204,-0.013425657561499781
10.208,-0.013421618750288338
10.212,-0.013413108398092795
10.216000000000001,-0.013413108398092795
10.22,-0.013422844817977526
10.224,-0.01342820585904986
10.228,-0.013427051912989447
10.232000000000001,-0.013421041777258131
10.236,-0.013416353871387704
10.24,-0.013419407020339212
10.244,-0.01342363815589406
10.248,-0.013424407453267668
10.252,-0.013417676101248594
10.256,-0.013415632655099947
10.26,-0.013420609047485476
10.264,-0.013417027006589612
10.268,-0.013412843952120616
10.272,-0.013412194857461633
10.276,-0.013413565168408375
10.28,-0.013416690438988658
10.284,-0.013418541560793903
10.288,-0.013423614115351134
10.292,-0.013421835115174665
10.296,-0.013413517087322524
10.3,-0.013420416723142075
10.304,-0.013424118966752564
10.308,-0.013420008033912344
10.312,-0.01341459891175416
10.316,-0.013417676101248594
10.32,-0.013422051480060992
10.324,-0.013421186020515683
10.328,-0.013415728817271648
10.332,-0.013411016870858296
10.336,-0.013410824546514894
10.34,-0.013411930411489456
10.344,-0.013414791236097562
10.348,-0.013418229033735875
10.352,-0.013415752857814572
10.356,-0.01341181020877483
10.36,-0.013421017736715207
10.364,-0.01342236400711902
10.368,-0.01340815604625019
10.372,-0.013415392249670694
10.376,-0.013420128236626971
10.38,-0.013415945182157975
10.384,-0.013410271614027613
10.388,-0.01340815604625019
10.392,-0.013409358073396454
10.396,-0.013409694640997406
10.4,-0.013409718681540332
10.404,-0.013408973424709649
10.408,-0.013409237870681826
10.412,-0.013410463938371016
10.416,-0.013412627587234289
10.42,-0.013412892033206466
10.424,-0.013415969222700901
10.428,-0.013417603979619818
10.432,-0.01341089666814367
10.436,-0.01340313157277881
10.44,-0.013400583275228733
10.444,-0.013413372844064972
10.448,-0.013411930411489456
10.452,-0.01340303541060711
10.456,-0.01339906872102444
10.46,-0.013394308693525238
10.464,-0.0133930345447502
10.468,-0.013392385450091217
10.472,-0.013392481612262919
10.476,-0.013390870895886926
10.48,-0.013391952720318562
10.484,-0.013399212964281992
10.488,-0.013400222667084852
10.492,-0.013399333166996619
10.496,-0.013398179220936206
10.5,-0.013399862058940974
10.504,-0.013400366910342404
10.508000000000001,-0.013396207896416334
10.512,-0.013390582409371823
10.516,-0.013389644828197737
10.52,-0.013391183422944954
10.524000000000001,-0.013393611517780405
10.528,-0.013395895369358306
10.532,-0.013394428896239865
10.536,-0.013391832517603936
10.540000000000001,-0.013391519990545908
10.544,-0.013393611517780405
10.548,-0.013400631356314583
10.552,-0.013398419626365458
10.556000000000001,-0.013391568071631759
10.56,-0.013391952720318562
10.564,-0.013399645694054647
10.568,-0.013398515788537159
10.572000000000001,-0.013388635125394876
10.576,-0.013375340705157206
10.58,-0.013374114637468017
10.584,-0.01338526944938534
10.588000000000001,-0.013390558368828897
10.592,-0.01339089493642985
10.596,-0.013387216733362286
10.6,-0.013388683206480727
10.604000000000001,-0.013396063653158782
10.608,-0.013394621220583268
10.612,-0.013391207463487879
10.616,-0.013394356774611088
10.620000000000001,-0.013395606882843202
10.624,-0.013393972125924285
10.628,-0.013393202828550676
10.632,-0.013398804275052262
10.636000000000001,-0.013399212964281992
10.64,-0.013386519557617453
10.644,-0.013378393854108715
10.648,-0.013379163151482323
10.652000000000001,-0.013377191826962452
10.656,-0.013377143745876601
10.66,-0.013382865395092813
10.664,-0.013385846422415545
10.668000000000001,-0.013384235706039553
10.672,-0.013383514489751796
10.676,-0.013382096097719204
10.68,-0.0133862791521882
10.684000000000001,-0.013397602247906
10.688,-0.01340034286979948
10.692,-0.0133930345447502
10.696,-0.013378562137909191
10.700000000000001,-0.013373802110409989
10.704,-0.01337841789465164
10.708,-0.013383971260067375
10.712,-0.013382889435635738
10.716000000000001,-0.013382793273464037
10.72,-0.013386110868387724
10.724,-0.013390077557970392
10.728,-0.013390269882313795
10.732000000000001,-0.01338983715254114
10.736,-0.013390438166114271
10.74,-0.013392145044661964
10.744,-0.013393972125924285
10.748000000000001,-0.013391495950002982
10.752,-0.013390414125571347
10.756,-0.013398443666908384
10.76,-0.013409598478825707
10.764,-0.01341267566832014
10.768,-0.013401568937488667
10.772,-0.01339125554457373
10.776,-0.01339125554457373
10.78,-0.013391952720318562
10.784,-0.013391976760861488
10.788,-0.013393611517780405
10.792,-0.013390846855344
10.796,-0.013386591679246228
10.8,-0.013385557935900443
10.804,-0.013384596314183431
10.808,-0.013384139543867852
10.812,-0.013386423395445752
10.816,-0.013386519557617453
10.82,-0.013388274517250998
10.824,-0.013392842220406797
10.828,-0.013390726652629375
10.832,-0.013388563003766101
10.836,-0.013388899571367054
10.84,-0.01338841876050855
10.844,-0.013385125206127788
10.848,-0.013391928679775638
10.852,-0.013399092761567366
10.856,-0.0133976984100777
10.86,-0.013392048882490263
10.864,-0.013389356341682633
10.868,-0.013389308260596783
10.872,-0.013385702179157993
10.876,-0.013383298124865467
10.88,-0.01338582238187262
10.884,-0.013386110868387724
10.888,-0.013380076692113482
10.892,-0.013378153448679462
10.896,-0.013381398921974373
10.9,-0.013385437733185816
10.904,-0.01338892361190998
10.908,-0.013389596747111886
10.912,-0.013389957355255765
10.916,-0.013394476977325716
10.92,-0.013394284652982313
10.924,-0.013392145044661964
10.928,-0.013395558801757352
10.932,-0.013396664666731914
10.936,-0.013393419193437004
10.94,-0.01339029392285672
10.944,-0.01339495778818422
10.948,-0.013398131139850356
10.952,-0.013397578207363075
10.956,-0.013392145044661964
10.96,-0.013389957355255765
10.964,-0.013390750693172299
10.968,-0.013384331868211254
10.972,-0.013379018908224771
10.976,-0.013385557935900443
10.98,-0.01338887553082413
10.984,-0.013394356774611088
10.988,-0.013398900437223964
10.992,-0.01340277096463493
10.996,-0.013405848154129365
11.0,-0.013405295221642084
11.004,-0.013402891167349558
11.008000000000001,-0.013405487545985485
11.012,-0.013404982694584055
11.016,-0.013398996599395665
11.02,-0.013393106666378975
11.024000000000001,-0.013391952720318562
11.028,-0.013393443233979929
11.032,-0.013398347504736683
11.036,-0.013398395585822533
11.040000000000001,-0.013387457138791537
11.044,-0.013389043814624605
11.048,-0.013392457571719993
11.052,-0.013390606449914747
11.056000000000001,-0.013392409490634142
11.06,-0.013395318396328099
11.064,-0.01339952549134002
11.068,-0.013399188923739067
11.072000000000001,-0.0133931307069219
11.076,-0.013393274950179453
11.08,-0.013390029476884542
11.084,-0.013387264814448137
11.088000000000001,-0.01338714461173351
11.092,-0.013394356774611088
11.096,-0.013395582842300278
11.1,-0.013387745625306641
11.104000000000001,-0.013385630057529218
11.108,-0.01338358661138057
11.112,-0.013374210799639718
11.116,-0.013383298124865467
11.120000000000001,-0.013393659598866256
11.124,-0.0133954145584998
11.128,-0.013398780234509338
11.132,-0.013400174585999002
11.136000000000001,-0.013394765463840818
11.14,-0.013385750260243844
11.144,-0.013384932881784386
11.148,-0.013384980962870236
11.152000000000001,-0.0133861829900165
11.156,-0.013383875097895674
11.16,-0.01337993244885593
11.164,-0.013379091029853546
11.168000000000001,-0.013381687408489475
11.172,-0.013383177922150841
11.176,-0.013381975895004578
11.18,-0.013379547800169127
11.184000000000001,-0.013374643529412374
11.188,-0.013384572273640507
11.192,-0.013389356341682633
11.196,-0.013392890301492648
11.200000000000001,-0.01340231419431935
11.204,-0.013397986896592804
11.208,-0.013385702179157993
11.212,-0.01338724077390521
11.216000000000001,-0.013396063653158782
11.22,-0.013394356774611088
11.224,-0.013392649896063395
11.228,-0.013390991098601552
11.232000000000001,-0.013382865395092813
11.236,-0.013376422529588842
11.24,-0.013374114637468017
11.244,-0.01337800920542191
11.248000000000001,-0.013386062787301874
11.252,-0.013389236138968008
11.256,-0.013394765463840818
11.26,-0.013393803842123807
11.264,-0.013392673936606321
11.268,-0.01339135170674543
11.272,-0.01338988523362699
11.276,-0.013390173720142094
11.28,-0.013393515355608704
11.284,-0.013397289720847971
11.288,-0.01339591940990123
11.292,-0.013399453369711245
11.296,-0.013399741856226348
11.3,-0.013386759963046706
11.304,-0.013382432665320158
11.308,-0.013381543165231923
11.312,-0.013386447435988677
11.316,-0.013388827449738279
11.32,-0.01338673592250378
11.324,-0.013388707247023651
11.328,-0.01338993331471284
11.332,-0.013391640193260534
11.336,-0.013392433531177068
11.34,-0.013389284220053858
11.344,-0.013388611084851952
11.348,-0.013392048882490263
11.352,-0.013394597180040341
11.356,-0.01339039008502842
11.36,-0.013388755328109502
11.364,-0.01339207292303319
11.368,-0.013391399787831281
11.372,-0.013385990665673097
11.376,-0.013389813111998215
11.38,-0.013397530126277224
11.384,-0.013400318829256554
11.388,-0.013397842653335252
11.392,-0.013390077557970392
11.396,-0.013386567638703304
11.4,-0.013388442801051474
11.404,-0.013387913909107119
11.408,-0.013388827449738279
11.412,-0.013387721584763717
11.416,-0.013381735489575325
11.42,-0.013376807178275647
11.424,-0.013378393854108715
11.428,-0.013383514489751796
11.432,-0.013382721151835262
11.436,-0.013380942151658791
11.44,-0.013380918111115867
11.444,-0.01337993244885593
11.448,-0.01338074982731539
11.452,-0.013391399787831281
11.456,-0.013404261478296297
11.46,-0.013403371978208062
11.464,-0.013401424694231116
11.468,-0.013404429762096774
11.472,-0.013400198626541928
11.476,-0.01338897169299583
11.48,-0.013383658733009347
11.484,-0.01338115851654512
11.488,-0.013379163151482323
11.492,-0.0133794275974545
11.496,-0.013381999935547504
11.5,-0.013389572706568962
11.504,-0.013390870895886926
11.508000000000001,-0.013391592112174684
11.512,-0.013386303192731125
11.516,-0.013374715651041149
11.52,-0.013382432665320158
11.524000000000001,-0.013397962856049878
11.528,-0.013404261478296297
11.532,-0.013399982261655601
11.536,-0.013403371978208062
11.540000000000001,-0.013416522155188182
11.544,-0.013409718681540332
11.548,-0.01339358747723748
11.552,-0.013390438166114271
11.556000000000001,-0.01339231332846244
11.56,-0.013392794139320947
11.564,-0.013393611517780405
11.568,-0.013389524625483111
11.572000000000001,-0.01338796199019297
11.576,-0.013385245408842414
11.58,-0.01337623020524544
11.584,-0.013376110002530814
11.588000000000001,-0.013382264381519682
11.592,-0.013390438166114271
11.596,-0.013394573139497417
11.6,-0.013396472342388511
11.604000000000001,-0.013397169518133344
11.608,-0.013395486680128577
11.612,-0.013397121437047493
11.616,-0.013397626288448925
11.620000000000001,-0.013387841787478342
11.624,-0.013381014273287568
11.628,-0.013380509421886138
11.632,-0.013383514489751796
11.636000000000001,-0.01338074982731539
11.64,-0.013374547367240672
11.644,-0.013371470177746238
11.648,-0.013378297691937014
11.652000000000001,-0.013380870030030016
11.656,-0.013387072490104734
11.66,-0.013390125639056243
11.664,-0.013389164017339233
11.668000000000001,-0.013389043814624605
11.672,-0.013390438166114271
11.676,-0.013391207463487879
11.68,-0.013389067855167532
11.684000000000001,-0.013386904206304256
11.688,-0.0133884668415944
11.692,-0.013391063220230327
11.696,-0.013394380815154015
11.700000000000001,-0.013394188490810612
11.704,-0.013385750260243844
11.708,-0.013379091029853546
11.712,-0.013379668002883753
11.716000000000001,-0.013378874664967219
11.72,-0.013379571840712052
11.724,-0.013384668435812208
11.728,-0.013385990665673097
11.732000000000001,-0.013384379949297105
11.736,-0.0133839953006103
11.74,-0.013384620354726358
11.744,-0.013384379949297105
11.748000000000001,-0.013384908841241461
11.752,-0.013388755328109502
11.756,-0.013390870895886926
11.76,-0.013392000801404413
11.764000000000001,-0.01339673678836069
11.768,-0.013400174585999002
11.772,-0.013393875963752584
11.776,-0.013389524625483111
11.78,-0.013393250909636526
11.784,-0.013390726652629375
11.788,-0.013377937083793133
11.792,-0.013378129408136536
11.796,-0.013384884800698535
11.8,-0.013384956922327312
11.804,-0.013385509854814593
11.808,-0.013383370246494244
11.812,-0.013381062354373419
11.816,-0.013382697111292335
11.82,-0.013385606016986294
11.824,-0.013387000368475958
11.828,-0.013390029476884542
11.832,-0.013391039179687403
11.836,-0.0133839953006103
11.84,-0.013383201962693768
11.844,-0.013385197327756563
11.848,-0.013386976327933033
11.852,-0.013379619921797902
11.856,-0.013381038313830492
11.86,-0.01339262585552047
11.864,-0.013391039179687403
11.868,-0.013387577341506165
11.872,-0.01338435590875418
11.876,-0.013380797908401241
11.88,-0.01337897082713892
11.884,-0.013380918111115867
11.888,-0.01338358661138057
11.892,-0.013383971260067375
11.896,-0.013384019341153226
11.9,-0.01338450015201173
11.904,-0.013388683206480727
11.908,-0.013390029476884542
11.912,-0.01338111043545927
11.916,-0.01337308089412223
11.92,-0.013363296393151649
11.924,-0.01336933056942589
11.928,-0.013383274084322543
11.932,-0.013387721584763717
11.936,-0.0133886591659378
11.94,-0.013383562570837646
11.944,-0.013379139110939397
11.948,-0.013379211232568173
11.952,-0.013379571840712052
11.956,-0.013377191826962452
11.96,-0.013377408191848779
11.964,-0.013379619921797902
11.968,-0.013382745192378186
11.972,-0.01338404338169615
11.976,-0.013380942151658791
11.98,-0.01338353853029472
11.984,-0.013384620354726358
11.988,-0.013382504786948935
11.992,-0.013372095231862295
11.996,-0.013374739691584075
12.0,-0.013380990232744642
12.004,-0.013385870462958471
12.008000000000001,-0.013385846422415545
12.012,-0.013379066989310621
12.016,-0.013373465542809035
12.02,-0.013372431799463248
12.024000000000001,-0.013373273218465632
12.028,-0.01337385019149584
12.032,-0.013376374448502992
12.036,-0.013377985164878984
12.040000000000001,-0.013378369813565789
12.044,-0.01337745627293463
12.048,-0.013377167786419526
12.052,-0.0133794275974545
12.056000000000001,-0.0133794275974545
12.06,-0.01337983628668423
12.064,-0.013368320866623028
12.068,-0.013372527961634949
12.072000000000001,-0.013380557502971988
12.076,-0.013379163151482323
12.08,-0.013382889435635738
12.084,-0.013376518691760543
12.088000000000001,-0.013371470177746238
12.092,-0.01337115765068821
12.096,-0.013372263515662772
12.1,-0.013373465542809035
12.104000000000001,-0.013373489583351961
12.108,-0.013372191394033997
12.112,-0.013372720285978352
12.116,-0.013374162718553868
12.120000000000001,-0.013374956056470402
12.124,-0.013375653232215234
12.128,-0.013378177489222386
12.132,-0.013373778069867063
12.136000000000001,-0.013371181691231136
12.14,-0.01338207205717628
12.144,-0.0133817114490324
12.148,-0.013372311596748622
12.152000000000001,-0.013371133610145285
12.156,-0.013375965759273262
12.16,-0.013375749394386936
12.164,-0.013371037447973584
12.168000000000001,-0.01336654186644656
12.172,-0.013365051352785193
12.176,-0.013366325501560233
12.18,-0.013367311163820167
12.184000000000001,-0.013368897839653235
12.188,-0.013370027745170722
12.192,-0.013370220069514124
12.196,-0.013370436434400453
12.200000000000001,-0.013371229772316985
12.204,-0.013372191394033997
12.208,-0.01336933056942589
12.212,-0.01337385019149584
12.216000000000001,-0.0133816152868607
12.22,-0.013380966192201717
12.224,-0.013381278719259745
12.228,-0.013372479880549099
12.232000000000001,-0.013364161852696958
12.236,-0.01336978733974147
12.24,-0.013375076259185027
12.244,-0.01337298473195053
12.248000000000001,-0.013361757798404431
12.252,-0.01335704585199108
12.256,-0.013362719420121443
12.26,-0.013366950555676289
12.264000000000001,-0.013367936217936225
12.268,-0.013367022677305064
12.272,-0.013367215001648466
12.276,-0.013368489150423506
12.280000000000001,-0.013369402691054666
12.284,-0.013368320866623028
12.288,-0.013371686542632566
12.292,-0.013380269016456885
12.296,-0.013382721151835262
12.3,-0.013372215434576921
12.304,-0.013364546501383762
12.308,-0.013364426298669137
12.312,-0.013364161852696958
12.316,-0.013362190528177087
12.32,-0.013368705515309833
12.324,-0.013371494218289164
12.328,-0.013368200663908402
12.332,-0.01336526771767152
12.336,-0.013366926515133364
12.34,-0.01337024411005705
12.344,-0.01337293665086468
12.348,-0.01337166250208964
12.352,-0.01336947481268344
12.356,-0.01337892274605307
12.36,-0.013381230638173895
12.364,-0.013378345773022864
12.368,-0.013369114204539562
12.372,-0.013363825285096005
12.376,-0.013370075826256572
12.38,-0.013370268150599975
12.384,-0.013366229339388531
12.388,-0.013366758231332886
12.392,-0.013374883934841625
12.396,-0.013380509421886138
12.4,-0.013380317097542735
12.404,-0.013371133610145285
12.408,-0.013364883068984717
12.412,-0.013364065690525256
12.416,-0.013362310730891712
12.42,-0.013355747662673115
12.424,-0.013360820217230347
12.428,-0.013367190961105542
12.432,-0.013371926948061818
12.436,-0.013374932015927475
12.44,-0.013371806745347192
12.444,-0.013368032380107926
12.448,-0.01336435417704036
12.452,-0.013361228906460076
12.456,-0.013369522893769291
12.46,-0.013378730421709667
12.464,-0.01337897082713892
12.468,-0.013373970394210465
12.472,-0.013371349975031612
12.476,-0.013374907975384551
12.48,-0.013375917678187412
12.484,-0.013376422529588842
12.488,-0.013377263948591227
12.492,-0.013373225137379782
12.496,-0.013369643096483919
12.5,-0.01337262412380665
12.504,-0.013375052218642103
12.508000000000001,-0.013367575609792346
12.512,-0.013358656568367072
12.516,-0.013356565041132576
12.52,-0.013356108270816996
12.524000000000001,-0.013359065257596803
12.528,-0.013364209933782808
12.532,-0.013368753596395683
12.536,-0.013372047150776445
12.540000000000001,-0.013372696245435427
12.544,-0.013370773002001405
12.548,-0.013373417461723184
12.552,-0.01337993244885593
12.556000000000001,-0.013381807611204102
12.56,-0.01336969117756977
12.564,-0.0133544013922693
12.568,-0.013360555771258168
12.572000000000001,-0.013372455840006174
12.576,-0.013374018475296316
12.58,-0.013368032380107926
12.584,-0.01336247901469219
12.588000000000001,-0.013368441069337655
12.592,-0.01337435504289727
12.596,-0.013367647731421121
12.6,-0.013361276987545927
12.604000000000001,-0.01336146931188933
12.608,-0.013362214568720011
12.612,-0.013361637595689806
12.616,-0.013363272352608724
12.620000000000001,-0.013365724487987101
12.624,-0.013370676839829704
12.628,-0.013371902907518893
12.632,-0.013366253379931456
12.636000000000001,-0.013363873366181856
12.64,-0.013369811380284395
12.644,-0.013371253812859911
12.648,-0.013370580677658004
12.652000000000001,-0.013372503921092025
12.656,-0.01337659081338932
12.66,-0.013377360110762928
12.664,-0.013371806745347192
12.668000000000001,-0.01336654186644656
12.672,-0.013366349542103157
12.676,-0.01336796025847915
12.68,-0.013370027745170722
12.684000000000001,-0.013372287556205698
12.688,-0.01337120573177406
12.692,-0.01336663802861826
12.696,-0.013364282055411585
12.700000000000001,-0.013362839622836069
12.704,-0.013362382852520489
12.708,-0.013359834554970411
12.712,-0.013362695379578517
12.716000000000001,-0.013374090596925093
12.72,-0.013374907975384551
12.724,-0.01336558024472955
12.728,-0.013362767501207294
12.732000000000001,-0.013369162285625413
12.736,-0.013367840055764524
12.74,-0.013364834987898866
12.744,-0.013363584879666752
12.748000000000001,-0.013359906676599186
12.752,-0.013360940419944973
12.756,-0.013366469744817783
12.76,-0.013359978798227963
12.764000000000001,-0.013359473946826532
12.768,-0.013363055987722396
12.772,-0.013364017609439406
12.776,-0.013366950555676289
12.780000000000001,-0.013371181691231136
12.784,-0.013373201096836857
12.788,-0.013363873366181856
12.792,-0.013360050919856738
12.796000000000001,-0.013358896973796325
12.8,-0.013357478581763735
12.804,-0.01336947481268344
12.808,-0.013377528394563404
12.812,-0.013373802110409989
12.816,-0.013362454974149264
12.82,-0.013360579811801094
12.824,-0.013361829920033208
12.828,-0.013363200230979947
12.832,-0.013362815582293143
12.836,-0.013365339839300296
12.84,-0.013369162285625413
12.844,-0.013367407325991868
12.848,-0.013361998203833684
12.852,-0.013355459176158014
12.856,-0.013351444405489493
12.86,-0.013352910878607935
12.864,-0.013360171122571365
12.868,-0.013362815582293143
12.872,-0.013362310730891712
12.876,-0.013364666704098388
12.88,-0.013367455407077719
12.884,-0.013366109136673904
12.888,-0.013368392988251805
12.892,-0.013373249177922708
12.896,-0.013375701313301085
12.9,-0.013374691610498224
12.904,-0.01336476286627009
12.908,-0.013357935352079315
12.912,-0.013355867865387743
12.916,-0.013353656135438619
12.92,-0.013354954324756583
12.924,-0.013358536365652447
12.928,-0.013361108703745449
12.932,-0.013361373149717628
12.936,-0.01335786323045054
12.94,-0.013356228473531621
12.944,-0.013357190095248632
12.948,-0.013358223838594419
12.952,-0.0133587767710817
12.956,-0.013359594149541158
12.96,-0.013360219203657216
12.964,-0.01335699777090523
12.968,-0.013354737959870255
12.972,-0.013372479880549099
12.976,-0.013376494651217619
12.98,-0.013363632960752603
12.984,-0.01336440225812621
12.988,-0.013362262649805862
12.992,-0.013362238609262937
12.996,-0.013360627892886945
13.0,-0.013353367648923515
13.004,-0.013348439337623835
13.008000000000001,-0.013347718121336078
13.012,-0.013350410662143708
13.016,-0.01335243006774943
13.02,-0.013345554472472805
13.024000000000001,-0.013347597918621452
13.028,-0.01335471391932733
13.032,-0.013358704649452923
13.036,-0.013356829487104753
13.040000000000001,-0.013354593716612703
13.044,-0.013373970394210465
13.048,-0.013378874664967219
13.052,-0.013369763299198544
13.056000000000001,-0.0133656283258154
13.06,-0.013366469744817783
13.064,-0.013370556637115078
13.068,-0.013367912177393299
13.072000000000001,-0.01336476286627009
13.076,-0.013357478581763735
13.08,-0.0133520213785197
13.084,-0.013356661203304277
13.088000000000001,-0.013357214135791558
13.092,-0.013355074527471209
13.096,-0.013354425432812227
13.1,-0.013358656568367072
13.104000000000001,-0.01336192608220491
13.108,-0.013365604285272474
13.112,-0.013366878434047514
13.116,-0.013360820217230347
13.120000000000001,-0.013356613122218426
13.124,-0.013359906676599186
13.128,-0.013366109136673904
13.132,-0.013372696245435427
13.136000000000001,-0.013369522893769291
13.14,-0.01336298386609362
13.144,-0.013353776338153244
13.148,-0.013351540567661194
13.152000000000001,-0.01335005005399983
13.156,-0.013346371850932263
13.16,-0.013345314067043552
13.164,-0.013350266418886156
13.168000000000001,-0.01335613231135992
13.172,-0.01335928162248313
13.176,-0.013359137379225578
13.18,-0.013358440203480745
13.184000000000001,-0.013361276987545927
13.188,-0.01336658994753241
13.192,-0.01336759965033527
13.196,-0.013372383718377399
13.200000000000001,-0.01337678313773272
13.204,-0.0133634406364092
13.208,-0.013355050486928283
13.212,-0.013349977932371053
13.216000000000001,-0.013344953458899673
13.22,-0.013346371850932263
13.224,-0.013350074094542754
13.228,-0.01335567554104434
13.232000000000001,-0.013359305663026054
13.236,-0.01336384932563893
13.24,-0.013366950555676289
13.244,-0.013364690744641314
13.248000000000001,-0.013361132744288375
13.252,-0.013360171122571365
13.256,-0.013359065257596803
13.26,-0.013356901608733528
13.264000000000001,-0.013363632960752603
13.268,-0.013375653232215234
13.272,-0.013378201529765313
13.276,-0.013365484082557848
13.280000000000001,-0.013356829487104753
13.284,-0.013358416162937821
13.288,-0.013358536365652447
13.292,-0.0133542090679259
13.296000000000001,-0.013355435135615087
13.3,-0.013358031514251016
13.304,-0.013358656568367072
13.308,-0.013359065257596803
13.312000000000001,-0.013358103635879791
13.316,-0.013358945054882176
13.32,-0.013360339406371841
13.324,-0.013361132744288375
13.328,-0.013361950122747834
13.332,-0.013362911744464844
13.336,-0.013366613988075335
13.34,-0.013366157217759755
13.344,-0.013361541433518104
13.348,-0.013365027312242268
13.352,-0.013369402691054666
13.356,-0.013370676839829704
13.36,-0.013366229339388531
13.364,-0.013365484082557848
13.368,-0.01336435417704036
13.372,-0.013357718987192988
13.376,-0.013352910878607935
13.38,-0.013351300162231943
13.384,-0.013353463811095216
13.388,-0.013356324635703323
13.392,-0.013357526662849586
13.396,-0.013357767068278839
13.4,-0.013355050486928283
13.404,-0.01335252622992113
13.408,-0.013359570108998233
13.412,-0.013366878434047514
13.416,-0.013364690744641314
13.42,-0.013362575176863891
13.424,-0.013366830352961663
13.428,-0.013375460907871832
13.432,-0.013374282921268493
13.436,-0.013369090163996638
13.44,-0.013366902474590438
13.444,-0.013363272352608724
13.448,-0.013357214135791558
13.452,-0.01335146844603242
13.456,-0.01334781428350778
13.46,-0.013341828188319388
13.464,-0.013339111606968834
13.468,-0.013344809215642121
13.472,-0.013351780973090447
13.476,-0.013352742594807458
13.48,-0.013350410662143708
13.484,-0.01334932883771207
13.488,-0.013352862797522085
13.492,-0.013357983433165166
13.496,-0.013362238609262937
13.5,-0.01336070001451572
13.504,-0.013355411095072163
13.508000000000001,-0.013357069892534006
13.512,-0.013359473946826532
13.516,-0.013353271486751814
13.52,-0.013345241945414777
13.524000000000001,-0.013340626161173125
13.528,-0.013338198066337674
13.532,-0.013344328404783615
13.536,-0.013343438904695382
13.540000000000001,-0.013341780107233537
13.544,-0.013342212837006193
13.548,-0.013341082931488706
13.552,-0.01334146758017551
13.556000000000001,-0.013349400959340847
13.56,-0.013352910878607935
13.564,-0.013351324202774868
13.568,-0.01335512260855706
13.572000000000001,-0.013360579811801094
13.576,-0.013358800811624624
13.58,-0.013346804580704918
13.584,-0.01334557851301573
13.588000000000001,-0.013339448174569788
13.592,-0.013329158822197774
13.596,-0.013325336375872658
13.6,-0.013328365484281242
13.604000000000001,-0.013331538835947376
13.608,-0.013334351579469631
13.612,-0.013337741296022094
13.616,-0.013338991404254208
13.620000000000001,-0.013335866133673923
13.624,-0.013340433836829724
13.628,-0.0133474536753639
13.632,-0.013348078729479957
13.636000000000001,-0.013345866999530833
13.64,-0.01335562745995849
13.644,-0.013364714785184239
13.648,-0.013360411528000616
13.652000000000001,-0.013359257581940204
13.656,-0.013353920581410796
13.66,-0.013348054688937032
13.664,-0.01335101167571684
13.668000000000001,-0.013351324202774868
13.672,-0.013347381553735124
13.676,-0.013338991404254208
13.68,-0.013340313634115097
13.684000000000001,-0.013344063958811438
13.688,-0.013347237310477572
13.692,-0.013350314499972007
13.696,-0.0133520213785197
13.700000000000001,-0.013353728257067394
13.704,-0.013353127243494262
13.708,-0.013353343608380589
13.712,-0.013352381986663579
13.716000000000001,-0.01334877590522479
13.72,-0.013349617324227174
13.724,-0.013344352445326542
13.728,-0.01334416012098314
13.732000000000001,-0.013351925216348
13.736,-0.013348703783596014
13.74,-0.013343607188495858
13.744,-0.013343270620894904
13.748000000000001,-0.013341924350491089
13.752,-0.013337476850049917
13.756,-0.0133337505658965
13.76,-0.013339039485340059
13.764000000000001,-0.013342693647864699
13.768,-0.013344809215642121
13.772,-0.013345915080616683
13.776,-0.013348271053823359
13.780000000000001,-0.013349977932371053
13.784,-0.013351853094719224
13.788,-0.013349881770199351
13.792,-0.013350362581057857
13.796000000000001,-0.013348391256537985
13.8,-0.013339424134026862
13.804,-0.013333678444267725
13.808,-0.01333064933585914
13.812000000000001,-0.013336539268875831
13.816,-0.013342765769493474
13.82,-0.013345794877902058
13.824,-0.013347838324050704
13.828,-0.013349016310654042
13.832,-0.01335005005399983
13.836,-0.013353295527294739
13.84,-0.013358896973796325
13.844,-0.013360675973972795
13.848,-0.013358464244023672
13.852,-0.013357935352079315
13.856,-0.013353103202951338
13.86,-0.013346684377990291
13.864,-0.013356733324933052
13.868,-0.013369595015398068
13.872,-0.013363272352608724
13.876,-0.01335293491915086
13.88,-0.013352285824491878
13.884,-0.013347694080793154
13.888,-0.013346299729303488
13.892,-0.013346251648217638
13.896,-0.013345241945414777
13.9,-0.013345169823786
13.904,-0.013345434269758177
13.908,-0.013345650634644506
13.912,-0.013347742161879004
13.916,-0.013349857729656427
13.92,-0.013350001972913979
13.924,-0.013352285824491878
13.928,-0.013356156351902846
13.932,-0.013360267284743066
13.936,-0.013355747662673115
13.94,-0.013357670906107138
13.944,-0.01336070001451572
13.948,-0.013347958526765331
13.952,-0.01333882312045373
13.956,-0.013338750998824955
13.96,-0.013339231809683461
13.964,-0.013340337674658023
13.968,-0.013339664539456115
13.972,-0.013340385755743873
13.976,-0.013343006174922727
13.98,-0.013345386188672327
13.984,-0.013344809215642121
13.988,-0.013343967796639737
13.992,-0.013344881337270896
13.996,-0.013347718121336078
14.0,-0.013350819351373437
14.004,-0.013349304797169146
14.008000000000001,-0.013342116674834491
14.012,-0.013344136080440215
14.016,-0.013360387487457692
14.02,-0.013370484515486303
14.024000000000001,-0.013357718987192988
14.028,-0.013338510593395702
14.032,-0.01333425541729793
14.036,-0.013335625728244671
14.040000000000001,-0.013337957660908421
14.044,-0.013339424134026862
14.048,-0.01333877503936788
14.052,-0.013336515228332905
14.056000000000001,-0.013334375620012558
14.06,-0.01333521703901494
14.064,-0.013335337241729568
14.068,-0.013336058458017325
14.072000000000001,-0.013337476850049917
14.076,-0.013337500890592841
14.08,-0.013338246147423525
14.084,-0.013338943323168357
14.088000000000001,-0.013331947525177105
14.092,-0.013334880471413988
14.096,-0.013358704649452923
14.1,-0.01336170971731858
14.104000000000001,-0.013349352878254997
14.108,-0.013338198066337674
14.112,-0.013336611390504606
14.116,-0.013339472215112712
14.120000000000001,-0.01333699603919141
14.124,-0.013331178227803497
14.128,-0.013325504659673136
14.132,-0.013322475551264552
14.136000000000001,-0.013326129713789192
14.14,-0.01333132247106105
14.144,-0.013331899444091255
14.148,-0.01333141863323275
14.152000000000001,-0.013331851363005404
14.156,-0.013332885106351191
14.16,-0.013328822254596822
14.164,-0.013324543037956124
14.168000000000001,-0.013336226741817803
14.172,-0.013355891905930667
14.176,-0.013362623257949742
14.18,-0.013350074094542754
14.184000000000001,-0.013340794444973603
14.188,-0.013338438471766927
14.192,-0.013333269755037996
14.196,-0.013330625295316216
14.200000000000001,-0.013330432970972814
14.204,-0.013330481052058665
14.208,-0.01332867801133927
14.212,-0.013326682646276473
14.216000000000001,-0.013323437172981562
14.22,-0.013321489889004615
14.224,-0.013329206903283625
14.228,-0.013331659038662002
14.232000000000001,-0.013329855997942607
14.236,-0.013329783876313832
14.24,-0.013339664539456115
14.244,-0.013346996905048321
14.248000000000001,-0.01334740559427805
14.252,-0.013349905810742278
14.256,-0.013353415730009366
14.26,-0.013355555338329715
14.264000000000001,-0.01334420820206899
14.268,-0.013334832390328137
14.272,-0.013332260052235133
14.276,-0.01333060125477329
14.280000000000001,-0.013332260052235133
14.284,-0.013333534201010173
14.288,-0.013333990971325753
14.292,-0.013340962728774079
14.296000000000001,-0.013342308999177894
14.3,-0.01334146758017551
14.304,-0.013341924350491089
14.308,-0.01333918372859761
14.312000000000001,-0.013337236444620664
14.316,-0.013345650634644506
14.32,-0.013352045419062625
14.324,-0.013355891905930667
14.328000000000001,-0.013352093500148475
14.332,-0.013350747229744662
14.336,-0.013355026446385358
14.34,-0.013348607621424313
14.344,-0.013332211971149283
14.348,-0.013327163457134979
14.352,-0.01333228409277806
14.356,-0.013332572579293163
14.36,-0.01333228409277806
14.364,-0.013332187930606358
14.368,-0.01333278894417949
14.372,-0.013334856430871062
14.376,-0.013337308566249439
14.38,-0.013336058458017325
14.384,-0.013336659471590457
14.388,-0.013348271053823359
14.392,-0.013346876702333694
14.396,-0.013334543903813034
14.4,-0.01333425541729793
14.404,-0.013338606755567403
14.408,-0.013333510160467247
14.412,-0.013328702051882194
14.416,-0.013319326240141342
14.42,-0.013316705820962489
14.424,-0.013324230510898096
14.428,-0.0133245189974132
14.432,-0.013322643835065028
14.436,-0.01331999937534325
14.44,-0.013320600388916382
14.444,-0.013323629497324964
14.448,-0.013325120010986331
14.452,-0.013326081632703341
14.456,-0.01332644224084722
14.46,-0.0133268990111628
14.464,-0.013323413132438637
14.468,-0.013326201835417967
14.472,-0.013337669174393317
14.476,-0.013336803714848008
14.48,-0.01333699603919141
14.484,-0.013334616025441809
14.488,-0.013324350713612721
14.492,-0.013317282793992694
14.496,-0.013314181563955335
14.5,-0.013318965631997463
14.504,-0.01332050422674468
14.508000000000001,-0.013316898145305891
14.512,-0.013317162591278069
14.516,-0.01331826845625263
14.52,-0.01332091291597441
14.524000000000001,-0.013321634132262167
14.528,-0.013319085834712089
14.532,-0.013326610524647698
14.536,-0.013330745498030842
14.540000000000001,-0.013329880038485533
14.544,-0.013329615592513356
14.548,-0.013330505092601589
14.552,-0.0133246151595849
14.556000000000001,-0.013326730727362323
14.56,-0.013337308566249439
14.564,-0.013331514795404452
14.568,-0.01332283615940843
14.572000000000001,-0.01332557678130191
14.576,-0.013322691916150878
14.58,-0.01331451813155629
14.584,-0.013306368387504625
14.588000000000001,-0.013310815887945799
14.592,-0.01331913391579794
14.596,-0.013319374321227193
14.6,-0.01331771552376535
14.604000000000001,-0.013320672510545157
14.608,-0.013323365051352787
14.612,-0.013322163024206524
14.616,-0.013320191699686651
14.620000000000001,-0.01332406222709762
14.624,-0.01333370248481065
14.628,-0.013328413565367092
14.632,-0.013311272658261378
14.636000000000001,-0.013307137684878234
14.64,-0.013317186631820993
14.644,-0.013321129280860737
14.648,-0.013317955929194603
14.652000000000001,-0.01331213811780669
14.656,-0.01330898880668348
14.66,-0.01331456621264214
14.664,-0.013316874104762965
14.668000000000001,-0.013312090036720839
14.672,-0.013307185765964085
14.676,-0.013304733630585708
14.68,-0.013305406765787614
14.684000000000001,-0.013308099306595244
14.688,-0.013309710022971237
14.692,-0.01330903688776933
14.696,-0.013306488590219252
14.700000000000001,-0.013305623130673943
14.704,-0.01331269105029397
14.708,-0.013313340144952952
14.712,-0.013313436307124654
14.716000000000001,-0.013318893510368688
14.72,-0.013313796915268532
14.724,-0.013316321172275684
14.728,-0.013317547239964873
14.732000000000001,-0.013312474685407642
14.736,-0.013311248617718454
14.74,-0.013306656874019728
14.744,-0.013296559845991119
14.748000000000001,-0.013294107710612742
14.752,-0.01329369902138301
14.756,-0.01329252103477967
14.76,-0.01329079011568905
14.764000000000001,-0.013297521467708129
14.768,-0.013303363319638967
14.772,-0.013306152022618298
14.776,-0.01330826759039572
14.780000000000001,-0.013308387793110348
14.784,-0.013305767373931493
14.788,-0.01331050336088777
14.792,-0.013315623996530851
14.796000000000001,-0.013309349414827358
14.8,-0.0133085320363679
14.804,-0.013316273091189833
14.808,-0.01331862906439651
14.812000000000001,-0.013310527401430695
14.816,-0.013300093805801131
14.82,-0.013288770710083329
14.824,-0.013290020818315443
14.828000000000001,-0.013294756805271724
14.832,-0.013298290765081737
14.836,-0.013298170562367111
14.84,-0.013297016616306698
14.844000000000001,-0.013297858035309083
14.848,-0.013300117846344058
14.852,-0.013299853400371878
14.856,-0.013295478021559481
14.86,-0.013301440076204946
14.864,-0.01330903688776933
14.868,-0.013315311469472823
14.872,-0.013322764037779655
14.876,-0.013315672077616702
14.88,-0.013306897279448981
14.884,-0.013296872373049147
14.888,-0.013287111912621486
14.892,-0.013287664845108767
14.896,-0.013296006913503838
14.9,-0.013296487724362342
14.904,-0.013296079035132613
14.908,-0.013293771143011788
14.912,-0.013292881642923549
14.916,-0.013295934791875061
14.92,-0.013302449779007807
14.924,-0.013302113211406853
14.928,-0.013309565779713685
14.932,-0.01330725788759286
14.936,-0.013293338413239129
14.94,-0.013282880777066639
14.944,-0.01328119793906187
14.948,-0.013286510899048355
14.952,-0.013288265858681899
14.956,-0.013289299602027684
14.96,-0.01328850626411115
14.964,-0.013286366655790803
14.968,-0.013286823426106383
14.972,-0.013285140588101613
14.976,-0.01328978041288619
14.98,-0.013295478021559481
14.984,-0.013291823859034838
14.988,-0.013291343048176332
14.992,-0.013289852534514965
14.996,-0.01329216042663579
15.0,-0.01330004572471528
15.004,-0.013304781711671558
15.008000000000001,-0.01329639156219064
15.012,-0.013287833128909243
15.016,-0.013278385195539614
15.02,-0.013278625600968867
15.024000000000001,-0.013280717128203366
15.028,-0.013282303804036433
15.032,-0.01328521270973039
15.036,-0.013286943628821008
15.040000000000001,-0.013290429507545172
15.044,-0.013295165494501453
15.048,-0.013293146088895726
15.052,-0.01328708787207856
15.056000000000001,-0.013289179399313058
15.06,-0.013295405899930706
15.064,-0.013295093372872676
15.068,-0.013292953764552324
15.072000000000001,-0.013296704089248669
15.076,-0.013303892211583323
15.08,-0.013301247751861544
15.084,-0.013296223278390164
15.088000000000001,-0.013287688885651691
15.092,-0.013281486425576973
15.096,-0.013283000979781264
15.1,-0.013288722628997478
15.104000000000001,-0.013287785047823393
15.108,-0.013287448480222439
15.112,-0.013288025453252646
15.116,-0.01328881879116918
15.120000000000001,-0.013288530304654076
15.124,-0.013288434142482375
15.128,-0.013290862237317826
15.132,-0.013294997210700975
15.136000000000001,-0.013296559845991119
15.14,-0.0133016804816342
15.144,-0.013309157090483956
15.148,-0.013301367954576171
15.152000000000001,-0.013287424439679514
15.156,-0.013290501629173947
15.16,-0.013299588954399701
15.164,-0.01329660792707697
15.168000000000001,-0.013291222845461706
15.172,-0.013288938993883805
15.176,-0.013283577952811472
15.18,-0.013278192871196212
15.184000000000001,-0.013276149425047566
15.188,-0.013281534506662824
15.192,-0.013288410101939449
15.196,-0.013295069332329752
15.200000000000001,-0.01329634348110479
15.204,-0.013292833561837698
15.208,-0.01329069395351735
15.212,-0.013291270926547557
15.216000000000001,-0.013296103075675537
15.22,-0.013295982872960911
15.224,-0.013291054561661228
15.228,-0.013289948696686666
15.232000000000001,-0.013299372589513374
15.236,-0.013295958832417987
15.24,-0.013287208074793186
15.244,-0.013284611696157259
15.248000000000001,-0.01328754464239414
15.252,-0.013291078602204154
15.256,-0.013296487724362342
15.26,-0.013301824724891751
15.264000000000001,-0.013301560278919572
15.268,-0.013300214008515759
15.272,-0.01330314695475264
15.276,-0.013301896846520526
15.280000000000001,-0.013295790548617509
15.284,-0.013294732764728798
15.288,-0.013294396197127844
15.292,-0.013294203872784443
15.296000000000001,-0.013289756372343264
15.3,-0.013290766075146126
15.304,-0.013294732764728798
15.308,-0.013291679615777286
15.312000000000001,-0.01329266527803722
15.316,-0.013292713359123071
15.32,-0.013294684683642947
15.324,-0.01329639156219064
15.328000000000001,-0.013292593156408445
15.332,-0.013282183601321806
15.336,-0.013275043560073004
15.34,-0.013280500763317039
15.344000000000001,-0.013283337547382219
15.348,-0.013282135520235955
15.352,-0.013278505398254242
15.356,-0.013271629802977615
15.36,-0.013259104680113553
15.364,-0.013268889181084136
15.368,-0.013287232115336112
15.372,-0.013289035156055506
15.376,-0.013282255722950583
15.38,-0.013278240952282062
15.384,-0.013281294101233571
15.388,-0.01328475593941481
15.392,-0.013284467452899707
15.396,-0.013285020385386988
15.4,-0.01328658302067713
15.404,-0.013278337114453764
15.408,-0.013277928425224034
15.412,-0.0132815104661199
15.416,-0.013282856736523714
15.42,-0.013282496128379834
15.424,-0.013284082804212902
15.428,-0.013290549710259798
15.432,-0.013289251520941833
15.436,-0.013282952898695416
15.44,-0.013272158694921972
15.444,-0.013270788383975232
15.448,-0.013276413871019743
15.452,-0.013277567817080156
15.456,-0.013274610830300348
15.46,-0.013271004748861559
15.464,-0.013271076870490334
15.468,-0.013270067167687473
15.472,-0.013262470356123091
15.476,-0.01326480228878684
15.48,-0.013272399100351225
15.484,-0.013276750438620697
15.488,-0.013279659344314654
15.492,-0.013275019519530078
15.496,-0.013269466154114342
15.5,-0.013265066734759018
15.504,-0.013266797653849638
15.508000000000001,-0.013273192438267759
15.512,-0.013274731033014974
15.516,-0.013273504965325787
15.52,-0.013270019086601623
15.524000000000001,-0.013271389397548364
15.528,-0.013279491060514176
15.532,-0.01329252103477967
15.536,-0.013296728129791595
15.540000000000001,-0.013287785047823393
15.544,-0.013286727263934681
15.548,-0.013286198371990325
15.552,-0.013283097141952966
15.556000000000001,-0.01327759185762308
15.56,-0.013278192871196212
15.564,-0.013277880344138184
15.568,-0.013274803154643751
15.572000000000001,-0.01327206253275027
15.576,-0.013272399100351225
15.58,-0.013274490627585723
15.584,-0.01327749569545138
15.588000000000001,-0.013279899749743907
15.592,-0.013279442979428326
15.596,-0.013279082371284447
15.6,-0.013280909452546768
15.604000000000001,-0.013285453115159641
15.608,-0.013288987074969656
15.612,-0.013290645872431499
15.616,-0.013284828061043585
15.620000000000001,-0.013281390263405272
15.624,-0.013279346817256626
15.628,-0.013281294101233571
15.632,-0.01327881792531227
15.636000000000001,-0.013275404168216882
15.64,-0.013274322343785245
15.644,-0.013272903951752655
15.648,-0.013272302938179523
15.652000000000001,-0.013273769411297964
15.656,-0.013275644573646135
15.66,-0.013275692654731986
15.664,-0.013274995478987153
15.668000000000001,-0.01327425022215647
15.672,-0.013275452249302733
15.676,-0.013277976506309885
15.68,-0.013277255290022128
15.684000000000001,-0.01327689468187825
15.688,-0.013278577519883017
15.692,-0.013279154492913224
15.696,-0.013282712493266163
15.700000000000001,-0.013285861804389372
15.704,-0.013278769844226419
15.708,-0.013269442113571417
15.712,-0.013265595626703375
15.716000000000001,-0.013266292802448208
15.72,-0.01326795159991005
15.724,-0.013268216045882228
15.728,-0.013269922924429921
15.732000000000001,-0.013272375059808298
15.736,-0.013271846167863944
15.74,-0.013269514235200192
15.744,-0.013268720897283658
15.748000000000001,-0.013266773613306712
15.752,-0.013275788816903685
15.756,-0.013284299169099229
15.76,-0.013280068033544383
15.764000000000001,-0.013281702790463302
15.768,-0.013284419371813856
15.772,-0.013272351019265374
15.776,-0.013264946532044393
15.780000000000001,-0.013263047329153297
15.784,-0.013262229950693838
15.788,-0.013261628937120707
15.792,-0.013262975207524522
15.796000000000001,-0.013264225315756635
15.8,-0.013267783316109574
15.804,-0.01326932191085679
15.808,-0.013265379261817048
15.812000000000001,-0.013260282666716892
15.816,-0.013264850369872691
15.82,-0.013273649208583338
15.824,-0.013277928425224034
15.828000000000001,-0.013281390263405272
15.832,-0.013276774479163622
15.836,-0.013266340883534058
15.84,-0.013271870208406868
15.844000000000001,-0.01327328860043946
15.848,-0.013272831830123878
15.852,-0.013274610830300348
15.856,-0.013273456884239936
15.860000000000001,-0.013270331613659652
15.864,-0.01326648512679161
15.868,-0.01325840750436872
15.872,-0.013264585923900514
15.876,-0.013273000113924356
15.88,-0.013267831397195425
15.884,-0.013264922491501468
15.888,-0.013267518870137395
15.892,-0.013274274262699394
15.896,-0.013274009816727217
15.9,-0.013266749572763787
15.904,-0.013268600694569033
15.908,-0.013282135520235955
15.912,-0.013281822993177927
15.916,-0.013268985343255837
15.92,-0.01326424935629956
15.924,-0.01327571669527491
15.928,-0.013279635303771728
15.932,-0.013282279763493507
15.936,-0.013277471654908455
15.94,-0.013266148559190656
15.944,-0.013260955801918798
15.948,-0.01325872003142675
15.952,-0.013258551747626272
15.956,-0.01325972973422961
15.96,-0.013260619234317846
15.964,-0.013260499031603219
15.968,-0.01325826326111117
15.972,-0.01326932191085679
15.976,-0.013271245154290812
15.98,-0.01327297607338143
15.984,-0.013276317708848042
15.988,-0.013269562316286043
15.992,-0.01326622068081943
15.996,-0.01326977868117237
16.0,-0.013268023721538826
16.004,-0.01325963357205791
16.008,-0.013255642841932315
16.012,-0.01325739780156586
16.016000000000002,-0.01325790265296729
16.02,-0.013254969706730409
16.024,-0.01325922488282818
16.028,-0.013264153194127859
16.032,-0.013259825896401312
16.036,-0.013258575788169198
16.04,-0.013258888315227226
16.044,-0.013258575788169198
16.048000000000002,-0.013255642841932315
16.052,-0.013261340450605603
16.056,-0.013260955801918798
16.06,-0.013267975640452975
16.064,-0.01327516376278763
16.068,-0.013260739437032472
16.072,-0.013248190273625483
16.076,-0.01324694016539337
16.080000000000002,-0.013249608665658075
16.084,-0.013244776516530096
16.088,-0.013234847772301963
16.092,-0.013237420110394965
16.096,-0.01324191569192199
16.1,-0.013246651678878268
16.104,-0.013248598962855214
16.108,-0.013248166233082559
16.112000000000002,-0.01324867108448399
16.116,-0.013250113517059505
16.12,-0.013252445449723255
16.124,-0.013255787085189867
16.128,-0.013261388531691454
16.132,-0.013262278031779689
