time,channel1
0.0,0.005673880657420236
0.004,0.005685684563996541
0.008,0.0056913340915839775
0.012,0.005694651686507664
0.016,0.005698065443603051
0.02,0.005697344227315293
0.024,0.005702128295357421
0.028,0.005702729308930552
0.032,0.00570294567381688
0.036000000000000004,0.005698978984234212
0.04,0.005699387673463941
0.044,0.005701743646670617
0.048,0.005702416781872524
0.052000000000000005,0.005715542918309718
0.056,0.0057207597161245
0.06,0.005709148133891598
0.064,0.005699844443779521
0.068,0.005700349295180951
0.07200000000000001,0.005690973483440099
0.076,0.005681645752785097
0.08,0.005681525550070471
0.084,0.005684963347708783
0.088,0.005682679496130883
0.092,0.0056775348199448765
0.096,0.0056761164279122865
0.1,0.005681621712242172
0.10400000000000001,0.0056854681991102135
0.108,0.0057026812278447025
0.112,0.005708282674346288
0.116,0.005704965079422602
0.12,0.0057078259040307085
0.124,0.005708042268917036
0.128,0.005709556823121327
0.132,0.005714509174963932
0.136,0.005715951607539447
0.14,0.0057132109856459674
0.14400000000000002,0.0057109992556968435
0.148,0.005714316850620529
0.152,0.005722057905442464
0.156,0.005717754648258842
0.16,0.005710662688095889
0.164,0.0057004454573526524
0.168,0.005695949875825629
0.17200000000000001,0.005698906862605436
0.176,0.005698209686860603
0.18,0.005696286443426582
0.184,0.00569061287529622
0.188,0.005690059942808939
0.192,0.005695396943338348
0.196,0.005698906862605436
0.2,0.005698017362517201
0.20400000000000001,0.005698522213918631
0.20800000000000002,0.005704436187478247
0.212,0.005705325687566481
0.216,0.005704604471278723
0.22,0.005705085282137229
0.224,0.005714941904736586
0.228,0.005715134229079989
0.232,0.005708907728462345
0.23600000000000002,0.005706840241770773
0.24,0.00570527760648063
0.244,0.005704412146935321
0.248,0.005708715404118943
0.252,0.005708979850091121
0.256,0.005698666457176183
0.26,0.005691382172669828
0.264,0.005697632713830397
0.268,0.005704532349649947
0.272,0.00570609498494009
0.276,0.0057019600115569445
0.28,0.005705710336253285
0.28400000000000003,0.005714725539850259
0.28800000000000003,0.005707777822944858
0.292,0.005702609106215927
0.296,0.005707609539144381
0.3,0.00570609498494009
0.304,0.00570527760648063
0.308,0.005708186512174587
0.312,0.005706695998513221
0.316,0.005708402877060915
0.32,0.005703498606304161
0.324,0.005704724673993349
0.328,0.005707128728285876
0.332,0.005707080647200025
0.336,0.005711263701669021
0.34,0.0057157592831960456
0.34400000000000003,0.005718355661831973
0.34800000000000003,0.0057098933907222815
0.352,0.005700685862781905
0.356,0.005706960444485399
0.36,0.005703354363046609
0.364,0.0056984741328327815
0.368,0.005700469497895578
0.372,0.005705854579510837
0.376,0.005704748714536275
0.38,0.005702464862958375
0.384,0.005704748714536275
0.388,0.005704436187478247
0.392,0.005707441255343905
0.396,0.0057094847014925515
0.4,0.0057097251069218044
0.404,0.0057096529852930285
0.40800000000000003,0.005711383904383647
0.41200000000000003,0.005717442121200814
0.41600000000000004,0.00572857289257521
0.42,0.00573619374468252
0.424,0.005729991284607801
0.428,0.005716264134597476
0.432,0.00570609498494009
0.436,0.00571121562058317
0.44,0.005718620107804152
0.444,0.005726938135656293
0.448,0.0057267698518558155
0.452,0.005716240094054551
0.456,0.0057091721744345235
0.46,0.005709412579863776
0.464,0.005715807364281896
0.468,0.005717874850973468
0.47200000000000003,0.0057221781081570906
0.47600000000000003,0.005726841973484591
0.48,0.005722442554129269
0.484,0.005716985350885234
0.488,0.0057158314048248214
0.492,0.005717922932059319
0.496,0.005713259066731818
0.5,0.005709412579863776
0.504,0.005706407511998118
0.508,0.005710806931353441
0.512,0.005717586364458366
0.516,0.00571208108012848
0.52,0.005707248931000502
0.524,0.0057048929577938265
0.528,0.005710326120494936
0.532,0.005717273837400337
0.536,0.005719269202463134
0.54,0.0057209039593820515
0.544,0.005721961743270763
0.548,0.005714413012792231
0.552,0.0057086192419472425
0.556,0.0057121051206714055
0.56,0.005710013593436907
0.5640000000000001,0.005711335823297797
0.5680000000000001,0.005715999688625298
0.5720000000000001,0.005716432418397953
0.5760000000000001,0.0057205914323240235
0.58,0.005722346391957568
0.584,0.005725159135479823
0.588,0.005724365797563289
0.592,0.005725639946338328
0.596,0.005729246027777118
0.6,0.0057281161222596305
0.604,0.005732683825415431
0.608,0.005742540448014789
0.612,0.005739367096348655
0.616,0.0057259043923105065
0.62,0.005721601135126884
0.624,0.005720735675581574
0.628,0.005724798527335945
0.632,0.005731914528041822
0.636,0.005726553486969489
0.64,0.005721601135126884
0.644,0.005720855878296201
0.648,0.005718716269975853
0.652,0.005707537417515605
0.656,0.005704532349649947
0.66,0.005702128295357421
0.664,0.005707200849914652
0.668,0.005721240526983006
0.672,0.005736025460882043
0.676,0.005741699029012406
0.68,0.005740136393722263
0.684,0.0057399440693788615
0.6880000000000001,0.005736626474455175
0.6920000000000001,0.00573400605527632
0.6960000000000001,0.005733332920074413
0.7000000000000001,0.005736337987940072
0.704,0.0057349436364504056
0.708,0.005738693961146748
0.712,0.005745232988822419
0.716,0.005730952906324811
0.72,0.0057171776752286355
0.724,0.005715062107451213
0.728,0.005719148999748507
0.732,0.005724101351591112
0.736,0.00573121735229699
0.74,0.0057355686905664624
0.744,0.005727178541085546
0.748,0.005720086580922593
0.752,0.005719677891692863
0.756,0.005726433284254862
0.76,0.005729318149405894
0.764,0.005724365797563289
0.768,0.005718379702374899
0.772,0.005725952473396357
0.776,0.005737588096172186
0.78,0.00573441474450605
0.784,0.005714268769534679
0.788,0.005704508309107022
0.792,0.0057126580531586865
0.796,0.005720495270152322
0.8,0.005722442554129269
0.804,0.005722394473043418
0.808,0.005719221121377283
0.812,0.005719269202463134
0.8160000000000001,0.005723668621818457
0.8200000000000001,0.005728404608774734
0.8240000000000001,0.005733621406589516
0.8280000000000001,0.005736794758255652
0.8320000000000001,0.005737852542144363
0.836,0.005733861812018769
0.84,0.005733164636273936
0.844,0.005731962609127673
0.848,0.005737684258343887
0.852,0.005734583028306526
0.856,0.005726721770769966
0.86,0.005730568257638007
0.864,0.005729486433206371
0.868,0.005724726405707169
0.872,0.0057205914323240235
0.876,0.005723692662361383
0.88,0.005724005189419411
0.884,0.005716095850796999
0.888,0.005714340891163455
0.892,0.005718620107804152
0.896,0.005721745378384436
0.9,0.005724702365164243
0.904,0.005726313081540236
0.908,0.005726793892398741
0.912,0.005729342189948819
0.916,0.005731986649670598
0.92,0.005736097582510819
0.924,0.005734607068849451
0.928,0.005737467893457559
0.932,0.005753863543732589
0.936,0.005758767814489342
0.9400000000000001,0.0057347753526499285
0.9440000000000001,0.005722851243358998
0.9480000000000001,0.0057301836089512035
0.9520000000000001,0.005733885852561694
0.9560000000000001,0.005730856744153111
0.96,0.0057205914323240235
0.964,0.005723909027247709
0.968,0.0057267698518558155
0.972,0.005729318149405894
0.976,0.005731000987410662
0.98,0.005729053703433716
0.984,0.005727731473572827
0.988,0.005728813298004463
0.992,0.005728813298004463
0.996,0.0057286690547469115
1.0,0.005731818365870121
1.004,0.005732347257814477
1.008,0.005732467460529103
1.012,0.005739078609833552
1.016,0.005744728137420989
1.02,0.005747540880943244
1.024,0.005750113219036248
1.028,0.005750161300122098
1.032,0.0057513633272683615
1.036,0.005745473394251672
1.04,0.005731962609127673
1.044,0.005731121190125288
1.048,0.005726841973484591
1.052,0.005722202148700016
1.056,0.0057253274192803
1.06,0.005726000554482208
1.064,0.005724005189419411
1.068,0.005720927999924977
1.072,0.0057160718102540736
1.076,0.005715879485910672
1.08,0.005720927999924977
1.084,0.005725591865252478
1.088,0.0057289094601761644
1.092,0.005734198379619722
1.096,0.005729318149405894
1.1,0.0057272506627143215
1.104,0.005735472528394761
1.108,0.005744030961676156
1.112,0.005751747975955165
1.116,0.005751195043467884
1.12,0.005742901056158669
1.124,0.005730784622524335
1.1280000000000001,0.00573080866306726
1.1320000000000001,0.005733164636273936
1.1360000000000001,0.005730472095466306
1.1400000000000001,0.00573172220369842
1.1440000000000001,0.005732178974014
1.1480000000000001,0.005734198379619722
1.1520000000000001,0.005734967676993331
1.156,0.005740785488381245
1.16,0.005742852975072818
1.164,0.005744030961676156
1.168,0.005743622272446427
1.172,0.005736698596083951
1.176,0.005738213150288243
1.18,0.0057457859213097
1.184,0.0057546088005632715
1.188,0.005761219949867719
1.192,0.005759729436206353
1.196,0.005741482664126078
1.2,0.0057275631897723495
1.204,0.005728236324974257
1.208,0.00573979982612131
1.212,0.0057344628255919005
1.216,0.005715422715595091
1.22,0.005706792160684922
1.224,0.0057240773110481865
1.228,0.005744992583393166
1.232,0.005750497867723052
1.236,0.00574710815117059
1.24,0.005749271800033863
1.244,0.0057511229218391085
1.248,0.005750497867723052
1.252,0.005745425313165822
1.256,0.005739823866664235
1.26,0.0057397036639496085
1.264,0.005742444285843089
1.268,0.005747853408001273
1.272,0.005754560719477421
1.276,0.005755522341194432
1.28,0.005753983746447215
1.284,0.00575537809793688
1.288,0.005753166367987756
1.292,0.005752276867899521
1.296,0.005746867745741337
1.3,0.005728717135832762
1.304,0.0057209039593820515
1.308,0.005725832270681731
1.312,0.005727130459999695
1.316,0.005726409243711937
1.32,0.005729967244064876
1.324,0.005734246460705573
1.328,0.0057362177852254455
1.332,0.005738213150288243
1.336,0.005738718001689673
1.34,0.00573984790720716
1.344,0.005739415177434506
1.348,0.0057408095289241705
1.352,0.005742660650729416
1.356,0.005745232988822419
1.36,0.005744776218506839
1.364,0.005742516407471864
1.368,0.0057478774485441985
1.372,0.0057526374760434006
1.3760000000000001,0.005751002719124482
1.3800000000000001,0.005747516840400319
1.3840000000000001,0.0057404248802373666
1.3880000000000001,0.005734294541791423
1.3920000000000001,0.0057276112708582
1.3960000000000001,0.00572715450054262
1.4000000000000001,0.005725399540909076
1.4040000000000001,0.005730856744153111
1.408,0.005732275136185701
1.412,0.005732058771299374
1.416,0.005733765649847068
1.42,0.005736410109568848
1.424,0.0057347753526499285
1.428,0.005733645447132441
1.432,0.00573797274485899
1.436,0.0057436703535322774
1.44,0.005755209814136403
1.444,0.005763239355473441
1.448,0.005763816328503648
1.452,0.0057469158268271875
1.456,0.005721504972955183
1.46,0.005711456026012423
1.464,0.005719990418750892
1.468,0.005728693095289837
1.472,0.005729414311577595
1.476,0.005730375933294605
1.48,0.005735280204051359
1.484,0.005741098015439274
1.488,0.005742780853444042
1.492,0.005741650947926555
1.496,0.005740184474808114
1.5,0.005745449353708747
1.504,0.005750209381207949
1.508,0.005746987948455963
1.512,0.005739511339606206
1.516,0.005741386501954377
1.52,0.005744631975249288
1.524,0.005746026326738953
1.528,0.00574482429959269
1.532,0.005749151597319237
1.536,0.005750642110980603
1.54,0.005744006921133231
1.544,0.005733837771475844
1.548,0.005734030095819245
1.552,0.005738549717889196
1.556,0.005740929731638797
1.56,0.005741699029012406
1.564,0.00574852654320318
1.568,0.005756844571055322
1.572,0.005754536678934496
1.576,0.005746314813254056
1.58,0.005741434583040227
1.584,0.005748334218859778
1.588,0.005746579259226234
1.592,0.005749031394604611
1.596,0.005752156665184895
1.6,0.005748141894516376
1.604,0.005745064705021942
1.608,0.005747805326915423
1.612,0.005756387800739741
1.616,0.005753839503189664
1.62,0.005746435015968682
1.624,0.005735063839165032
1.6280000000000001,0.005727923797916229
1.6320000000000001,0.005738333353002868
1.6360000000000001,0.005742420245300164
1.6400000000000001,0.005742901056158669
1.6440000000000001,0.005743021258873295
1.6480000000000001,0.0057489833135187605
1.6520000000000001,0.005755762746623684
1.6560000000000001,0.005750882516409856
1.6600000000000001,0.005743838637332754
1.6640000000000001,0.005741963474984583
1.668,0.00575172393541224
1.672,0.0057604025714082605
1.676,0.005759368828062474
1.68,0.005750906556952782
1.684,0.00574528106990827
1.688,0.00574893523243291
1.692,0.005757301341370901
1.696,0.0057620613688701035
1.7,0.0057535029355887096
1.704,0.0057439107589615295
1.708,0.005733501203874889
1.712,0.005740953772181722
1.716,0.005753623138303336
1.72,0.005750978678581557
1.724,0.005741867312812883
1.728,0.0057365303122834735
1.732,0.005737732339429737
1.736,0.005739559420692057
1.74,0.005741554785754854
1.744,0.005744103083304932
1.748,0.0057431895426737715
1.752,0.005743478029188875
1.756,0.005745401272622896
1.76,0.005748550583746105
1.764,0.005748550583746105
1.768,0.0057480697728876
1.772,0.005752276867899521
1.776,0.00575441647621987
1.78,0.005754320314048169
1.784,0.005773769113274706
1.788,0.005783120884472634
1.792,0.0057580225576586595
1.796,0.005736097582510819
1.8,0.005739126690919402
1.804,0.005747444718771543
1.808,0.005752060503013194
1.812,0.005754440516762795
1.816,0.005758623571231791
1.82,0.005758407206345463
1.824,0.005759416909148324
1.828,0.005760907422809691
1.832,0.0057662684638820245
1.836,0.005775524072908251
1.84,0.005773360424044977
1.844,0.005764729869134808
1.848,0.005760570855208737
1.852,0.005767542612657064
1.856,0.0057737210321888565
1.86,0.005768071504601419
1.864,0.005757012854855798
1.868,0.0057430452994162206
1.872,0.005740448920780292
1.8760000000000001,0.005743261664302547
1.8800000000000001,0.00574395884004738
1.8840000000000001,0.0057415307452119285
1.8880000000000001,0.0057435020697318
1.8920000000000001,0.005749680489263593
1.8960000000000001,0.005762446017556907
1.9000000000000001,0.0057761731675672326
1.9040000000000001,0.005785548979308087
1.9080000000000001,0.005788097276858165
1.9120000000000001,0.005787111614598228
1.9160000000000001,0.005796751872311259
1.92,0.00579684803448296
1.924,0.005778048329915403
1.928,0.005767783018086316
1.932,0.0057688888830608786
1.936,0.0057668213963693055
1.94,0.005761893085069626
1.944,0.005756580125083143
1.948,0.005754200111333542
1.952,0.005752445151699998
1.956,0.005752252827356596
1.96,0.005759969841635605
1.964,0.0057594890307771
1.968,0.005762830666243712
1.972,0.005766124220624473
1.976,0.005766316544967875
1.98,0.00576497027456406
1.984,0.005766917558541007
1.988,0.005773432545673753
1.992,0.005774153761961511
1.996,0.005766220382796174
2.0,0.0057703072750934685
2.004,0.005778360856973432
2.008,0.005780596627465481
2.012,0.005780476424750855
2.016,0.0057798994517206485
2.02,0.005769153329033056
2.024,0.005755137692507627
2.028,0.005745401272622896
2.032,0.005742227920956761
2.036,0.005747180272799366
2.04,0.005753815462646738
2.044,0.005756652246711919
2.048,0.0057605468146658114
2.052,0.005759801557835129
2.056,0.00575766194951478
2.06,0.005757445584628453
2.064,0.005761748841812075
2.068,0.005765859774652295
2.072,0.005764152896104601
2.076,0.005762974909501263
2.08,0.005760186206521933
2.084,0.005757878314401108
2.088,0.005762133490498879
2.092,0.005764801990763583
2.096,0.005766556950397127
2.1,0.005780548546379631
2.104,0.005785140290078357
2.108,0.005777495397428122
2.112,0.005774802856620493
2.116,0.005768359991116522
2.12,0.0057500891784933224
2.124,0.00574076144783832
2.128,0.00574857462428903
2.132,0.005753839503189664
2.136,0.005755113651964703
2.14,0.005757325381913827
2.144,0.005758479327974239
2.148,0.005761532476925748
2.152,0.005763551882531469
2.156,0.00576446542316263
2.16,0.0057687205992604015
2.164,0.005771509302239732
2.168,0.005771749707668985
2.172,0.005771437180610956
2.176,0.005774153761961511
2.18,0.005777038627112542
2.184,0.005780788951808884
2.188,0.00577131697789633
2.192,0.005761147828238943
2.196,0.00576533088270794
2.2,0.0057657155313947436
2.204,0.005763624004160245
2.208,0.005760258328150709
2.212,0.005759464990234175
2.216,0.005761340152582345
2.22,0.005767542612657064
2.224,0.0057686244370887
2.228,0.005770042829121291
2.232,0.005783168965558485
2.236,0.005797449048056092
2.24,0.005789996479749261
2.244,0.0057705476805227215
2.248,0.005759537111862951
2.2520000000000002,0.0057633355176451425
2.2560000000000002,0.005773528707845454
2.2600000000000002,0.005778144492087104
2.2640000000000002,0.005764874112392359
2.2680000000000002,0.005751483529982988
2.2720000000000002,0.005750113219036248
2.2760000000000002,0.005758767814489342
2.2800000000000002,0.005767350288313661
2.2840000000000003,0.0057705476805227215
2.2880000000000003,0.005766677153111754
2.2920000000000003,0.005763383598730993
2.2960000000000003,0.0057655472475942665
2.3000000000000003,0.005765907855738146
2.3040000000000003,0.005768191707316046
2.308,0.005775524072908251
2.312,0.005777230951455945
2.316,0.005772519005042593
2.32,0.005778913789460713
2.324,0.005778577221859759
2.328,0.0057705476805227215
2.332,0.005769513937176935
2.336,0.005773985478161034
2.34,0.0057722064779845645
2.344,0.005764777950220658
2.348,0.005764273098819227
2.352,0.00577131697789633
2.356,0.005773648910560081
2.36,0.005777495397428122
2.364,0.00578050046529378
2.368,0.005779562884119695
2.372,0.0057766539784257385
2.376,0.005771220815724629
2.38,0.005767109882884409
2.384,0.005767686855914615
2.388,0.0057724468834138174
2.392,0.005771028491381227
2.396,0.005769129288490131
2.4,0.005764729869134808
2.404,0.005765210679993313
2.408,0.005762806625700787
2.412,0.005762109449955954
2.416,0.005763744206874872
2.42,0.005774322045761988
2.424,0.005782567951985353
2.428,0.005783265127730186
2.432,0.005774081640332735
2.436,0.00576451350424848
2.44,0.005766148261167398
2.444,0.005768071504601419
2.448,0.005772422842870892
2.452,0.005775524072908251
2.456,0.0057775194379710475
2.46,0.005776990546026692
2.464,0.005774225883590287
2.468,0.005775956802680906
2.472,0.005775283667478998
2.476,0.0057761731675672326
2.48,0.005776702059511589
2.484,0.005776605897339888
2.488,0.005777928127200778
2.492,0.005779370559776293
2.496,0.0057804523842079295
2.5,0.005791871642097431
2.504,0.005799107845517936
2.508,0.005789563749976605
2.512,0.005778384897516357
2.516,0.00577821661371588
2.52,0.005785308573878834
2.524,0.005784539276505225
2.528,0.0057787935867460866
2.532,0.005773841234903482
2.536,0.005768143626230195
2.54,0.0057731921402445
2.544,0.005779562884119695
2.548,0.005769682220977412
2.552,0.005760691057923363
2.556,0.005754801124906674
2.56,0.005762277733756431
2.564,0.005778913789460713
2.568,0.005786390398310471
2.572,0.005791198506895524
2.576,0.005802762008042575
2.58,0.005804757373105372
2.584,0.005795718128965473
2.588,0.005787231817312855
2.592,0.005784996046820805
2.596,0.005791511033953552
2.6,0.005794684385619687
2.604,0.005789179101289801
2.608,0.005778144492087104
2.612,0.0057734806267596035
2.616,0.005769874545320814
2.62,0.0057737210321888565
2.624,0.005777279032541795
2.628,0.005778240654258806
2.632,0.005778721465117311
2.636,0.005783096843929709
2.64,0.005789395466176129
2.644,0.0057912706285243
2.648,0.005784467154876449
2.652,0.005779442681405069
2.656,0.005783361289901887
2.66,0.005784010384560868
2.664,0.005791150425809673
2.668,0.005795309439735744
2.672,0.005795477723536221
2.676,0.005799612696919366
2.68,0.005788986776946399
2.684,0.005775836599966279
2.688,0.005777783883943226
2.692,0.005785092208992506
2.696,0.005788746371517147
2.7,0.005784130587275495
2.704,0.005778961870546564
2.708,0.005789756074320008
2.712,0.005791631236668178
2.716,0.0057766539784257385
2.72,0.005770715964323199
2.724,0.005779370559776293
2.728,0.005778649343488535
2.732,0.005782543911442428
2.736,0.00578542877659346
2.74,0.005789635871605381
2.744,0.005788914655317623
2.748,0.005785500898222236
2.7520000000000002,0.005778913789460713
2.7560000000000002,0.005774610532277091
2.7600000000000002,0.005775500032365326
2.7640000000000002,0.005781942897869296
2.7680000000000002,0.005781173600495688
2.7720000000000002,0.005787904952514762
2.7760000000000002,0.005796968237197587
2.7800000000000002,0.0058034591837874076
2.7840000000000003,0.005801776345782639
2.7880000000000003,0.005793482358473424
2.7920000000000003,0.00578050046529378
2.7960000000000003,0.005766941599083932
2.8000000000000003,0.0057596813551205025
2.8040000000000003,0.005763816328503648
2.8080000000000003,0.00576775897754339
2.8120000000000003,0.005775187505307297
2.816,0.005784923925192029
2.82,0.0057874481821991825
2.824,0.005782303506013175
2.828,0.005770427477808095
2.832,0.005761869044526701
2.836,0.005772110315812863
2.84,0.005779610965205546
2.844,0.005782303506013175
2.848,0.005792424574584712
2.852,0.005793506399016349
2.856,0.00578136592483909
2.86,0.005768432112745298
2.864,0.00576725412614196
2.868,0.005770595761608572
2.872,0.005780764911265958
2.876,0.005788337682287417
2.88,0.005793265993587096
2.884,0.005787977074143538
2.888,0.0057772069109130195
2.892,0.0057695860588057105
2.896,0.005769225450661832
2.9,0.005776052964852607
2.904,0.0057756923567087275
2.908,0.005769778383149113
2.912,0.0057684801938311485
2.916,0.005775788518880429
2.92,0.005782135222212699
2.924,0.005783553614245289
2.928,0.005780428343665004
2.932,0.005777303073084721
2.936,0.005780211978778677
2.94,0.005783962303475019
2.944,0.005787856871428912
2.948,0.005782471789813652
2.952,0.005770667883237348
2.956,0.005762734504072011
2.96,0.005768047464058494
2.964,0.0057759327621379804
2.968,0.00578136592483909
2.972,0.005782664114157054
2.976,0.0057812457221244635
2.98,0.005782567951985353
2.984,0.005779707127377247
2.988,0.005776822262226215
2.992,0.005784899884649104
2.996,0.005787496263285033
3.0,0.005777856005572002
3.004,0.005776509735168187
3.008,0.005779923492263574
3.012,0.005777351154170571
3.016,0.005778336816430507
3.02,0.005781438046467866
3.024,0.005784322911618897
3.028,0.0057949728721347895
3.032,0.005797304804798541
3.036,0.00579639126416738
3.04,0.005794347818018733
3.044,0.005787231817312855
3.048,0.005774346086304913
3.052,0.0057605468146658114
3.056,0.005760210247064858
3.06,0.005767999382972643
3.064,0.005773576788931305
3.068,0.005783769979131616
3.072,0.005783577654788214
3.076,0.005766989680169783
3.08,0.005765619369223042
3.084,0.005770980410295376
3.088,0.005772158396898714
3.092,0.005771605464411433
3.096,0.005772470923956743
3.1,0.00577492305933512
3.104,0.005775211545850222
3.108,0.0057804523842079295
3.112,0.005788650209345446
3.116,0.005787856871428912
3.12,0.0057858615063661155
3.124,0.00579086193929457
3.128,0.005796247020909829
3.132,0.005802449480984547
3.136,0.005796511466882007
3.14,0.005780981276152285
3.144,0.005768840801975028
3.148,0.005770619802151497
3.152,0.005775572153994101
3.156,0.005779322478690442
3.16,0.005789972439206335
3.164,0.005796703791225409
3.168,0.005789395466176129
3.172,0.0057810053166952105
3.176,0.00577999561389235
3.18,0.005783601695331139
3.184,0.0057872798983987055
3.188,0.005796198939823978
3.192,0.00580136765655291
3.196,0.005798026021086298
3.2,0.005785140290078357
3.204,0.00577908207326119
3.208,0.005780885113980585
3.212,0.005777783883943226
3.216,0.00577314405915865
3.22,0.005771028491381227
3.224,0.0057742739646761375
3.228,0.005774201843047362
3.232,0.005773865275446407
3.236,0.005782952600672157
3.24,0.005792785182728591
3.244,0.005801728264696789
3.248,0.005806536373281841
3.2520000000000002,0.005803939994645913
3.2560000000000002,0.005798362588687252
3.2600000000000002,0.005793698723359751
3.2640000000000002,0.005799564615833515
3.2680000000000002,0.005804637170390745
3.2720000000000002,0.005794588223447986
3.2760000000000002,0.005780812992351809
3.2800000000000002,0.005779298438147517
3.2840000000000003,0.005788505966087894
3.2880000000000003,0.00579456418290506
3.2920000000000003,0.005794203574761182
3.2960000000000003,0.005789395466176129
3.3000000000000003,0.0057878328308859864
3.3040000000000003,0.005795621966793772
3.3080000000000003,0.0057936266017309754
3.3120000000000003,0.005787904952514762
3.3160000000000003,0.005784346952161823
3.3200000000000003,0.00577684630276914
3.3240000000000003,0.005776437613539411
3.3280000000000003,0.00578086107343766
3.332,0.0057836257358740645
3.336,0.005785332614421759
3.34,0.005788289601201567
3.344,0.005798554913030654
3.348,0.005796583588510783
3.352,0.005786510601025097
3.356,0.005782375627641951
3.36,0.005789780114862933
3.364,0.005807473954455927
3.368,0.005800117548320796
3.372,0.005782015019498072
3.376,0.005767855139715092
3.38,0.005773264261873276
3.384,0.0057787935867460866
3.388,0.005783553614245289
3.392,0.0057913187096101494
3.396,0.005799011683346234
3.4,0.005805694954279458
3.404,0.005791198506895524
3.408,0.005772663248300144
3.412,0.0057699947480354405
3.416,0.005768408072202373
3.42,0.005770427477808095
3.424,0.005776870343312065
3.428,0.0057788657083748625
3.432,0.0057827602763287555
3.436,0.005785212411707133
3.44,0.005781341884296165
3.444,0.0057814861275537165
3.448,0.005785981709080741
3.452,0.005786582722653873
3.456,0.005791943763726206
3.46,0.00579903572388916
3.464,0.005794083372046555
3.468,0.0057925928583851885
3.472,0.005791246587981374
3.476,0.005787880911971837
3.48,0.005773456586216678
3.484,0.005762470058099833
3.488,0.005765114517821612
3.492,0.005781029357238136
3.496,0.0057872798983987055
3.5,0.005778240654258806
3.504,0.005777567519056898
3.508,0.005778889748917788
3.512,0.005781534208639567
3.516,0.005782159262755624
3.52,0.005788890614774699
3.524,0.005789395466176129
3.528,0.005792544777299338
3.532,0.005798554913030654
3.536,0.005801007048409031
3.54,0.005803074535100604
3.544,0.005798458750858953
3.548,0.005788650209345446
3.552,0.00577953884357677
3.556,0.005776726100054514
3.56,0.005776581856796963
3.564,0.00578364977641699
3.568,0.005791342750153075
3.572,0.005790525371693616
3.576,0.005782423708727801
3.58,0.005780019654435275
3.584,0.005782616033071204
3.588,0.005784395033247673
3.592,0.005789467587804905
3.596,0.005793265993587096
3.6,0.005794612263990911
3.604,0.005790789817665794
3.608,0.005787231817312855
3.612,0.0057878328308859864
3.616,0.0057975932913136435
3.62,0.0058112242791522675
3.624,0.005799732899633992
3.628,0.005782375627641951
3.632,0.005777134789284244
3.636,0.005777856005572002
3.64,0.005774129721418586
3.644,0.005774081640332735
3.648,0.005771581423868508
3.652,0.005778601262402684
3.656,0.005784851803563253
3.66,0.005782375627641951
3.664,0.005779298438147517
3.668,0.005782207343841474
3.672,0.005783745938588691
3.676,0.00578629423613877
3.68,0.0057856211009368625
3.684,0.005787015452426528
3.688,0.005789587790519531
3.692,0.005791150425809673
3.696,0.005788818493145923
3.7,0.005790789817665794
3.704,0.005794323777475807
3.708,0.005797881777828747
3.712,0.0058035313054161835
3.716,0.005800309872664199
3.72,0.0058002858321212734
3.724,0.0058068729408827955
3.728,0.005799564615833515
3.732,0.005779514803033845
3.736,0.00577638953245356
3.74,0.005776293370281859
3.744,0.005770355356179319
3.748,0.005769153329033056
3.7520000000000002,0.005782928560129232
3.7560000000000002,0.005782567951985353
3.7600000000000002,0.005775091343135596
3.7640000000000002,0.00577456245119124
3.7680000000000002,0.0057804523842079295
3.7720000000000002,0.0057795869246626205
3.7760000000000002,0.005777952167743703
3.7800000000000002,0.005782928560129232
3.7840000000000003,0.005783241087187261
3.7880000000000003,0.0057817986546117445
3.7920000000000003,0.005783769979131616
3.7960000000000003,0.005789467587804905
3.8000000000000003,0.005793338115215872
3.8040000000000003,0.005794347818018733
3.8080000000000003,0.005805767075908233
3.8120000000000003,0.005815599657964666
3.8160000000000003,0.0058117772116395485
3.8200000000000003,0.005800093507777871
3.8240000000000003,0.00579456418290506
3.8280000000000003,0.005799372291490113
3.8320000000000003,0.005784611398134
3.8360000000000003,0.005770042829121291
3.84,0.005767831099172166
3.844,0.005776557816254037
3.848,0.005786053830709517
3.852,0.005793746804445601
3.856,0.0057946603450767615
3.86,0.005782976641215082
3.864,0.005784803722477402
3.868,0.00578949162834783
3.872,0.005789756074320008
3.876,0.005794636304533836
3.88,0.0057994924942047395
3.884,0.00579867511574528
3.888,0.005802569683699173
3.892,0.005798747237374056
3.896,0.005791054263637972
3.9,0.00578502008736373
3.904,0.005772639207757219
3.908,0.005762902787872488
3.912,0.0057623738959281315
3.916,0.005769153329033056
3.92,0.005783096843929709
3.924,0.005797400966970241
3.928,0.005804877575819998
3.932,0.00580680081925402
3.936,0.005804204440618091
3.94,0.005805839197537009
3.944,0.00580639213002429
3.948,0.00580862790051634
3.952,0.005806824859796945
3.956,0.005804132318989315
3.96,0.005811657008924923
3.964,0.005810527103407436
3.968,0.005793025588157844
3.972,0.005776485694625261
3.976,0.005774129721418586
3.98,0.005773672951103006
3.984,0.005783433411530662
3.988,0.00578502008736373
3.992,0.005781654411354193
3.996,0.005782207343841474
4.0,0.00578410654673257
4.0040000000000004,0.0057841786683613455
4.008,0.005786775046997275
4.0120000000000005,0.005784130587275495
4.016,0.005783433411530662
4.0200000000000005,0.005785548979308087
4.024,0.005787808790343061
4.0280000000000005,0.00579091002038042
4.032,0.005791799520468655
4.0360000000000005,0.005791198506895524
4.04,0.005796727831768334
4.0440000000000005,0.005803242818901081
4.048,0.005806560413824767
4.0520000000000005,0.0058068729408827955
4.056,0.005793362155758797
4.0600000000000005,0.005779923492263574
4.064,0.005783217046644335
4.0680000000000005,0.005789227182375652
4.072,0.005786342317224621
4.0760000000000005,0.005781510168096642
4.08,0.005783048762843858
4.0840000000000005,0.005778577221859759
4.088,0.005771509302239732
4.0920000000000005,0.005771389099525105
4.096,0.005774177802504436
4.1,0.005784443114333524
4.104,0.005786678884825574
4.108,0.00577867338403146
4.112,0.005775163464764372
4.116,0.005777423275799346
4.12,0.005778721465117311
4.124,0.005780404303122079
4.128,0.005781630370811267
4.132,0.005781077438323986
4.136,0.005784298871075972
4.14,0.005786534641568022
4.144,0.005787231817312855
4.148,0.005788457885002043
4.152,0.005787424141656257
4.156,0.005786510601025097
4.16,0.005788049195772314
4.164,0.005794852669420164
4.168,0.005804060197360539
4.172,0.005797761575114121
4.176,0.005780332181493304
4.18,0.005773168099701575
4.184,0.005781462087010791
4.188,0.0057963191425386045
4.192,0.005793746804445601
4.196,0.005776990546026692
4.2,0.005767855139715092
4.204,0.0057719660725553115
4.208,0.00578182269515467
4.212,0.005785548979308087
4.216,0.005786222114509994
4.22,0.005784827763020328
4.224,0.005784370992704748
4.228,0.005786823128083126
4.232,0.005785669182022713
4.236,0.00578273623578583
4.24,0.005784250789990121
4.244,0.0057833853304448115
4.248,0.005782856438500456
4.252,0.005780308140950379
4.256,0.005781894816783446
4.26,0.005790669614951168
4.264,0.005797953899457522
4.268,0.005792448615127638
4.272,0.005787303938941631
4.276,0.005786678884825574
4.28,0.005787111614598228
4.284,0.005783553614245289
4.288,0.005784659479219851
4.292,0.005791222547438449
4.296,0.005786871209168976
4.3,0.005782255424927324
4.304,0.005781173600495688
4.308,0.005782495830356577
4.312,0.00578415462781842
4.316,0.00578542877659346
4.32,0.005789467587804905
4.324,0.0057880011146864635
4.328,0.005789996479749261
4.332,0.005791703358296954
4.336,0.005790429209521915
4.34,0.005790525371693616
4.344,0.00579639126416738
4.348,0.005799684818548142
4.352,0.005800309872664199
4.356,0.005797641372399494
4.36,0.005791943763726206
4.364,0.005796703791225409
4.368,0.005803363021615706
4.372,0.005798602994116504
4.376,0.005800790683522704
4.38,0.005801127251123657
4.384,0.0058037717108454364
4.388,0.005808916387031442
4.392,0.005805117981249251
4.396,0.005794035290960705
4.4,0.005785452817136385
4.404,0.005782543911442428
4.408,0.005789155060746876
4.412,0.005790597493322392
4.416,0.005791366790696
4.42,0.00579451610181921
4.424,0.005797160561540989
4.428,0.005795141155935267
4.432,0.005794443980190434
4.436,0.0057970403588263626
4.44,0.0057933861963017225
4.444,0.005791390831238925
4.448,0.00579268902055689
4.452,0.005786125952338293
4.456,0.005783505533159438
4.46,0.005787496263285033
4.464,0.0057920399258979075
4.468,0.0057882415201157165
4.472,0.005789323344547353
4.476,0.005793121750329544
4.48,0.005791847601554506
4.484,0.0057867990875402
4.488,0.005785548979308087
4.492,0.005792713061099815
4.496,0.0057999733050632446
4.5,0.005807690319342254
4.5040000000000004,0.005810935792637165
4.508,0.005813387928015542
4.5120000000000005,0.005809541441147499
4.516,0.005799324210404262
4.5200000000000005,0.005798554913030654
4.524,0.005804709292019521
4.5280000000000005,0.005805406467764354
4.532,0.00579862703465943
4.5360000000000005,0.005794395899104583
4.54,0.005789707993234157
4.5440000000000005,0.0057922803313271605
4.548,0.005796367223624455
4.5520000000000005,0.005797545210227793
4.556,0.0057973528858843906
4.5600000000000005,0.005797929858914597
4.564,0.005800165629406647
4.5680000000000005,0.005801247453838284
4.572,0.005800430075378824
4.5760000000000005,0.005800694521351003
4.58,0.00580045411592175
4.5840000000000005,0.005798747237374056
4.588,0.005796607629053708
4.5920000000000005,0.005798194304886775
4.596,0.005804204440618091
4.6000000000000005,0.005804541008219044
4.604,0.005792520736756413
4.6080000000000005,0.005778408938059283
4.612,0.005784250789990121
4.616,0.005801151291666582
4.62,0.005824254253417761
4.624,0.005840121011748434
4.628,0.005835336943706307
4.632,0.005822595455955917
4.636,0.0058098058871196775
4.64,0.005809613562776275
4.644,0.005813027319871662
4.648,0.005801896548497266
4.652,0.0057941074125894805
4.656,0.005793722763902676
4.66,0.0058002858321212734
4.664,0.0058044929271331945
4.668,0.005803843832474212
4.672,0.005811176198066417
4.676,0.0058133638874726164
4.68,0.005809349116804097
4.684,0.005801656143068013
4.688,0.0058044929271331945
4.692,0.005810743468293762
4.696,0.005809060630288994
4.7,0.005802136953926518
4.704,0.005800718561893928
4.708,0.005802016751211892
4.712,0.005798001980543373
4.716,0.0057936266017309754
4.72,0.00579588641276595
4.724,0.0058037717108454364
4.728,0.005803723629759586
4.732,0.005798651075202355
4.736,0.005798410669773103
4.74,0.005801295534924134
4.744,0.005805646873193607
4.748,0.005803867873017138
4.752,0.0058040121162746885
4.756,0.0058109117520942395
4.76,0.0058149505633056835
4.764,0.005814493792990104
4.768,0.005808988508660218
4.772,0.005809733765490902
4.776,0.005813820657788196
4.78,0.005805190102878026
4.784,0.005797761575114121
4.788,0.005795309439735744
4.792,0.005801535940353386
4.796,0.005802088872840668
4.8,0.005793794885531452
4.804,0.00578953970943368
4.808,0.005797761575114121
4.812,0.005804132318989315
4.816,0.0058035313054161835
4.82,0.005802377359355771
4.824,0.005802569683699173
4.828,0.005807930724771507
4.832,0.005813267725300915
4.836,0.005808940427574368
4.84,0.005803242818901081
4.844,0.0058070171841403465
4.848,0.005816368955338274
4.852,0.005818147955514744
4.856,0.0058166093607675265
4.86,0.005809180833003621
4.864,0.005802136953926518
4.868,0.0057994924942047395
4.872,0.005791823561011581
4.876,0.0057911744663525985
4.88,0.005801199372752433
4.884,0.005809012549203144
4.888,0.005812450346841456
4.892,0.005802641805327949
4.896,0.005789828195948784
4.9,0.005792785182728591
4.904,0.005801031088951956
4.908,0.005805117981249251
4.912,0.0058075701166276274
4.916,0.005809180833003621
4.92,0.005809012549203144
4.924,0.005810382860149884
4.928,0.005812185900869279
4.932,0.005815311171449563
4.936,0.0058245427399328635
4.94,0.005831129848694386
4.944,0.005826105375223006
4.948,0.0058069450625115706
4.952,0.005799780980719842
4.956,0.005793842966617302
4.96,0.005790549412236542
4.964,0.005797497129141942
4.968,0.005801800386325565
4.972,0.005805334346135578
4.976,0.0058050458596204755
4.98,0.00579999734560617
4.984,0.005801007048409031
4.988,0.00581141660349567
4.992,0.005811055995351791
4.996,0.005799228048232561
5.0,0.005795069034306491
5.0040000000000004,0.005801439778181686
5.008,0.005809902049291379
5.0120000000000005,0.005814686117333506
5.016,0.0058159121850226946
5.0200000000000005,0.005819494225918559
5.024,0.005816945928368481
5.0280000000000005,0.005814012982131599
5.032,0.005809733765490902
5.0360000000000005,0.00580182442686849
5.04,0.005798867440088683
5.0440000000000005,0.005802401399898696
5.048,0.005805863238079934
5.0520000000000005,0.005807089305769122
5.056,0.005808195170743684
5.0600000000000005,0.005808964468117293
5.064,0.005813460049644318
5.0680000000000005,0.0058229560640997964
5.072,0.0058327165245274535
5.0760000000000005,0.005828341145715055
5.08,0.005817907550085491
5.0840000000000005,0.005807065265226197
5.088,0.0058059113191657845
5.0920000000000005,0.005810623265579136
5.096,0.005809373157347022
5.1000000000000005,0.005820071198948765
5.104,0.005814902482219833
5.1080000000000005,0.005800646440265152
5.112,0.0057931457908724695
5.1160000000000005,0.005800093507777871
5.12,0.00580826729237246
5.124,0.005811825292725399
5.128,0.005807834562599806
5.132,0.005807690319342254
5.136,0.0058122580224980545
5.14,0.005813580252358943
5.144,0.005810599225036211
5.148,0.0058096376033192005
5.152,0.005809661643862126
5.156,0.005813051360414588
5.16,0.005826297699566408
5.164,0.0058293027674320656
5.168,0.005820407766549718
5.172,0.005801463818724611
5.176,0.0057992520887754865
5.18,0.005805406467764354
5.184,0.005798843399545757
5.188,0.005797761575114121
5.192,0.005801247453838284
5.196,0.00580958952223335
5.2,0.005813315806386766
5.204,0.0058173305770552845
5.208,0.005808700022145116
5.212,0.005801800386325565
5.216,0.005809781846576752
5.22,0.005830697118921731
5.224,0.005824735064276266
5.228,0.005800694521351003
5.232,0.005798891480631608
5.236,0.005806103643509187
5.24,0.005812233981955129
5.244,0.0058140851037603745
5.248,0.005819253820489306
5.252,0.005819109577231754
5.256,0.005824638902104565
5.26,0.005823941726359732
5.264,0.0058164651175099755
5.268,0.005814061063217449
5.272,0.0058143976308184025
5.276,0.0058253360778493975
5.28,0.005843318403957494
5.284,0.005843534768843822
5.288,0.005822811820842245
5.292,0.005810527103407436
5.296,0.005803627467587885
5.3,0.005800381994292974
5.304,0.005799756940176917
5.308,0.005806656575996468
5.312,0.00581963846917611
5.316,0.005812498427927307
5.32,0.00580319473781523
5.324,0.005798482791401879
5.328,0.005807209508483749
5.332,0.005816633401310452
5.336,0.005827018915854166
5.34,0.005831370254123639
5.344,0.005834495524703923
5.348,0.005834279159817595
5.352,0.005837260187140328
5.356,0.005833149254300108
5.36,0.005830192267520301
5.364,0.005836827457367673
5.368,0.005834423403075147
5.372,0.005821826158582309
5.376,0.0058266102266244365
5.38,0.005828942159288187
5.384,0.005812233981955129
5.388,0.005803579386502034
5.392,0.005802762008042575
5.396,0.005810863671008389
5.4,0.005816104509366096
5.404,0.005819085536688829
5.408,0.0058221627261832625
5.412,0.005822595455955917
5.416,0.005823533037130003
5.42,0.005825047591334294
5.424,0.005823773442559255
5.428,0.005823845564188031
5.432,0.005823725361473405
5.436,0.00582237909106959
5.44,0.0058216097936959815
5.444,0.005831538537924116
5.448,0.005833894511130791
5.452,0.00581963846917611
5.456,0.005810575184493285
5.46,0.005811152157523492
5.464,0.005813411968558467
5.468,0.005815479455250039
5.472,0.0058140851037603745
5.476,0.0058026898864138
5.48,0.005800886845694405
5.484,0.005803723629759586
5.488,0.005809974170920154
5.492,0.0058140851037603745
5.496,0.005817931590628416
5.5,0.0058266102266244365
5.5040000000000004,0.005809661643862126
5.508,0.005772711329385995
5.5120000000000005,0.005761003584981392
5.516,0.005757806192772332
5.5200000000000005,0.005763624004160245
5.524,0.005772086275269938
5.5280000000000005,0.0057761731675672326
5.532,0.005765691490851818
5.5360000000000005,0.005749632408177743
5.54,0.0057439828805903054
5.5440000000000005,0.005747661083657871
5.548,0.005747685124200796
5.5520000000000005,0.005746002286196028
5.556,0.005747516840400319
5.5600000000000005,0.0057508103947810805
5.564,0.0057546088005632715
5.5680000000000005,0.005757349422456752
5.572,0.005757758111686481
5.5760000000000005,0.005756628206168994
5.58,0.005755474260108581
5.5840000000000005,0.005761412274211121
5.588,0.005768985045232579
5.5920000000000005,0.0057705476805227215
5.596,0.0057615084363828225
5.6000000000000005,0.005749656448720668
5.604,0.005742828934529893
5.6080000000000005,0.005737708298886811
5.612,0.005743550150817651
5.6160000000000005,0.005756580125083143
5.62,0.005757036895398723
5.6240000000000006,0.005748358259402704
5.628,0.005740713366752469
5.632,0.00574395884004738
5.636,0.005745521475337522
5.64,0.005750137259579173
5.644,0.0057500891784933224
5.648,0.005756363760196816
5.652,0.0057569166926840975
5.656,0.005752493232785849
5.66,0.005756051233138788
5.664,0.005758238922544986
5.668,0.005755354057393955
5.672,0.005752156665184895
5.676,0.0057577821522294065
5.68,0.005765475125965491
5.684,0.0057628547067866374
5.688,0.0057519162597556425
5.692,0.005741602866840704
5.696,0.00574395884004738
5.7,0.005751459489440063
5.704,0.005748718867546582
5.708,0.005748550583746105
5.712,0.00574852654320318
5.716,0.005744511772534661
5.72,0.005739679623406683
5.724,0.005740881650552946
5.728,0.005745545515880447
5.732,0.005747805326915423
5.736,0.005747588962029095
5.74,0.005749584327091892
5.744,0.005752877881472653
5.748,0.005753935665361364
5.752,0.005756459922368517
5.756,0.00575807063874451
5.76,0.005765162598907463
5.764,0.005767037761255633
5.768,0.005766436747682502
5.772,0.005770475558893946
5.776,0.005774682653905867
5.78,0.005752252827356596
5.784,0.005729486433206371
5.788,0.005730087446779502
5.792,0.005736410109568848
5.796,0.005740905691095872
5.8,0.005745112786107793
5.804,0.005747997651258824
5.808,0.005746795624112561
5.812,0.005748286137773928
5.816,0.0057524691922429235
5.82,0.005756267598025115
5.824,0.005756075273681713
5.828,0.00575218070572782
5.832,0.005751796057041016
5.836,0.00575400778699014
5.84,0.0057533346517882325
5.844,0.005748214016145152
5.848,0.005749680489263593
5.852,0.005754200111333542
5.856,0.005761436314754047
5.86,0.005771485261696806
5.864,0.005762830666243712
5.868,0.005746963907913038
5.872,0.0057439107589615295
5.876,0.0057426366101864905
5.88,0.005740088312636413
5.884,0.005740472961323217
5.888,0.005737588096172186
5.892,0.005737948704316064
5.896,0.005741410542497302
5.9,0.005742949137244519
5.904,0.00574482429959269
5.908,0.005745882083481401
5.912,0.0057461224889106535
5.916,0.005747348556599842
5.92,0.005755137692507627
5.924,0.005761869044526701
5.928,0.005752925962558503
5.932,0.005747204313342291
5.936,0.005745593596966298
5.94,0.005749728570349443
5.944,0.005760426611951186
5.948,0.005769321612833533
5.952,0.005775259626936073
5.956,0.005767133923427334
5.96,0.0057476370431149455
5.964,0.005736818798798577
5.968,0.005738261231374093
5.972,0.005745593596966298
5.976,0.005754392435676945
5.98,0.005758671652317642
5.984,0.005754704962734973
5.988,0.005754200111333542
5.992,0.005759368828062474
5.996,0.005758431246888389
6.0,0.005758647611774716
6.0040000000000004,0.005767157963970259
6.008,0.005774706694448792
6.0120000000000005,0.005767951301886793
6.016,0.005762542179728609
6.0200000000000005,0.005781462087010791
6.024,0.00578542877659346
6.0280000000000005,0.00575903226046152
6.032,0.005737948704316064
6.0360000000000005,0.005733573325503665
6.04,0.005739895988293011
6.0440000000000005,0.005740785488381245
6.048,0.0057355686905664624
6.0520000000000005,0.0057355686905664624
6.056,0.005744656015792213
6.0600000000000005,0.005764225017733377
6.064,0.005774442248476614
6.0680000000000005,0.005777279032541795
6.072,0.005779394600319218
6.0760000000000005,0.0057769665054837665
6.08,0.005775067302592671
6.0840000000000005,0.005768311910030672
6.088,0.005766484828768352
6.0920000000000005,0.005774634572820016
6.096,0.005786222114509994
6.1000000000000005,0.005787640506542585
6.104,0.005775115383678521
6.1080000000000005,0.005769658180434486
6.112,0.005754248192419393
6.1160000000000005,0.0057409778127246475
6.12,0.005746386934882832
6.1240000000000006,0.005749319881119714
6.128,0.0057509546380386314
6.132000000000001,0.005754224151876468
6.136,0.005758815895575193
6.140000000000001,0.005756580125083143
6.144,0.005757181138656275
6.148,0.005758863976661043
6.152,0.005757830233315257
6.156,0.005757109017027499
6.16,0.005759104382090296
6.164,0.005763479760902694
6.168,0.005762446017556907
6.172,0.00575903226046152
6.176,0.005761941166155477
6.18,0.005769922626406665
6.184,0.005775331748564849
6.188,0.005768985045232579
6.192,0.005755137692507627
6.196,0.005748045732344675
6.2,0.0057554021384798055
6.204,0.005759657314577577
6.208,0.005760306409236559
6.212,0.00576446542316263
6.216,0.005760474693037036
6.22,0.005750161300122098
6.224,0.00575076231369523
6.228,0.005751651813783464
6.232,0.005750233421750874
6.236,0.005754079908618916
6.24,0.005757181138656275
6.244,0.005760691057923363
6.248,0.0057692014101189066
6.252,0.005767470491028288
6.256,0.005758767814489342
6.26,0.005747036029541814
6.264,0.005744872380678541
6.268,0.00574573784022385
6.272,0.005752805759843877
6.276,0.005759080341547371
6.28,0.005757685990057705
6.284,0.005756291638568041
6.288,0.00575537809793688
6.292,0.0057598496389209795
6.296,0.005770042829121291
6.3,0.005768071504601419
6.304,0.005768287869487747
6.308,0.005771004450838301
6.312,0.005762109449955954
6.316,0.005747492799857394
6.32,0.005751002719124482
6.324,0.005757012854855798
6.328,0.005759969841635605
6.332,0.005765739571937669
6.336,0.005765162598907463
6.34,0.005757806192772332
6.344,0.0057500891784933224
6.348,0.005754440516762795
6.352,0.005762109449955954
6.356,0.005759104382090296
6.36,0.005754680922192047
6.364,0.0057585754901459405
6.368,0.005759320746976624
6.372,0.005762830666243712
6.376,0.005764537544791406
6.38,0.005768768680346252
6.384,0.005778336816430507
6.388,0.005779370559776293
6.392,0.005778649343488535
6.396,0.005772038194184087
6.4,0.005760450652494111
6.404,0.005755690624994909
6.408,0.005764056733932901
6.412,0.005766556950397127
6.416,0.005759921760549755
6.42,0.005754536678934496
6.424,0.005746507137597458
6.428,0.005745353191537046
6.432,0.005751772016498091
6.436,0.00575533001685103
6.44,0.005761099747153093
6.444,0.0057630951122158896
6.448,0.0057588880172039685
6.452,0.005760667017380438
6.456,0.00576350380144562
6.46,0.005766004017909846
6.464,0.005772470923956743
6.468,0.005774730734991717
6.472,0.00577177374821191
6.476,0.005767590693742914
6.48,0.00576629250442495
6.484,0.005769682220977412
6.488,0.005774634572820016
6.492,0.005779322478690442
6.496,0.005770235153464693
6.5,0.005754368395134019
6.5040000000000004,0.005748045732344675
6.508,0.005759416909148324
6.5120000000000005,0.005762253693213506
6.516,0.005761171868781868
6.5200000000000005,0.005758623571231791
6.524,0.005763864409589498
6.5280000000000005,0.0057709082886666
6.532,0.0057718939509265365
6.5360000000000005,0.005773288302416201
6.54,0.005778336816430507
6.5440000000000005,0.005777279032541795
6.548,0.005769634139891561
6.5520000000000005,0.005762734504072011
6.556,0.005758190841459136
6.5600000000000005,0.005758094679287435
6.564,0.00576314319330174
6.5680000000000005,0.005769778383149113
6.572,0.005776004883766756
6.5760000000000005,0.005771917991469462
6.58,0.005764345220448003
6.5840000000000005,0.005762494098642758
6.588,0.005763359558188068
6.5920000000000005,0.005761147828238943
6.596,0.005760450652494111
6.6000000000000005,0.005761580558011598
6.604,0.005765066436735761
6.6080000000000005,0.00576908120740428
6.612,0.005774730734991717
6.6160000000000005,0.005780356222036229
6.62,0.005775836599966279
6.6240000000000006,0.005768239788401896
6.628,0.005764032693389975
6.632000000000001,0.0057532625301594574
6.636,0.005751892219212717
6.640000000000001,0.005757734071143556
6.644,0.005757926395486958
6.648000000000001,0.005756147395310489
6.652,0.005752012421927344
6.656000000000001,0.005754200111333542
6.66,0.00576629250442495
6.664,0.005777615600142749
6.668,0.0057766539784257385
6.672,0.005766845436912231
6.676,0.005766532909854203
6.68,0.005766989680169783
6.684,0.005769249491204757
6.688,0.005772038194184087
6.692,0.005776990546026692
6.696,0.00578050046529378
6.7,0.005778000248829553
6.704,0.005774394167390763
6.708,0.005776004883766756
6.712,0.005778601262402684
6.716,0.005787736668714285
6.72,0.005791823561011581
6.724,0.00578502008736373
6.728,0.005776077005395532
6.732,0.005785092208992506
6.736,0.0057996607780052166
6.74,0.0058000454266920205
6.744,0.005775764478337503
6.748,0.005763191274387591
6.752,0.005764032693389975
6.756,0.005768359991116522
6.76,0.005767879180258017
6.764,0.005761989247241328
6.768,0.005758719733403492
6.772,0.005757734071143556
6.776,0.005758719733403492
6.78,0.005765306842165014
6.784,0.0057836257358740645
6.788,0.005791414871781851
6.792,0.005792520736756413
6.796,0.005794732466705537
6.8,0.005792328412413011
6.804,0.005791871642097431
6.808,0.005788722330974222
6.812,0.005783577654788214
6.816,0.00578268815469998
6.82,0.005793963169331929
6.824,0.005801680183610938
6.828,0.005787231817312855
6.832,0.00576857635600285
6.836,0.0057688888830608786
6.84,0.0057724468834138174
6.844,0.0057748268971634185
6.848,0.005775788518880429
6.852,0.0057719660725553115
6.856,0.005764537544791406
6.86,0.005772639207757219
6.864,0.005785741303651489
6.868,0.005785524938765161
6.872,0.005775235586393148
6.876,0.005770355356179319
6.88,0.005773769113274706
6.884,0.0057812457221244635
6.888,0.005782255424927324
6.892,0.005781149559952762
6.896,0.005780476424750855
6.9,0.005779683086834322
6.904,0.005778961870546564
6.908,0.005779779249006022
6.912,0.0057759327621379804
6.916,0.005769802423692038
6.92,0.005772326680699191
6.924,0.0057786253029456095
6.928,0.005783048762843858
6.932,0.0057764135729964855
6.936,0.005771028491381227
6.94,0.0057655472475942665
6.944,0.005767783018086316
6.948,0.005779803289548947
6.952,0.005786654844282649
6.956,0.005785693222565638
6.96,0.005777687721771525
6.964,0.005771990113098237
6.968,0.005772110315812863
6.972,0.005779779249006022
6.976,0.00578578938473734
6.98,0.005788698290431296
6.984,0.005791895682640357
6.988,0.005784274830533047
6.992,0.005776557816254037
6.996,0.005776678018968664
7.0,0.005778048329915403
7.0040000000000004,0.0057809331950664355
7.008,0.005780067735521126
7.0120000000000005,0.005783529573702363
7.016,0.005794395899104583
7.0200000000000005,0.005795357520821594
7.024,0.005785645141479788
7.0280000000000005,0.005774009518703959
7.032,0.005768816761432103
7.0360000000000005,0.005768528274916999
7.04,0.005770788085951974
7.0440000000000005,0.005774129721418586
7.048,0.005773841234903482
7.0520000000000005,0.005774874978249269
7.056,0.0057753077080219236
7.0600000000000005,0.005776365491910635
7.064,0.005778360856973432
7.0680000000000005,0.005786510601025097
7.072,0.005787856871428912
7.0760000000000005,0.005786654844282649
7.08,0.005791583155582328
7.0840000000000005,0.005786702925368499
7.088,0.005779202275975816
7.0920000000000005,0.005777615600142749
7.096,0.005777495397428122
7.1000000000000005,0.005787736668714285
7.104,0.0058026658458708745
7.1080000000000005,0.0057965595479678575
7.112,0.005779490762490919
7.1160000000000005,0.005768648477631626
7.12,0.005769874545320814
7.1240000000000006,0.00577410568087566
7.128,0.0057810053166952105
7.132000000000001,0.005781269762667389
7.136,0.005779827330091873
7.140000000000001,0.00578086107343766
7.144,0.005782063100583923
7.148000000000001,0.005783409370987737
7.152,0.005787424141656257
7.156000000000001,0.0057912706285243
7.16,0.005784346952161823
7.164000000000001,0.005776726100054514
7.168,0.0057732402213303505
7.172,0.005771437180610956
7.176,0.005772326680699191
7.18,0.005782231384384399
7.184,0.005788289601201567
7.188,0.005789203141832727
7.192,0.0057887944526029975
7.196,0.0057949728721347895
7.2,0.005792664980013964
7.204,0.005782063100583923
7.208,0.005773841234903482
7.212,0.0057795869246626205
7.216,0.005787977074143538
7.22,0.005795069034306491
7.224,0.005788866574231773
7.228,0.005782111181669773
7.232,0.005780211978778677
7.236,0.0057825198708995025
7.24,0.005788698290431296
7.244,0.0057867990875402
7.248,0.005783144925015559
7.252,0.005787472222742108
7.256,0.005791246587981374
7.26,0.005787592425456734
7.264,0.005787928993057688
7.268,0.005790164763549737
7.272,0.005788481925544969
7.276,0.005784130587275495
7.28,0.0057819669384122216
7.284,0.005783144925015559
7.288,0.005787496263285033
7.292,0.005786342317224621
7.296,0.005781630370811267
7.3,0.005791030223095047
7.304,0.005799155926603785
7.308,0.005793169831415395
7.312,0.005784587357591075
7.316,0.005776774181140364
7.32,0.005784491195419374
7.324,0.005789996479749261
7.328,0.005790236885178513
7.332,0.005794035290960705
7.336,0.005794588223447986
7.34,0.00578268815469998
7.344,0.005775115383678521
7.348,0.00577492305933512
7.352,0.005781053397781061
7.356,0.005789299304004428
7.36,0.005791198506895524
7.364,0.005786342317224621
7.368,0.005775451951279475
7.372,0.005772110315812863
7.376,0.005780644708551332
7.38,0.005797641372399494
7.384,0.005790501331150691
7.388,0.005770211112921767
7.392,0.005765979977366921
7.396,0.005777375194713496
7.4,0.005785813425280265
7.404,0.005791895682640357
7.408,0.005795237318106968
7.412,0.005798410669773103
7.416,0.0058050458596204755
7.42,0.00580451696767612
7.424,0.005795093074849416
7.428,0.005793963169331929
7.432,0.005796679750682484
7.436,0.005795646007336697
7.44,0.005792112047526683
7.444,0.005785452817136385
7.448,0.0057830728033867835
7.452,0.005787400101113332
7.456,0.005789828195948784
7.46,0.005787784749800136
7.464,0.0057896599121483065
7.468,0.005789780114862933
7.472,0.005788746371517147
7.476,0.0057903811284360646
7.48,0.005788986776946399
7.484,0.005784467154876449
7.488,0.005782207343841474
7.492,0.005782928560129232
7.496,0.0057838661413033175
7.5,0.005782087141126848
7.5040000000000004,0.005779250357061666
7.508,0.005787063533512379
7.5120000000000005,0.005805526670478981
7.516,0.005821128982837476
7.5200000000000005,0.005823100307357348
7.524,0.005823004145185647
7.5280000000000005,0.0058285815511443075
7.532,0.005830913483808059
7.5360000000000005,0.005813075400957513
7.54,0.005788866574231773
7.5440000000000005,0.005784443114333524
7.548,0.005788217479572791
7.5520000000000005,0.00579542964245037
7.556,0.0057975932913136435
7.5600000000000005,0.005791559115039402
7.564,0.005783818060217467
7.5680000000000005,0.005781317843753239
7.572,0.00578761646599966
7.5760000000000005,0.005788746371517147
7.58,0.0057935544801021996
7.5840000000000005,0.005796944196654661
7.588,0.005801920589040191
7.5920000000000005,0.005801535940353386
7.596,0.005798482791401879
7.6000000000000005,0.005800646440265152
7.604,0.005801944629583116
7.6080000000000005,0.005798050061629223
7.612,0.005797953899457522
7.6160000000000005,0.005797617331856569
7.62,0.00579542964245037
7.6240000000000006,0.0057963191425386045
7.628,0.005801559980896312
7.632000000000001,0.005794227615304107
7.636,0.005794852669420164
7.640000000000001,0.0057941074125894805
7.644,0.005791919723183281
7.648000000000001,0.005788818493145923
7.652,0.0057930736692436945
7.656000000000001,0.005795670047879622
7.66,0.005799588656376441
7.664000000000001,0.005795910453308875
7.668,0.005784899884649104
7.672000000000001,0.005789611831062456
7.676,0.00579771349402827
7.68,0.005799420372575964
7.684,0.005802160994469443
7.688,0.005803026454014753
7.692,0.005795838331680099
7.696,0.005788818493145923
7.7,0.0057829045195863064
7.704,0.005785140290078357
7.708,0.005788169398486941
7.712,0.005784250789990121
7.716,0.0057847316008486265
7.72,0.005785765344194414
7.724,0.005786871209168976
7.728,0.005792544777299338
7.732,0.005795573885707921
7.736,0.005789876277034634
7.74,0.005785308573878834
7.744,0.005782495830356577
7.748,0.00579086193929457
7.752,0.00578771262817136
7.756,0.005779731167920172
7.76,0.0057806927896371825
7.764,0.005786222114509994
7.768,0.005785717263108564
7.772,0.00578502008736373
7.776,0.00578771262817136
7.78,0.005787592425456734
7.784,0.005792304371870086
7.788,0.005801776345782639
7.792,0.0057970403588263626
7.796,0.005783529573702363
7.8,0.005776004883766756
7.804,0.00578268815469998
7.808,0.005784322911618897
7.812,0.005784491195419374
7.816,0.005791823561011581
7.82,0.005795357520821594
7.824,0.005788746371517147
7.828,0.005788602128259595
7.832,0.005800093507777871
7.836,0.005796463385796156
7.84,0.005786462519939247
7.844,0.00578369785750284
7.848,0.005784491195419374
7.852,0.005792424574584712
7.856,0.0057978336967428965
7.86,0.005789828195948784
7.864,0.005781726532982969
7.868,0.0057861740334241435
7.872,0.005790357087893139
7.876,0.005789251222918577
7.88,0.005787015452426528
7.884,0.005787736668714285
7.888,0.005786149992881218
7.892,0.005785765344194414
7.896,0.005784298871075972
7.9,0.005786342317224621
7.904,0.005788818493145923
7.908,0.005793987209874854
7.912,0.00579360256118805
7.916,0.005793722763902676
7.92,0.005798194304886775
7.924,0.005804420805504419
7.928,0.005806416170567215
7.932,0.005800141588863722
7.936,0.0057883857633732674
7.94,0.005782447749270727
7.944,0.005782087141126848
7.948,0.005787784749800136
7.952,0.005791222547438449
7.956,0.005794395899104583
7.96,0.005785188371164208
7.964,0.0057829045195863064
7.968,0.005786678884825574
7.972,0.00579725672371269
7.976,0.005798074102172149
7.98,0.005793169831415395
7.984,0.005789876277034634
7.988,0.00579040516897899
7.992,0.005791102344723823
7.996,0.005793290034130021
8.0,0.005798578953573579
8.004,0.005795477723536221
8.008000000000001,0.005793842966617302
8.012,0.005792472655670563
8.016,0.005796992277740512
8.02,0.00579999734560617
8.024000000000001,0.00579273710164274
8.028,0.005790020520292186
8.032,0.0057906215338653175
8.036,0.005789371425633204
8.040000000000001,0.005784322911618897
8.044,0.005795237318106968
8.048,0.005805334346135578
8.052,0.005789707993234157
8.056000000000001,0.005778721465117311
8.06,0.005781077438323986
8.064,0.005788842533688848
8.068,0.0057907657771228685
8.072000000000001,0.005788433844459118
8.076,0.0057819669384122216
8.08,0.005781125519409837
8.084,0.005784779681934477
8.088000000000001,0.005789227182375652
8.092,0.005789179101289801
8.096,0.005787977074143538
8.1,0.005802257156641144
8.104000000000001,0.005807449913913002
8.108,0.005796727831768334
8.112,0.005785909587451965
8.116,0.005787063533512379
8.120000000000001,0.005795621966793772
8.124,0.0057963191425386045
8.128,0.005793001547614919
8.132,0.005791030223095047
8.136000000000001,0.005788698290431296
8.14,0.005786582722653873
8.144,0.005791294669067225
8.148,0.0057960066154805765
8.152000000000001,0.0057972807642556155
8.156,0.005796367223624455
8.16,0.005801127251123657
8.164,0.005805526670478981
8.168000000000001,0.005807401832827151
8.172,0.005811368522409819
8.176,0.005815431374164189
8.18,0.005812450346841456
8.184000000000001,0.005805839197537009
8.188,0.005801127251123657
8.192,0.005800694521351003
8.196,0.0057965595479678575
8.2,0.005789780114862933
8.204,0.005788433844459118
8.208,0.005790477290607766
8.212,0.005789587790519531
8.216,0.005789155060746876
8.22,0.0057887944526029975
8.224,0.00578720777676993
8.228,0.005785645141479788
8.232,0.005792496696213488
8.236,0.00580821921128661
8.24,0.005818316239315221
8.244,0.005810695387207912
8.248,0.0058093250762611725
8.252,0.0058106713466649865
8.256,0.005811488725124446
8.26,0.005821153023380402
8.264,0.005823508996587077
8.268,0.005812426306298531
8.272,0.00580045411592175
8.276,0.005793049628700769
8.28,0.005794924791048939
8.284,0.005802401399898696
8.288,0.005798915521174533
8.292,0.005795838331680099
8.296,0.005797641372399494
8.3,0.005795934493851801
8.304,0.005795477723536221
8.308,0.005799612696919366
8.312,0.005801728264696789
8.316,0.005804733332562447
8.32,0.005810839630465464
8.324,0.0058077384004281045
8.328,0.005798074102172149
8.332,0.0057992520887754865
8.336,0.005798482791401879
8.34,0.005795790250594249
8.344,0.005796198939823978
8.348,0.0058002858321212734
8.352,0.005807546076084702
8.356,0.0058149505633056835
8.36,0.0058171622932548074
8.364,0.005809349116804097
8.368,0.005806488292195991
8.372,0.005795934493851801
8.376,0.005783769979131616
8.38,0.005782303506013175
8.384,0.005786558682110947
8.388,0.005791751439382805
8.392,0.005796271061452754
8.396,0.005798290467058476
8.4,0.005797785615657046
8.404,0.005796896115568811
8.408,0.00579954057529059
8.412,0.00580228119718407
8.416,0.005803579386502034
8.42,0.005804180400075166
8.424,0.00580781052205688
8.428,0.00581278691444241
8.432,0.005807233549026674
8.436,0.005800718561893928
8.44,0.0057911744663525985
8.444,0.005789419506719054
8.448,0.00578578938473734
8.452,0.0057833132088160365
8.456,0.005786270195595845
8.46,0.005789756074320008
8.464,0.005802209075555294
8.468,0.005807449913913002
8.472,0.005798867440088683
8.476,0.005790116682463886
8.48,0.005793650642273901
8.484,0.00580502181907755
8.488,0.0058075701166276274
8.492,0.005806921021968646
8.496,0.0058085317383446385
8.5,0.0058002858321212734
8.504,0.005792063966440833
8.508000000000001,0.00579309770978662
8.512,0.0057928332638144415
8.516,0.005791919723183281
8.52,0.005800430075378824
8.524000000000001,0.005807113346312048
8.528,0.005801439778181686
8.532,0.005803050494557678
8.536,0.005809974170920154
8.540000000000001,0.005816104509366096
8.544,0.00581644107696705
8.548,0.005814469752447178
8.552,0.005821633834238907
8.556000000000001,0.005827018915854166
8.56,0.005811801252182474
8.564,0.005803050494557678
8.568,0.005802593724242099
8.572000000000001,0.005809228914089471
8.576,0.005812642671184858
8.58,0.005811897414354175
8.584,0.005807329711198375
8.588000000000001,0.005806488292195991
8.592,0.0058040842379034644
8.596,0.005810767508836688
8.6,0.005816657441853377
8.604000000000001,0.005816272793166573
8.608,0.005819253820489306
8.612,0.005813868738874047
8.616,0.005806584454367692
8.620000000000001,0.005801559980896312
8.624,0.005802209075555294
8.628,0.005803435143244482
8.632,0.005803795751388362
8.636000000000001,0.005806608494910617
8.64,0.005809685684405051
8.644,0.005813724495616495
8.648,0.005817787347370864
8.652000000000001,0.005819446144832708
8.656,0.005816921887825555
8.66,0.005812233981955129
8.664,0.005819590388090259
8.668000000000001,0.0058207443341506725
8.672,0.0058114646845815205
8.676,0.00579954057529059
8.68,0.005801896548497266
8.684000000000001,0.005811320441323969
8.688,0.005818147955514744
8.692,0.005815623698507591
8.696,0.005806656575996468
8.700000000000001,0.0058037717108454364
8.704,0.00580684890033987
8.708,0.005814517833533029
8.712,0.005818604725830324
8.716,0.00582151363152428
8.72,0.005824711023733341
8.724,0.005821225145009178
8.728,0.005818051793343043
8.732,0.00581237822521268
8.736,0.005806488292195991
8.74,0.005815719860679292
8.744,0.005827932456485326
8.748,0.00582877387548771
8.752,0.005827884375399476
8.756,0.005832764605613304
8.76,0.005822018482925711
8.764,0.005805887278622859
8.768,0.00579684803448296
8.772,0.0057971124804551384
8.776,0.005804661210933671
8.78,0.005809036589746069
8.784,0.005810406900692809
8.788,0.005810022252006004
8.792,0.005811368522409819
8.796,0.005814229347017925
8.8,0.0058141091443033
8.804,0.005810623265579136
8.808,0.005807065265226197
8.812,0.00580913275191777
8.816,0.005814926522762758
8.82,0.005815166928192011
8.824,0.005805093940706326
8.828,0.0057983866292301775
8.832,0.005804060197360539
8.836,0.005813195603672139
8.84,0.005817667144656239
8.844,0.005818628766373249
8.848,0.005823893645273881
8.852,0.0058216097936959815
8.856,0.005823845564188031
8.86,0.005830168226977375
8.864,0.005835937957279438
8.868,0.005828124780828728
8.872,0.005826850632053689
8.876,0.005820311604378017
8.88,0.0058103588196069585
8.884,0.005809733765490902
8.888,0.005812161860326353
8.892,0.005812594590099008
8.896,0.005813628333444794
8.9,0.0058184364420298465
8.904,0.005820960699036999
8.908,0.005827643969970223
8.912,0.00582745164562682
8.916,0.005825287996763547
8.92,0.005823316672243675
8.924,0.005822210807269113
8.928,0.005817426739226986
8.932,0.00581644107696705
8.936,0.005823220510071974
8.94,0.005831177929780236
8.944,0.005827619929427297
8.948,0.005809902049291379
8.952,0.005797905818371672
8.956,0.005800574318636376
8.96,0.005820239482749241
8.964,0.005838678579172919
8.968,0.005844400228389131
8.972,0.0058476937827698925
8.976,0.005851227742579906
8.98,0.005850218039777044
8.984,0.0058334137002722854
8.988,0.005820696253064822
8.992,0.005820407766549718
8.996,0.005822571415412992
9.0,0.005827235280740493
9.004,0.005831658740638741
9.008000000000001,0.0058303365107778525
9.012,0.005827764172684849
9.016,0.0058261294157659314
9.02,0.005824494658847013
9.024000000000001,0.005828100740285802
9.028,0.005836298565423318
9.032,0.005839808484690406
9.036,0.005834014713845417
9.040000000000001,0.005823364753329526
9.044,0.00581968655026196
9.048,0.005822475253241291
9.052,0.005828365186257981
9.056000000000001,0.00582197040183986
9.06,0.005816489158052901
9.064,0.005816200671537797
9.068,0.00581963846917611
9.072000000000001,0.00582187423966816
9.076,0.005824614861561639
9.08,0.00582415809124606
9.084,0.005819109577231754
9.088000000000001,0.005818556644744473
9.092,0.005829711456661796
9.096,0.00582694679422539
9.1,0.005814541874075954
9.104000000000001,0.0058127388333565596
9.108,0.005819590388090259
9.112,0.005823581118215853
9.116,0.005823100307357348
9.120000000000001,0.005818797050173726
9.124,0.005819157658317605
9.128,0.005822643537041768
9.132,0.005826730429339063
9.136000000000001,0.005823052226271498
9.14,0.005825023550791369
9.144,0.005827908415942401
9.148,0.005828942159288187
9.152000000000001,0.005837957362885161
9.156,0.005843919417530626
9.16,0.005832067429868471
9.164,0.005814229347017925
9.168000000000001,0.005811272360238118
9.172,0.005814878441676908
9.176,0.0058141091443033
9.18,0.005814133184846225
9.184000000000001,0.005817931590628416
9.188,0.005816561279681676
9.192,0.005813099441500438
9.196,0.0058099501303772285
9.200000000000001,0.005812594590099008
9.204,0.005817667144656239
9.208,0.005822210807269113
9.212,0.005823557077672928
9.216000000000001,0.005823725361473405
9.22,0.005824518699389938
9.224,0.005827018915854166
9.228,0.005833630065158613
9.232,0.005838077565599787
9.236,0.005829495091775468
9.24,0.005828124780828728
9.244,0.005835000376105353
9.248,0.0058338223895020155
9.252,0.005830865402722208
9.256,0.005831346213580713
9.26,0.005828437307886757
9.264,0.005817474820312836
9.268,0.005814589955161805
9.272,0.005810286697978183
9.276,0.005812450346841456
9.28,0.005817715225742089
9.284,0.005815960266108544
9.288,0.005819157658317605
9.292,0.005820672212521897
9.296,0.005822499293784217
9.3,0.005825215875134771
9.304,0.005830240348606151
9.308,0.005830576916207105
9.312,0.005832355916383574
9.316,0.00582963933503302
9.32,0.005831899146067994
9.324,0.00583658705193842
9.328,0.005832115510954322
9.332,0.005826153456308857
9.336,0.005823508996587077
9.34,0.005818869171802502
9.344,0.005818508563658622
9.348,0.005824278293960686
9.352,0.00583425511927467
9.356,0.005834639767961474
9.36,0.0058236772803875545
9.364,0.005822355050526665
9.368,0.0058335819840727625
9.372,0.0058335819840727625
9.376,0.005830023983719824
9.38,0.005828004578114101
9.384,0.005819614428633184
9.388,0.00581374853615942
9.392,0.005813724495616495
9.396,0.005814229347017925
9.4,0.0058189893745171275
9.404,0.005822811820842245
9.408,0.005829182564717439
9.412,0.005836707254653047
9.416,0.005834832092304876
9.42,0.0058300961053485995
9.424,0.005825864969793753
9.428,0.005824855266990892
9.432,0.0058277160915989985
9.436,0.0058341349165600435
9.44,0.005847261052997237
9.444,0.005852237445382767
9.448,0.005847645701684042
9.452,0.005833365619186436
9.456,0.00582466294264749
9.46,0.005829783578290571
9.464,0.005824134050703134
9.468,0.005821561712610131
9.472,0.005824590821018714
9.476,0.005829038321459888
9.48,0.005823893645273881
9.484,0.005826321740109333
9.488,0.005824999510248443
9.492,0.005819037455602978
9.496,0.005820407766549718
9.5,0.005824134050703134
9.504,0.005830360551320778
9.508000000000001,0.005834856132847802
9.512,0.005827908415942401
9.516,0.0058218501991252345
9.52,0.00582192232075401
9.524000000000001,0.00582557648327865
9.528,0.005827307402369269
9.532,0.005826009213051305
9.536,0.005826249618480557
9.540000000000001,0.005831658740638741
9.544,0.005832980970499631
9.548,0.005836226443794542
9.552,0.005838918984602171
9.556000000000001,0.005827643969970223
9.56,0.005821201104466252
9.564,0.0058304086324066275
9.568,0.005837596754741281
9.572000000000001,0.005833654105701538
9.576,0.005825672645450351
9.58,0.005824975469705518
9.584,0.00583242803801235
9.588000000000001,0.005836611092481346
9.592,0.00584334244450042
9.596,0.005848439039600575
9.6,0.005845890742050498
9.604000000000001,0.005835024416648279
9.608,0.0058350965382770546
9.612,0.005844929120333487
9.616,0.005855362715963051
9.620000000000001,0.005852141283211066
9.624,0.005846756201595807
9.628,0.005852910580584674
9.632,0.005851323904751607
9.636000000000001,0.0058328607677850045
9.64,0.0058306490378358805
9.644,0.005829711456661796
9.648,0.005827139118568792
9.652000000000001,0.005830504794578329
9.656,0.005833149254300108
9.66,0.005825552442735725
9.664,0.00581507076602031
9.668000000000001,0.005817787347370864
9.672,0.005835505227506784
9.676,0.00585430493207434
9.68,0.005862839324812808
9.684000000000001,0.005867070460367654
9.688,0.005867671473940786
9.692,0.005855362715963051
9.696,0.005854040486102162
9.700000000000001,0.0058530067427563755
9.704,0.005846443674537779
9.708,0.005846395593451928
9.712,0.0058446887149042346
9.716000000000001,0.005832572281269902
9.72,0.0058289902403740376
9.724,0.005837260187140328
9.728,0.005847092769196761
9.732,0.005848342877428875
9.736,0.00584516952576274
9.74,0.005842428903869259
9.744,0.005842092336268306
9.748,0.005836635133024271
9.752,0.005838077565599787
9.756,0.005841803849753202
9.76,0.005845986904222199
9.764,0.005844159822959879
9.768,0.00584156344432395
9.772,0.005842645268755587
9.776,0.005843799214815999
9.78,0.005851131580408205
9.784,0.005855747364649855
9.788,0.0058514921885520835
9.792,0.005844905079790561
9.796,0.00583562543022141
9.8,0.005834423403075147
9.804,0.005837019781711075
9.808,0.005839303633288976
9.812,0.005840986471293744
9.816,0.005847188931368462
9.82,0.005848655404486903
9.824,0.005841707687581502
9.828,0.005843558809386747
9.832,0.005842212538982932
9.836,0.0058407941469503415
9.84,0.0058465879177953305
9.844,0.005849352580231735
9.848,0.0058447608365330105
9.852,0.005842549106583886
9.856,0.005844953160876412
9.86,0.005850001674890718
9.864,0.005841827890296128
9.868,0.005831370254123639
9.872,0.0058415153632381
9.876,0.005850410364120447
9.88,0.005849496823489287
9.884,0.005841395160523473
9.888,0.005837981403428086
9.892,0.005837476552026656
9.896,0.005836707254653047
9.9,0.005834832092304876
9.904,0.00584516952576274
9.908,0.005855747364649855
9.912,0.005851203702036981
9.916,0.005837019781711075
9.92,0.005832139551497247
9.924,0.005836418768137943
9.928,0.005840337376634762
9.932,0.005845049323048113
9.936,0.005841202836180071
9.94,0.005839760403604555
9.944,0.005844568512189608
9.948,0.0058410345523795945
9.952,0.005838342011571965
9.956,0.00583699574116815
9.96,0.005835192700448755
9.964,0.005842404863326334
9.968,0.005846443674537779
9.972,0.00585069885063555
9.976,0.005855314634877201
9.98,0.005857886972970204
9.984,0.005854929986190397
9.988,0.005846972566482134
9.992,0.00584384729590185
9.996,0.005846563877252405
10.0,0.005845746498792946
10.004,0.0058395199981753024
10.008000000000001,0.0058431741606999425
10.012,0.005845409931191992
10.016,0.00583882282243047
10.02,0.0058369476600823
10.024000000000001,0.005838991106230947
10.028,0.005843366485043345
10.032,0.00584613114747975
10.036,0.00584471275544716
10.040000000000001,0.005843558809386747
10.044,0.005843823255358925
10.048,0.00584704468811091
10.052,0.0058498333910902405
10.056000000000001,0.00585343947252903
10.06,0.005859497689346196
10.064,0.005857021513424894
10.068,0.005854040486102162
10.072000000000001,0.0058482467152571735
10.076,0.005841851930839053
10.08,0.005848679445029828
10.084,0.005858896675773065
10.088000000000001,0.005850554607377999
10.092,0.005841635565952726
10.096,0.005842404863326334
10.1,0.00584567437716417
10.104000000000001,0.005846852363767508
10.108,0.005847381255711864
10.112,0.00584704468811091
10.116,0.005852429769726169
10.120000000000001,0.005857502324283399
10.124,0.005857670608083876
10.128,0.005857069594510745
10.132,0.005862382554497228
10.136000000000001,0.00586120456789389
10.14,0.005853367350900254
10.144,0.005852622094069571
10.148,0.005854136648273863
10.152000000000001,0.005855026148362097
10.156,0.005853223107642702
10.16,0.005852814418412973
10.164,0.005853126945471002
10.168000000000001,0.005850602688463849
10.172,0.005846972566482134
10.176,0.005844929120333487
10.18,0.005844448309474982
10.184000000000001,0.005843198201242868
10.188,0.005843606890472597
10.192,0.005843126079614092
10.196,0.005840818187493267
10.200000000000001,0.0058407941469503415
10.204,0.005844568512189608
10.208,0.005848270755800099
10.212,0.005845842660964647
10.216000000000001,0.005844328106760355
10.22,0.005846010944765123
10.224,0.005846155188022675
10.228,0.005848318836885949
10.232000000000001,0.00585480978347577
10.236,0.005857502324283399
10.24,0.005859233243374018
10.244,0.005851468148009158
10.248,0.0058453137690202914
10.252,0.005836130281622841
10.256,0.005834639767961474
10.26,0.005849905512719016
10.264,0.005870243812033789
10.268,0.005865628027792139
10.272,0.005847838026027443
10.276,0.00584516952576274
10.28,0.005854545337503592
10.284,0.005858175459485307
10.288,0.005857141716139521
10.292,0.005863824987072744
10.296,0.0058703640147484155
10.3,0.005872575744697539
10.304,0.005865916514307241
10.308,0.00585755040536925
10.312,0.0058506507695497
10.316,0.005851323904751607
10.32,0.00585937748663157
10.324,0.005867671473940786
10.328,0.005875196163876393
10.332,0.005874138379987682
10.336,0.005855987770079108
10.34,0.0058455541744495436
10.344,0.005843126079614092
10.348,0.005842957795813616
10.352,0.005844207904045729
10.356,0.005849064093716632
10.36,0.005853824121215834
10.364,0.005861276689522666
10.368,0.005869113906516302
10.372,0.005867791676655412
10.376,0.005871133312122024
10.38,0.005877720420883546
10.384,0.005885966327106912
10.388,0.005875941420707077
10.392,0.005866445406251597
10.396,0.005864185595216623
10.4,0.005854545337503592
10.404,0.005845049323048113
10.408,0.0058446887149042346
10.412,0.005853367350900254
10.416,0.005852814418412973
10.42,0.005848991972087857
10.424,0.005845049323048113
10.428,0.005846010944765123
10.432,0.005848439039600575
10.436,0.005848847728830305
10.44,0.005846563877252405
10.444,0.0058513479452945326
10.448,0.005853415431986105
10.452,0.005856396459308837
10.456,0.005868873501087049
10.46,0.005873705650215027
10.464,0.005868248446970992
10.468,0.005864065392501996
10.472,0.005867455109054459
10.476,0.005880485083319951
10.48,0.005879908110289745
10.484,0.005859906378575926
10.488,0.005848030350370846
10.492,0.005844063660788178
10.496,0.005844448309474982
10.5,0.005846972566482134
10.504,0.005851588350723785
10.508000000000001,0.005857718689169727
10.512,0.005861036284093413
10.516,0.005860651635406609
10.52,0.005855795445735706
10.524000000000001,0.005853703918501208
10.528,0.005858944756858915
10.532,0.005864546203360502
10.536,0.005868993703801675
10.540000000000001,0.005863199932956687
10.544,0.005852646134612496
10.548,0.005847188931368462
10.552,0.005848487120686426
10.556000000000001,0.0058559396889932575
10.56,0.00586257487884063
10.564,0.005866565608966224
10.568,0.005866036717021868
10.572000000000001,0.00585709363505367
10.576,0.005845337809563217
10.58,0.005843871336444775
10.584,0.005850001674890718
10.588000000000001,0.005857886972970204
10.592,0.005866445406251597
10.596,0.005861180527350965
10.6,0.0058517325939813365
10.604000000000001,0.005856877270167342
10.608,0.00586805612262759
10.612,0.00586983512280406
10.616,0.005866253081908196
10.620000000000001,0.005857502324283399
10.624,0.005843823255358925
10.628,0.0058410345523795945
10.632,0.005843053957985316
10.636000000000001,0.00584841499905765
10.64,0.00585298270221345
10.644,0.005863993270873221
10.648,0.005865075095304858
10.652000000000001,0.005859353446088645
10.656,0.0058519008777818135
10.66,0.005863103770784986
10.664,0.0058660847981077185
10.668000000000001,0.005859137081202318
10.672,0.005856949391796118
10.676,0.005852021080496439
10.68,0.0058506267290067745
10.684000000000001,0.005853776040129984
10.688,0.005860266986719805
10.692,0.0058629114464415835
10.696,0.00586851289294317
10.700000000000001,0.005869402393031405
10.704,0.0058620700274392
10.708,0.00585526655379135
10.712,0.005854978067276247
10.716000000000001,0.005855579080849379
10.72,0.005853848161758759
10.724,0.0058592572839169434
10.728,0.005856204134965436
10.732000000000001,0.0058594255677174205
10.736,0.005866757933309626
10.74,0.005862983568070359
10.744,0.0058522855264686174
10.748000000000001,0.005856684945823941
10.752,0.005865243379105334
10.756,0.005852021080496439
10.76,0.005851804715610112
10.764,0.005852429769726169
10.768,0.005854377053703116
10.772,0.0058538000806729095
10.776,0.005856708986366866
10.78,0.005859497689346196
10.784,0.005863055689699135
10.788,0.005865195298019484
10.792,0.005869282190316779
10.796,0.005870315933662565
10.8,0.005869450474117255
10.804,0.005861589216580695
10.808,0.005861469013866068
10.812,0.005864522162817577
10.816,0.005868560974029021
10.82,0.005869113906516302
10.824,0.0058605314326919825
10.828,0.005859738094775449
10.832,0.0058567330269097915
10.836,0.005857021513424894
10.84,0.005861420932780218
10.844,0.005860266986719805
10.848,0.0058544251347889655
10.852,0.005855819486278631
10.856,0.00585846394600041
10.86,0.005857814851341428
10.864,0.005853463513071955
10.868,0.0058530067427563755
10.872,0.0058524538102690945
10.876,0.005853511594157806
10.88,0.005856829189081492
10.884,0.0058552184727054995
10.888,0.005856348378222987
10.892,0.005860363148891506
10.896,0.005866517527880373
10.9,0.005871854528409781
10.904,0.005866926217110103
10.908,0.005862959527527434
10.912,0.005854785742932845
10.916,0.0058514921885520835
10.92,0.005853199067099778
10.924,0.005861180527350965
10.928,0.005870171690405013
10.932,0.005867527230683235
10.936,0.005860266986719805
10.94,0.005853703918501208
10.944,0.005850434404663372
10.948,0.005850867134436027
10.952,0.005853367350900254
10.956,0.005854737661846994
10.96,0.005861300730065591
10.964,0.005864161554673697
10.968,0.005863560541100566
10.972,0.005865676108877989
10.976,0.005869979366061612
10.98,0.005872647866326315
10.984,0.005876302028850955
10.988,0.005879860029203894
10.992,0.005879499421060016
10.996,0.005878201231742051
11.0,0.0058738498934725785
11.004,0.0058679840009988144
11.008000000000001,0.005873777771843803
11.012,0.005888682908457467
11.016,0.0058976500309685905
11.02,0.00588175923209499
11.024000000000001,0.0058562522160512855
11.028,0.0058452416473915155
11.032,0.005850819053350176
11.036,0.005853607756329507
11.040000000000001,0.005854449175331891
11.044,0.005847862066570369
11.048,0.0058452416473915155
11.052,0.005852405729183244
11.056000000000001,0.005863079730242061
11.06,0.005879739826489268
11.064,0.005893298692699118
11.068,0.0058976500309685905
11.072000000000001,0.005896159517307224
11.076,0.005898178922912946
11.08,0.00589724134173886
11.084,0.005888081894884336
11.088000000000001,0.005874042217815981
11.092,0.005868777338915348
11.096,0.005871349677008351
11.1,0.005873681609672101
11.104000000000001,0.00587308059609897
11.108,0.0058735373664145505
11.112,0.005871758366238081
11.116,0.005865916514307241
11.120000000000001,0.005864690446618053
11.124,0.005865387622362886
11.128,0.005863272054585463
11.132,0.005869137947059227
11.136000000000001,0.005872671906869241
11.14,0.005877816583055247
11.144,0.005884211367473368
11.148,0.0058851970297333035
11.152000000000001,0.0058859903676498375
11.156,0.005881013975264307
11.16,0.005875845258535376
11.164,0.005869763001175284
11.168000000000001,0.005866397325165747
11.172,0.0058666377305949995
11.176,0.0058633922573000895
11.18,0.005866613690052074
11.184000000000001,0.005875532731477347
11.188,0.005878585880428855
11.192,0.00587262382578339
11.196,0.005866541568423298
11.200000000000001,0.005863584581643491
11.204,0.005860507392149057
11.208,0.005864546203360502
11.212,0.005868272487513917
11.216000000000001,0.005870027447147462
11.22,0.005875003839532991
11.224,0.005881110137436008
11.228,0.0058856778405918094
11.232000000000001,0.005887240475881951
11.236,0.005875484650391496
11.24,0.0058605314326919825
11.244,0.00585572332410693
11.248000000000001,0.0058567330269097915
11.252,0.0058620459868962745
11.256,0.00586252679775478
11.26,0.00586440196010295
11.264,0.005872215136553661
11.268,0.005871566041894679
11.272,0.005863656703272267
11.276,0.005854449175331891
11.28,0.005855098269990873
11.284,0.005862166189610901
11.288,0.005869450474117255
11.292,0.005872888271755568
11.296,0.0058748836368183645
11.3,0.005875100001704692
11.304,0.005865603987249213
11.308,0.005859714054232524
11.312,0.005859882338033
11.316,0.0058567330269097915
11.32,0.005861541135494844
11.324,0.005869402393031405
11.328,0.005873777771843803
11.332,0.005872840190669718
11.336,0.005868104203713441
11.34,0.005865748230506765
11.344,0.005869714920089433
11.348,0.005880220637347774
11.352,0.005880340840062399
11.356,0.005872311298725362
11.36,0.0058599785002047015
11.364,0.005862406595040153
11.368,0.0058666377305949995
11.372,0.005865147216933634
11.376,0.005868585014571946
11.38,0.005873633528586252
11.384,0.005877239610025041
11.388,0.005882744894354926
11.392,0.00588089377254968
11.396,0.00587627798830803
11.4,0.005879379218345389
11.404,0.00588399500258704
11.408,0.005885509556791332
11.412,0.005884788340503574
11.416,0.00587810506957035
11.42,0.005873922015101354
11.424,0.005870652501263518
11.428,0.005865555906163363
11.432,0.005864281757388324
11.436,0.005866493487337448
11.44,0.005867839757741263
11.444,0.005870484217463042
11.448,0.005872335339268287
11.452,0.005876374150479731
11.456,0.005876975164052863
11.46,0.005879811948118044
11.464,0.0058823362051251965
11.468,0.005881134177978933
11.472,0.005882264083496421
11.476,0.005881951556438393
11.48,0.005884499853988472
11.484,0.00588760108402583
11.488,0.005880004272461446
11.492,0.005875580812563197
11.496,0.0058812303401506345
11.5,0.005875532731477347
11.504,0.005864305797931249
11.508000000000001,0.005866589649509149
11.512,0.0058716381635234545
11.516,0.005874042217815981
11.52,0.005877359812739667
11.524000000000001,0.005881807313180841
11.528,0.005885870164935211
11.532,0.005886735624480521
11.536,0.00587897052911566
11.540000000000001,0.0058724315014399885
11.544,0.005874498988131561
11.548,0.005880437002234101
11.552,0.005885221070276229
11.556000000000001,0.005887625124568755
11.56,0.0058831295430417305
11.564,0.00588130246177941
11.568,0.0058845719756172475
11.572000000000001,0.005878754164229332
11.576,0.005871542001351753
11.58,0.005870003406604537
11.584,0.00586983512280406
11.588000000000001,0.005872239177096586
11.592,0.005872768069040942
11.596,0.005868873501087049
11.6,0.005867238744168131
11.604000000000001,0.005867575311769085
11.608,0.005867118541453505
11.612,0.0058679118793700386
11.616,0.005876854961338236
11.620000000000001,0.005881134177978933
11.624,0.005881927515895467
11.628,0.0058757731369066
11.632,0.005870965028321547
11.636000000000001,0.005868897541629974
11.64,0.005868032082084665
11.644,0.0058740902989018315
11.648,0.005880965894178456
11.652000000000001,0.0058840911647587415
11.656,0.0058894762463740005
11.66,0.005892529395325509
11.664,0.00589079847623489
11.668000000000001,0.005895798909163345
11.672,0.0059013041934932306
11.676,0.005898395287799274
11.68,0.005890149381575908
11.684000000000001,0.005881687110466214
11.688,0.005875412528762721
11.692,0.005872551704154614
11.696,0.005878225272284977
11.700000000000001,0.005887432800225354
11.704,0.005897505787711039
11.708,0.005894572841474157
11.712,0.005887312597510727
11.716000000000001,0.00588714431371025
11.72,0.0058875049218541295
11.724,0.005886807746109297
11.728,0.005877696380340621
11.732000000000001,0.0058799561913755955
11.736,0.005882817015983702
11.74,0.005882360245668122
11.744,0.005881013975264307
11.748000000000001,0.0058826246916403
11.752,0.005877984866855724
11.756,0.005879619623774642
11.76,0.005891038881664143
11.764000000000001,0.005901496517836632
11.768,0.005906881599451891
11.772,0.005910535761976531
11.776,0.005912699410839805
11.78,0.0059021696530385396
11.784,0.005885509556791332
11.788,0.005880461042777026
11.792,0.005881614988837438
11.796,0.00588435561073092
11.8,0.005886903908280998
11.804,0.005890822516777815
11.808,0.005892721719668911
11.812,0.0058889233138867195
11.816,0.005889716651803253
11.82,0.005895606584819943
11.824,0.005900054085261117
11.828,0.005897722152597366
11.832,0.005888298259770663
11.836,0.005885557637877183
11.84,0.005888827151715018
11.844,0.005894548800931231
11.848,0.005895606584819943
11.852,0.0058965441659940285
11.856,0.0059007993420918
11.86,0.005902506220639494
11.864,0.005903059153126775
11.868,0.0059019292476092874
11.872,0.005886879867738073
11.876,0.005874426866502785
11.88,0.005876614555908984
11.884,0.005887456840768279
11.888,0.005890485949176862
11.892,0.005891928381752377
11.896,0.005893659300842996
11.9,0.005897289422824711
11.904,0.005899645396031387
11.908,0.005901111869149828
11.912,0.005905511288505152
11.916,0.0059047900722173936
11.92,0.00589349101704252
11.924,0.0058918562601236015
11.928,0.005889908976146656
11.932,0.005887432800225354
11.936,0.005886278854164941
11.94,0.00588760108402583
11.944,0.005893851625186399
11.948,0.005903395720727728
11.952,0.005900174287975743
11.956,0.0058941641522444275
11.96,0.005894332436044904
11.964,0.0058891637193159724
11.968,0.005884908543218201
11.972,0.005890942719492442
11.976,0.0058926495980401354
11.98,0.005890726354606114
11.984,0.0058939237468151745
11.988,0.005904573707331066
11.992,0.005908420194199108
11.996,0.0059081076671410795
12.0,0.005893106368355715
12.004,0.005884956624304051
12.008000000000001,0.005888995435515495
12.012,0.005895294057761915
12.016,0.005891736057408976
12.02,0.005891808179037751
12.024000000000001,0.005891808179037751
12.028,0.005890654232977338
12.032,0.005894212233330277
12.036,0.005891111003292919
12.040000000000001,0.005891615854694349
12.044,0.005894957490160961
12.048,0.005898034679655394
12.052,0.005903948653215009
12.056000000000001,0.0059085884779995854
12.06,0.005905270883075899
12.064,0.0058923370709821074
12.068,0.005892216868267481
12.072000000000001,0.005901664801637109
12.076,0.005901520558379557
12.08,0.005899741558203088
12.084,0.005902530261182419
12.088000000000001,0.005899044382458255
12.092,0.005898178922912946
12.096,0.005892601516954285
12.1,0.005890582111348563
12.104000000000001,0.005889235840944748
12.108,0.005890509989719787
12.112,0.005893875665729324
12.116,0.005892673638583061
12.120000000000001,0.00589541426047654
12.124,0.005892144746638705
12.128,0.005894067990072726
12.132,0.0058947170847317085
12.136000000000001,0.005893539098128371
12.14,0.0058920966655528545
12.144,0.005889716651803253
12.148,0.005896640328165729
12.152000000000001,0.005908299991484482
12.156,0.005904116937015486
12.16,0.005891014841121218
12.164,0.005886519259594193
12.168000000000001,0.005890389787005161
12.172,0.005897481747168113
12.176,0.005906400788593386
12.18,0.00590815574822693
12.184000000000001,0.005891519692522648
12.188,0.005887528962397055
12.192,0.005892601516954285
12.196,0.005888202097598961
12.200000000000001,0.005891327368179246
12.204,0.005893875665729324
12.208,0.005890509989719787
12.212,0.005881999637524243
12.216000000000001,0.005882119840238869
12.22,0.005886663502851745
12.224,0.005884740259417724
12.228,0.00588764916511168
12.232000000000001,0.0058933708143278935
12.236,0.005896087395678448
12.24,0.005892481314239658
12.244,0.005891062922207068
12.248000000000001,0.005900607017748398
12.252,0.0059003425717762195
12.256,0.005894644963102933
12.26,0.005891399489808022
12.264000000000001,0.005893466976499595
12.268,0.0058875049218541295
12.272,0.005884523894531397
12.276,0.005892529395325509
12.280000000000001,0.00590358804507113
12.284,0.0059003425717762195
12.288,0.005891038881664143
12.292,0.005888875232800869
12.296,0.005888947354429645
12.3,0.005884259448559219
12.304,0.005874739393560814
12.308,0.005875244244962244
12.312,0.005880148515718998
12.316,0.005877528096540144
12.32,0.005877720420883546
12.324,0.005882071759153018
12.328,0.005887240475881951
12.332,0.005893611219757146
12.336,0.005899044382458255
12.34,0.005906953721080667
12.344,0.005913444667670488
12.348,0.005906593112936788
12.352,0.005895245976676064
12.356,0.00589115908437877
12.36,0.005887577043482905
12.364,0.005884019043129966
12.368,0.005889019476058421
12.372,0.00589714517956716
12.376,0.005906545031850938
12.38,0.005914165883958246
12.384,0.005915391951647434
12.388,0.005911016572835037
12.392,0.005895630625362868
12.396,0.0058872645164248765
12.4,0.005891038881664143
12.404,0.00589349101704252
12.408,0.005893274652156192
12.412,0.005893154449441566
12.416,0.005905944018277806
12.42,0.005912819613554432
12.424,0.0059043092613588885
12.428,0.0058900291788612814
12.432,0.005884139245844592
12.436,0.005881374583408186
12.44,0.00588399500258704
12.444,0.00587906669128736
12.448,0.005889356043659375
12.452,0.005908636559085435
12.456,0.005920176019689562
12.46,0.005909309694287343
12.464,0.005894500719845381
12.468,0.0058922649493533315
12.472,0.005892144746638705
12.476,0.005897481747168113
12.48,0.005903059153126775
12.484,0.005905006437103721
12.488,0.005904333301901814
12.492,0.005900414693404995
12.496,0.0059051747209041975
12.5,0.00591546407327621
12.504,0.0059200077358890855
12.508000000000001,0.00590450158570229
12.512,0.005888851192257944
12.516,0.005881951556438393
12.52,0.005883730556614863
12.524000000000001,0.0058917120168660506
12.528,0.005896207598393074
12.532,0.005897217301195935
12.536,0.005899669436574312
12.540000000000001,0.005905078558732496
12.544,0.0059053430047046745
12.548,0.005895173855047288
12.552,0.005891471611436798
12.556000000000001,0.005897529828253964
12.56,0.00589856357159975
12.564,0.005895654665905793
12.568,0.005902530261182419
12.572000000000001,0.005906424829136311
12.576,0.00589714517956716
12.58,0.00589349101704252
12.584,0.005900486815033771
12.588000000000001,0.005916209330106894
12.592,0.005923445533527398
12.596,0.005913324464955862
12.6,0.005898852058114854
12.604000000000001,0.00589673649033743
12.608,0.005895366179390691
12.612,0.00589897226082948
12.616,0.005890125341032983
12.620000000000001,0.0058826246916403
12.624,0.0058856778405918094
12.628,0.005893154449441566
12.632,0.005897193260653011
12.636000000000001,0.005896592247079879
12.64,0.005904261180273038
12.644,0.005908468275284959
12.648,0.005894837287446334
12.652000000000001,0.005888851192257944
12.656,0.0058891637193159724
12.66,0.005895534463191167
12.664,0.005902265815210241
12.668000000000001,0.00590952605917367
12.672,0.005914598613730901
12.676,0.005906809477823116
12.68,0.005901424396207856
12.684000000000001,0.005901352274579081
12.688,0.005906016139906582
12.692,0.005915295789475733
12.696,0.005912074356723748
12.700000000000001,0.00589541426047654
12.704,0.005877095366767489
12.708,0.005876806880252386
12.712,0.005884764299960649
12.716000000000001,0.005892024543924079
12.72,0.005897938517483693
12.724,0.005903059153126775
12.728,0.005894356476587829
12.732000000000001,0.005890173422118833
12.736,0.005893707381928847
12.74,0.005898779936486078
12.744,0.0059027947071545964
12.748000000000001,0.005902866828783372
12.752,0.005900366612319145
12.756,0.005907626856282574
12.76,0.005918637424942345
12.764000000000001,0.005916882465308801
12.768,0.00590587189664903
12.772,0.0059027225855258205
12.776,0.005897890436397843
12.780000000000001,0.005887673205654606
12.784,0.005889957057232506
12.788,0.0058968566930520565
12.792,0.005898803977029003
12.796000000000001,0.005897289422824711
12.8,0.005894837287446334
12.804,0.005898251044541722
12.808,0.005902914909869223
12.812,0.005907987464426454
12.816,0.0059139014379860685
12.82,0.005902289855753166
12.824,0.005894380517130754
12.828,0.005895005571246811
12.832,0.005899837720374789
12.836,0.005895967192963822
12.84,0.005890389787005161
12.844,0.0058987558959431525
12.848,0.005903179355841401
12.852,0.005900246409604518
12.856,0.005890461908633937
12.86,0.005887432800225354
12.864,0.005890774435691965
12.868,0.005895726787534569
12.872,0.005896808611966206
12.876,0.005898900139200704
12.88,0.0058996213554884614
12.884,0.005900534896119622
12.888,0.0058993088284304334
12.892,0.005898419328342198
12.896,0.0059021696530385396
12.9,0.005907122004881144
12.904,0.005916473776079071
12.908,0.0059110406133779615
12.912,0.005895486382105316
12.916,0.005891639895237275
12.92,0.005898779936486078
12.924,0.0059081076671410795
12.928,0.00590632866696461
12.932,0.005899693477117237
12.936,0.005903972693757934
12.94,0.005913396586584638
12.944,0.005905150680361272
12.948,0.005893226571070342
12.952,0.005883922880958265
12.956,0.005886976029909774
12.96,0.00589212070609578
12.964,0.005896087395678448
12.968,0.005904140977558411
12.972,0.005909093329401016
12.976,0.005900534896119622
12.98,0.005886927948823923
12.984,0.005880172556261923
12.988,0.005881350542865261
12.992,0.005889283922030599
12.996,0.005889115638230122
13.0,0.005889788773432029
13.004,0.005886976029909774
13.008000000000001,0.005889235840944748
13.012,0.0058928178818406125
13.016,0.005897169220110085
13.02,0.005900703179920099
13.024000000000001,0.005903900572129158
13.028,0.005905511288505152
13.032,0.005903612085614056
13.036,0.005901664801637109
13.040000000000001,0.005909886667317549
13.044,0.005924407155244408
13.048,0.005926811209536934
13.052,0.0059179402491975125
13.056000000000001,0.005902938950412148
13.06,0.00589125524655047
13.064,0.00590769897791135
13.068,0.005916858424765876
13.072000000000001,0.005910872329577485
13.076,0.005896207598393074
13.08,0.0058941641522444275
13.084,0.005902289855753166
13.088000000000001,0.005899164585172882
13.092,0.00589349101704252
13.096,0.005896231638936
13.1,0.005900871463720575
13.104000000000001,0.005906112302078283
13.108,0.0059019292476092874
13.112,0.005900775301548875
13.116,0.0059011359096927535
13.120000000000001,0.005900054085261117
13.124,0.0058944766793024555
13.128,0.0058817832726379155
13.132,0.005888755030086243
13.136000000000001,0.005919286519601327
13.14,0.005941475940721346
13.144,0.0059361148996490126
13.148,0.005923734020042501
13.152000000000001,0.0059176277221394845
13.156,0.005912987897354908
13.16,0.00590450158570229
13.164,0.0058904378680910115
13.168000000000001,0.005891591814151424
13.172,0.00589673649033743
13.176,0.005903131274755551
13.18,0.0059061363426212085
13.184000000000001,0.005906569072393863
13.188,0.005906545031850938
13.192,0.005907602815739649
13.196,0.0059013041934932306
13.200000000000001,0.005900703179920099
13.204,0.005903660166699906
13.208,0.005905030477646646
13.212,0.005913612951470965
13.216000000000001,0.005926282317592579
13.22,0.005923974425471754
13.224,0.005902698544982895
13.228,0.005879739826489268
13.232000000000001,0.005880701448206279
13.236,0.005888394421942364
13.24,0.0058966162876228035
13.244,0.0059003425717762195
13.248000000000001,0.0059024100584677925
13.252,0.005899765598746013
13.256,0.0059016888421800345
13.26,0.00590353996398528
13.264000000000001,0.005909189491572717
13.268,0.005912963856811983
13.272,0.005915560235447911
13.276,0.0059216665333509284
13.280000000000001,0.00591632953282152
13.284,0.005898227003998797
13.288,0.005883562272814385
13.292,0.0058817832726379155
13.296000000000001,0.005884716218874798
13.3,0.005886495219051268
13.304,0.005892841922383538
13.308,0.005894116071158577
13.312000000000001,0.005891687976323125
13.316,0.005890485949176862
13.32,0.005891832219580676
13.324,0.005894116071158577
13.328,0.005891904341209452
13.332,0.005890678273520264
13.336,0.005898539531056825
13.34,0.005903924612672084
13.344,0.005900919544806426
13.348,0.005900366612319145
13.352,0.005895606584819943
13.356,0.005891351408722171
13.36,0.0058907503951490395
13.364,0.005895895071335046
13.368,0.005906953721080667
13.372,0.005911593545865243
13.376,0.005902626423354119
13.38,0.005893755463014697
13.384,0.005884475813445546
13.388,0.005883177624127581
13.392,0.005882191961867645
13.396,0.005884788340503574
13.4,0.005887985732712635
13.404,0.005896159517307224
13.408,0.005902361977381942
13.412,0.0059089010050576134
13.416,0.0059046217884169165
13.42,0.005891687976323125
13.424,0.005892361111525033
13.428,0.005903395720727728
13.432,0.005907723018454276
13.436,0.0059027225855258205
13.44,0.005897481747168113
13.444,0.005899044382458255
13.448,0.00590176096380881
13.452,0.005902770666611671
13.456,0.005906713315651415
13.46,0.005907530694110873
13.464,0.0059047900722173936
13.468,0.005901616720551259
13.472,0.005902458139553643
13.476,0.005900510855576697
13.48,0.005897337503910562
13.484,0.0058993088284304334
13.488,0.005903684207242832
13.492,0.0058996213554884614
13.496,0.005903251477470176
13.5,0.005909718383517073
13.504,0.005902073490866838
13.508000000000001,0.0058886107868286915
13.512,0.00588942816528815
13.516,0.00589673649033743
13.52,0.005899573274402612
13.524000000000001,0.005899501152773836
13.528,0.005897794274226142
13.532,0.005891471611436798
13.536,0.005892144746638705
13.540000000000001,0.005894885368532185
13.544,0.005897529828253964
13.548,0.005904140977558411
13.552,0.005919791371002758
13.556000000000001,0.005920801073805619
13.56,0.005911088694463812
13.564,0.005905463207419301
13.568,0.00590399673430086
13.572000000000001,0.005905318964161749
13.576,0.005903179355841401
13.58,0.005894933449618035
13.584,0.005896015274049672
13.588000000000001,0.00589445263875953
13.592,0.005886903908280998
13.596,0.005888322300313588
13.6,0.005893851625186399
13.604000000000001,0.005899981963632341
13.608,0.005902482180096568
13.612,0.005901785004351736
13.616,0.00590221773412439
13.620000000000001,0.005903227436927251
13.624,0.0058997896392889385
13.628,0.0058996213554884614
13.632,0.005906713315651415
13.636000000000001,0.005914526492102125
13.64,0.005917844087025811
13.644,0.005913709113642666
13.648,0.005894885368532185
13.652000000000001,0.005889812813974955
13.656,0.00590084742317765
13.66,0.0058961354767642984
13.664,0.005879186894001987
13.668000000000001,0.005873248879899447
13.672,0.005883706516071938
13.676,0.005888250178684812
13.68,0.005895798909163345
13.684000000000001,0.00590450158570229
13.688,0.005899260747344583
13.692,0.005891399489808022
13.696,0.005895221936133139
13.700000000000001,0.00589673649033743
13.704,0.005897073057938384
13.708,0.00589993388254649
13.712,0.005902025409780988
13.716000000000001,0.005908179788769855
13.72,0.005918709546571121
13.724,0.0059261861554208775
13.728,0.005933782966985262
13.732000000000001,0.005931138507263482
13.736,0.00591226668106715
13.74,0.005885557637877183
13.744,0.00588038892114825
13.748000000000001,0.005886254813622016
13.752,0.005894116071158577
13.756,0.005898395287799274
13.76,0.005902746626068746
13.764000000000001,0.005902145612495614
13.768,0.0058996213554884614
13.772,0.005900366612319145
13.776,0.0059030831936697
13.780000000000001,0.005905198761447123
13.784,0.005899765598746013
13.788,0.0058989241797436295
13.792,0.005901809044894661
13.796000000000001,0.005909742424059998
13.8,0.005910944451206261
13.804,0.005896351841650626
13.808,0.005882768934897851
13.812000000000001,0.0058875049218541295
13.816,0.005916521857164922
13.82,0.005934239737300842
13.824,0.005931114466720557
13.828,0.0059200798575178605
13.832,0.005904982396560796
13.836,0.00590450158570229
13.84,0.005904453504616439
13.844,0.005902386017924867
13.848,0.0059021696530385396
13.852,0.005900703179920099
13.856,0.0059037563288716075
13.86,0.005907386450853322
13.864,0.005911569505322318
13.868,0.005912579208125179
13.872,0.00590947797808782
13.876,0.005905775734477329
13.88,0.0059058959371919555
13.884,0.005906112302078283
13.888,0.005907915342797678
13.892,0.005910944451206261
13.896,0.005908059586055229
13.9,0.005903660166699906
13.904,0.005901664801637109
13.908,0.00589399586844395
13.912,0.0058854374351625565
13.916,0.005889933016689581
13.92,0.005898010639112469
13.924,0.005907266248138696
13.928,0.005904429464073514
13.932,0.005903467842356504
13.936,0.0059014484367507815
13.94,0.005900222369061593
13.944,0.005898948220286555
13.948,0.005899501152773836
13.952,0.005906665234565564
13.956,0.005914839019160153
13.96,0.005913877397443143
13.964,0.005904717950588618
13.968,0.005898323166170498
13.972,0.005894620922560007
13.976,0.005892505354782584
13.98,0.0058886107868286915
13.984,0.005890317665376385
13.988,0.0058961354767642984
13.992,0.005901809044894661
13.996,0.0059011359096927535
14.0,0.005898539531056825
14.004,0.005896039314592597
14.008000000000001,0.005896832652509131
14.012,0.00589988580146064
14.016,0.00590582381556318
14.02,0.005905799775020254
14.024000000000001,0.005914598613730901
14.028,0.005919094195257925
14.032,0.005909333734830268
14.036,0.0058891637193159724
14.040000000000001,0.005881374583408186
14.044,0.005891038881664143
14.048,0.0058900291788612814
14.052,0.005888346340856513
14.056000000000001,0.005889764732889104
14.06,0.005887697246197531
14.064,0.005891351408722171
14.068,0.00589902034191533
14.072000000000001,0.005901544598922483
14.076,0.005899525193316761
14.08,0.005899957923089416
14.084,0.005902818747697522
14.088000000000001,0.00590039065286207
14.092,0.005906184423707059
14.096,0.00590952605917367
14.1,0.005909405856459044
14.104000000000001,0.005910559802519456
14.108,0.005906232504792909
14.112,0.0059022417746673154
14.116,0.005907819180625977
14.120000000000001,0.005900991666435202
14.124,0.005900270450147444
14.128,0.005900102166346967
14.132,0.005886399056879567
14.136000000000001,0.005880412961691175
14.14,0.005883514191728534
14.144,0.005891111003292919
14.148,0.005891952422295303
14.152000000000001,0.005893106368355715
14.156,0.005897217301195935
14.16,0.005899260747344583
14.164,0.0059016888421800345
14.168000000000001,0.0059008955042635005
14.172,0.005899453071687985
14.176,0.005902626423354119
14.18,0.005911401221521841
14.184000000000001,0.005917098830195128
14.188,0.005909838586231698
14.192,0.005896688409251579
14.196,0.005890509989719787
14.200000000000001,0.005892697679125986
14.204,0.005892048584467004
14.208,0.005884307529645069
14.212,0.005886038448735688
14.216000000000001,0.005889764732889104
14.22,0.0058936833413859215
14.224,0.005897265382281786
14.228,0.005898130841827096
14.232000000000001,0.005898803977029003
14.236,0.005899765598746013
14.24,0.005902025409780988
14.244,0.005902698544982895
14.248000000000001,0.005904381382987664
14.252,0.005907434531939172
14.256,0.005913612951470965
14.26,0.005923469574070323
14.264000000000001,0.005925753425648223
14.268,0.0059186614654852705
14.272,0.005918324897884316
14.276,0.005908299991484482
14.280000000000001,0.005887961692169709
14.284,0.005872816150126792
14.288,0.005881422664494037
14.292,0.0058918562601236015
14.296000000000001,0.005894260314416128
14.3,0.005894308395501978
14.304,0.005892024543924079
14.308,0.005890774435691965
14.312000000000001,0.005892601516954285
14.316,0.005894356476587829
14.32,0.00589349101704252
14.324,0.005896952855223758
14.328000000000001,0.005900943585349351
14.332,0.005898731855400227
14.336,0.005894837287446334
14.34,0.005903660166699906
14.344,0.005921570371179227
14.348,0.005921786736065555
14.352,0.005900366612319145
14.356,0.005873897974558429
14.36,0.005872359379811213
14.364,0.00588714431371025
14.368,0.005895846990249196
14.372,0.005900294490690369
14.376,0.005907626856282574
14.38,0.005905222801990048
14.384,0.005900318531233294
14.388,0.005896976895766683
14.392,0.005900727220463024
14.396,0.005905992099363657
14.4,0.00590947797808782
14.404,0.005913204262241236
14.408,0.005918877830371597
14.412,0.005927484344738842
14.416,0.005931595277579062
14.42,0.005930441331518649
14.424,0.005916642059879548
14.428,0.005908179788769855
14.432,0.005905102599275422
14.436,0.0058931304088986405
14.44,0.005883393989013908
14.444,0.005887048151538549
14.448,0.005889067557144271
14.452,0.005888033813798485
14.456,0.005889524327459851
14.46,0.005896255679478925
14.464,0.005898275085084647
14.468,0.005899164585172882
14.472,0.005895173855047288
14.476,0.005892240908810406
14.48,0.005896928814680832
14.484,0.005912699410839805
14.488,0.00592637847976428
14.492,0.0059311865883493325
14.496,0.005932917507439952
14.5,0.00593359064264186
14.504,0.00593359064264186
14.508000000000001,0.0059350811563032265
14.512,0.005928974858400209
14.516,0.005923060884840593
14.52,0.005913372546041713
14.524000000000001,0.005905102599275422
14.528,0.0059013041934932306
14.532,0.005898178922912946
14.536,0.005889283922030599
14.540000000000001,0.005889043516601346
14.544,0.005895053652332662
14.548,0.005895919111877972
14.552,0.005900318531233294
14.556000000000001,0.005910295356547279
14.56,0.005919046114172074
14.564,0.005912579208125179
14.568,0.005905222801990048
14.572000000000001,0.005904669869502767
14.576,0.005906472910222162
14.58,0.005901544598922483
14.584,0.005902049450323913
14.588000000000001,0.005908756761800062
14.592,0.005924815844474138
14.596,0.005931378912692735
14.6,0.005914165883958246
14.604000000000001,0.005898154882370021
14.608,0.005895125773961438
14.612,0.005895678706448719
14.616,0.0059011359096927535
14.620000000000001,0.005910511721433606
14.624,0.005913468708213413
14.628,0.0059057276533914784
14.632,0.00590221773412439
14.636000000000001,0.005900607017748398
14.64,0.00589897226082948
14.644,0.00589988580146064
14.648,0.005900655098834248
14.652000000000001,0.005905439166876376
14.656,0.0058983712472563486
14.66,0.0059021696530385396
14.664,0.005908708680714211
14.668000000000001,0.005901328234036156
14.672,0.005897169220110085
14.676,0.005900438733947921
14.68,0.005899092463544106
14.684000000000001,0.005894693044188783
14.688,0.005896159517307224
14.692,0.005899380950059209
14.696,0.005900126206889893
14.700000000000001,0.00590221773412439
14.704,0.005905559369591002
14.708,0.005903371680184803
14.712,0.00588942816528815
14.716000000000001,0.005889307962573524
14.72,0.005893274652156192
14.724,0.005893154449441566
14.728,0.005895245976676064
14.732000000000001,0.005900558936662547
14.736,0.005901183990778604
14.74,0.005897794274226142
14.744,0.005895005571246811
14.748000000000001,0.00589577486862042
14.752,0.005902914909869223
14.756,0.00590769897791135
14.76,0.005914165883958246
14.764000000000001,0.005921642492808003
14.768,0.005917050749109277
14.772,0.0059000300447181915
14.776,0.005887432800225354
14.780000000000001,0.005889259881487674
14.784,0.005897722152597366
14.788,0.005900943585349351
14.792,0.005895053652332662
14.796000000000001,0.005895005571246811
14.8,0.0059030831936697
14.804,0.005905294923618824
14.808,0.005899573274402612
14.812000000000001,0.005897722152597366
14.816,0.005894116071158577
14.82,0.0058985154905138995
14.824,0.005901977328695138
14.828000000000001,0.005904549666788141
14.832,0.005907458572482097
14.836,0.005914117802872395
14.84,0.0059118339512944955
14.844000000000001,0.005898876098657779
14.848,0.0059000300447181915
14.852,0.0059076508968255
14.856,0.005906352707507535
14.86,0.005902842788240447
14.864,0.005901520558379557
14.868,0.005897385584996412
14.872,0.005892529395325509
14.876,0.0058939477873581
14.88,0.005896712449794505
14.884,0.005896496084908178
14.888,0.0059077951400830515
14.892,0.00591130505935014
14.896,0.0059038284505003825
14.9,0.005896255679478925
14.904,0.005893034246726939
14.908,0.005898611652685601
14.912,0.005907891302254753
14.916,0.0059145024515592
14.92,0.005915391951647434
14.924,0.005914790938074303
14.928,0.005916858424765876
14.932,0.0059093818159161185
14.936,0.005908227869855706
14.94,0.005910752126862859
14.944,0.005905847856106105
14.948,0.005900967625892276
14.952,0.005901809044894661
14.956,0.005900054085261117
14.96,0.005891928381752377
14.964,0.0058898849356037305
14.968,0.00589399586844395
14.972,0.005895846990249196
14.976,0.005894067990072726
14.98,0.005898299125627573
14.984,0.00589993388254649
14.988,0.00589531809830484
14.992,0.005891832219580676
14.996,0.005900775301548875
15.0,0.005905150680361272
15.004,0.005903780369414533
15.008000000000001,0.005904092896472561
15.012,0.0059016888421800345
15.016,0.005901496517836632
15.02,0.005912242640524225
15.024000000000001,0.00591592084359179
15.028,0.005910535761976531
15.032,0.0059117618296657196
15.036,0.0059123147621530005
15.040000000000001,0.005904814112760319
15.044,0.005899044382458255
15.048,0.005902121571952689
15.052,0.005903491882899429
15.056000000000001,0.005910223234918503
15.06,0.005917002668023428
15.064,0.005913204262241236
15.068,0.005907747058997201
15.072000000000001,0.005904092896472561
15.076,0.0059053670452476
15.08,0.005906280585878759
15.084,0.005907170085966995
15.088000000000001,0.0059109684917491865
15.092,0.005907939383340603
15.096,0.005907073923795293
15.1,0.0059086605996283605
15.104000000000001,0.0059077951400830515
15.108,0.005917435397796082
15.112,0.005914238005587022
15.116,0.0059048621938461695
15.120000000000001,0.005893154449441566
15.124,0.005888346340856513
15.128,0.005894284354959053
15.132,0.005918541262770644
15.136000000000001,0.00594176442723645
15.14,0.00593185972355124
15.144,0.005916690140965399
15.148,0.005913444667670488
15.152000000000001,0.005914478411016275
15.156,0.0059200077358890855
15.16,0.0059150073029606304
15.164,0.005908708680714211
15.168000000000001,0.005904838153303244
15.172,0.005902025409780988
15.176,0.005904549666788141
15.18,0.005910319397090204
15.184000000000001,0.0059136610325568155
15.188,0.005913372546041713
15.192,0.005914478411016275
15.196,0.00591363699201389
15.200000000000001,0.005908949086143464
15.204,0.005909045248315165
15.208,0.005910223234918503
15.212,0.005914790938074303
15.216000000000001,0.005915391951647434
15.22,0.0059133485054987875
15.224,0.005911016572835037
15.228,0.005915512154362061
15.232000000000001,0.005926955452794486
15.236,0.0059290469800289845
15.24,0.005927316060938365
15.244,0.005919046114172074
15.248000000000001,0.005902289855753166
15.252,0.005892914044012314
15.256,0.005903660166699906
15.26,0.005912771532468581
15.264000000000001,0.005918204695169691
15.268,0.005916810343680025
15.272,0.005905270883075899
15.276,0.005896688409251579
15.280000000000001,0.00590267450443997
15.284,0.005903107234212625
15.288,0.00590491027493202
15.292,0.005909862626774624
15.296000000000001,0.005910271316004354
15.3,0.005912507086496403
15.304,0.0059154881138191355
15.308,0.005912963856811983
15.312000000000001,0.0059104155592619055
15.316,0.0059099347484033995
15.32,0.005911593545865243
15.324,0.0059131081000695345
15.328000000000001,0.005912843654097356
15.332,0.005912627289211029
15.336,0.005909309694287343
15.34,0.005904766031674468
15.344000000000001,0.005907049883252368
15.348,0.00591043959980483
15.352,0.005909141410486866
15.356,0.005910992532292112
15.36,0.005909429897001969
15.364,0.0059093818159161185
15.368,0.005911545464779393
15.372,0.005912771532468581
15.376,0.005913084059526609
15.38,0.005919839452088608
15.384,0.0059349609535886
15.388,0.005929455669258714
15.392,0.005909093329401016
15.396,0.005894548800931231
15.4,0.005892769800754762
15.404,0.005897986598569544
15.408,0.005901736923265885
15.412,0.0059038284505003825
15.416,0.0059038284505003825
15.42,0.005906545031850938
15.424,0.005906376748050461
15.428,0.005897938517483693
15.432,0.005901087828606903
15.436,0.005909550099716596
15.44,0.00592044046566174
15.444,0.005923902303842978
15.448,0.005916497816621996
15.452,0.005919815411545683
15.456,0.005928133439397824
15.46,0.005917892168111662
15.464,0.005910824248491635
15.468,0.0059179402491975125
15.472,0.00591135314043599
15.476,0.005897337503910562
15.48,0.005894765165817559
15.484,0.0058970970984813095
15.488,0.0059008955042635005
15.492,0.00590404481538671
15.496,0.005903684207242832
15.5,0.005898154882370021
15.504,0.00589714517956716
15.508000000000001,0.005901063788063978
15.512,0.00590353996398528
15.516,0.00590358804507113
15.52,0.005904213099187187
15.524000000000001,0.005909790505145849
15.528,0.005911665667494018
15.532,0.005908876964514688
15.536,0.005904237139730113
15.540000000000001,0.0059022417746673154
15.544,0.005901015706978127
15.548,0.005912459005410552
15.552,0.0059254649391331194
15.556000000000001,0.00591861338439942
15.56,0.005914430329930424
15.564,0.00591180991075157
15.568,0.005907891302254753
15.572000000000001,0.005900006004175266
15.576,0.005902987031497999
15.58,0.005907891302254753
15.584,0.0059051747209041975
15.588000000000001,0.005902049450323913
15.592,0.005904934315474945
15.596,0.005910151113289727
15.6,0.005914646694816751
15.604000000000001,0.005918733587114046
15.608,0.005922820479411341
15.612,0.005918685506028196
15.616,0.005897938517483693
15.620000000000001,0.005891591814151424
15.624,0.0058920966655528545
15.628,0.0058922649493533315
15.632,0.0058979625580266185
15.636000000000001,0.00590683351836604
15.64,0.005907146045424069
15.644,0.005902482180096568
15.648,0.005902554301725344
15.652000000000001,0.005909189491572717
15.656,0.005911545464779393
15.66,0.005913084059526609
15.664,0.005916233370649819
15.668000000000001,0.0059151755867611075
15.672,0.005914430329930424
15.676,0.005916353573364445
15.68,0.005919286519601327
15.684000000000001,0.005921474209007526
15.688,0.0059243590741585575
15.692,0.005929816277402592
15.696,0.005931306791063959
15.700000000000001,0.005934720548159347
15.704,0.005929816277402592
15.708,0.005917603681596559
15.712,0.0059205606683763665
15.716000000000001,0.005919286519601327
15.72,0.005910006870032175
15.724,0.005907939383340603
15.728,0.005907218167052845
15.732000000000001,0.005900967625892276
15.736,0.005902073490866838
15.74,0.005906593112936788
15.744,0.005910872329577485
15.748000000000001,0.005911593545865243
15.752,0.005899404990602135
15.756,0.005893515057585445
15.76,0.005898779936486078
15.764000000000001,0.00591729115453853
15.768,0.005933157912869205
15.772,0.005935850453676834
15.776,0.005935033075217376
15.780000000000001,0.005935441764447105
15.784,0.005939264210772222
15.788,0.005932268412780969
15.792,0.005916017005763491
15.796000000000001,0.005909790505145849
15.8,0.005912026275637898
15.804,0.005914165883958246
15.808,0.0059123868837817764
15.812000000000001,0.005909141410486866
15.816,0.0059101751538326525
15.82,0.005909886667317549
15.824,0.005912771532468581
15.828000000000001,0.005914117802872395
15.832,0.005913060018983684
15.836,0.005921955019866031
15.84,0.005934191656214991
15.844000000000001,0.0059315712370361364
15.848,0.005916233370649819
15.852,0.0059075547346537985
15.856,0.005908396153656183
15.860000000000001,0.005917988330283363
15.864,0.005916161249021043
15.868,0.005909598180802446
15.872,0.005910583843062382
15.876,0.005907530694110873
15.88,0.005913925478528994
15.884,0.005911641626951093
15.888,0.005906232504792909
15.892,0.005906112302078283
15.896,0.005906977761623592
15.9,0.005905679572305628
15.904,0.005906617153479714
15.908,0.0059086605996283605
15.912,0.00590998282948925
15.916,0.0059086605996283605
15.92,0.005907602815739649
15.924,0.005906496950765087
15.928,0.005918781668199897
15.932,0.005926691006822308
15.936,0.005920151979146636
15.94,0.005914310127215798
15.944,0.005912747491925656
15.948,0.005911208897178439
15.952,0.005905294923618824
15.956,0.005908251910398631
15.96,0.005914310127215798
15.964,0.005912459005410552
15.968,0.005899380950059209
15.972,0.005894356476587829
15.976,0.005901568639465408
15.98,0.005905631491219777
15.984,0.005907146045424069
15.988,0.005909189491572717
15.992,0.005905919977734881
15.996,0.005904140977558411
16.0,0.00591043959980483
16.004,0.005909574140259521
16.008,0.00590947797808782
16.012,0.005914478411016275
16.016000000000002,0.00591911823580085
16.02,0.005918228735712616
16.024,0.005908420194199108
16.028,0.005907747058997201
16.032,0.00590353996398528
16.036,0.005903107234212625
16.04,0.005913084059526609
16.044,0.005920176019689562
16.048000000000002,0.005911160816092588
16.052,0.005899525193316761
16.056,0.005898539531056825
16.06,0.005902025409780988
16.064,0.005907506653567948
16.068,0.0059096222213453715
16.072,0.0059123147621530005
16.076,0.005911256978264289
16.080000000000002,0.005911857991837421
16.084,0.005919358641230103
16.088,0.005921281884664124
16.092,0.005915512154362061
16.096,0.005916257411192744
16.1,0.005923661898413725
16.104,0.005929407588172863
16.108,0.0059211136008636474
16.112000000000002,0.005914430329930424
16.116,0.00590815574822693
16.12,0.005912483045953478
16.124,0.005923878263300052
16.128,0.005916353573364445
16.132,0.0059005829772054725
16.136,0.00589308232781279
16.14,0.005896520125451103
16.144000000000002,0.005905078558732496
16.148,0.00590399673430086
16.152,0.0059054151263334504
16.156,0.005908372113113258
16.16,0.005910992532292112
16.164,0.005909862626774624
16.168,0.00591039151871898
16.172,0.0059122185999813
16.176000000000002,0.0059127955730115065
16.18,0.005914790938074303
16.184,0.005916017005763491
16.188,0.0059254649391331194
16.192,0.00593003264228892
16.196,0.005939889264888279
16.2,0.005940009467602905
16.204,0.005916089127392267
16.208000000000002,0.005900631058291323
16.212,0.005894620922560007
16.216,0.005902193693581465
16.22,0.005908852923971763
16.224,0.005904453504616439
16.228,0.0059003425717762195
16.232,0.00589760194988274
16.236,0.0058990684230011805
16.240000000000002,0.005899140544629956
16.244,0.005900054085261117
16.248,0.00590673735619434
16.252,0.005903395720727728
16.256,0.005902650463897045
16.26,0.005907073923795293
16.264,0.005913468708213413
16.268,0.00591911823580085
16.272000000000002,0.005911930113466197
16.276,0.005911545464779393
16.28,0.005918757627656972
16.284,0.005926570804107682
16.288,0.00591632953282152
16.292,0.0058994771122309105
16.296,0.005905559369591002
16.3,0.005912915775726132
16.304000000000002,0.005913709113642666
16.308,0.00591039151871898
16.312,0.005906304626421685
16.316,0.005913156181155385
16.32,0.005920921276520245
16.324,0.005921378046835825
16.328,0.005922820479411341
16.332,0.005930393250432799
16.336000000000002,0.005935057115760301
16.34,0.005931306791063959
16.344,0.00592181077660848
16.348,0.005920344303490039
16.352,0.005924118668729305
16.356,0.005925488979676045
16.36,0.005920921276520245
16.364,0.005930008601745995
16.368000000000002,0.005930898101834229
16.372,0.005921570371179227
16.376,0.005914742856988452
16.38,0.005917820046482886
16.384,0.005920969357606096
16.388,0.005912699410839805
16.392,0.005901520558379557
16.396,0.005909958788946325
16.4,0.005934912872502749
16.404,0.005951909536350911
16.408,0.005964290415957421
16.412,0.005961333429177614
16.416,0.005951260441691929
16.42,0.005943615549041694
16.424,0.005940129670317531
16.428,0.005935513886075881
16.432,0.005930369209889873
16.436,0.005922892601040117
16.44,0.005920488546747591
16.444,0.005924310993072707
16.448,0.0059317395208366135
16.452,0.0059346003454447205
16.456,0.0059383266295981365
16.46,0.005942389481352507
16.464,0.005941884629951075
16.468,0.005939961386517055
16.472,0.005935321561732479
16.476,0.00593236457495267
16.48,0.005926306358135504
16.484,0.005918925911457448
16.488,0.0059229406821259675
16.492,0.005924695641759512
16.496,0.005926811209536934
16.5,0.005928686371885105
16.504,0.005929191223286535
16.508,0.005930585574776201
16.512,0.0059306336558620516
16.516000000000002,0.005929816277402592
16.52,0.005933999331871589
16.524,0.005940346035203859
16.528,0.005940105629774606
16.532,0.005944577170758705
16.536,0.005943375143612442
16.54,0.005926114033792102
16.544,0.005914863059703079
16.548000000000002,0.005918949952000373
16.552,0.005926666966279383
16.556,0.005927893033968571
16.56,0.005930898101834229
16.564,0.005934383980558394
