time,channel4
0.0,0.0014366388046708272
0.004,0.0014307729121970628
0.008,0.0014280082497606574
0.012,0.0014316383717423722
0.016,0.0014348357639514325
0.02,0.0014280322903035827
0.024,0.0014217096275142384
0.028,0.0014268062226143942
0.032,0.0014310133176263153
0.036000000000000004,0.0014383216426755957
0.04,0.001440365088824243
0.044,0.0014398842779657377
0.048,0.0014414949943417302
0.052000000000000005,0.0014390428589633535
0.056,0.0014388745751628767
0.06,0.0014453414812097725
0.064,0.0014538518334053158
0.068,0.0014568569012709737
0.07200000000000001,0.0014542845631779708
0.076,0.0014503178735953022
0.08,0.0014463031029267833
0.084,0.0014458463326112029
0.088,0.001451664143999117
0.092,0.0014571694283290022
0.096,0.0014562078066119918
0.1,0.0014529863738600064
0.10400000000000001,0.0014528902116883054
0.108,0.001455967401182739
0.112,0.0014589243879625465
0.116,0.0014571213472431518
0.12,0.001455053860551579
0.124,0.0014598379285937066
0.128,0.0014589243879625465
0.132,0.001454500928064298
0.136,0.0014564722525841696
0.14,0.0014598138880507813
0.14400000000000002,0.0014605351043385391
0.148,0.001460246617823436
0.152,0.0014589003474196212
0.156,0.0014580829689601622
0.16,0.0014572896310436287
0.164,0.001456953063442675
0.168,0.0014538758739482411
0.17200000000000001,0.0014551259821803549
0.176,0.001456953063442675
0.18,0.0014561597255261412
0.184,0.0014575300364728812
0.188,0.0014517122250849676
0.192,0.0014473368462725696
0.196,0.0014453655217526978
0.2,0.0014511833331406117
0.20400000000000001,0.0014634199694895707
0.20800000000000002,0.0014648864426080118
0.212,0.0014595494420786032
0.216,0.001465006645322638
0.22,0.0014614005638838485
0.224,0.001458323374389415
0.228,0.0014575540770158065
0.232,0.0014571934688719275
0.23600000000000002,0.0014553904281525327
0.24,0.0014569049823568243
0.244,0.0014584435771040412
0.248,0.0014612803611692223
0.252,0.0014667135238703318
0.256,0.0014681319159029222
0.26,0.0014696464701072138
0.264,0.0014699109160793919
0.268,0.0014689733349053065
0.272,0.00147022344313742
0.276,0.001472387092000694
0.28,0.0014736612407757331
0.28400000000000003,0.001474310335434715
0.28800000000000003,0.0014726274974299468
0.292,0.001468372321332175
0.296,0.0014689973754482318
0.3,0.0014682280780746234
0.304,0.0014661365508401255
0.308,0.0014647662398933855
0.312,0.0014656557399816202
0.316,0.0014606553070531654
0.32,0.001457409833758255
0.324,0.0014541162793774939
0.328,0.0014494283735070675
0.332,0.0014466156299848118
0.336,0.0014610639962828948
0.34,0.0014954419726660219
0.34400000000000003,0.0015363349361818951
0.34800000000000003,0.0015833341976007854
0.352,0.0016247560530610148
0.356,0.0016299007292470212
0.36,0.0016221596744250863
0.364,0.0016083363622430597
0.368,0.001579463670189818
0.372,0.0015482109643869754
0.376,0.0015258051783806298
0.38,0.0015048418249497997
0.384,0.0014890952693337523
0.388,0.0014791905656485436
0.392,0.0014721947676572921
0.396,0.001466449077898154
0.4,0.0014626747126588876
0.404,0.0014676751455873422
0.40800000000000003,0.0014671702941859118
0.41200000000000003,0.0014624823883154854
0.41600000000000004,0.0014622419828862329
0.42,0.0014712571864832068
0.424,0.0014718101189704878
0.428,0.0014653432129235918
0.432,0.0014626025910301117
0.436,0.0014605831854243897
0.44,0.0014585397392757422
0.444,0.001459333077192276
0.448,0.0014615688476843254
0.452,0.0014617611720277276
0.456,0.0014611361179116707
0.46,0.0014560876038973655
0.464,0.001454861536208177
0.468,0.0014557991173822621
0.47200000000000003,0.0014545490091501486
0.47600000000000003,0.001449837062736797
0.48,0.0014419036835714599
0.484,0.0014386582102765492
0.488,0.0014421681295436377
0.492,0.0014552702254379065
0.496,0.0014579146851596853
0.5,0.0014565203336700202
0.504,0.0014530104144029317
0.508,0.0014495485762216938
0.512,0.00145058231956748
0.516,0.0014514477791127895
0.52,0.0014521449548576223
0.524,0.0014499813059943485
0.528,0.001445197237952221
0.532,0.0014398842779657377
0.536,0.001437360020958585
0.54,0.001436614764127902
0.544,0.0014345713179792546
0.548,0.0014309171554546143
0.552,0.001426686019899768
0.556,0.0014236328709482595
0.56,0.0014265898577280668
0.5640000000000001,0.001428056330846508
0.5680000000000001,0.0014256522765539817
0.5720000000000001,0.0014283928984474615
0.5760000000000001,0.0014316143311994469
0.58,0.0014313979663131194
0.584,0.0014306767500253616
0.588,0.0014320951420579522
0.592,0.0014342107098353756
0.596,0.0014376004263878376
0.6,0.001437456183130286
0.604,0.0014409420618544493
0.608,0.001444668346007865
0.612,0.0014457742109824272
0.616,0.0014438269270054809
0.62,0.0014394034671072324
0.624,0.0014405814537105704
0.628,0.0014475772517018222
0.632,0.0014468800759569896
0.636,0.0014506784817391813
0.64,0.0014581310500460128
0.644,0.001455414468695458
0.648,0.0014505582790245548
0.652,0.0014512794953123128
0.656,0.0014521930359434727
0.66,0.0014565924552987959
0.664,0.001459164793391799
0.668,0.001460342779995137
0.672,0.0014610399557399697
0.676,0.0014610399557399697
0.68,0.001459236915020575
0.684,0.001458058928417237
0.6880000000000001,0.0014602225772805107
0.6920000000000001,0.0014629631991739907
0.6960000000000001,0.0014597658069649307
0.7000000000000001,0.0014561597255261412
0.704,0.0014519285899712948
0.708,0.0014523853602868748
0.712,0.0014528421306024548
0.716,0.0014574338743011802
0.72,0.0014529863738600064
0.724,0.0014500534276231244
0.728,0.001449933224908498
0.732,0.0014509669682542844
0.736,0.0014537556712336148
0.74,0.0014575781175587318
0.744,0.0014620256179999054
0.748,0.0014642133074061043
0.752,0.0014625064288584107
0.756,0.0014580829689601622
0.76,0.001453491225261437
0.764,0.0014528902116883054
0.768,0.0014548374956652517
0.772,0.0014563520498695433
0.776,0.0014571213472431518
0.78,0.0014564482120412443
0.784,0.0014576021581016569
0.788,0.0014573857932153296
0.792,0.0014564001309553937
0.796,0.0014552702254379065
0.8,0.0014556789146676359
0.804,0.0014594773204498275
0.808,0.0014634680505754211
0.812,0.0014601504556517348
0.8160000000000001,0.0014591407528488738
0.8200000000000001,0.0014629631991739907
0.8240000000000001,0.0014678674699307444
0.8280000000000001,0.0014682280780746234
0.8320000000000001,0.0014628189559164392
0.836,0.001457241549957778
0.84,0.0014586839825332938
0.844,0.0014587320636191444
0.848,0.0014575781175587318
0.852,0.0014565924552987959
0.856,0.0014554385092383833
0.86,0.0014537075901477643
0.864,0.001449740900565096
0.868,0.0014547894145794011
0.872,0.0014581310500460128
0.876,0.0014561116444402906
0.88,0.0014550057794657286
0.884,0.0014529382927741558
0.888,0.0014511592925976864
0.892,0.0014506784817391813
0.896,0.0014552702254379065
0.9,0.0014578185229879843
0.904,0.0014584916581898918
0.908,0.0014575781175587318
0.912,0.0014611361179116707
0.916,0.0014633718884037202
0.92,0.001463996942519777
0.924,0.001465078766951414
0.928,0.001464549875007058
0.932,0.0014630593613456917
0.936,0.0014639248208910011
0.9400000000000001,0.001468300199703399
0.9440000000000001,0.0014681078753599971
0.9480000000000001,0.0014611120773687454
0.9520000000000001,0.0014561597255261412
0.9560000000000001,0.0014623141045150086
0.96,0.001467458780701015
0.964,0.0014671462536429865
0.968,0.0014591167123059485
0.972,0.0014587561041620697
0.976,0.0014655114967240686
0.98,0.0014682761591604738
0.984,0.001462073699085756
0.988,0.0014593090366493507
0.992,0.0014577704419021338
0.996,0.0014511833331406117
1.0,0.001444283697321061
1.004,0.0014438509675484062
1.008,0.0014556548741247106
1.012,0.0014908502289672967
1.016,0.0015293150976477183
1.02,0.0015697272503050863
1.024,0.0016063409971802628
1.028,0.0016091537407025185
1.032,0.0016016530913098364
1.036,0.0015969651854394102
1.04,0.00157371798043068
1.044,0.0015447010451198869
1.048,0.0015301805571930277
1.052,0.0015088085145324684
1.056,0.0014901049721366135
1.06,0.0014793828899919458
1.064,0.0014727717406874984
1.068,0.0014687088889331287
1.072,0.0014676511050444171
1.076,0.0014686608078472781
1.08,0.0014657038210674708
1.084,0.0014636603749188233
1.088,0.0014628189559164392
1.092,0.0014617371314848023
1.096,0.0014601504556517348
1.1,0.0014601264151088097
1.104,0.0014608476313965676
1.108,0.0014569771039856002
1.112,0.001451760306170818
1.116,0.0014452212784951462
1.12,0.0014552461848949812
1.124,0.001464621996635834
1.1280000000000001,0.0014643815912065811
1.1320000000000001,0.001457241549957778
1.1360000000000001,0.0014574819553870306
1.1400000000000001,0.0014588522663337706
1.1440000000000001,0.001456880941813899
1.1480000000000001,0.0014581070095030875
1.1520000000000001,0.001457962766245536
1.156,0.0014582031716747885
1.16,0.0014564482120412443
1.164,0.0014556308335817855
1.168,0.001455775076839337
1.172,0.0014547172929506255
1.176,0.0014512794953123128
1.18,0.0014492360491636653
1.184,0.001449284130249516
1.188,0.0014498611032797222
1.192,0.0014461588596692313
1.196,0.0014418556024856093
1.2,0.0014362541559840229
1.204,0.0014289217903918174
1.208,0.0014288015876771911
1.212,0.0014332250475754395
1.216,0.0014324076691159806
1.22,0.0014297151283083512
1.224,0.00143007573645223
1.228,0.0014358454667542935
1.232,0.0014409420618544493
1.236,0.0014393794265643073
1.24,0.001432984642146187
1.244,0.00142824865518991
1.248,0.0014263494522988142
1.252,0.0014265417766422164
1.256,0.0014324797907447563
1.26,0.0014350280882948344
1.264,0.0014321913042296532
1.268,0.0014337779800627207
1.272,0.001435605061325041
1.276,0.0014336096962622438
1.28,0.0014330808043178879
1.284,0.0014405814537105704
1.288,0.0014476734138735234
1.292,0.001447841697674
1.296,0.0014463031029267833
1.3,0.001446375224555559
1.304,0.0014443317784069115
1.308,0.00144373076483378
1.312,0.001446904116499915
1.316,0.0014519766710571454
1.32,0.0014563520498695433
1.324,0.0014541643604633443
1.328,0.0014522651575722485
1.332,0.0014545490091501486
1.336,0.0014550057794657286
1.34,0.0014546451713218496
1.344,0.0014525296035444264
1.348,0.0014512794953123128
1.352,0.0014479378598457012
1.356,0.0014500774681660497
1.36,0.0014512554547693875
1.364,0.001448274427446655
1.368,0.001447192603015018
1.372,0.001450389995224078
1.3760000000000001,0.0014489716031914875
1.3800000000000001,0.0014458222920682778
1.3840000000000001,0.0014456059271819503
1.3880000000000001,0.0014473368462725696
1.3920000000000001,0.001450029387080199
1.3960000000000001,0.0014524094008298001
1.4000000000000001,0.0014535633468902127
1.4040000000000001,0.001454404765892597
1.408,0.00145103908988306
1.412,0.0014452693595809966
1.416,0.0014479378598457012
1.42,0.0014548855767511023
1.424,0.001453947995577017
1.428,0.0014521449548576223
1.432,0.0014471685624720928
1.436,0.0014476974544164484
1.44,0.0014540922388345686
1.444,0.0014522651575722485
1.448,0.0014516401034561917
1.452,0.0014538277928623907
1.456,0.0014536835496048392
1.46,0.0014535633468902127
1.464,0.0014533950630897358
1.468,0.0014528902116883054
1.472,0.0014539720361199423
1.476,0.001455486590324234
1.48,0.0014531786982034086
1.484,0.0014528421306024548
1.488,0.0014533469820038854
1.492,0.0014515439412844907
1.496,0.0014536354685189886
1.5,0.0014533710225468107
1.504,0.001445389562295623
1.508,0.0014421440890007124
1.512,0.0014438028864625556
1.516,0.0014442596567781356
1.52,0.0014469521975857653
1.524,0.0014481782652749537
1.528,0.0014480340220174022
1.532,0.0014476253327876728
1.536,0.001440365088824243
1.54,0.0014372878993298092
1.544,0.001435893547840144
1.548,0.0014382976021326704
1.552,0.0014441394540635093
1.556,0.0014476253327876728
1.56,0.0014489475626485622
1.564,0.0014496447383933948
1.568,0.0014513516169410885
1.572,0.0014501495897948254
1.576,0.0014509188871684338
1.58,0.0014538999144911664
1.584,0.0014558952795539633
1.588,0.001458251252760639
1.592,0.001459333077192276
1.596,0.0014606793475960907
1.6,0.0014594773204498275
1.604,0.001457049225614376
1.608,0.0014533950630897358
1.612,0.0014522411170293232
1.616,0.0014576502391875075
1.62,0.001463900780348076
1.624,0.001466545240069855
1.6280000000000001,0.0014695743484784381
1.6320000000000001,0.001469742632278915
1.6360000000000001,0.0014636122938329727
1.6400000000000001,0.001459068631220098
1.6440000000000001,0.0014579868067884612
1.6480000000000001,0.00145971772587908
1.6520000000000001,0.0014581070095030875
1.6560000000000001,0.0014557991173822621
1.6600000000000001,0.0014532748603751095
1.6640000000000001,0.0014456780488107262
1.668,0.0014394034671072324
1.672,0.0014419277241143852
1.676,0.0014624583477725601
1.68,0.001499192297362363
1.684,0.0015437875044887269
1.688,0.0015832620759720095
1.692,0.0015944649689751827
1.696,0.0015816273190530916
1.7,0.0015619861954831516
1.704,0.001539412125676329
1.708,0.0015116933796835
1.712,0.001491811850684307
1.716,0.001475392159866352
1.72,0.0014612082395404464
1.724,0.00146017449619466
1.728,0.0014619294558282044
1.732,0.0014585878203615928
1.736,0.0014563520498695433
1.74,0.001456424171498319
1.744,0.0014522411170293232
1.748,0.0014532989009180348
1.752,0.0014575300364728812
1.756,0.0014566645769275718
1.76,0.001456039522811515
1.764,0.0014572175094148528
1.768,0.0014534431441755864
1.772,0.0014513516169410885
1.776,0.0014547653740364758
1.78,0.0014552221443520559
1.784,0.0014507265628250316
1.788,0.0014511592925976864
1.792,0.0014495966573075444
1.796,0.00144738492735842
1.8,0.0014464713867272602
1.804,0.0014452693595809966
1.808,0.001449476454592918
1.812,0.00144921200862074
1.816,0.0014429133863743209
1.82,0.0014430576296318724
1.824,0.0014540681982916433
1.828,0.001453034454945857
1.832,0.0014513756574840138
1.836,0.0014492360491636653
1.84,0.001446447346184335
1.844,0.0014455097650102494
1.848,0.0014457742109824272
1.852,0.0014474810895301212
1.856,0.001445654008267801
1.86,0.0014461348191263062
1.864,0.0014404131699100936
1.868,0.0014383216426755957
1.872,0.0014396679130794104
1.8760000000000001,0.001439355386021382
1.8800000000000001,0.0014402208455666914
1.8840000000000001,0.0014407016564251967
1.8880000000000001,0.001438898615705802
1.8920000000000001,0.0014374081020444357
1.8960000000000001,0.0014392111427638304
1.9000000000000001,0.001440004480680364
1.9040000000000001,0.001436061831640621
1.9080000000000001,0.0014370474939005566
1.9120000000000001,0.0014429374269172462
1.9160000000000001,0.0014430095485460218
1.92,0.001444283697321061
1.924,0.00144418753514936
1.928,0.001448274427446655
1.932,0.001447192603015018
1.936,0.0014424085349728903
1.94,0.001438081237246343
1.944,0.0014378408318170904
1.948,0.001441374791627104
1.952,0.0014454136028385482
1.956,0.0014461348191263062
1.96,0.001451592022370341
1.964,0.001447817657131075
1.968,0.001442841264745545
1.972,0.0014382254805038945
1.976,0.0014398842779657377
1.98,0.0014524334413727254
1.984,0.0014529142522312307
1.988,0.0014477936165881496
1.992,0.00145195263051422
1.996,0.0014552461848949812
2.0,0.0014555346714100843
2.004,0.0014515199007415654
2.008,0.0014494043329641422
2.012,0.0014474330084442706
2.016,0.001445750170439502
2.02,0.0014502217114236013
2.024,0.001454597090235999
2.028,0.0014527940495166042
2.032,0.0014475772517018222
2.036,0.0014467598732423633
2.04,0.0014488994815627116
2.044,0.0014505342384816295
2.048,0.0014491398869919644
2.052,0.0014480821031032528
2.056,0.0014464954272701853
2.06,0.001444668346007865
2.064,0.0014523853602868748
2.068,0.0014541643604633443
2.072,0.001450293833052377
2.076,0.0014515199007415654
2.08,0.001451592022370341
2.084,0.001453491225261437
2.088,0.001454140319920419
2.092,0.0014514237385698644
2.096,0.0014489956437344128
2.1,0.0014514237385698644
2.104,0.0014556067930388602
2.108,0.0014577464013592085
2.112,0.0014534431441755864
2.116,0.0014475772517018222
2.12,0.0014496928194792454
2.124,0.00145149586019864
2.128,0.001453491225261437
2.132,0.0014543086037208958
2.136,0.0014559193200968886
2.14,0.0014551981038091306
2.144,0.001454044157748718
2.148,0.0014536835496048392
2.152,0.0014539960766628674
2.156,0.0014559914417256643
2.16,0.001459429239363977
2.164,0.0014553423470666821
2.168,0.0014561116444402906
2.172,0.0014561116444402906
2.176,0.0014544288064355223
2.18,0.0014512794953123128
2.184,0.0014488754410197865
2.188,0.001449284130249516
2.192,0.0014521449548576223
2.196,0.0014528421306024548
2.2,0.0014533950630897358
2.204,0.0014553423470666821
2.208,0.0014512314142264623
2.212,0.001449476454592918
2.216,0.0014495245356787685
2.22,0.001450750603367957
2.224,0.0014506784817391813
2.228,0.0014526978873449033
2.232,0.0014523132386580991
2.236,0.00145058231956748
2.24,0.0014528421306024548
2.244,0.0014537556712336148
2.248,0.0014512314142264623
2.2520000000000002,0.0014552461848949812
2.2560000000000002,0.0014615928882272507
2.2600000000000002,0.0014630112802598411
2.2640000000000002,0.0014679876726453706
2.2680000000000002,0.0014750315517224732
2.2720000000000002,0.0014751517544370994
2.2760000000000002,0.0014724351730865447
2.2800000000000002,0.0014704638485666729
2.2840000000000003,0.0014674828212439402
2.2880000000000003,0.001466449077898154
2.2920000000000003,0.0014664971589840043
2.2960000000000003,0.001466545240069855
2.3000000000000003,0.0014621939018003823
2.3040000000000003,0.0014614726855126244
2.308,0.001463636334375898
2.312,0.0014643815912065811
2.316,0.001466545240069855
2.32,0.0014628189559164392
2.324,0.0014609918746541191
2.328,0.001455414468695458
2.332,0.0014464713867272602
2.336,0.001444019251348883
2.34,0.001445125116323445
2.344,0.0014559193200968886
2.348,0.001485320904094486
2.352,0.001524915678292395
2.356,0.0015690060340173284
2.36,0.0016158610521786673
2.364,0.0016330500403702306
2.368,0.0016222077555109369
2.372,0.0016076391864982271
2.376,0.0015815792379672412
2.38,0.001552562302656448
2.384,0.0015308777329378605
2.388,0.001510491352537237
2.392,0.0014879172827304144
2.396,0.001470992740511029
2.4,0.0014598138880507813
2.404,0.0014598138880507813
2.408,0.0014651268480372643
2.412,0.001469213740334559
2.416,0.0014736372002328078
2.42,0.0014658961454108727
2.424,0.0014586839825332938
2.428,0.0014575300364728812
2.432,0.001458708023076219
2.436,0.0014645017939212076
2.44,0.0014642133074061043
2.444,0.0014620496585428307
2.448,0.0014640209830627023
2.452,0.0014619775369140548
2.456,0.0014588522663337706
2.46,0.0014605591448814644
2.464,0.0014601504556517348
2.468,0.0014598379285937066
2.472,0.0014544288064355223
2.476,0.001455029820008654
2.48,0.0014528421306024548
2.484,0.0014551500227232802
2.488,0.0014556308335817855
2.492,0.0014555827524959349
2.496,0.0014509910087972095
2.5,0.001447841697674
2.504,0.0014463271434697084
2.508,0.001455967401182739
2.512,0.0014545490091501486
2.516,0.0014431297512606483
2.52,0.001436614764127902
2.524,0.0014377927507312398
2.528,0.0014443317784069115
2.532,0.0014427931836596946
2.536,0.0014429374269172462
2.54,0.0014416392375992818
2.544,0.0014401246833949904
2.548,0.0014403410482813177
2.552,0.0014380091156175672
2.556,0.0014316383717423722
2.56,0.0014312537230555678
2.564,0.0014342828314641513
2.568,0.001435605061325041
2.572,0.001429066033649369
2.576,0.0014257965198115332
2.58,0.0014238973169204373
2.584,0.0014218298302288647
2.588,0.0014244502494077185
2.592,0.001426517736099291
2.596,0.0014225029654307722
2.6,0.0014259407630690848
2.604,0.0014297632093942015
2.608,0.001437720629102464
2.612,0.001442745102573844
2.616,0.0014407016564251967
2.62,0.001436807088471304
2.624,0.0014364224397844997
2.628,0.0014423364133441146
2.632,0.001446904116499915
2.636,0.001449837062736797
2.64,0.00145195263051422
2.644,0.00144966877893632
2.648,0.0014493081707924412
2.652,0.0014475772517018222
2.656,0.0014436105621191534
2.66,0.0014443317784069115
2.664,0.0014437067242908546
2.668,0.0014476974544164484
2.672,0.0014546692118647749
2.676,0.0014565924552987959
2.68,0.0014594773204498275
2.684,0.0014591167123059485
2.688,0.0014460146164116798
2.692,0.0014423364133441146
2.696,0.0014487792788480853
2.7,0.0014541884010062696
2.704,0.001458611860904518
2.708,0.0014552461848949812
2.712,0.0014500774681660497
2.716,0.0014457982515253525
2.72,0.0014459905758687547
2.724,0.001447457048987196
2.728,0.0014515199007415654
2.732,0.001454861536208177
2.736,0.0014541643604633443
2.74,0.0014530825360317076
2.744,0.0014529382927741558
2.748,0.001448923522105637
2.7520000000000002,0.0014440673324347334
2.7560000000000002,0.001446904116499915
2.7600000000000002,0.0014518324277995938
2.7640000000000002,0.0014526498062590527
2.7680000000000002,0.0014569290228997496
2.7720000000000002,0.0014580829689601622
2.7760000000000002,0.001453947995577017
2.7800000000000002,0.001450293833052377
2.7840000000000003,0.001452120914314697
2.7880000000000003,0.0014527219278878286
2.7920000000000003,0.0014559914417256643
2.7960000000000003,0.0014582752933035644
2.8000000000000003,0.0014584435771040412
2.8040000000000003,0.0014565684147558706
2.8080000000000003,0.001452120914314697
2.8120000000000003,0.0014509429277113591
2.816,0.0014502697925094516
2.82,0.0014519045494283695
2.824,0.0014530825360317076
2.828,0.0014508227249967328
2.832,0.0014488994815627116
2.836,0.0014463031029267833
2.84,0.0014533469820038854
2.844,0.001457409833758255
2.848,0.0014583714554752653
2.852,0.0014591167123059485
2.856,0.0014589484285054716
2.86,0.0014537316306906896
2.864,0.0014522651575722485
2.868,0.0014584916581898918
2.872,0.001459693685336155
2.876,0.0014550057794657286
2.88,0.0014525536440873517
2.884,0.0014552702254379065
2.888,0.001455486590324234
2.892,0.001453587387433138
2.896,0.0014513516169410885
2.9,0.0014473368462725696
2.904,0.0014466877516135874
2.908,0.0014497168600221706
2.912,0.0014473368462725696
2.916,0.0014481542247320285
2.92,0.001452217076486398
2.924,0.0014520007116000707
2.928,0.0014521689954005476
2.932,0.0014546451713218496
2.936,0.001458155090588938
2.94,0.0014542364820921202
2.944,0.0014555587119530096
2.948,0.0014632036046032433
2.952,0.001473300632631854
2.956,0.0014747911462932204
2.96,0.001469021415991157
2.964,0.001463900780348076
2.968,0.001468372321332175
2.972,0.0014690454565340822
2.976,0.001464621996635834
2.98,0.0014692618214204097
2.984,0.0014742141732630141
2.988,0.0014745026597781173
2.992,0.0014717379973417121
2.996,0.0014718582000563384
3.0,0.0014723149703719184
3.004,0.0014692618214204097
3.008,0.0014640209830627023
3.012,0.0014614005638838485
3.016,0.001451592022370341
3.02,0.0014390668995062788
3.024,0.0014344511152646281
3.028,0.0014512554547693875
3.032,0.001497461378271744
3.036,0.0015371282740984289
3.04,0.0015706167503933212
3.044,0.0016123270923686533
3.048,0.0016283621344998043
3.052,0.001626054242378979
3.056,0.0016097066731897997
3.06,0.0015797761972478465
3.064,0.0015445568018623353
3.068,0.0015222231374847656
3.072,0.0015077266901008313
3.076,0.0014940957022622071
3.08,0.0014779164168735046
3.084,0.001466449077898154
3.088,0.0014618573341994285
3.092,0.0014526257657161276
3.096,0.001448274427446655
3.1,0.0014596456042503044
3.104,0.001471016781053954
3.108,0.0014698868755364666
3.112,0.0014685406051326518
3.116,0.001466929888756659
3.12,0.0014615688476843254
3.124,0.0014597417664220054
3.128,0.001457241549957778
3.132,0.0014577704419021338
3.136,0.0014551500227232802
3.14,0.0014535152658043623
3.144,0.0014551981038091306
3.148,0.0014562799282407674
3.152,0.001454500928064298
3.156,0.0014524094008298001
3.16,0.0014518324277995938
3.164,0.001449115846449039
3.168,0.0014506063601104054
3.172,0.0014486831166763844
3.176,0.0014484667517900569
3.18,0.001450486157395779
3.184,0.0014534671847185117
3.188,0.0014562799282407674
3.192,0.001452505563001501
3.196,0.001454500928064298
3.2,0.0014544288064355223
3.204,0.0014518805088854444
3.208,0.001445750170439502
3.212,0.0014425768187733671
3.216,0.0014422642917153387
3.22,0.0014410141834832252
3.224,0.0014422402511724134
3.228,0.0014415671159705061
3.232,0.0014403410482813177
3.236,0.0014386822508194745
3.24,0.0014354127369816388
3.244,0.0014315662501135963
3.248,0.001420579721996751
3.2520000000000002,0.0014188728434490574
3.2560000000000002,0.0014292102769069206
3.2600000000000002,0.0014318306960857743
3.2640000000000002,0.0014299074526517531
3.2680000000000002,0.0014276716821597037
3.2720000000000002,0.0014241858034355404
3.2760000000000002,0.0014257484387256826
3.2800000000000002,0.0014288015876771911
3.2840000000000003,0.0014312056419697175
3.2880000000000003,0.0014344270747217028
3.2920000000000003,0.0014295468445078743
3.2960000000000003,0.0014261330874124868
3.3000000000000003,0.0014318787771716247
3.3040000000000003,0.0014446923865507903
3.3080000000000003,0.0014450529946946694
3.3120000000000003,0.0014416151970563567
3.3160000000000003,0.0014474089679013453
3.3200000000000003,0.0014508708060825832
3.3240000000000003,0.0014528902116883054
3.3280000000000003,0.0014567126580134222
3.332,0.0014551740632662055
3.336,0.0014510631304259854
3.34,0.0014545249686072233
3.344,0.0014568328607280486
3.348,0.0014555587119530096
3.352,0.0014527459684307539
3.356,0.0014517362656278926
3.36,0.0014507746439108822
3.364,0.0014498130221938716
3.368,0.0014504621168528538
3.372,0.0014522891981151738
3.376,0.0014532027387463339
3.38,0.001453947995577017
3.384,0.001451303535855238
3.388,0.0014407016564251967
3.392,0.001439547710364784
3.396,0.0014521930359434727
3.4,0.001455318306523757
3.404,0.0014544768875213727
3.408,0.001452505563001501
3.412,0.0014561597255261412
3.416,0.0014547894145794011
3.42,0.0014531546576604833
3.424,0.001453587387433138
3.428,0.0014536354685189886
3.432,0.00145195263051422
3.436,0.001451760306170818
3.44,0.0014528661711453801
3.444,0.0014536354685189886
3.448,0.001453130617117558
3.452,0.001451664143999117
3.456,0.0014514237385698644
3.46,0.0014521930359434727
3.464,0.0014530104144029317
3.468,0.001449837062736797
3.472,0.0014487071572193097
3.476,0.0014541162793774939
3.48,0.0014626506721159623
3.484,0.0014611120773687454
3.488,0.0014561356849832159
3.492,0.0014598138880507813
3.496,0.0014576502391875075
3.5,0.0014556789146676359
3.504,0.001458155090588938
3.508,0.0014566645769275718
3.512,0.0014590926717630234
3.516,0.0014580348878743118
3.52,0.0014542364820921202
3.524,0.0014513516169410885
3.528,0.0014553663876096074
3.532,0.0014632036046032433
3.536,0.0014632036046032433
3.54,0.0014575300364728812
3.544,0.0014577223608162834
3.548,0.001455029820008654
3.552,0.0014536835496048392
3.556,0.001454404765892597
3.56,0.0014498851438226475
3.564,0.0014477695760452243
3.568,0.001444283697321061
3.572,0.0014428653052884703
3.576,0.0014445962243790893
3.58,0.0014473368462725696
3.584,0.0014471685624720928
3.588,0.001451135252054761
3.592,0.0014492360491636653
3.596,0.0014470002786716159
3.6,0.0014452212784951462
3.604,0.0014440432918918081
3.608,0.0014439711702630325
3.612,0.0014459905758687547
3.616,0.001452505563001501
3.62,0.001453034454945857
3.624,0.0014500774681660497
3.628,0.0014517122250849676
3.632,0.0014538758739482411
3.636,0.0014551981038091306
3.64,0.0014580829689601622
3.644,0.0014616890503989517
3.648,0.0014631555235173927
3.652,0.001466833726584958
3.656,0.0014650547264084886
3.66,0.0014589003474196212
3.664,0.0014620496585428307
3.668,0.0014679876726453706
3.672,0.001469670510650139
3.676,0.001466905848213734
3.68,0.0014652230102089655
3.684,0.0014637324965475992
3.688,0.001465463415638218
3.692,0.0014668096860420328
3.696,0.0014695983890213634
3.7,0.0014652951318377412
3.704,0.0014643815912065811
3.708,0.0014582752933035644
3.712,0.0014486831166763844
3.716,0.001440365088824243
3.72,0.0014359175883830694
3.724,0.0014476012922447475
3.728,0.0014789020791334405
3.732,0.0015176794748718906
3.736,0.001553908573060263
3.74,0.0015933110229147702
3.744,0.0016063890782661134
3.748,0.001599874091133367
3.7520000000000002,0.0015836948057446642
3.7560000000000002,0.0015609043710515147
3.7600000000000002,0.0015403737473933393
3.7640000000000002,0.0015254926513226014
3.7680000000000002,0.0015074862846715788
3.7720000000000002,0.001489984769421987
3.7760000000000002,0.0014785414709895615
3.7800000000000002,0.0014725794163440963
3.7840000000000003,0.0014658480643250224
3.7880000000000003,0.0014619775369140548
3.7920000000000003,0.0014622179423433076
3.7960000000000003,0.0014631314829744676
3.8000000000000003,0.0014562078066119918
3.8040000000000003,0.001456688617470497
3.8080000000000003,0.0014577704419021338
3.8120000000000003,0.001456039522811515
3.8160000000000003,0.001452481522458576
3.8200000000000003,0.0014499572654514232
3.8240000000000003,0.0014540681982916433
3.8280000000000003,0.0014634199694895707
3.8320000000000003,0.0014606793475960907
3.8360000000000003,0.0014595494420786032
3.84,0.0014582993338464897
3.844,0.0014589965095913222
3.848,0.0014606072259673148
3.852,0.001457794482445059
3.856,0.0014498130221938716
3.86,0.0014459905758687547
3.864,0.0014459184542399788
3.868,0.0014474810895301212
3.872,0.0014505582790245548
3.876,0.0014522411170293232
3.88,0.0014539239550340917
3.884,0.001445750170439502
3.888,0.0014456299677248756
3.892,0.0014445481432932387
3.896,0.0014385860886477735
3.9,0.0014426008593162924
3.904,0.001451592022370341
3.908,0.0014541643604633443
3.912,0.001449476454592918
3.916,0.001444211575692285
3.92,0.0014444039000356872
3.924,0.0014451731974092956
3.928,0.0014467117921565127
3.932,0.0014440673324347334
3.936,0.001441278629455403
3.94,0.001441278629455403
3.944,0.0014423604538870399
3.948,0.001440821859139823
3.952,0.001439283264392606
3.956,0.0014364945614132756
3.96,0.0014336818178910195
3.964,0.0014299074526517531
3.968,0.0014279120875889564
3.972,0.0014339943449490481
3.976,0.00143235958803013
3.98,0.0014315902906565216
3.984,0.0014348598044943578
3.988,0.0014321672636867279
3.992,0.0014354127369816388
3.996,0.001445389562295623
4.0,0.0014517122250849676
4.0040000000000004,0.0014512314142264623
4.008,0.0014515439412844907
4.0120000000000005,0.0014523372792010242
4.016,0.001452673846801978
4.0200000000000005,0.0014504621168528538
4.024,0.0014509429277113591
4.0280000000000005,0.0014514237385698644
4.032,0.0014528661711453801
4.0360000000000005,0.0014533950630897358
4.04,0.0014541162793774939
4.0440000000000005,0.0014563520498695433
4.048,0.0014528902116883054
4.0520000000000005,0.001448370589618356
4.056,0.0014547653740364758
4.0600000000000005,0.001456424171498319
4.064,0.0014526257657161276
4.0680000000000005,0.0014532748603751095
4.072,0.0014534191036326611
4.0760000000000005,0.0014575540770158065
4.08,0.0014631314829744676
4.0840000000000005,0.0014616890503989517
4.088,0.0014546451713218496
4.0920000000000005,0.0014505582790245548
4.096,0.0014504140357670032
4.1,0.0014521930359434727
4.104,0.001454597090235999
4.108,0.0014509188871684338
4.112,0.001446375224555559
4.116,0.0014523372792010242
4.12,0.0014552702254379065
4.124,0.0014501255492519
4.128,0.0014476253327876728
4.132,0.001446904116499915
4.136,0.001446375224555559
4.14,0.0014516401034561917
4.144,0.0014528902116883054
4.148,0.0014495485762216938
4.152,0.0014514477791127895
4.156,0.0014575540770158065
4.16,0.001462530469401336
4.164,0.0014604149016239128
4.168,0.0014546451713218496
4.172,0.0014544768875213727
4.176,0.001458323374389415
4.18,0.0014591888339347244
4.184,0.0014558471984681127
4.188,0.0014516401034561917
4.192,0.001449284130249516
4.196,0.001447817657131075
4.2,0.0014521449548576223
4.204,0.0014641411857773286
4.208,0.0014686848483902034
4.212,0.0014642854290348802
4.216,0.0014609197530253432
4.22,0.0014647421993504602
4.224,0.001458058928417237
4.228,0.0014592128744776497
4.232,0.0014629391586310654
4.236,0.0014607514692248664
4.24,0.001463996942519777
4.244,0.0014652951318377412
4.248,0.001461616928770176
4.252,0.001459236915020575
4.256,0.001458876306876696
4.26,0.0014575300364728812
4.264,0.001454140319920419
4.268,0.0014481301841891032
4.272,0.0014450049136088188
4.276,0.001443658643205004
4.28,0.0014463992650984843
4.284,0.001446110778583381
4.288,0.0014450529946946694
4.292,0.0014480580625603275
4.296,0.0014565203336700202
4.3,0.0014594051988210516
4.304,0.0014565924552987959
4.308,0.0014510871709689107
4.312,0.0014494524140499928
4.316,0.0014521930359434727
4.32,0.0014532748603751095
4.324,0.0014467598732423633
4.328,0.0014499572654514232
4.332,0.001455775076839337
4.336,0.0014591888339347244
4.34,0.0014597417664220054
4.344,0.0014561597255261412
4.348,0.0014551019416374296
4.352,0.0014562078066119918
4.356,0.001462987239716916
4.36,0.0014689492943623813
4.364,0.0014687329294760538
4.368,0.001465920185953798
4.372,0.0014622179423433076
4.376,0.001460246617823436
4.38,0.001463179564060318
4.384,0.001469021415991157
4.388,0.0014695503079355128
4.392,0.0014674828212439402
4.396,0.0014608957124824181
4.4,0.00145880418524792
4.404,0.0014604389421668381
4.408,0.0014647181588075349
4.412,0.001463900780348076
4.416,0.001460078334022959
4.42,0.001459621563707379
4.424,0.0014554625497813086
4.428,0.001449115846449039
4.432,0.001447192603015018
4.436,0.0014572896310436287
4.44,0.0014928455940300934
4.444,0.0015265744757542382
4.448,0.0015625391279704326
4.452,0.0016058601863217575
4.456,0.0016216307824807306
4.46,0.0016161495386937705
4.464,0.0016061246322939355
4.468,0.0015750402102915695
4.472,0.0015417680988830047
4.476,0.001518977664189855
4.48,0.0014968363241556872
4.484,0.0014839265526048208
4.488,0.001476305700497512
4.492,0.0014695503079355128
4.496,0.0014605831854243897
4.5,0.0014608716719394928
4.5040000000000004,0.0014660403886684243
4.508,0.0014681078753599971
4.5120000000000005,0.0014700791998798685
4.516,0.001465992307582574
4.5200000000000005,0.0014644777533782823
4.524,0.001461616928770176
4.5280000000000005,0.0014595975231644538
4.532,0.001459693685336155
4.5360000000000005,0.0014582272122177138
4.54,0.0014605591448814644
4.5440000000000005,0.0014595975231644538
4.548,0.0014513996980269391
4.5520000000000005,0.0014472166435579433
4.556,0.0014519045494283695
4.5600000000000005,0.001459789847507856
4.564,0.001455967401182739
4.5680000000000005,0.00145058231956748
4.572,0.0014517843467137432
4.5760000000000005,0.0014528180900595295
4.58,0.0014491398869919644
4.5840000000000005,0.0014484907923329822
4.588,0.0014500534276231244
4.5920000000000005,0.0014541643604633443
4.596,0.0014516160629132664
4.6000000000000005,0.001449476454592918
4.604,0.0014503419141382275
4.6080000000000005,0.0014492600897065906
4.612,0.0014465915894418865
4.616,0.0014420238862860861
4.62,0.001439090940049204
4.624,0.0014327923178027847
4.628,0.0014328884799744857
4.632,0.0014349559666660587
4.636,0.0014347396017797313
4.64,0.001432720196174009
4.644,0.0014288977498488921
4.648,0.001427142790215348
4.652,0.0014223587221732206
4.656,0.0014233443844331563
4.66,0.0014278640065031058
4.664,0.0014331529259466638
4.668,0.0014383456832185208
4.672,0.0014342587909212262
4.676,0.0014286333038767143
4.68,0.0014278159254172552
4.684,0.0014234886276907079
4.688,0.0014214211409991353
4.692,0.0014258446008973836
4.696,0.0014342107098353756
4.7,0.0014369272911859304
4.704,0.0014338501016914963
4.708,0.0014339943449490481
4.712,0.001433176966489589
4.716,0.0014312777635984931
4.72,0.0014350521288377597
4.724,0.0014394996292789335
4.728,0.0014393794265643073
4.732,0.0014448366298083419
4.736,0.0014471445219291675
4.74,0.0014451491568663703
4.744,0.0014405093320817945
4.748,0.001443105710717723
4.752,0.0014531546576604833
4.756,0.0014564722525841696
4.76,0.001451760306170818
4.764,0.0014511833331406117
4.768,0.0014504621168528538
4.772,0.0014495966573075444
4.776,0.0014479378598457012
4.78,0.0014477936165881496
4.784,0.0014460867380404556
4.788,0.001446735832699438
4.792,0.0014451010757805197
4.796,0.0014469521975857653
4.8,0.0014518805088854444
4.804,0.0014508227249967328
4.808,0.0014460626974975303
4.812,0.001440004480680364
4.816,0.001435605061325041
4.82,0.0014422162106294883
4.824,0.0014514237385698644
4.828,0.0014477214949593737
4.832,0.0014427691431167693
4.836,0.001446904116499915
4.84,0.0014498130221938716
4.844,0.0014485869545046832
4.848,0.0014509429277113591
4.852,0.0014496206978504697
4.856,0.0014484427112471316
4.86,0.0014467839137852884
4.864,0.001444476021664463
4.868,0.0014453414812097725
4.872,0.0014447164270937156
4.876,0.0014420479268290114
4.88,0.0014368792101000798
4.884,0.0014409661023973746
4.888,0.0014444279405786125
4.892,0.0014448125892654166
4.896,0.001451664143999117
4.9,0.0014576261986445822
4.904,0.001455871239011038
4.908,0.0014532267792892592
4.912,0.001455414468695458
4.916,0.0014565684147558706
4.92,0.0014536835496048392
4.924,0.0014492360491636653
4.928,0.0014483946301612812
4.932,0.0014482263463608043
4.936,0.0014474089679013453
4.94,0.0014474810895301212
4.944,0.0014500774681660497
4.948,0.0014482503869037296
4.952,0.00144373076483378
4.956,0.0014425046971445915
4.96,0.001449572616764619
4.964,0.0014489956437344128
4.968,0.0014446202649220146
4.972,0.0014469521975857653
4.976,0.0014525296035444264
4.98,0.001452962333317081
4.984,0.0014525536440873517
4.988,0.0014562078066119918
4.992,0.001455053860551579
4.996,0.0014464713867272602
5.0,0.0014411103456549261
5.0040000000000004,0.0014426970214879934
5.008,0.0014489475626485622
5.0120000000000005,0.001446735832699438
5.016,0.0014442356162352103
5.0200000000000005,0.0014419998457431608
5.024,0.0014388745751628767
5.0280000000000005,0.0014415430754275808
5.032,0.0014458944136970535
5.0360000000000005,0.001445293400123922
5.04,0.0014363262776127988
5.0440000000000005,0.0014359656694689197
5.048,0.0014416632781422071
5.0520000000000005,0.0014460626974975303
5.056,0.0014501495897948254
5.0600000000000005,0.0014544288064355223
5.064,0.0014528661711453801
5.0680000000000005,0.0014481782652749537
5.072,0.0014464233056414096
5.0760000000000005,0.001450197670880676
5.08,0.0014553423470666821
5.0840000000000005,0.0014620496585428307
5.088,0.0014630112802598411
5.0920000000000005,0.0014639248208910011
5.096,0.0014633238073178696
5.1000000000000005,0.0014600062123941832
5.104,0.0014573136715865537
5.1080000000000005,0.001459164793391799
5.112,0.0014594051988210516
5.1160000000000005,0.001457049225614376
5.12,0.0014604629827097632
5.124,0.0014598138880507813
5.128,0.0014543566848067464
5.132,0.0014570973067002265
5.136,0.001457049225614376
5.14,0.0014550057794657286
5.144,0.0014566164958417212
5.148,0.0014521449548576223
5.152,0.0014460146164116798
5.156,0.0014401246833949904
5.16,0.001440461250995944
5.164,0.0014458222920682778
5.168,0.0014719062811421888
5.172,0.0015133040960594926
5.176,0.0015508794646516798
5.18,0.0015973498341262144
5.184,0.0016226645258265169
5.188,0.0016185535929862968
5.192,0.001605163010576925
5.196,0.0015788866971596116
5.2,0.001546696410182684
5.204,0.0015225837456286446
5.208,0.0014986153243321566
5.212,0.0014775558087296258
5.216,0.0014596696447932297
5.22,0.0014522891981151738
5.224,0.0014561116444402906
5.228,0.0014561837660690665
5.232,0.0014533710225468107
5.236,0.0014599581313083328
5.24,0.001465367253466517
5.244,0.0014654874561811433
5.248,0.0014610159151970444
5.252,0.0014556067930388602
5.256,0.0014514237385698644
5.26,0.0014526498062590527
5.264,0.001452577684630277
5.268,0.0014480821031032528
5.272,0.0014472406841008684
5.276,0.001448202305817879
5.28,0.0014476253327876728
5.284,0.001445197237952221
5.288,0.0014423604538870399
5.292,0.0014378889129029408
5.296,0.0014365907235849766
5.3,0.0014379369939887914
5.304,0.001443298035061125
5.308,0.0014457982515253525
5.312,0.0014451731974092956
5.316,0.0014393313454784567
5.32,0.0014424085349728903
5.324,0.0014517362656278926
5.328,0.0014490437248202632
5.332,0.0014444279405786125
5.336,0.0014418796430285346
5.34,0.001435532939696265
5.344,0.0014298593715659027
5.348,0.0014324797907447563
5.352,0.0014325519123735322
5.356,0.0014347876828655819
5.36,0.0014306046283965859
5.364,0.0014283207768186858
5.368,0.0014225991276024732
5.372,0.0014183679920476268
5.376,0.0014161562620985026
5.38,0.0014173102081589152
5.384,0.0014220702356581173
5.388,0.0014196181002797406
5.392,0.0014160600999268014
5.396,0.0014190892083353846
5.4,0.0014136079645484247
5.404,0.001414809991694688
5.408,0.0014182477893330005
5.412,0.0014144493835508089
5.416,0.0014079824775039128
5.42,0.0014039196257495433
5.424,0.00141363200509135
5.428,0.0014182958704188511
5.432,0.0014194257759363384
5.436,0.0014210124517694059
5.44,0.0014248108575515973
5.444,0.0014305084662248847
5.448,0.0014321672636867279
5.452,0.0014296430066795753
5.456,0.0014301959391668563
5.46,0.0014320230204291763
5.464,0.001439451548193083
5.468,0.0014437788459196303
5.472,0.0014434663188616019
5.476,0.0014400285212232892
5.48,0.0014388505346199514
5.484,0.0014397640752511114
5.488,0.0014422162106294883
5.492,0.0014434182377757515
5.496,0.0014407016564251967
5.5,0.0014406295347964208
5.5040000000000004,0.0014363262776127988
5.508,0.0014336818178910195
5.5120000000000005,0.0014336818178910195
5.516,0.0014349319261231334
5.5200000000000005,0.0014417834808568336
5.524,0.0014460146164116798
5.5280000000000005,0.0014472166435579433
5.532,0.001446038656954605
5.5360000000000005,0.0014424806566016662
5.54,0.0014414949943417302
5.5440000000000005,0.0014372398182439588
5.548,0.0014388024535341008
5.5520000000000005,0.001444668346007865
5.556,0.0014447164270937156
5.5600000000000005,0.001441206507826627
5.564,0.0014417113592280577
5.5680000000000005,0.0014414228727129546
5.572,0.0014368551695571545
5.5760000000000005,0.0014324076691159806
5.58,0.00143144604739897
5.5840000000000005,0.0014348117234085072
5.588,0.0014463271434697084
5.5920000000000005,0.0014450049136088188
5.596,0.001436807088471304
5.6000000000000005,0.0014341145476636746
5.604,0.00144373076483378
5.6080000000000005,0.0014468560354140643
5.612,0.0014464713867272602
5.6160000000000005,0.0014419758052002356
5.62,0.0014439471297201072
5.6240000000000006,0.0014456780488107262
5.628,0.0014467117921565127
5.632,0.00144875523830516
5.636,0.0014461588596692313
5.64,0.0014440913729776587
5.644,0.0014446923865507903
5.648,0.0014428653052884703
5.652,0.0014396919536223355
5.656,0.0014409901429402999
5.66,0.001441182467283702
5.664,0.0014446923865507903
5.668,0.0014502217114236013
5.672,0.00144829846798958
5.676,0.0014440913729776587
5.68,0.0014410382240261502
5.684,0.001447360886815495
5.688,0.0014460626974975303
5.692,0.0014423604538870399
5.696,0.0014447885487224915
5.7,0.0014497168600221706
5.704,0.0014479859409315516
5.708,0.0014475772517018222
5.712,0.00144738492735842
5.716,0.001446038656954605
5.72,0.001443298035061125
5.724,0.0014358454667542935
5.728,0.001428537141705013
5.732,0.0014303161418814827
5.736,0.0014330086826891122
5.74,0.0014338741422344216
5.744,0.00143327312866129
5.748,0.0014268062226143942
5.752,0.0014307248311112122
5.756,0.0014369272911859304
5.76,0.0014338501016914963
5.764,0.0014319268582574753
5.768,0.0014338020206056457
5.772,0.001434523236893404
5.776,0.001436999412814706
5.78,0.001437167696615183
5.784,0.0014355088991533397
5.788,0.0014364945614132756
5.792,0.0014364945614132756
5.796,0.001438369723761446
5.8,0.0014372398182439588
5.804,0.0014358454667542935
5.808,0.0014382976021326704
5.812,0.0014417834808568336
5.816,0.0014427691431167693
5.82,0.00144829846798958
5.824,0.0014499091843655728
5.828,0.001449019684277338
5.832,0.0014488754410197865
5.836,0.0014476974544164484
5.84,0.0014456299677248756
5.844,0.0014470964408433169
5.848,0.0014509910087972095
5.852,0.0014504621168528538
5.856,0.0014479859409315516
5.86,0.001443658643205004
5.864,0.001439283264392606
5.868,0.0014445000622073881
5.872,0.001452024752142996
5.876,0.0014444519811215378
5.88,0.0014307729121970628
5.884,0.001428993912020593
5.888,0.0014423364133441146
5.892,0.0014697907133647654
5.896,0.0015029666626016293
5.9,0.0015359262469521657
5.904,0.0015712418045093779
5.908,0.0015862911843805927
5.912,0.00157463152106184
5.916,0.0015522497755984198
5.92,0.0015200594886214916
5.924,0.0015005866488520282
5.928,0.001484599687806728
5.932,0.001463083401888617
5.936,0.0014490677653631885
5.94,0.001447913819302776
5.944,0.0014504380763099285
5.948,0.0014476974544164484
5.952,0.0014429374269172462
5.956,0.0014424566160587409
5.96,0.0014486109950476085
5.964,0.0014481542247320285
5.968,0.0014457742109824272
5.972,0.0014439230891771819
5.976,0.0014416632781422071
5.98,0.0014453414812097725
5.984,0.0014475051300730465
5.988,0.0014457982515253525
5.992,0.001443105710717723
5.996,0.001445654008267801
6.0,0.0014446202649220146
6.0040000000000004,0.0014419758052002356
6.008,0.0014396679130794104
6.0120000000000005,0.001437360020958585
6.016,0.0014333452502900657
6.0200000000000005,0.0014335135340905426
6.024,0.0014406535753393461
6.0280000000000005,0.0014469521975857653
6.032,0.0014464233056414096
6.0360000000000005,0.001439090940049204
6.04,0.0014366868857566776
6.0440000000000005,0.0014386822508194745
6.048,0.0014403410482813177
6.0520000000000005,0.0014430095485460218
6.056,0.0014407737780539724
6.0600000000000005,0.0014337058584339448
6.064,0.0014333933313759163
6.0680000000000005,0.0014383456832185208
6.072,0.0014392592238496808
6.0760000000000005,0.0014375763858449125
6.08,0.0014386101291906988
6.0840000000000005,0.001431349885227269
6.088,0.0014234165060619322
6.0920000000000005,0.0014324076691159806
6.096,0.0014359656694689197
6.1000000000000005,0.0014364705208703503
6.104,0.0014378408318170904
6.1080000000000005,0.0014323355474872047
6.112,0.0014293064390786215
6.1160000000000005,0.00142779188487433
6.12,0.0014296670472225006
6.1240000000000006,0.0014343068720070766
6.128,0.0014348838450372828
6.132000000000001,0.0014331529259466638
6.136,0.0014327682772598594
6.140000000000001,0.0014259888441549352
6.144,0.00142459449266527
6.148,0.0014292102769069206
6.152,0.0014317585744569985
6.156,0.00142505126298085
6.16,0.0014224308438019963
6.164,0.001427527438902152
6.168,0.0014344030341787778
6.172,0.001436614764127902
6.176,0.0014367830479283788
6.18,0.0014380091156175672
6.184,0.001440365088824243
6.188,0.0014400766023091398
6.192,0.001436614764127902
6.196,0.001435605061325041
6.2,0.0014366628452137525
6.204,0.0014390668995062788
6.208,0.0014385860886477735
6.212,0.0014370474939005566
6.216,0.0014332490881183648
6.22,0.0014300276553663796
6.224,0.0014307488716541375
6.228,0.001431542209570671
6.232,0.0014312296825126428
6.236,0.001436542642499126
6.24,0.0014411584267407767
6.244,0.001440004480680364
6.248,0.001440821859139823
6.252,0.0014426970214879934
6.256,0.0014385620481048482
6.26,0.0014377687101883145
6.264,0.0014398842779657377
6.268,0.0014399323590515883
6.272,0.0014416151970563567
6.276,0.001443658643205004
6.28,0.0014381052777892682
6.284,0.0014340905071207493
6.288,0.0014376725480166135
6.292,0.001444572183836164
6.296,0.001448274427446655
6.3,0.0014473368462725696
6.304,0.0014456299677248756
6.308,0.0014442356162352103
6.312,0.0014402208455666914
6.316,0.0014433461161469756
6.32,0.0014432259134323493
6.324,0.0014423604538870399
6.328,0.0014423123728011893
6.332,0.0014410382240261502
6.336,0.0014415911565134314
6.34,0.001438538007561923
6.344,0.0014338741422344216
6.348,0.001437360020958585
6.352,0.0014406535753393461
6.356,0.0014377927507312398
6.36,0.0014420960079148618
6.364,0.0014470964408433169
6.368,0.00144418753514936
6.372,0.0014391630616779798
6.376,0.0014402208455666914
6.38,0.0014440432918918081
6.384,0.0014481301841891032
6.388,0.001445197237952221
6.392,0.0014460626974975303
6.396,0.0014445241027503134
6.4,0.0014384899264760723
6.404,0.001437720629102464
6.408,0.0014404131699100936
6.412,0.0014491879680778147
6.416,0.0014499091843655728
6.42,0.00144373076483378
6.424,0.0014406054942534955
6.428,0.0014376725480166135
6.432,0.0014417834808568336
6.436,0.001442841264745545
6.44,0.0014409661023973746
6.444,0.0014401006428520651
6.448,0.0014364224397844997
6.452,0.001431806655542849
6.456,0.0014285852227908637
6.46,0.0014283207768186858
6.464,0.0014301478580810059
6.468,0.001429522803964949
6.472,0.0014274793578163015
6.476,0.0014267581415285436
6.48,0.0014306286689395112
6.484,0.0014299555337376037
6.488,0.0014341866692924503
6.492,0.0014369272911859304
6.496,0.001437816791274165
6.5,0.001437360020958585
6.5040000000000004,0.0014352444531811619
6.508,0.0014386101291906988
6.5120000000000005,0.0014410863051120008
6.516,0.0014437067242908546
6.5200000000000005,0.001445581886639025
6.524,0.0014434903594045272
6.5280000000000005,0.0014394755887360083
6.532,0.001434066466577824
6.5360000000000005,0.0014350040477519093
6.54,0.0014371917371581082
6.5440000000000005,0.0014413267105412536
6.548,0.0014410141834832252
6.5520000000000005,0.0014406054942534955
6.556,0.001447913819302776
6.5600000000000005,0.0014509429277113591
6.564,0.0014483465490754306
6.5680000000000005,0.001448562913961758
6.572,0.0014510631304259854
6.5760000000000005,0.001451592022370341
6.58,0.0014538037523194654
6.5840000000000005,0.0014513516169410885
6.588,0.0014454136028385482
6.5920000000000005,0.0014451491568663703
6.596,0.001447745535502299
6.6000000000000005,0.0014425287376875168
6.604,0.0014299074526517531
6.6080000000000005,0.0014197383029943668
6.612,0.0014193055732217121
6.6160000000000005,0.0014297632093942015
6.62,0.0014624823883154854
6.6240000000000006,0.0015008030137383555
6.628,0.001541888301597631
6.632000000000001,0.0015851131977772548
6.636,0.001592205157940208
6.640000000000001,0.0015824206569696254
6.644,0.00157371798043068
6.648000000000001,0.0015511439106238576
6.652,0.0015273197325849214
6.656000000000001,0.0015110202444815928
6.66,0.0014928455940300934
6.664,0.0014737093218615835
6.668,0.0014623141045150086
6.672,0.0014522651575722485
6.676,0.001448827359933936
6.68,0.001448562913961758
6.684,0.001449019684277338
6.688,0.0014439952108059578
6.692,0.0014412545889124777
6.696,0.001444572183836164
6.7,0.0014460146164116798
6.704,0.0014414469132558799
6.708,0.001438369723761446
6.712,0.001439283264392606
6.716,0.0014411343861978514
6.72,0.0014406535753393461
6.724,0.001440268926652542
6.728,0.0014403891293671683
6.732,0.0014414469132558799
6.736,0.0014427931836596946
6.74,0.0014410141834832252
6.744,0.0014360137505547703
6.748,0.0014354848586104144
6.752,0.001435989710011845
6.756,0.0014375523453019872
6.76,0.0014353165748099378
6.764,0.0014349559666660587
6.768,0.0014335616151763932
6.772,0.0014319508988004006
6.776,0.0014307007905682869
6.78,0.0014328884799744857
6.784,0.0014372157777010335
6.788,0.0014367349668425282
6.792,0.0014329606016032616
6.796,0.0014295949255937247
6.8,0.0014269023847860952
6.804,0.0014240415601779889
6.808,0.0014232722628043804
6.812,0.001419666181365591
6.816,0.001418944965077833
6.82,0.00142048355982505
6.824,0.0014191613299641605
6.828,0.0014191613299641605
6.832,0.0014149301944093142
6.836,0.0014135839240054994
6.84,0.0014138483699776773
6.844,0.0014126944239172647
6.848,0.0014124059374021616
6.852,0.0014128867482606669
6.856,0.0014155312079824458
6.86,0.0014128867482606669
6.864,0.0014093768289935784
6.868,0.0014116847211144037
6.872,0.0014146176673512857
6.876,0.0014131271536899194
6.88,0.0014168053567574848
6.884,0.0014188247623632068
6.888,0.00141728616761599
6.892,0.0014160600999268014
6.896,0.0014167813162145595
6.9,0.001423945398006288
6.904,0.0014332010070325142
6.908,0.0014289458309347427
6.912,0.0014241858034355404
6.916,0.001426613898270992
6.92,0.0014343068720070766
6.924,0.0014362541559840229
6.928,0.0014361820343552472
6.932,0.0014342107098353756
6.936,0.0014339222233202722
6.94,0.0014339943449490481
6.944,0.0014333452502900657
6.948,0.00142961896613665
6.952,0.001424762776465747
6.956,0.00142779188487433
6.96,0.0014278640065031058
6.964,0.0014253397494959532
6.968,0.0014318787771716247
6.972,0.001438898615705802
6.976,0.0014352204126382366
6.98,0.001431085439255091
6.984,0.0014266619793568427
6.988,0.00142870542550549
6.992,0.0014314700879418953
6.996,0.00143327312866129
7.0,0.0014281765335611343
7.0040000000000004,0.0014281044119323584
7.008,0.0014283448173616111
7.0120000000000005,0.001427142790215348
7.016,0.001425604195468131
7.0200000000000005,0.0014304603851390343
7.024,0.0014306046283965859
7.0280000000000005,0.001426229249584188
7.032,0.001426229249584188
7.0360000000000005,0.0014326480745452332
7.04,0.0014365666830420513
7.0440000000000005,0.0014273110740158248
7.048,0.0014192574921358615
7.0520000000000005,0.0014214692220849857
7.056,0.0014287535065913405
7.0600000000000005,0.0014320951420579522
7.064,0.001436975372271781
7.0680000000000005,0.0014386101291906988
7.072,0.001438538007561923
7.0760000000000005,0.0014374802236732113
7.08,0.0014325038312876816
7.0840000000000005,0.0014284650200762374
7.088,0.0014268543037002448
7.0920000000000005,0.0014325999934593826
7.096,0.0014348838450372828
7.1000000000000005,0.0014378648723600157
7.104,0.0014372157777010335
7.1080000000000005,0.001432912520517411
7.112,0.0014275033983592268
7.1160000000000005,0.001426613898270992
7.12,0.0014256763170969067
7.1240000000000006,0.0014273831956446005
7.128,0.0014312777635984931
7.132000000000001,0.001431806655542849
7.136,0.0014364945614132756
7.140000000000001,0.001439451548193083
7.144,0.001439740034708186
7.148000000000001,0.0014333212097471407
7.152,0.0014362541559840229
7.156000000000001,0.00144418753514936
7.16,0.0014473128057296443
7.164000000000001,0.0014405333726247198
7.168,0.0014343549530929272
7.172,0.001433369290832991
7.176,0.0014321191826008775
7.18,0.0014333933313759163
7.184,0.0014297872499371268
7.188,0.0014258205603544585
7.192,0.0014266619793568427
7.196,0.0014302440202527068
7.2,0.001432071101515027
7.204,0.0014295468445078743
7.208,0.0014263975333846648
7.212,0.0014260369252407858
7.216,0.0014283928984474615
7.22,0.0014282726957328352
7.224,0.001425243587324252
7.228,0.0014313979663131194
7.232,0.001437456183130286
7.236,0.0014445000622073881
7.24,0.0014454376433814735
7.244,0.0014393794265643073
7.248,0.0014392592238496808
7.252,0.0014372878993298092
7.256,0.0014351723315523862
7.26,0.0014362060748981725
7.264,0.0014421440890007124
7.268,0.001436999412814706
7.272,0.0014368551695571545
7.276,0.0014444039000356872
7.28,0.0014424325755158156
7.284,0.001437456183130286
7.288,0.001440461250995944
7.292,0.001444476021664463
7.296,0.0014503419141382275
7.3,0.0014554625497813086
7.304,0.0014518805088854444
7.308,0.0014439471297201072
7.312,0.001445942494782904
7.316,0.0014476253327876728
7.32,0.0014453655217526978
7.324,0.0014430095485460218
7.328,0.0014378408318170904
7.332,0.0014271908713011983
7.336,0.0014187766812773562
7.34,0.0014228876141175763
7.344,0.0014423364133441146
7.348,0.0014765461059267648
7.352,0.0015090729605046463
7.356,0.0015504948159648754
7.36,0.001597686401727168
7.364,0.0016024464292263702
7.368,0.00158920009007455
7.372,0.0015768913320968149
7.376,0.0015532594784012808
7.38,0.001523088597030075
7.384,0.001500202000165224
7.388,0.001479503092706572
7.392,0.0014633238073178696
7.396,0.0014529863738600064
7.4,0.00144418753514936
7.404,0.0014410382240261502
7.408,0.0014410382240261502
7.412,0.001441182467283702
7.416,0.001438441845390222
7.42,0.0014351723315523862
7.424,0.0014356531424108913
7.428,0.0014372157777010335
7.432,0.001436157993812322
7.436,0.001435532939696265
7.44,0.0014332010070325142
7.444,0.0014328403988886353
7.448,0.001433898182777347
7.452,0.0014355569802391903
7.456,0.0014344751558075534
7.46,0.001433441412461767
7.464,0.0014305084662248847
7.468,0.0014289458309347427
7.472,0.0014293545201644721
7.476,0.0014236328709482595
7.48,0.0014205316409109006
7.484,0.001424306006150167
7.488,0.0014295468445078743
7.492,0.001435893547840144
7.496,0.001436446480327425
7.5,0.001434523236893404
7.5040000000000004,0.0014338741422344216
7.508,0.0014287535065913405
7.5120000000000005,0.00142550803329643
7.516,0.0014211086139411069
7.5200000000000005,0.0014197383029943668
7.524,0.0014192334515929362
7.5280000000000005,0.0014175986946740183
7.532,0.0014160841404697267
7.5360000000000005,0.0014130790726040688
7.54,0.0014145695862654351
7.5440000000000005,0.001412357856316311
7.548,0.0014074295450166318
7.5520000000000005,0.001404977409638255
7.556,0.0014050495312670308
7.5600000000000005,0.0014021406255730739
7.564,0.001403703260863216
7.5680000000000005,0.001406251558413294
7.572,0.001405362058325059
7.5760000000000005,0.0014030060851183833
7.58,0.0013962987736422347
7.5840000000000005,0.0013968997872153663
7.588,0.0014050014501811802
7.5920000000000005,0.0014051937745245824
7.596,0.0014060351935269665
7.6000000000000005,0.0014080786396756138
7.604,0.0014080786396756138
7.6080000000000005,0.001405987112441116
7.612,0.0014121655319729088
7.6160000000000005,0.0014162283837272783
7.62,0.0014145695862654351
7.6240000000000006,0.0014106509777686172
7.628,0.00141774293793157
7.632000000000001,0.0014269504658719458
7.636,0.0014313979663131194
7.640000000000001,0.0014257484387256826
7.644,0.0014187526407344311
7.648000000000001,0.00141911324887831
7.652,0.00142185387077179
7.656000000000001,0.001421950032943491
7.66,0.0014243781277789426
7.664000000000001,0.0014306046283965859
7.668,0.0014302680607956321
7.672000000000001,0.0014316864528282226
7.676,0.0014312777635984931
7.68,0.0014266379388139174
7.684,0.0014285852227908637
7.688,0.0014342828314641513
7.692,0.0014309411959975394
7.696,0.0014247146953798963
7.7,0.001428080371389433
7.704,0.001432527871830607
7.708,0.001431806655542849
7.712,0.001431518169027746
7.716,0.0014312056419697175
7.72,0.0014338501016914963
7.724,0.0014352925342670125
7.728,0.0014341866692924503
7.732,0.001434523236893404
7.736,0.0014344270747217028
7.74,0.001430893114911689
7.744,0.0014307248311112122
7.748,0.0014341385882065997
7.752,0.001436085872183546
7.756,0.0014342107098353756
7.76,0.0014334654530046922
7.764,0.0014322393853155038
7.768,0.0014253878305818036
7.772,0.0014252916684101026
7.776,0.0014322874664013541
7.78,0.0014322153447725785
7.784,0.0014332971692042154
7.788,0.0014307007905682869
7.792,0.0014311335203409416
7.796,0.001432527871830607
7.8,0.0014348838450372828
7.804,0.0014321432231438026
7.808,0.0014303882635102584
7.812,0.0014266619793568427
7.816,0.001427984209217732
7.82,0.0014319268582574753
7.824,0.0014322874664013541
7.828,0.0014297632093942015
7.832,0.0014267581415285436
7.836,0.0014222625600015194
7.84,0.0014260369252407858
7.844,0.0014332490881183648
7.848,0.001436807088471304
7.852,0.0014374081020444357
7.856,0.0014372157777010335
7.86,0.001439740034708186
7.864,0.0014364945614132756
7.868,0.0014347155612368062
7.872,0.0014334173719188416
7.876,0.0014293545201644721
7.88,0.0014294987634220237
7.884,0.0014352925342670125
7.888,0.0014357493045825925
7.892,0.001431085439255091
7.896,0.0014228154924888006
7.9,0.001422214478915669
7.904,0.0014254359116676542
7.908,0.0014244983304935689
7.912,0.0014243540872360173
7.916,0.0014239934790921385
7.92,0.0014253878305818036
7.924,0.0014267581415285436
7.928,0.001429426641793248
7.932,0.0014273591551016752
7.936,0.0014271187496724227
7.94,0.0014276476416167784
7.944,0.0014256282360110564
7.948,0.0014269504658719458
7.952,0.0014313979663131194
7.956,0.0014372157777010335
7.96,0.0014342347503783009
7.964,0.001426517736099291
7.968,0.0014299314931946784
7.972,0.0014349559666660587
7.976,0.001436061831640621
7.98,0.0014375042642161366
7.984,0.0014376965885595388
7.988,0.0014366388046708272
7.992,0.0014389466967916523
7.996,0.0014424085349728903
8.0,0.0014429614674601715
8.004,0.0014397640752511114
8.008000000000001,0.0014391390211350545
8.012,0.0014401727644808408
8.016,0.0014373119398727345
8.02,0.0014373359804156598
8.024000000000001,0.0014386582102765492
8.028,0.001435605061325041
8.032,0.0014359175883830694
8.036,0.0014320951420579522
8.040000000000001,0.001432527871830607
8.044,0.0014338741422344216
8.048,0.0014233443844331563
8.052,0.00141271846446019
8.056000000000001,0.0014129588698894426
8.06,0.001416733235128709
8.064,0.0014341866692924503
8.068,0.00147200244331389
8.072000000000001,0.0015100826633075075
8.076,0.0015459030722661503
8.08,0.0015789588187883874
8.084,0.0015830457110856822
8.088000000000001,0.0015827331840276538
8.092,0.0015666260202677274
8.096,0.0015366955443257742
8.1,0.0015124386365141832
8.104000000000001,0.0014939754995475809
8.108,0.0014755123625809783
8.112,0.0014625064288584107
8.116,0.0014527459684307539
8.120000000000001,0.0014426248998592177
8.124,0.0014377927507312398
8.128,0.0014316383717423722
8.132,0.0014314941284848206
8.136000000000001,0.0014332250475754395
8.14,0.0014273110740158248
8.144,0.00142687834424317
8.148,0.0014348357639514325
8.152000000000001,0.0014425287376875168
8.156,0.0014382495210468198
8.16,0.0014382976021326704
8.164,0.0014379610345317166
8.168000000000001,0.0014353646558957882
8.172,0.0014311094797980163
8.176,0.0014299074526517531
8.18,0.0014291141147352196
8.184000000000001,0.0014296430066795753
8.188,0.0014304844256819594
8.192,0.0014316383717423722
8.196,0.001429522803964949
8.2,0.0014275514794450774
8.204,0.0014265898577280668
8.208,0.0014286813849625647
8.212,0.0014279120875889564
8.216,0.001429066033649369
8.22,0.0014305805878536606
8.224,0.001432431709658906
8.228,0.0014271187496724227
8.232,0.0014195219381080394
8.236,0.0014207239652543025
8.24,0.0014197142624514415
8.244,0.0014175986946740183
8.248,0.0014169976811008868
8.252,0.0014172621270730646
8.256,0.001415819694497549
8.26,0.001415819694497549
8.264,0.0014147619106088373
8.268,0.001410338450710589
8.272,0.0014041119500929455
8.276,0.0013989913144498644
8.28,0.0014028618418608317
8.284,0.0014088719775921475
8.288,0.0014126944239172647
8.292,0.0014144013024649585
8.296,0.0014100018831096353
8.3,0.0014104826939681406
8.304,0.0014100018831096353
8.308,0.0014111317886271225
8.312,0.0014111558291700478
8.316,0.0014145215051795848
8.32,0.0014139445321493785
8.324,0.001413367559119172
8.328,0.0014139685726923036
8.332,0.0014152186809244173
8.336,0.0014152186809244173
8.34,0.0014166851540428583
8.344,0.0014175265730452427
8.348,0.0014153629241819689
8.352,0.0014099538020237847
8.356,0.0014084392478194928
8.36,0.0014169015189291858
8.364,0.0014295468445078743
8.368,0.001431349885227269
8.372,0.0014261090468695617
8.376,0.0014265658171851417
8.38,0.0014268302631573195
8.384,0.0014287775471342658
8.388,0.00143372989897687
8.392,0.001432263425858429
8.396,0.0014308209932829131
8.4,0.0014305565473107353
8.404,0.0014312777635984931
8.408,0.001431542209570671
8.412,0.00142870542550549
8.416,0.0014249791413520742
8.42,0.0014224308438019963
8.424,0.0014219740734864163
8.428,0.0014226231681453985
8.432,0.0014232963033473057
8.436,0.0014217817491430141
8.44,0.0014252676278671773
8.444,0.001428080371389433
8.448,0.0014239934790921385
8.452,0.0014178150595603458
8.456,0.0014224548843449216
8.46,0.0014343068720070766
8.464,0.0014347155612368062
8.468,0.0014316383717423722
8.472,0.0014302680607956321
8.476,0.0014256763170969067
8.48,0.0014234645871477826
8.484,0.0014303161418814827
8.488,0.0014372878993298092
8.492,0.0014294026012503227
8.496,0.0014228154924888006
8.5,0.001424762776465747
8.504,0.0014302680607956321
8.508000000000001,0.0014300036148234543
8.512,0.0014261811684983374
8.516,0.0014329606016032616
8.52,0.0014326721150881585
8.524000000000001,0.001431085439255091
8.528,0.0014307729121970628
8.532,0.001425219546781327
8.536,0.0014237049925770353
8.540000000000001,0.0014256282360110564
8.544,0.001425604195468131
8.548,0.001426157127955412
8.552,0.0014273110740158248
8.556000000000001,0.0014247387359228216
8.56,0.0014211086139411069
8.564,0.0014266379388139174
8.568,0.00142459449266527
8.572000000000001,0.0014269504658719458
8.576,0.0014307248311112122
8.58,0.0014303642229673331
8.584,0.0014309411959975394
8.588000000000001,0.0014362541559840229
8.592,0.0014346674801509556
8.596,0.0014339943449490481
8.6,0.0014312537230555678
8.604000000000001,0.0014241858034355404
8.608,0.00142276741140295
8.612,0.0014228876141175763
8.616,0.0014182958704188511
8.620000000000001,0.0014137762483489016
8.624,0.0014117568427431794
8.628,0.0014176708163027942
8.632,0.0014223587221732206
8.636000000000001,0.0014205076003679753
8.64,0.0014175025325023174
8.644,0.0014124059374021616
8.648,0.0014126703833743394
8.652000000000001,0.0014182958704188511
8.656,0.0014194257759363384
8.66,0.001416180302641428
8.664,0.0014164447486136058
8.668000000000001,0.0014242819656072416
8.672,0.0014308450338258384
8.676,0.001427527438902152
8.68,0.0014204114381962743
8.684000000000001,0.0014255801549252058
8.688,0.0014386822508194745
8.692,0.001440725696968122
8.696,0.001436614764127902
8.700000000000001,0.0014340424260348987
8.704,0.0014292343174498459
8.708,0.0014337539395197954
8.712,0.001434691520693881
8.716,0.0014295468445078743
8.72,0.0014284650200762374
8.724,0.0014359175883830694
8.728,0.0014358695072972188
8.732,0.0014326721150881585
8.736,0.0014337539395197954
8.74,0.0014341145476636746
8.744,0.0014334894935476173
8.748,0.001433633736805169
8.752,0.0014391630616779798
8.756,0.0014421440890007124
8.76,0.001434691520693881
8.764,0.0014234886276907079
8.768,0.00141271846446019
8.772,0.0014084873289053434
8.776,0.0014241136818067648
8.78,0.0014602946989092866
8.784,0.001494263986062684
8.788,0.0015327048142001803
8.792,0.0015587407221882411
8.796,0.00155910133033212
8.8,0.0015562164651810881
8.804,0.0015436673017741004
8.808,0.0015208528265380256
8.812,0.001499841392021345
8.816,0.0014806329982240594
8.82,0.0014617371314848023
8.824,0.0014529142522312307
8.828,0.0014495485762216938
8.832,0.0014461588596692313
8.836,0.0014454376433814735
8.84,0.0014407978185968977
8.844,0.001435605061325041
8.848,0.0014348838450372828
8.852,0.0014347876828655819
8.856,0.0014331529259466638
8.86,0.0014298834121088278
8.864,0.0014313979663131194
8.868,0.0014322393853155038
8.872,0.0014317585744569985
8.876,0.0014297632093942015
8.88,0.0014262773306700383
8.884,0.001422935695203427
8.888,0.0014250272224379248
8.892,0.001425700357639832
8.896,0.00142231064108737
8.9,0.0014163245458989795
8.904,0.0014178871811891215
8.908,0.001422863573574651
8.912,0.0014250272224379248
8.916,0.0014217336680571637
8.92,0.0014208922490547794
8.924,0.0014192334515929362
8.928,0.0014182237487900752
8.932,0.0014184160731334774
8.936,0.0014183679920476268
8.94,0.0014177669784744952
8.944,0.0014144974646366595
8.948,0.0014117808832861047
8.952,0.0014169736405579615
8.956,0.0014163966675277552
8.96,0.0014131271536899194
8.964,0.0014075257071883328
8.968,0.001406636207100098
8.972,0.001406804490900575
8.976,0.0014056024637543118
8.98,0.0014088960181350728
8.984,0.0014077901531605107
8.988,0.0014025733553457286
8.992,0.0014012030443989886
8.996,0.0013994480847654444
9.0,0.001398053733275779
9.004,0.00139814989544748
9.008000000000001,0.0013957939222408041
9.012,0.001395337151925224
9.016,0.001393413908491203
9.02,0.001386009421270222
9.024000000000001,0.0013854805293258663
9.028,0.001390673286597723
9.032,0.0013961304898417579
9.036,0.0013937985571780072
9.040000000000001,0.0013955294762686263
9.044,0.0014033907338051876
9.048,0.001406900653072276
9.052,0.001406347720584995
9.056000000000001,0.0014059630718981906
9.06,0.0014072853017590803
9.064,0.0014105548155969162
9.068,0.0014144974646366595
9.072000000000001,0.0014141368564927804
9.076,0.0014119251265436563
9.08,0.0014145695862654351
9.084,0.001416661113499933
9.088000000000001,0.0014139445321493785
9.092,0.0014110837075412721
9.096,0.0014076699504458844
9.1,0.001406275598956219
9.104000000000001,0.0014136800861772004
9.108,0.0014241858034355404
9.112,0.001427142790215348
9.116,0.0014242819656072416
9.120000000000001,0.001423320343890231
9.124,0.0014231280195468288
9.128,0.0014225029654307722
9.132,0.001416180302641428
9.136000000000001,0.0014189690056207584
9.14,0.001424306006150167
9.144,0.0014240175196350638
9.148,0.0014227193303170994
9.152000000000001,0.0014201710327670215
9.156,0.0014168534378433352
9.16,0.0014136560456342751
9.164,0.0014126223022884888
9.168000000000001,0.0014142570592074067
9.172,0.001416564951328232
9.176,0.0014113721940563753
9.18,0.0014152908025531932
9.184000000000001,0.0014215413437137616
9.188,0.00141957001919389
9.192,0.0014182237487900752
9.196,0.0014225029654307722
9.200000000000001,0.0014225029654307722
9.204,0.0014183439515047015
9.208,0.0014149301944093142
9.212,0.001421757708600089
9.216000000000001,0.001421950032943491
9.22,0.0014194498164792637
9.224,0.0014185362758481037
9.228,0.0014180795055325237
9.232,0.0014141608970357057
9.236,0.001410987545369571
9.24,0.0014105067345110656
9.244,0.0014156994917829226
9.248,0.0014206037625396763
9.252,0.0014209643706835553
9.256,0.0014169736405579615
9.26,0.0014176227352169436
9.264,0.0014299555337376037
9.268,0.0014330808043178879
9.272,0.001426686019899768
9.276,0.0014288737093059668
9.28,0.0014305084662248847
9.284,0.0014318787771716247
9.288,0.0014288256282201164
9.292,0.0014223346816302953
9.296,0.0014162524242702036
9.3,0.0014176227352169436
9.304,0.0014168053567574848
9.308,0.001414641707894211
9.312,0.0014079343964180622
9.316,0.0014041840717217212
9.32,0.0014071170179586034
9.324,0.001408727734334596
9.328,0.00140952107225113
9.332,0.001407357423387856
9.336,0.0014087036937916707
9.34,0.0014123818968592363
9.344,0.0014139685726923036
9.348,0.0014116606805714784
9.352,0.0014184160731334774
9.356,0.0014220221545722669
9.36,0.0014171419243584383
9.364,0.0014132473564045457
9.368,0.0014182237487900752
9.372,0.0014284169389903868
9.376,0.001428513101162088
9.38,0.0014231280195468288
9.384,0.001425700357639832
9.388,0.0014261811684983374
9.392,0.0014244262088647932
9.396,0.0014254599522105795
9.4,0.0014273110740158248
9.404,0.0014269023847860952
9.408,0.0014310373581692406
9.412,0.001431085439255091
9.416,0.0014254359116676542
9.42,0.0014235126682336332
9.424,0.0014252676278671773
9.428,0.0014267100604426933
9.432,0.0014271908713011983
9.436,0.0014280322903035827
9.44,0.001429426641793248
9.444,0.0014252916684101026
9.448,0.0014169976811008868
9.452,0.0014106509777686172
9.456,0.0014080305585897634
9.46,0.0014065640854713222
9.464,0.0014095931938799058
9.468,0.001427984209217732
9.472,0.0014683482807892497
9.476,0.0015049139465785756
9.48,0.0015449895316349902
9.484,0.0015775644672987221
9.488,0.0015729967641429222
9.492,0.0015630680199147885
9.496,0.0015422969908273606
9.5,0.0015160927990388233
9.504,0.0014922205399140365
9.508000000000001,0.0014830130119736606
9.512,0.001468829091647755
9.516,0.00144966877893632
9.52,0.0014387784129911757
9.524000000000001,0.0014313258446843437
9.528,0.0014287535065913405
9.532,0.0014277678443314048
9.536,0.00142459449266527
9.540000000000001,0.0014225991276024732
9.544,0.00142459449266527
9.548,0.0014244262088647932
9.552,0.0014228876141175763
9.556000000000001,0.0014193776948504878
9.56,0.0014188247623632068
9.564,0.0014181275866183742
9.568,0.0014152427214673426
9.572000000000001,0.0014068766125293506
9.576,0.0014065640854713222
9.58,0.0014134396807479479
9.584,0.0014195219381080394
9.588000000000001,0.001425604195468131
9.592,0.0014253397494959532
9.596,0.0014193776948504878
9.6,0.0014152186809244173
9.604000000000001,0.0014184160731334774
9.608,0.0014268302631573195
9.612,0.00142687834424317
9.616,0.0014220461951151922
9.620000000000001,0.0014212047761128078
9.624,0.0014185362758481037
9.628,0.0014117568427431794
9.632,0.0014085113694482687
9.636000000000001,0.001409448950622354
9.64,0.0014102903696247384
9.644,0.0014140647348640047
9.648,0.0014096893560516068
9.652000000000001,0.0014041600311787959
9.656,0.0014014674903711664
9.66,0.0013969478683012167
9.664,0.0013960824087559073
9.668000000000001,0.0014000971794244266
9.672,0.0014038715446636927
9.676,0.0014070448963298275
9.68,0.0014027175986032802
9.684000000000001,0.0013947842194379431
9.688,0.0013945438140086904
9.692,0.0013968036250436651
9.696,0.00139449573292284
9.700000000000001,0.0013936543139204556
9.704,0.0013926926922034452
9.708,0.0013948323005237935
9.712,0.001394327449122363
9.716000000000001,0.001390216516282143
9.72,0.0013866585159292041
9.724,0.0013869950835301579
9.728,0.001385913259098521
9.732,0.00139449573292284
9.736,0.001398774949563537
9.74,0.0013963708952710104
9.744,0.001394976543781345
9.748,0.001400505868654156
9.752,0.0014124059374021616
9.756,0.0014144493835508089
9.76,0.0014109394642837206
9.764,0.001409617234422831
9.768,0.001410530775053991
9.772,0.0014143291808361826
9.776,0.001416733235128709
9.78,0.0014165409107853068
9.784,0.0014138483699776773
9.788,0.0014104826939681406
9.792,0.0014136560456342751
9.796,0.0014177910190174205
9.8,0.0014135598834625741
9.804,0.0014098335993091584
9.808,0.0014057467070118634
9.812,0.0014095691533369805
9.816,0.00141500231603809
9.82,0.0014109154237407953
9.824,0.0014095931938799058
9.828,0.0014142089781215563
9.832,0.0014156754512399973
9.836,0.0014153629241819689
9.84,0.0014179833433608227
9.844,0.0014142570592074067
9.848,0.0014095691533369805
9.852,0.0014112519913417488
9.856,0.0014146176673512857
9.86,0.0014152427214673426
9.864,0.0014169496000150364
9.868,0.001419473857022189
9.872,0.0014173102081589152
9.876,0.0014126703833743394
9.88,0.0014121895725158341
9.884,0.0014124059374021616
9.888,0.0014131271536899194
9.892,0.0014198825462519184
9.896,0.0014174063703306164
9.9,0.0014164447486136058
9.904,0.001413800288891827
9.908,0.0014089921803067738
9.912,0.0014097133965945321
9.916,0.0014196181002797406
9.92,0.001417093843272588
9.924,0.0014088479370492223
9.928,0.0014080786396756138
9.932,0.0014105067345110656
9.936,0.0014149782754951648
9.94,0.0014116606805714784
9.944,0.0014031984094617855
9.948,0.0014051937745245824
9.952,0.001411444315685151
9.956,0.0014130790726040688
9.96,0.0014097133965945321
9.964,0.0014166851540428583
9.968,0.00141911324887831
9.972,0.0014162043431843532
9.976,0.00141454554572251
9.98,0.0014110115859124962
9.984,0.0014068766125293506
9.988,0.0014035830581485896
9.992,0.0014006260713687823
9.996,0.0013993038415078928
10.0,0.0014000971794244266
10.004,0.0014000250577956507
10.008000000000001,0.0014004337470253801
10.012,0.001397669084588975
10.016,0.0013925484489458937
10.02,0.001396971908844142
10.024000000000001,0.0013998808145380991
10.028,0.0014021646661159992
10.032,0.0014052418556104328
10.036,0.001408270964019016
10.040000000000001,0.0014116125994856278
10.044,0.0014141128159498551
10.048,0.001413367559119172
10.052,0.0014130309915182185
10.056000000000001,0.00141408877540693
10.06,0.0014160360593838764
10.064,0.001415651410697072
10.068,0.001416733235128709
10.072000000000001,0.001416925559472111
10.076,0.0014207480057972278
10.08,0.0014191853705070858
10.084,0.0014201710327670215
10.088000000000001,0.0014188007218202815
10.092,0.0014193536543075627
10.096,0.0014181516271612995
10.1,0.0014186805191056552
10.104000000000001,0.0014206278030826015
10.108,0.0014210124517694059
10.112,0.0014189690056207584
10.116,0.00142139710045621
10.120000000000001,0.0014212528571986584
10.124,0.0014221663978298184
10.128,0.001417478491959392
10.132,0.0014176227352169436
10.136000000000001,0.0014195459786509647
10.14,0.0014193296137646374
10.144,0.001411444315685151
10.148,0.0013997125307376223
10.152000000000001,0.0013956737195261778
10.156,0.001401419409285316
10.16,0.0014244983304935689
10.164,0.0014590445906771728
10.168000000000001,0.001497918148587324
10.172,0.0015470810588694881
10.176,0.0015784058863011065
10.18,0.001577275980783619
10.184000000000001,0.0015679242095856915
10.188,0.0015421287070268837
10.192,0.0015097460957065538
10.196,0.0014942159049768334
10.200000000000001,0.0014769547951564942
10.204,0.001456039522811515
10.208,0.0014383216426755957
10.212,0.0014292343174498459
10.216000000000001,0.0014193296137646374
10.22,0.0014163726269848299
10.224,0.001415819694497549
10.228,0.0014138964510635279
10.232000000000001,0.00141408877540693
10.236,0.0014178631406461962
10.24,0.0014118530049148804
10.244,0.0014084152072765675
10.248,0.001407718031531735
10.252,0.0014080305585897634
10.256,0.0014083190451048666
10.26,0.0014047610447519275
10.264,0.0013991836387932666
10.268,0.0013966113007002632
10.272,0.0014017800174291948
10.276,0.0014119251265436563
10.28,0.0014112519913417488
10.284,0.001405987112441116
10.288,0.0014068766125293506
10.292,0.0014078863153322119
10.296,0.0014069487341581265
10.3,0.0014058428691835643
10.304,0.0014060111529840412
10.308,0.0014039917473783192
10.312,0.0014006741524546329
10.316,0.0014013953687423907
10.32,0.0014002414226819782
10.324,0.001398053733275779
10.328,0.0013943755302082135
10.332,0.0013887981242495526
10.336,0.0013855766914975672
10.34,0.0013867787186438304
10.344,0.0013840380967503503
10.348,0.0013840621372932756
10.352,0.0013808407045412903
10.356,0.0013783164475341377
10.36,0.0013782924069912124
10.364,0.0013822590965738809
10.368,0.0013821869749451052
10.372,0.0013764653257288925
10.376,0.0013754556229260313
10.38,0.001377787555589782
10.384,0.001380167569339383
10.388,0.001381537880286123
10.392,0.001379638677395027
10.396,0.0013751911769538535
10.4,0.0013750950147821525
10.404,0.001373508338949085
10.408,0.0013696618520810428
10.412,0.0013682915411343027
10.416,0.001371873582030167
10.42,0.0013775471501605292
10.424,0.0013824754614602083
10.428,0.001385456488782941
10.432,0.0013879567052471683
10.436,0.0013891106513075808
10.44,0.0013868748808155314
10.444,0.0013897357054236377
10.448,0.001395890084412505
10.452,0.0013995442469371454
10.456,0.0014004818281112307
10.46,0.0013993759631366685
10.464,0.0014041600311787959
10.468,0.0014061553962415928
10.472,0.0014061073151557424
10.476,0.0014015636525428676
10.48,0.0014014674903711664
10.484,0.0014056745853830875
10.488,0.0014087998559633719
10.492,0.0014075978288171087
10.496,0.0014030060851183833
10.5,0.001402044463401373
10.504,0.0014016357741716433
10.508000000000001,0.001403799423034917
10.512,0.0014031984094617855
10.516,0.001401587693085793
10.52,0.0014062034773274434
10.524000000000001,0.0014069968152439771
10.528,0.001405818828640639
10.532,0.0014008183957121844
10.536,0.0013978373683894518
10.540000000000001,0.0014022608282877002
10.544,0.0014062996394991444
10.548,0.001406347720584995
10.552,0.0014053139772392087
10.556000000000001,0.001403054166204234
10.56,0.0014011068822272876
10.564,0.0014006981929975582
10.568,0.0014018280985150454
10.572000000000001,0.001398510503591359
10.576,0.0013967074628719641
10.58,0.0013964670574427114
10.584,0.0013975729224172738
10.588000000000001,0.0013982941387050318
10.592,0.0013966834223290388
10.596,0.0014012992065706898
10.6,0.0014010347605985117
10.604000000000001,0.0013984143414196581
10.608,0.00139952020639422
10.612,0.0014032224500047108
10.616,0.0014017800174291948
10.620000000000001,0.0014013232471136148
10.624,0.001402429112088177
10.628,0.0014044725582368243
10.632,0.001405434179953835
10.636000000000001,0.0014062034773274434
10.64,0.0014031503283759349
10.644,0.0014012751660277645
10.648,0.0013988230306493875
10.652000000000001,0.0014017078958004192
10.656,0.0014053860988679843
10.66,0.0014003375848536791
10.664,0.0013955775573544766
10.668000000000001,0.0013994240442225191
10.672,0.0014006501119117076
10.676,0.0014006501119117076
10.68,0.001404256193350497
10.684000000000001,0.0014069968152439771
10.688,0.001403438814891038
10.692,0.0013958660438695798
10.696,0.0013956977600691031
10.700000000000001,0.0013955294762686263
10.704,0.0013928609760039219
10.708,0.001394063003150185
10.712,0.001394423611294064
10.716000000000001,0.0013924282462312672
10.72,0.001386297907785325
10.724,0.0013837496102352472
10.728,0.0013896876243377873
10.732000000000001,0.001384014056207425
10.736,0.0013810330288846924
10.74,0.0013853362860683147
10.744,0.0013920676380873884
10.748000000000001,0.0013958660438695798
10.752,0.0014006981929975582
10.756,0.001404424477150974
10.76,0.0014053860988679843
10.764,0.001405073571809956
10.768,0.0014019963823155223
10.772,0.0014007943551692591
10.776,0.0014017319363433445
10.78,0.0014023810310023264
10.784,0.0014011068822272876
10.788,0.0014020925444872233
10.792,0.0014014434498282413
10.796,0.001398222017076256
10.8,0.001399592328022996
10.804,0.0014026695175174296
10.808,0.001409881680395009
10.812,0.0014121174508870584
10.816,0.0014066842881859487
10.82,0.0014026214364315792
10.824,0.0014027656796891308
10.828,0.0014073093423020056
10.832,0.0014101220858242615
10.836,0.001404881247466554
10.84,0.0014012751660277645
10.844,0.0013981739359904054
10.848,0.0013901924757392177
10.852,0.0013864181104999514
10.856,0.001384470826523005
10.86,0.0013967315034148894
10.864,0.0014274553172733764
10.868,0.001464621996635834
10.872,0.001501476148940263
10.876,0.001526550435211313
10.88,0.0015228481916008225
10.884,0.0015095056902773012
10.888,0.0014931100400022714
10.892,0.0014677953483019687
10.896,0.001441182467283702
10.9,0.0014303642229673331
10.904,0.001417478491959392
10.908,0.0014113721940563753
10.912,0.0014079584369609875
10.916,0.0014052418556104328
10.92,0.0014040879095500202
10.924,0.001402068503944298
10.928,0.001393413908491203
10.932,0.001393221584147801
10.936,0.0013941591653218862
10.94,0.0013898799486811893
10.944,0.0013934619895770535
10.948,0.001395409273554
10.952,0.0013942553274935872
10.956,0.0013968997872153663
10.96,0.0013943755302082135
10.964,0.0013916108677718083
10.968,0.0013964910979856367
10.972,0.0014004097064824548
10.976,0.0014007943551692591
10.98,0.0014049052880094792
10.984,0.001403895585206618
10.988,0.0014015396119999423
10.992,0.0013988951522781634
10.996,0.0013964910979856367
11.0,0.0013958179627837294
11.004,0.0013957458411549535
11.008000000000001,0.0013940870436931103
11.012,0.0013928128949180715
11.016,0.0013903607595396946
11.02,0.0013863459888711757
11.024000000000001,0.0013861536645277735
11.028,0.0013850237590102862
11.032,0.0013854805293258663
11.036,0.0013845910292376315
11.040000000000001,0.0013809609072559167
11.044,0.0013870431646160082
11.048,0.0013864902321287273
11.052,0.001383364961548443
11.056000000000001,0.001383557285891845
11.06,0.0013858892185555957
11.064,0.0013861296239848482
11.068,0.0013847593130381082
11.072000000000001,0.0013857930563838947
11.076,0.0013840621372932756
11.08,0.0013838457724069482
11.084,0.0013827399074323862
11.088000000000001,0.0013841582994649766
11.092,0.0013824754614602083
11.096,0.0013810570694276177
11.1,0.0013822831371168062
11.104000000000001,0.001377787555589782
11.108,0.0013777394745039314
11.112,0.001381537880286123
11.116,0.0013830283939474893
11.120000000000001,0.001384999718467361
11.124,0.001389663583794862
11.128,0.0013890385296788051
11.132,0.0013877884214466914
11.136000000000001,0.0013875960971032894
11.14,0.0013875239754745135
11.144,0.0013899761108528905
11.148,0.0013933417868624272
11.152000000000001,0.0013896155027090114
11.156,0.0013912502596279293
11.16,0.0013896395432519367
11.164,0.0013848795157527347
11.168000000000001,0.0013818744478870768
11.172,0.0013889664080500293
11.176,0.0013884855971915242
11.18,0.001385456488782941
11.184000000000001,0.001387211448416485
11.188,0.0013873556916740367
11.192,0.001385648813126343
11.196,0.0013884855971915242
11.200000000000001,0.0013864902321287273
11.204,0.0013862498266994745
11.208,0.0013863219483282504
11.212,0.0013816100019148987
11.216000000000001,0.001387836502532542
11.22,0.0013925724894888187
11.224,0.0013945678545516157
11.228,0.0013931254219761
11.232000000000001,0.0013918031921152105
11.236,0.001385841137469745
11.24,0.0013862257861565494
11.244,0.001385384367154165
11.248000000000001,0.0013842304210937525
11.252,0.001383917894035724
11.256,0.0013875960971032894
11.26,0.0013868989213584567
11.264,0.0013836053669776956
11.268,0.001383461123720144
11.272,0.001387764380903766
11.276,0.0013856247725834178
11.28,0.0013838457724069482
11.284,0.001390312678453844
11.288,0.0013934619895770535
11.292,0.0013869710429872326
11.296,0.001377715433961006
11.3,0.0013836053669776956
11.304,0.0013956977600691031
11.308,0.001397140192644619
11.312,0.00139129834071378
11.316,0.0013883173133910473
11.32,0.0013897357054236377
11.324,0.0013926446111175946
11.328,0.0013940870436931103
11.332,0.0013962266520134588
11.336,0.001395337151925224
11.34,0.0013919233948298368
11.344,0.0013882692323051967
11.348,0.001391682989400584
11.352,0.0013930052192614737
11.356,0.0013962506925563841
11.36,0.00139358219229168
11.364,0.001389759745966563
11.368,0.001382090812773404
11.372,0.0013824754614602083
11.376,0.0013952169492105978
11.38,0.0013970921115587687
11.384,0.0013910819758274524
11.388,0.0013831245561191903
11.392,0.0013814897992002724
11.396,0.0013804800963974114
11.4,0.001376345123014266
11.404,0.0013721139874594195
11.408,0.001375864312155761
11.412,0.001388750043163702
11.416,0.0013888942864212536
11.42,0.0013862498266994745
11.424,0.0013834370831772187
11.428,0.0013861536645277735
11.432,0.0013855286104117166
11.436,0.0013776913934180808
11.44,0.0013828841506899378
11.444,0.0013913223812567052
11.448,0.0013917791515722852
11.452,0.001391586827228883
11.456,0.0013950246248671957
11.46,0.0013968997872153663
11.464,0.0013890144891358799
11.468,0.0013817302046295252
11.472,0.0013863459888711757
11.476,0.0013994480847654444
11.48,0.0014058669097264896
11.484,0.0013989432333640138
11.488,0.0013981979765333307
11.492,0.0013999529361668748
11.496,0.0013953131113822988
11.5,0.001389206813479282
11.504,0.0013887981242495526
11.508000000000001,0.0014012030443989886
11.512,0.0014057467070118634
11.516,0.0014016357741716433
11.52,0.0013992798009649675
11.524000000000001,0.0013950005843242704
11.528,0.0013878124619896167
11.532,0.0013913223812567052
11.536,0.0013909858136557515
11.540000000000001,0.0013849756779244357
11.544,0.0013740612714363662
11.548,0.0013704311494546512
11.552,0.0013815619208290483
11.556000000000001,0.0014144974646366595
11.56,0.0014487311977622347
11.564,0.001485320904094486
11.568,0.0015190257452757053
11.572000000000001,0.001528834286789213
11.576,0.0015201796913361183
11.58,0.0015072939603281766
11.584,0.0014762335788687363
11.588000000000001,0.001444211575692285
11.592,0.0014256763170969067
11.596,0.0014121895725158341
11.6,0.001405265896153358
11.604000000000001,0.0014027656796891308
11.608,0.001402429112088177
11.612,0.0013946640167233166
11.616,0.0013908656109411252
11.620000000000001,0.00139403896260726
11.624,0.0013974286791597222
11.628,0.001398222017076256
11.632,0.0013977892873036012
11.636000000000001,0.001398222017076256
11.64,0.001399592328022996
11.644,0.0013983422197908822
11.648,0.001393774516635082
11.652000000000001,0.0013894231783656093
11.656,0.0013874518538457377
11.66,0.0013900001513958158
11.664,0.0013915627866859577
11.668000000000001,0.001390577124426022
11.672,0.0013886057999061504
11.676,0.0013849516373815104
11.68,0.001385913259098521
11.684000000000001,0.001389831867595339
11.688,0.0013880528674188692
11.692,0.0013829562723187134
11.696,0.0013797588801096536
11.700000000000001,0.0013731958118910566
11.704,0.0013715129738862879
11.708,0.001374325717408544
11.712,0.001384927596838585
11.716000000000001,0.0013903607595396946
11.72,0.0013913704623425556
11.724,0.001392139759716164
11.728,0.0013883173133910473
11.732000000000001,0.0013848554752098094
11.736,0.00138261970471776
11.74,0.001381081109970543
11.744,0.001383557285891845
11.748000000000001,0.0013817782857153756
11.752,0.0013822831371168062
11.756,0.0013779077583044082
11.76,0.0013733400551486081
11.764000000000001,0.0013739170281788146
11.768,0.001375431582383106
11.772,0.0013724505550603734
11.776,0.001369782054795669
11.78,0.0013663202166144311
11.784,0.0013645171758950364
11.788,0.0013709119603131563
11.792,0.0013762970419284157
11.796,0.0013779077583044082
11.8,0.0013789174611072692
11.804,0.0013751671364109282
11.808,0.0013729794470047293
11.812,0.0013748065282670494
11.816,0.0013798310017384293
11.82,0.0013853122455253894
11.824,0.001380984947798842
11.828,0.0013763932041001166
11.832,0.0013843987048942294
11.836,0.0013869950835301579
11.84,0.001384374664351304
11.844,0.0013842063805508272
11.848,0.0013814897992002724
11.852,0.001376417244643042
11.856,0.0013734602578632346
11.86,0.0013751911769538535
11.864,0.0013848073941239588
11.868,0.0013897357054236377
11.872,0.0013843265832654535
11.876,0.0013778596772185576
11.88,0.0013780520015619598
11.884,0.0013817782857153756
11.888,0.001384999718467361
11.892,0.001384470826523005
11.896,0.001383917894035724
11.9,0.0013893270161939083
11.904,0.0013917310704864346
11.908,0.0013876922592749904
11.912,0.001385456488782941
11.916,0.0013824033398314325
11.92,0.0013789174611072692
11.924,0.0013760325959562376
11.928,0.0013771384609307998
11.932,0.0013742535957797682
11.936,0.001375503704011882
11.94,0.001377787555589782
11.944,0.001376345123014266
11.948,0.0013784847313346145
11.952,0.0013792299881652977
11.956,0.0013816580830007493
11.96,0.0013839659751215747
11.964,0.0013908175298552746
11.968,0.00139266865166052
11.972,0.0013903607595396946
11.976,0.0013881009485047198
11.98,0.0013860575023560725
11.984,0.0013836053669776956
11.988,0.0013814657586573471
11.992,0.0013884134755627483
11.996,0.0013897116648807124
12.0,0.001387475894388663
12.004,0.0013840621372932756
12.008000000000001,0.0013771144203878745
12.012,0.0013752632985826294
12.016,0.0013805041369403367
12.02,0.0013928128949180715
12.024000000000001,0.0013998808145380991
12.028,0.001395505435725701
12.032,0.001392500367860043
12.036,0.0013927167327463703
12.040000000000001,0.0013892548945651324
12.044,0.0013886779215349261
12.048,0.001386370029414101
12.052,0.0013836774886064715
12.056000000000001,0.001383557285891845
12.06,0.001385095880639062
12.064,0.0013827879885182368
12.068,0.0013807445423695893
12.072000000000001,0.0013778596772185576
12.076,0.001373051568633505
12.08,0.0013641806082940826
12.084,0.0013623535270317626
12.088000000000001,0.0013737968254641882
12.092,0.0013910819758274524
12.096,0.0013895914621660861
12.1,0.0013848073941239588
12.104000000000001,0.001389855908138264
12.108,0.001384831434666884
12.112,0.0013826677858036103
12.116,0.0013817782857153756
12.120000000000001,0.0013803358531398599
12.124,0.0013828360696040872
12.128,0.0013855286104117166
12.132,0.0013871874078735598
12.136000000000001,0.0013862498266994745
12.14,0.0013834851642630693
12.144,0.0013886057999061504
12.148,0.0013898799486811893
12.152000000000001,0.0013886057999061504
12.156,0.001384999718467361
12.16,0.001380263731511084
12.164,0.0013795905963091767
12.168000000000001,0.0013886779215349261
12.172,0.0013960343276700567
12.176,0.0013991115171644907
12.18,0.0013975488818743485
12.184000000000001,0.0013994000036795938
12.188,0.0014014434498282413
12.192,0.0014050495312670308
12.196,0.0014037753824919918
12.200000000000001,0.0013986307063059854
12.204,0.001396971908844142
12.208,0.0014013953687423907
12.212,0.0013992076793361917
12.216000000000001,0.001397212314273395
12.22,0.0013909617731128262
12.224,0.0013728111632042525
12.228,0.0013625458513751648
12.232000000000001,0.0013669212301875627
12.236,0.0013910819758274524
12.24,0.0014279601686748068
12.244,0.001457962766245536
12.248000000000001,0.001498471081074605
12.252,0.0015361426118384932
12.256,0.0015430182071151184
12.26,0.0015390995986183005
12.264000000000001,0.0015314066248822162
12.268,0.0015034715140030599
12.272,0.0014741180110913132
12.276,0.0014559914417256643
12.280000000000001,0.0014339462638631973
12.284,0.00141682939730041
12.288,0.0014087517748775213
12.292,0.0014014915309140917
12.296,0.001391226219085004
12.3,0.0013894472189085346
12.304,0.0013908896514840505
12.308,0.0013864902321287273
12.312,0.0013856728536692682
12.316,0.0013884615566485989
12.32,0.0013853362860683147
12.324,0.0013834130426342935
12.328,0.001387764380903766
12.332,0.0013929330976326978
12.336,0.0013909617731128262
12.34,0.001386562353757503
12.344,0.001385648813126343
12.348,0.0013923320840595662
12.352,0.0013916108677718083
12.356,0.0013877162998179157
12.36,0.0013867306375579798
12.364,0.001387211448416485
12.368,0.0013824033398314325
12.372,0.001376321082471341
12.376,0.0013740131903505156
12.38,0.0013792780692511483
12.384,0.0013785568529633904
12.388,0.0013690127574220606
12.392,0.0013727390415754766
12.396,0.0013832447588338166
12.4,0.0013857690158409694
12.404,0.0013889183269641789
12.408,0.001386754678100905
12.412,0.0013805041369403367
12.416,0.0013774509879888282
12.42,0.0013802156504252336
12.424,0.0013789174611072692
12.428,0.001373580460577861
12.432,0.0013677386086470215
12.436,0.001362209283774211
12.44,0.0013653105138115701
12.444,0.0013642767704657838
12.448,0.0013549971208966318
12.452,0.0013454049442694518
12.456,0.0013475685931327256
12.46,0.001353194080177237
12.464,0.0013593244186231792
12.468,0.0013587234050500476
12.472,0.0013592763375373288
12.476,0.0013549490398107812
12.48,0.001355189445240034
12.484,0.001355189445240034
12.488,0.0013622333243171363
12.492,0.0013653345543544952
12.496,0.0013648777840389154
12.5,0.0013652624327257195
12.504,0.0013672577977885164
12.508000000000001,0.0013651662705540185
12.512,0.001363747878521428
12.516,0.0013654547570691217
12.52,0.0013711042846565585
12.524000000000001,0.0013703590278258753
12.528,0.0013668491085587868
12.532,0.0013698060953385943
12.536,0.001380263731511084
12.540000000000001,0.0013861296239848482
12.544,0.0013845189076088556
12.548,0.0013818023262583009
12.552,0.001384542948151781
12.556000000000001,0.0013857930563838947
12.56,0.001386370029414101
12.564,0.001384014056207425
12.568,0.0013829322317757884
12.572000000000001,0.0013812734343139452
12.576,0.0013820667722304787
12.58,0.0013818263668012262
12.584,0.0013791097854506714
12.588000000000001,0.0013772346231025008
12.592,0.0013746863255524229
12.596,0.001377426947445903
12.6,0.0013797588801096536
12.604000000000001,0.0013809609072559167
12.608,0.0013769461365873976
12.612,0.0013793021097940736
12.616,0.0013845910292376315
12.620000000000001,0.0013873316511311114
12.624,0.0013865142726716526
12.628,0.0013853362860683147
12.632,0.0013843265832654535
12.636000000000001,0.0013833890020913684
12.64,0.001384831434666884
12.644,0.0013889664080500293
12.648,0.0013886298404490757
12.652000000000001,0.0013901443946533673
12.656,0.0013882451917622714
12.66,0.0013865863943004282
12.664,0.0013866585159292041
12.668000000000001,0.0013850477995532113
12.672,0.0013813936370285715
12.676,0.0013784606907916892
12.68,0.0013865383132145778
12.684000000000001,0.0013998086929093232
12.688,0.0014032705310905612
12.692,0.00139860666576306
12.696,0.0013952890708393735
12.700000000000001,0.0013955775573544766
12.704,0.0013934619895770535
12.708,0.0013896395432519367
12.712,0.0013923801651454168
12.716000000000001,0.00139495250323842
12.72,0.0013942072464077368
12.724,0.0013955775573544766
12.728,0.0013956256384403272
12.732000000000001,0.0013933417868624272
12.736,0.0013890144891358799
12.74,0.001381634042457824
12.744,0.0013744699606660956
12.748000000000001,0.0013719216631160175
12.752,0.001378340488077063
12.756,0.0013812253532280946
12.76,0.0013808407045412903
12.764000000000001,0.001388197110676421
12.768,0.0013858892185555957
12.772,0.0013848795157527347
12.776,0.0013864421510428767
12.780000000000001,0.001386562353757503
12.784,0.0013843025427225282
12.788,0.001381994650601703
12.792,0.0013808166639983652
12.796000000000001,0.0013801194882535324
12.8,0.00138307647503334
12.804,0.0013860575023560725
12.808,0.0013871633673306345
12.812,0.001386370029414101
12.816,0.0013862017456136241
12.82,0.0013849035562956598
12.824,0.0013854805293258663
12.828,0.0013817782857153756
12.832,0.0013868027591867557
12.836,0.0013958660438695798
12.84,0.001405434179953835
12.844,0.0014074295450166318
12.848,0.0014009145578838854
12.852,0.0013937023950063062
12.856,0.0013958179627837294
12.86,0.0013993278820508181
12.864,0.0014058428691835643
12.868,0.0014064679232996212
12.872,0.0014033907338051876
12.876,0.0014005539497400064
12.88,0.0014005779902829317
12.884,0.0014014434498282413
12.888,0.0014001933415961276
12.892,0.0013971642331875444
12.896,0.0013899280297670399
12.9,0.001376801893329846
12.904,0.0013635315136351005
12.908,0.0013619207972591079
12.912,0.0013785568529633904
12.916,0.0014225991276024732
12.92,0.0014623381450579339
12.924,0.0015037119194323124
12.928,0.0015458309506373744
12.932,0.0015576829382995296
12.936,0.0015484754103591535
12.94,0.0015387630310173467
12.944,0.0015124867176000338
12.948,0.001483397660660465
12.952,0.001461616928770176
12.956,0.0014381052777892682
12.96,0.00142094033014063
12.964,0.0014091604641072507
12.968,0.0014024050715452517
12.972,0.0013980777738187044
12.976,0.0013934860301199788
12.98,0.00139358219229168
12.984,0.0013897357054236377
12.988,0.0013882692323051967
12.992,0.0013962506925563841
12.996,0.0013958420033266547
13.0,0.0013953852330110747
13.004,0.0013905050027972462
13.008000000000001,0.0013892548945651324
13.012,0.0013944476518369894
13.016,0.0013979816116470034
13.02,0.001397308476445096
13.024000000000001,0.0013997365712805476
13.028,0.0013953852330110747
13.032,0.001391130056913303
13.036,0.0013899039892241146
13.040000000000001,0.0013901684351962924
13.044,0.0013896155027090114
13.048,0.0013871874078735598
13.052,0.0013860334618131472
13.056000000000001,0.0013852401238966135
13.06,0.001384927596838585
13.064,0.0013794703935945504
13.068,0.0013804320153115608
13.072000000000001,0.0013794223125086998
13.076,0.0013767297717010704
13.08,0.001385288204982464
13.084,0.001387379732216962
13.088000000000001,0.0013877162998179157
13.092,0.0013842304210937525
13.096,0.001381081109970543
13.1,0.0013775231096176041
13.104000000000001,0.0013732919740627578
13.108,0.0013702147845683237
13.112,0.0013674501221319184
13.116,0.0013697339737098184
13.120000000000001,0.0013667289058441605
13.124,0.0013603100808831153
13.128,0.0013562712696716709
13.132,0.001360838972827471
13.136000000000001,0.0013584349185349444
13.14,0.001356752080530176
13.144,0.00136119958097135
13.148,0.0013613919053147522
13.152000000000001,0.0013600696754538623
13.156,0.0013666087031295343
13.16,0.0013640123244936058
13.164,0.0013629785811478195
13.168000000000001,0.0013687002303640321
13.172,0.001369782054795669
13.176,0.0013705753927122028
13.18,0.0013738929876358893
13.184000000000001,0.0013811532315993187
13.188,0.0013823552587455819
13.192,0.0013818984884300018
13.196,0.0013782202853624367
13.200000000000001,0.0013741814741509925
13.204,0.0013788212989355683
13.208,0.0013862738672423998
13.212,0.0013854805293258663
13.216000000000001,0.0013865142726716526
13.22,0.001384639110323482
13.224,0.0013868027591867557
13.228,0.0013903367189967693
13.232000000000001,0.0013911540974562283
13.236,0.0013906973271406483
13.24,0.0013909617731128262
13.244,0.0013909377325699009
13.248000000000001,0.0013926926922034452
13.252,0.0013948323005237935
13.256,0.0013932937057765768
13.26,0.0013923801651454168
13.264000000000001,0.0013906492460547977
13.268,0.0013905530838830968
13.272,0.0013910579352845271
13.276,0.0013881730701334957
13.280000000000001,0.0013801194882535324
13.284,0.0013789415016501945
13.288,0.0013862257861565494
13.292,0.0013844467859800797
13.296000000000001,0.0013863459888711757
13.3,0.0013866104348433535
13.304,0.0013887740837066273
13.308,0.0013928128949180715
13.312000000000001,0.001395505435725701
13.316,0.001392308043516641
13.32,0.0013894712594514599
13.324,0.0013914425839713315
13.328,0.0013897357054236377
13.332,0.001389302975650983
13.336,0.0013893991378226842
13.34,0.001390745408226499
13.344,0.001385841137469745
13.348,0.0013866344753862788
13.352,0.0013884134755627483
13.356,0.0013848554752098094
13.36,0.0013828120290611619
13.364,0.0013812734343139452
13.368,0.0013793742314228493
13.372,0.0013837976913210978
13.376,0.001390577124426022
13.38,0.0013919714759156872
13.384,0.001384999718467361
13.388,0.0013878124619896167
13.392,0.001396971908844142
13.396,0.0013995442469371454
13.4,0.0013950967464959716
13.404,0.0013909617731128262
13.408,0.0013872354889594104
13.412,0.0013864181104999514
13.416,0.0013853603266112398
13.42,0.0013830524344904146
13.424,0.0013815138397431977
13.428,0.0013799992855389061
13.432,0.0013818263668012262
13.436,0.0013795184746804008
13.44,0.0013782924069912124
13.444,0.0013796627179379524
13.448,0.0013834130426342935
13.452,0.0013782202853624367
13.456,0.0013697339737098184
13.46,0.0013714889333433628
13.464,0.0013799512044530555
13.468,0.0013905290433401715
13.472,0.0013984143414196581
13.476,0.0014027416391462055
13.48,0.0013986547468489107
13.484,0.0013994240442225191
13.488,0.0014000971794244266
13.492,0.001398774949563537
13.496,0.0013997846523663982
13.5,0.0014019483012296717
13.504,0.001400602030825857
13.508000000000001,0.0013968997872153663
13.512,0.0013913464217996305
13.516,0.0013914185434284062
13.52,0.0013994000036795938
13.524000000000001,0.0013982941387050318
13.528,0.001394231286950662
13.532,0.0013964910979856367
13.536,0.0014017800174291948
13.540000000000001,0.001403703260863216
13.544,0.0014060592340698918
13.548,0.0014072131801303044
13.552,0.001408631572162895
13.556000000000001,0.0014122136130587594
13.56,0.0014096893560516068
13.564,0.0014009145578838854
13.568,0.0013918753137439862
13.572000000000001,0.0013822590965738809
13.576,0.001377715433961006
13.58,0.0013899280297670399
13.584,0.001428993912020593
13.588000000000001,0.0014685406051326518
13.592,0.0015105394336230875
13.596,0.001549725518591267
13.6,0.0015572021274410242
13.604000000000001,0.0015464560047534312
13.608,0.0015296757057915973
13.612,0.001500562608309103
13.616,0.0014705600107383738
13.620000000000001,0.0014547413334935505
13.624,0.0014412545889124777
13.628,0.0014249551008091489
13.632,0.00141134815351345
13.636000000000001,0.0014039917473783192
13.64,0.001397308476445096
13.644,0.0013957218006120282
13.648,0.0013984143414196581
13.652000000000001,0.0014016598147145686
13.656,0.0014000250577956507
13.66,0.0013949284626954947
13.664,0.0013905290433401715
13.668000000000001,0.0013874518538457377
13.672,0.001383461123720144
13.676,0.0013823312182026568
13.68,0.0013816580830007493
13.684000000000001,0.0013804800963974114
13.688,0.0013889423675071042
13.692,0.0013910579352845271
13.696,0.0013909136920269756
13.700000000000001,0.0013904809622543209
13.704,0.0013833168804625925
13.708,0.001385384367154165
13.712,0.001391033894741602
13.716000000000001,0.0013884375161056736
13.72,0.0013820427316875534
13.724,0.0013804320153115608
13.728,0.0013822831371168062
13.732000000000001,0.001380624339654963
13.736,0.001382715866889461
13.74,0.0013795425152233261
13.744,0.0013801194882535324
13.748000000000001,0.0013862738672423998
13.752,0.00139129834071378
13.756,0.0013851199211819872
13.76,0.001381177272142244
13.764000000000001,0.001377883717761483
13.768,0.0013739891498075903
13.772,0.0013680030546191996
13.776,0.0013643729326374848
13.780000000000001,0.0013600937159967876
13.784,0.001359492702423656
13.788,0.0013629305000619689
13.792,0.001364565256980887
13.796000000000001,0.001363579594720951
13.8,0.0013623294864888373
13.804,0.001361752513458631
13.808,0.0013609591755420975
13.812000000000001,0.0013578819860476635
13.816,0.0013530498369196855
13.82,0.001353747012664518
13.824,0.001359108053736852
13.828,0.0013653585948974205
13.832,0.0013679068924474984
13.836,0.001365671121955449
13.84,0.001364036365036531
13.844,0.001364132527208232
13.848,0.0013624496892034638
13.852,0.0013638921217789795
13.856,0.001365574959783748
13.86,0.0013726188388608503
13.864,0.0013808887856271409
13.868,0.0013758402716128357
13.872,0.0013753835012972556
13.876,0.0013786530151350914
13.88,0.001375503704011882
13.884,0.001371344690085811
13.888,0.0013738449065500387
13.892,0.0013796627179379524
13.896,0.0013901684351962924
13.9,0.0013962987736422347
13.904,0.001397765246760676
13.908,0.0013901684351962924
13.912,0.0013880769079617945
13.916,0.0013894472189085346
13.92,0.0013919714759156872
13.924,0.0013896876243377873
13.928,0.0013881730701334957
13.932,0.0013851680022678378
13.936,0.0013823312182026568
13.94,0.001378797258392643
13.944,0.0013785087718775398
13.948,0.0013746382444665725
13.952,0.0013728352037471778
13.956,0.0013757441094411345
13.96,0.0013820427316875534
13.964,0.0013837255696923219
13.968,0.0013783164475341377
13.972,0.001381994650601703
13.976,0.001386754678100905
13.98,0.0013849035562956598
13.984,0.0013878845836183926
13.988,0.0013993038415078928
13.992,0.0013956737195261778
13.996,0.0013914185434284062
14.0,0.0013862017456136241
14.004,0.001382643745260685
14.008000000000001,0.0013818504073441515
14.012,0.0013803839342257105
14.016,0.0013857209347551188
14.02,0.0013892308540222073
14.024000000000001,0.0013860815428989978
14.028,0.0013814897992002724
14.032,0.0013854084076970904
14.036,0.0013892548945651324
14.040000000000001,0.0013869950835301579
14.044,0.0013844467859800797
14.048,0.0013938466382638578
14.052,0.0013943995707511388
14.056000000000001,0.0013886538809920008
14.06,0.0013815138397431977
14.064,0.001375792190526985
14.068,0.001373580460577861
14.072000000000001,0.0013717293387726153
14.076,0.0013729073253759534
14.08,0.0013782683664482873
14.084,0.001376705731158145
14.088000000000001,0.001375046933696302
14.092,0.0013803839342257105
14.096,0.0013807685829125146
14.1,0.0013799031233672052
14.104000000000001,0.001375888352698686
14.108,0.0013675462843036196
14.112,0.0013676184059323953
14.116,0.0013780279610190345
14.120000000000001,0.0013845189076088556
14.124,0.0013842063805508272
14.128,0.0013883653944768977
14.132,0.0013883653944768977
14.136000000000001,0.0013854084076970904
14.14,0.0013845189076088556
14.144,0.0013919955164586125
14.148,0.0013928850165468472
14.152000000000001,0.001387307610588186
14.156,0.0013892548945651324
14.16,0.0013957698816978788
14.164,0.0013980777738187044
14.168000000000001,0.001397212314273395
14.172,0.001389855908138264
14.176,0.0013883173133910473
14.18,0.0013966113007002632
14.184000000000001,0.0013977171656748253
14.188,0.001398582625220135
14.192,0.0014036311392344402
14.196,0.0013996163685659213
14.200000000000001,0.0013981979765333307
14.204,0.0013961785709276082
14.208,0.0013928850165468472
14.212,0.0013911060163703777
14.216000000000001,0.0013866104348433535
14.22,0.0013825235425460587
14.224,0.0013743016768656188
14.228,0.0013783164475341377
14.232000000000001,0.0014096893560516068
14.236,0.0014508948466255085
14.24,0.001486234444725646
14.244,0.001518160285730396
14.248000000000001,0.0015418642610547056
14.252,0.0015532354378583555
14.256,0.0015437394234028763
14.26,0.00151215014999908
14.264000000000001,0.0014787337953329636
14.268,0.0014618813747423538
14.272,0.0014448125892654166
14.276,0.001424306006150167
14.280000000000001,0.0014079824775039128
14.284,0.0014004577875683054
14.288,0.0013952650302964482
14.292,0.0013887740837066273
14.296000000000001,0.0013871874078735598
14.3,0.0013893991378226842
14.304,0.0013939428004355588
14.308,0.001397140192644619
14.312000000000001,0.0013962266520134588
14.316,0.0013928850165468472
14.32,0.0013920916786303137
14.324,0.0013943755302082135
14.328000000000001,0.001394327449122363
14.332,0.0013871393267877094
14.336,0.001384639110323482
14.34,0.001386562353757503
14.344,0.001379806961195504
14.348,0.0013775952312463798
14.352,0.0013822110154880303
14.356,0.0013834370831772187
14.36,0.0013862498266994745
14.364,0.0013874037727598873
14.368,0.0013843265832654535
14.372,0.001384470826523005
14.376,0.0013913704623425556
14.38,0.00139266865166052
14.384,0.0013914425839713315
14.388,0.0013918031921152105
14.392,0.0013895433810802358
14.396,0.0013863219483282504
14.4,0.001382643745260685
14.404,0.0013804079747686355
14.408,0.0013799992855389061
14.412,0.001376777852786921
14.416,0.0013703590278258753
14.42,0.0013610793782567238
14.424,0.0013567039994443256
14.428,0.0013663923382432068
14.432,0.0013713927711716616
14.436,0.001370863879227306
14.44,0.001365959608470552
14.444,0.0013609591755420975
14.448,0.0013650941489252427
14.452,0.0013709360008560816
14.456,0.0013686040681923312
14.46,0.0013673058788743668
14.464,0.0013609351349991722
14.468,0.0013599975538250866
14.472,0.0013587955266788235
14.476,0.0013613197836859763
14.48,0.0013627622162614922
14.484,0.0013631709054912216
14.488,0.0013671616356168152
14.492,0.0013621852432312857
14.496,0.0013558866209848666
14.5,0.0013633632298346238
14.504,0.0013753113796684798
14.508000000000001,0.001378701096220942
14.512,0.0013775471501605292
14.516,0.0013820427316875534
14.52,0.0013881249890476451
14.524000000000001,0.0013906011649689473
14.528,0.0013898799486811893
14.532,0.0013894472189085346
14.536,0.001386826799729681
14.540000000000001,0.0013863940699570263
14.544,0.001382547583088984
14.548,0.0013798790828242799
14.552,0.001383004353404564
14.556000000000001,0.0013877162998179157
14.56,0.0013839659751215747
14.564,0.0013768980555015472
14.568,0.0013799512044530555
14.572000000000001,0.0013830283939474893
14.576,0.0013779077583044082
14.58,0.0013773067447312767
14.584,0.0013894472189085346
14.588000000000001,0.0013909617731128262
14.592,0.0013841582994649766
14.596,0.001386850840272606
14.6,0.001387283570045261
14.604000000000001,0.0013846631508664072
14.608,0.0013824995020031334
14.612,0.0013839659751215747
14.616,0.001385841137469745
14.620000000000001,0.0013823792992885072
14.624,0.0013789655421931198
14.628,0.0013783645286199883
14.632,0.0013766576500722945
14.636000000000001,0.0013774509879888282
14.64,0.0013783164475341377
14.644,0.001380720501826664
14.648,0.0013834851642630693
14.652000000000001,0.0013812013126851693
14.656,0.0013801916098823083
14.66,0.0013868027591867557
14.664,0.0013875239754745135
14.668000000000001,0.0013818744478870768
14.672,0.0013782683664482873
14.676,0.0013843265832654535
14.68,0.0013865383132145778
14.684000000000001,0.0013814897992002724
14.688,0.0013791338259935967
14.692,0.0013813695964856462
14.696,0.0013782683664482873
14.700000000000001,0.0013725467172320746
14.704,0.0013662480949856552
14.708,0.0013682434600484521
14.712,0.0013749988526104513
14.716000000000001,0.0013740612714363662
14.72,0.0013678107302757974
14.724,0.0013721380280023448
14.728,0.0013797829206525789
14.732000000000001,0.0013829562723187134
14.736,0.0013832928399196672
14.74,0.0013818263668012262
14.744,0.001376777852786921
14.748000000000001,0.0013786049340492408
14.752,0.0013894231783656093
14.756,0.0013943755302082135
14.76,0.0013930052192614737
14.764000000000001,0.0013895674216231608
14.768,0.0013876201376462145
14.772,0.001389206813479282
14.776,0.0013909617731128262
14.780000000000001,0.0013874518538457377
14.784,0.0013814657586573471
14.788,0.0013755277445548072
14.792,0.0013784126097058389
14.796000000000001,0.0013870912457018588
14.8,0.0013959862465842063
14.804,0.0013993038415078928
14.808,0.0013988951522781634
14.812000000000001,0.001398222017076256
14.816,0.001396971908844142
14.82,0.0013944716923799147
14.824,0.001393678354463381
14.828000000000001,0.0013933658274053525
14.832,0.0013951929086676725
14.836,0.001392043597544463
14.84,0.001387836502532542
14.844000000000001,0.0013898799486811893
14.848,0.001386754678100905
14.852,0.0013796627179379524
14.856,0.001376152798670864
14.86,0.0013932456246907262
14.864,0.0014342347503783009
14.868,0.00147200244331389
14.872,0.0015109721633957422
14.876,0.001538690909388571
14.88,0.0015423210313702856
14.884,0.0015436432612311753
14.888,0.001522439502371093
14.892,0.0014869797015563291
14.896,0.001463083401888617
14.9,0.0014397640752511114
14.904,0.0014141368564927804
14.908,0.001405265896153358
14.912,0.0014006741524546329
14.916,0.0013962266520134588
14.92,0.001392043597544463
14.924,0.0013876441781891398
14.928,0.0013862017456136241
14.932,0.001381994650601703
14.936,0.0013803118125969346
14.94,0.0013802156504252336
14.944,0.0013781000826478104
14.948,0.0013765614879005935
14.952,0.0013734362173203093
14.956,0.0013747344066382735
14.96,0.0013762970419284157
14.964,0.0013775952312463798
14.968,0.0013816821235436746
14.972,0.0013862017456136241
14.976,0.0013885336782773745
14.98,0.0013878605430754673
14.984,0.001383917894035724
14.988,0.0013843025427225282
14.992,0.0013814657586573471
14.996,0.0013792780692511483
15.0,0.0013781962448195114
15.004,0.001377787555589782
15.008000000000001,0.0013770182582161735
15.012,0.0013766816906152198
15.016,0.0013743737984943947
15.02,0.0013714648928004375
15.024000000000001,0.001368772351992808
15.028,0.00136439697318041
15.032,0.0013596129051382823
15.036,0.001353001755833835
15.040000000000001,0.0013598773511104604
15.044,0.0013674501221319184
15.048,0.0013650941489252427
15.052,0.0013587234050500476
15.056000000000001,0.0013632670676629226
15.06,0.001363651716349727
15.064,0.0013577858238759625
15.068,0.0013549009587249309
15.072000000000001,0.0013562712696716709
15.076,0.001358122391476916
15.08,0.001357930067133514
15.084,0.0013556221750126887
15.088000000000001,0.0013515593232583192
15.092,0.0013472079849888466
15.096,0.0013454530253553024
15.1,0.001344058673865637
15.104000000000001,0.0013435297819212812
15.108,0.0013408372411136517
15.112,0.0013465588903298644
15.116,0.0013505496204554582
15.120000000000001,0.0013559587426136424
15.124,0.0013560068236994928
15.128,0.0013543239856947246
15.132,0.0013628102973473426
15.136000000000001,0.0013653345543544952
15.14,0.001364493135352111
15.144,0.001365118189468168
15.148,0.0013674501221319184
15.152000000000001,0.001365118189468168
15.156,0.0013676905275611711
15.16,0.0013722101496311207
15.164,0.0013734602578632346
15.168000000000001,0.0013728111632042525
15.172,0.0013694935682805659
15.176,0.001372065906373569
15.18,0.0013735564200349356
15.184000000000001,0.001375792190526985
15.188,0.0013732438929769072
15.192,0.0013675703248465449
15.196,0.0013703830683688006
15.200000000000001,0.0013712725684570353
15.204,0.0013682194195055268
15.208,0.0013682915411343027
15.212,0.0013731717713481315
15.216000000000001,0.0013747584471811988
15.22,0.0013753594607543303
15.224,0.0013739170281788146
15.228,0.0013770663393020241
15.232000000000001,0.0013811532315993187
15.236,0.0013786770556780167
15.24,0.0013773548258171273
15.244,0.001375599866183583
15.248000000000001,0.0013737968254641882
15.252,0.001376152798670864
15.256,0.0013795425152233261
15.26,0.0013813936370285715
15.264000000000001,0.001378701096220942
15.268,0.001378436650248764
15.272,0.001376321082471341
15.276,0.0013744459201231703
15.280000000000001,0.0013724024739745226
15.284,0.0013746142039236472
15.288,0.0013780760421048851
15.292,0.0013804800963974114
15.296000000000001,0.001380263731511084
15.3,0.0013751430958680029
15.304,0.0013784606907916892
15.308,0.001376609568986444
15.312000000000001,0.001374782487724124
15.316,0.0013732679335198325
15.32,0.0013700705413107722
15.324,0.001368483865477705
15.328000000000001,0.001371873582030167
15.332,0.0013700945818536975
15.336,0.0013699022575102953
15.34,0.0013717533793155406
15.344000000000001,0.00137124852791411
15.348,0.00136759436538947
15.352,0.001365502838154972
15.356,0.0013679309329904237
15.36,0.0013669933518163384
15.364,0.0013643729326374848
15.368,0.001360189878168489
15.372,0.001358194513105692
15.376,0.0013571607697599056
15.38,0.0013595407835095066
15.384,0.001367858811361648
15.388,0.0013769461365873976
15.392,0.001376345123014266
15.396,0.0013737487443783378
15.4,0.0013772346231025008
15.404,0.0013805522180261871
15.408,0.0013838457724069482
15.412,0.001382547583088984
15.416,0.001376056636499163
15.42,0.0013756239067265082
15.424,0.001376705731158145
15.428,0.0013792780692511483
15.432,0.0013781481637336608
15.436,0.0013723063118028216
15.44,0.0013764893662718176
15.444,0.001376970177130323
15.448,0.0013762970419284157
15.452,0.0013751190553250778
15.456,0.0013779558393902588
15.46,0.0013812253532280946
15.464,0.0013781000826478104
15.468,0.0013753113796684798
15.472,0.0013862017456136241
15.476,0.0013855286104117166
15.48,0.0013695416493664163
15.484,0.001359035932108076
15.488,0.0013543480262376496
15.492,0.0013607668511986953
15.496,0.001384086177836201
15.5,0.00141408877540693
15.504,0.0014405333726247198
15.508000000000001,0.0014814503766835184
15.512,0.0015102028660221338
15.516,0.0015059236493814366
15.52,0.0014986153243321566
15.524000000000001,0.0014809936063679384
15.528,0.0014550057794657286
15.532,0.001439740034708186
15.536,0.0014320470609721016
15.540000000000001,0.0014109394642837206
15.544,0.001387283570045261
15.548,0.0013717293387726153
15.552,0.0013749267309816756
15.556000000000001,0.0013820667722304787
15.56,0.0013799512044530555
15.564,0.0013756239067265082
15.568,0.0013741093525222166
15.572000000000001,0.001374590163380722
15.576,0.0013675222437606943
15.58,0.0013648056624101395
15.584,0.0013708879197702312
15.588000000000001,0.0013749748120675262
15.592,0.001373508338949085
15.596,0.001372258230716971
15.6,0.001371969744201868
15.604000000000001,0.0013709360008560816
15.608,0.0013700465007678469
15.612,0.0013660557706422533
15.616,0.0013662000138998048
15.620000000000001,0.0013661519328139542
15.624,0.0013637959596072785
15.628,0.0013670173923592637
15.632,0.0013690608385079112
15.636000000000001,0.0013616323107440047
15.64,0.001353722972121593
15.644,0.001359035932108076
15.648,0.0013718255009443163
15.652000000000001,0.0013729313659188787
15.656,0.0013684357843918543
15.66,0.001368772351992808
15.664,0.0013706715548839038
15.668000000000001,0.0013677386086470215
15.672,0.001363291108205848
15.676,0.0013603100808831153
15.68,0.0013603100808831153
15.684000000000001,0.0013591561348227023
15.688,0.001359035932108076
15.692,0.0013602379592543394
15.696,0.0013586272428783466
15.700000000000001,0.0013533864045206392
15.704,0.0013513429583719917
15.708,0.0013499486068823266
15.712,0.0013474243498751738
15.716000000000001,0.0013524969044324045
15.72,0.001350910228599337
15.724,0.0013487706202789888
15.728,0.0013554058101263612
15.732000000000001,0.0013620890810595847
15.736,0.0013633151487487732
15.74,0.0013569203643306528
15.744,0.001353819134293294
15.748000000000001,0.0013547807560103046
15.752,0.0013521122557456002
15.756,0.001352352661174853
15.76,0.0013525930666041055
15.764000000000001,0.0013522564990031518
15.768,0.0013522324584602265
15.772,0.0013543480262376496
15.776,0.001354179742437173
15.780000000000001,0.0013517035665158708
15.784,0.0013518478097734223
15.788,0.001357016526502354
15.792,0.0013568963237877275
15.796000000000001,0.0013542518640659487
15.8,0.0013582425941915423
15.804,0.0013647816218672142
15.808,0.0013635315136351005
15.812000000000001,0.001357665621161336
15.816,0.0013627862568044173
15.82,0.0013702869061970996
15.824,0.0013712966089999606
15.828000000000001,0.0013677866897328721
15.832,0.0013677386086470215
15.836,0.001364493135352111
15.84,0.0013652864732686448
15.844000000000001,0.0013643729326374848
15.848,0.0013647816218672142
15.852,0.0013667769869300111
15.856,0.001364589297523812
15.860000000000001,0.0013635555541780258
15.864,0.0013621371621454353
15.868,0.0013543480262376496
15.872,0.0013529296342050592
15.876,0.0013597090673099835
15.88,0.0013616323107440047
15.884,0.0013583627969061688
15.888,0.0013578098644188876
15.892,0.0013594446213378054
15.896,0.0013663202166144311
15.9,0.0013679790140762743
15.904,0.0013662480949856552
15.908,0.0013633632298346238
15.912,0.0013640604055794564
15.916,0.001364493135352111
15.92,0.0013668971896446374
15.924,0.0013696137709951922
15.928,0.001368772351992808
15.932,0.001363194946034147
15.936,0.0013618486756303322
15.94,0.0013613919053147522
15.944,0.0013597571483958339
15.948,0.0013675462843036196
15.952,0.0013693733655659396
15.956,0.0013645171758950364
15.96,0.001360814932284546
15.964,0.0013602379592543394
15.968,0.0013672577977885164
15.972,0.0013621371621454353
15.976,0.0013587714861358982
15.98,0.0013540595397225465
15.984,0.001353097918005536
15.988,0.001359396540251955
15.992,0.001357112688674055
15.996,0.0013570646075882044
16.0,0.0013629785811478195
16.004,0.0013642767704657838
16.008,0.0013595167429665813
16.012,0.0013551413641541834
16.016000000000002,0.0013575934995325603
16.02,0.0013575454184467097
16.024,0.0013551413641541834
16.028,0.001353458526149415
16.032,0.0013517997286875718
16.036,0.0013555500533839128
16.04,0.0013619688783449585
16.044,0.001366416378786132
16.048000000000002,0.0013702869061970996
16.052,0.001372065906373569
16.056,0.0013722101496311207
16.06,0.0013740131903505156
16.064,0.0013788212989355683
16.068,0.0013736285416637113
16.072,0.001368411743848929
16.076,0.0013717293387726153
16.080000000000002,0.0013742295552368429
16.084,0.0013709119603131563
16.088,0.0013707196359697544
16.092,0.0013708157981414553
16.096,0.001367041432902189
16.1,0.0013692050817654627
16.104,0.0013738929876358893
16.108,0.0013724024739745226
16.112000000000002,0.0013665606220436837
16.116,0.0013633632298346238
16.12,0.001368772351992808
16.124,0.0013682434600484521
16.128,0.0013562231885858203
16.132,0.001345525146984078
16.136,0.0013458136334991812
16.14,0.0013550692425254077
16.144000000000002,0.0013893750972797589
16.148,0.0014256522765539817
16.152,0.001461256320626297
16.156,0.0014946726752924134
16.16,0.001506236176439465
16.164,0.0015019569597987683
