time,channel5
0.0,-0.004850179535171931
0.004,-0.004809190409484356
0.008,-0.004801184908690243
0.012,-0.00477719244685083
0.016,-0.004775197081788033
0.02,-0.004771759284149721
0.024,-0.004741804767664842
0.028,-0.004727741050053563
0.032,-0.004722380008981229
0.036000000000000004,-0.004743054875896956
0.04,-0.00468648747839381
0.044,-0.00468831455965613
0.048,-0.004657879232312747
0.052000000000000005,-0.004687328897396195
0.056,-0.00465400870490178
0.06,-0.0046527345561267405
0.064,-0.004609629862661743
0.068,-0.004613259984643458
0.07200000000000001,-0.004615928484908161
0.076,-0.004588546306516286
0.08,-0.004573016115786566
0.084,-0.004564914452820753
0.088,-0.004564601925762724
0.092,-0.004537460152800102
0.096,-0.004540152693607731
0.1,-0.0045090682716053656
0.10400000000000001,-0.004524694624506787
0.108,-0.004482142863529069
0.112,-0.00449223989155768
0.116,-0.004464280740135599
0.12,-0.004479690728150692
0.124,-0.0044560107933693084
0.128,-0.004444086684078377
0.132,-0.0044294459934368915
0.136,-0.004442403846073609
0.14,-0.004420382708754068
0.14400000000000002,-0.004381677434644393
0.148,-0.004395260341397167
0.152,-0.004370690906527548
0.156,-0.004368431095492573
0.16,-0.004331072091786713
0.164,-0.004346698444688134
0.168,-0.0043435010524790745
0.17200000000000001,-0.004328643996951261
0.176,-0.0043291488483526925
0.18,-0.004297463412777195
0.184,-0.004310156819441734
0.188,-0.004289602155240634
0.192,-0.004252675881307429
0.196,-0.004236688920262128
0.2,-0.00423815539338057
0.20400000000000001,-0.004242434610021267
0.20800000000000002,-0.004229356554669923
0.212,-0.004210484728473592
0.216,-0.0041914926995626324
0.22,-0.004200291538273279
0.224,-0.004199690524700148
0.228,-0.004170457224503027
0.232,-0.004140262302588896
0.23600000000000002,-0.004146200316691436
0.24,-0.004158557155755021
0.244,-0.0041504314522462825
0.248,-0.004100138636446631
0.252,-0.004093455365513408
0.256,-0.004103864920600047
0.26,-0.004096965284780496
0.264,-0.004063116200341726
0.268,-0.004085233499832968
0.272,-0.004053884631858424
0.276,-0.004023112736914087
0.28,-0.004030853791736021
0.28400000000000003,-0.004017823817470529
0.28800000000000003,-0.004002341707826659
0.292,-0.003998014410100111
0.296,-0.003972868002200286
0.3,-0.003948947661989648
0.304,-0.003958299433187576
0.308,-0.003929018051904605
0.312,-0.003941230647710639
0.316,-0.0039334174712599285
0.32,-0.003924907119064385
0.324,-0.003915387064065981
0.328,-0.003908247022817177
0.332,-0.003910771279824329
0.336,-0.0039023090087146367
0.34,-0.003873268032860919
0.34400000000000003,-0.0038430490704038623
0.34800000000000003,-0.003837976515846632
0.352,-0.003815378405496884
0.356,-0.0038374957049881267
0.36,-0.0038068920938442658
0.364,-0.0037881164298196354
0.368,-0.003797131633416609
0.372,-0.003768835914393574
0.376,-0.0037671290358458802
0.38,-0.003765013468068456
0.384,-0.0037547962373252193
0.388,-0.003750661263942074
0.392,-0.0037209231123435235
0.396,-0.0037056573675859805
0.4,-0.0037164515713594237
0.404,-0.003708422030022386
0.40800000000000003,-0.0036771452836766184
0.41200000000000003,-0.0036647163229842567
0.41600000000000004,-0.003652984538036728
0.42,-0.0036422384153491356
0.424,-0.0036370216175343538
0.428,-0.003621972237663139
0.432,-0.003604446681870621
0.436,-0.0036085095336249903
0.44,-0.0035770164223928955
0.444,-0.003569515773000213
0.448,-0.003612668547551061
0.452,-0.0035781222873674575
0.456,-0.0035692032459421845
0.46,-0.0035591062179135737
0.464,-0.0035366763913643033
0.468,-0.003542133594608338
0.47200000000000003,-0.003518549821998654
0.47600000000000003,-0.0034994856714589202
0.48,-0.0034841478050726023
0.484,-0.003492874522154473
0.488,-0.0034721996552387465
0.492,-0.0034979470767117038
0.496,-0.0034922975491242666
0.5,-0.003495230495361149
0.504,-0.0034842439672443035
0.508,-0.0034570300726529044
0.512,-0.003453880761529695
0.516,-0.0034478706257983793
0.52,-0.003420224001434326
0.524,-0.003409838486890612
0.528,-0.0034036600673588197
0.532,-0.0033755566726791867
0.536,-0.003398563472258664
0.54,-0.0033728641318715572
0.544,-0.0033534874542737944
0.548,-0.0033478138861434323
0.552,-0.00333295683061562
0.556,-0.003305839098195922
0.56,-0.003300093408436784
0.5640000000000001,-0.0032922802319860734
0.5680000000000001,-0.0032815100687555556
0.5720000000000001,-0.003288505866746807
0.5760000000000001,-0.0032520844442150325
0.58,-0.003268936864805642
0.584,-0.003266556851056041
0.588,-0.0032540557687349043
0.592,-0.003237515875202323
0.596,-0.0032453771327388844
0.6,-0.0032385015374622587
0.604,-0.00321580726494081
0.608,-0.0031998683849813604
0.612,-0.003200180912039389
0.616,-0.0032040995205362068
0.62,-0.0031952526007397097
0.624,-0.0031723179227890076
0.628,-0.0031825111129893204
0.632,-0.0031561386374003055
0.636,-0.0031465705013160507
0.64,-0.003133829013565661
0.644,-0.0031136589980513647
0.648,-0.003108634524579985
0.652,-0.0031064468351737857
0.656,-0.0030840891302532903
0.66,-0.0030643518445116493
0.664,-0.003047523464463965
0.668,-0.0030502881269003704
0.672,-0.003085507522285881
0.676,-0.0030395660447557022
0.68,-0.0030475715455498156
0.684,-0.0030450953696285134
0.6880000000000001,-0.003013313771881314
0.6920000000000001,-0.003001846432905964
0.6960000000000001,-0.002999394297527587
0.7000000000000001,-0.0029923984995363353
0.704,-0.002988383728867816
0.708,-0.0029427066973098156
0.712,-0.002924772452287569
0.716,-0.002956241522976739
0.72,-0.002951505536020462
0.724,-0.002920853843790751
0.728,-0.002915300478375015
0.732,-0.002924267600886138
0.736,-0.0029176564515816907
0.74,-0.0029063814369497424
0.744,-0.002893543787027652
0.748,-0.0028785905693281375
0.752,-0.00287197942002369
0.756,-0.0028278650237558317
0.76,-0.0028470253364672664
0.764,-0.0028626757299116128
0.768,-0.002851376674736739
0.772,-0.0028238262125443872
0.776,-0.0028145706035181605
0.78,-0.0028119261437963812
0.784,-0.00280771904878446
0.788,-0.002801853156310696
0.792,-0.0027821158705690543
0.796,-0.0027641575850038827
0.8,-0.00272651009478292
0.804,-0.00274341059645938
0.808,-0.0027361503524959505
0.812,-0.002721125013167661
0.8160000000000001,-0.0027107154580810217
0.8200000000000001,-0.0027105471742805446
0.8240000000000001,-0.0026837900500047266
0.8280000000000001,-0.0026734285760039384
0.8320000000000001,-0.002670062899994401
0.836,-0.0026605428449959965
0.84,-0.0026506862223966386
0.844,-0.002639435248307615
0.848,-0.002630852774483296
0.852,-0.0026382332211613516
0.856,-0.002600729974197941
0.86,-0.0025949842844388026
0.864,-0.002597364298188404
0.868,-0.0026009222985413434
0.872,-0.0025971960143879274
0.876,-0.002575391241954713
0.88,-0.0025553654696979684
0.884,-0.0025606784296844515
0.888,-0.0025506054421987664
0.892,-0.0025186315201081656
0.896,-0.002555149104811641
0.9,-0.0025404843736272303
0.904,-0.0025218289123172255
0.908,-0.0025202662770270833
0.912,-0.0025140397764094402
0.916,-0.002500384748027891
0.92,-0.002510938546372081
0.924,-0.002499110599252852
0.928,-0.0024826187868061205
0.932,-0.0024682906232226637
0.936,-0.0024432163369516135
0.9400000000000001,-0.00247845977288005
0.9440000000000001,-0.0024726179209492113
0.9480000000000001,-0.0024423749179492294
0.9520000000000001,-0.002443600985638418
0.9560000000000001,-0.002424464713469908
0.96,-0.0023960487917322466
0.964,-0.0023667914509922006
0.968,-0.002370373491888065
0.972,-0.0023498909493157405
0.976,-0.0023374860291663045
0.98,-0.0023255378793324484
0.984,-0.002332221150265672
0.988,-0.002359867774629725
0.992,-0.0023161620675915956
0.996,-0.0022897174703738056
1.0,-0.0022786588206281846
1.004,-0.002272047671323737
1.008,-0.0022614217513507707
1.012,-0.002270124427889716
1.016,-0.002257094453624223
1.02,-0.002238006262541564
1.024,-0.0022282938831997574
1.028,-0.002233654924272091
1.032,-0.002247093587767313
1.036,-0.0022237983016727327
1.04,-0.0022319720862673227
1.044,-0.002208845083973219
1.048,-0.0022088931650590697
1.052,-0.0021910791227514495
1.056,-0.0021630718902435173
1.06,-0.0021557154841083865
1.064,-0.0021661971608238012
1.068,-0.0021561962949668916
1.072,-0.0021371802255130082
1.076,-0.0021504986862936042
1.08,-0.002125208035136227
1.084,-0.0021260013730527608
1.088,-0.002126482183911266
1.092,-0.002112514628471688
1.096,-0.002097104640456594
1.1,-0.002090806018210175
1.104,-0.002082415868729258
1.108,-0.0020639767723055805
1.112,-0.0020364263101132285
1.116,-0.002027002417286525
1.12,-0.002054408636221326
1.124,-0.0020571973392006565
1.1280000000000001,-0.002026281200998767
1.1320000000000001,-0.002013491632162527
1.1360000000000001,-0.002000461657897034
1.1400000000000001,-0.002009188374978905
1.1440000000000001,-0.0020025051040456813
1.1480000000000001,-0.0019770702096307525
1.1520000000000001,-0.0019855324807404456
1.156,-0.0019736804930782907
1.16,-0.001964881654367644
1.164,-0.001989330886522637
1.168,-0.001993970711307213
1.172,-0.0019836092373064244
1.176,-0.0019613236540147053
1.18,-0.0019437019360504868
1.184,-0.0019455290173128067
1.188,-0.001953678761364471
1.192,-0.0019527411801903856
1.196,-0.0019404805032985015
1.2,-0.001930143069840638
1.204,-0.001928941042694375
1.208,-0.0019275947722905602
1.212,-0.0019559145318565206
1.216,-0.0019353117865695698
1.22,-0.0019091556758668831
1.224,-0.0018605937791578507
1.228,-0.0018162389774607395
1.232,-0.0017964055295473967
1.236,-0.0018128973419941278
1.24,-0.0018107577336737794
1.244,-0.0018304709788724953
1.248,-0.0018193642480410237
1.252,-0.0017814763523908079
1.256,-0.0017938331914543935
1.26,-0.0017690954727842974
1.264,-0.0017735189326825457
1.268,-0.0017948428942572547
1.272,-0.0017810917037040038
1.276,-0.0017629651343383553
1.28,-0.0017590705663844623
1.284,-0.00177207650010703
1.288,-0.001758565714983032
1.292,-0.00173786680752438
1.296,-0.0017191151840426743
1.3,-0.001734332847714366
1.304,-0.0017120953455084975
1.308,-0.0016926705868248845
1.312,-0.0016946178708018309
1.316,-0.0016607687863630593
1.32,-0.0016520420692811887
1.324,-0.0016575713941539994
1.328,-0.0016335789323145863
1.332,-0.001634925202718401
1.336,-0.0016416565547374752
1.34,-0.0016167745928098273
1.344,-0.0016119664842247745
1.348,-0.001613456997886141
1.352,-0.001596772861096008
1.356,-0.001572059182968837
1.36,-0.00156823673664372
1.364,-0.0015725640343702675
1.368,-0.0015682848177295706
1.372,-0.0015641498443464254
1.3760000000000001,-0.001549244707732762
1.3800000000000001,-0.0015479465184147975
1.3840000000000001,-0.0015401814230499374
1.3880000000000001,-0.0015499418834775945
1.3920000000000001,-0.0015515766403965123
1.3960000000000001,-0.0015452299370642428
1.4000000000000001,-0.0015508794646516798
1.4040000000000001,-0.001525901340552331
1.408,-0.0015023416084855724
1.412,-0.0015015963516548892
1.416,-0.0015126790419434358
1.42,-0.0014753440787805016
1.424,-0.001440749737511047
1.428,-0.0014362301154410976
1.432,-0.0014386582102765492
1.436,-0.001451135252054761
1.44,-0.0014166130324140826
1.444,-0.001397500800788498
1.448,-0.0014084392478194928
1.452,-0.001410074004738411
1.456,-0.0013813695964856462
1.46,-0.0013565116751009234
1.464,-0.0013417267412018864
1.468,-0.0013228549150055544
1.472,-0.0013028531832917354
1.476,-0.0012465261912178425
1.48,-0.001277851018649461
1.484,-0.0012894866414252886
1.488,-0.0012542912865827027
1.492,-0.0012441221369253162
1.496,-0.0012511900565453438
1.5,-0.0012613832467456554
1.504,-0.001257681003135165
1.508,-0.001242920109779053
1.512,-0.0012431364746653803
1.516,-0.00125039671862881
1.52,-0.001242463339463473
1.524,-0.001258426259965848
1.528,-0.0012475358940207035
1.532,-0.0012254907161582372
1.536,-0.0012137829717536336
1.54,-0.0011952717537011806
1.544,-0.0011934927535247112
1.548,-0.001198949956768746
1.552,-0.0011976517674507818
1.556,-0.0011895501044849681
1.56,-0.0011649806696153486
1.564,-0.0011717601027202728
1.568,-0.0011837803741829047
1.572,-0.00118426118504141
1.576,-0.0011524795872942114
1.58,-0.0011447144919293512
1.584,-0.0011481763301105891
1.588,-0.0011530084792385673
1.592,-0.001137117680364968
1.596,-0.0011373580857942207
1.6,-0.0011228616384102866
1.604,-0.0011265879225637026
1.608,-0.0011016097984643536
1.612,-0.0010920897434659495
1.616,-0.0011165389756209424
1.62,-0.001099470190144005
1.624,-0.001079204012458008
1.6280000000000001,-0.0010738670119285994
1.6320000000000001,-0.0010742757011583288
1.6360000000000001,-0.001074083376814927
1.6400000000000001,-0.0010524468881821898
1.6440000000000001,-0.0010272523991965133
1.6480000000000001,-0.0010354261837911029
1.6520000000000001,-0.0010206893309779165
1.6560000000000001,-0.0010144147492744224
1.6600000000000001,-0.0010505236447481685
1.6640000000000001,-0.0010055678294779255
1.668,-0.0010065054106520109
1.672,-0.001013909897872992
1.676,-9.95014031133735E-4
1.68,-9.725120829556881E-4
1.684,-9.832341651003558E-4
1.688,-9.698916637768345E-4
1.692,-9.615736359246932E-4
1.696,-9.513804457243815E-4
1.7,-9.303449706647758E-4
1.704,-9.471973912553856E-4
1.708,-9.381100660296359E-4
1.712,-9.154157935081872E-4
1.716,-9.162331719676461E-4
1.72,-9.017848056695626E-4
1.724,-8.673587482005851E-4
1.728,-8.562279768261882E-4
1.732,-8.740660596767338E-4
1.736,-8.609880043253903E-4
1.74,-8.477176246306448E-4
1.744,-8.241338520209613E-4
1.748,-8.581752608031345E-4
1.752,-8.663250048547988E-4
1.756,-8.298314606942486E-4
1.76,-8.117048913286E-4
1.764,-8.050937420241525E-4
1.768,-8.113202426417958E-4
1.772,-7.958381329979261E-4
1.776,-7.943957004224103E-4
1.78,-7.958381329979261E-4
1.784,-7.853804968254364E-4
1.788,-7.88097078175991E-4
1.792,-7.580944806052621E-4
1.796,-7.713648603000076E-4
1.8,-7.711965764995308E-4
1.804,-7.549211289391274E-4
1.808,-7.451606685114704E-4
1.812,-7.280197614057575E-4
1.816,-7.321787753318279E-4
1.82,-7.237645853079858E-4
1.824,-7.038349752229422E-4
1.828,-6.987864612086369E-4
1.832,-6.776548239773301E-4
1.836,-6.610668493588982E-4
1.84,-6.920791497324883E-4
1.844,-6.797703917547533E-4
1.848,-6.823908109336071E-4
1.852,-6.912377307301042E-4
1.856,-6.771499725758996E-4
1.86,-6.350790224566884E-4
1.864,-6.345260899694073E-4
1.868,-6.498639563557255E-4
1.872,-6.326028465353863E-4
1.8760000000000001,-6.154138583438228E-4
1.8800000000000001,-6.161591151745059E-4
1.8840000000000001,-6.395986445266379E-4
1.8880000000000001,-6.18899737067986E-4
1.8920000000000001,-5.95099599571975E-4
1.8960000000000001,-5.886086529821538E-4
1.9000000000000001,-5.850266120862895E-4
1.9040000000000001,-5.704580430735799E-4
1.9080000000000001,-5.627891098804207E-4
1.9120000000000001,-5.5086500058949E-4
1.9160000000000001,-5.43484553911434E-4
1.92,-5.238674708844189E-4
1.924,-4.970863060656754E-4
1.928,-5.151167132596231E-4
1.932,-5.464415406912415E-4
1.936,-5.296852822723328E-4
1.94,-5.046590770871333E-4
1.944,-4.920858731372206E-4
1.948,-5.004279415322869E-4
1.952,-4.854266427469225E-4
1.956,-4.716514116507465E-4
1.96,-4.7179565490829806E-4
1.964,-4.5811658598382305E-4
1.968,-4.487648147858955E-4
1.972,-4.6492005963167266E-4
1.976,-4.7028110070400635E-4
1.98,-4.515054366793755E-4
1.984,-4.4285084122628064E-4
1.988,-4.337875565434562E-4
1.992,-4.2126243367939393E-4
1.996,-4.0455425634633576E-4
2.0,-3.9856816115794514E-4
2.004,-4.2318567711341506E-4
2.008,-3.9241378216907765E-4
2.012,-3.813070513376059E-4
2.016,-3.5842045447275487E-4
2.02,-3.7301306402838996E-4
2.024,-3.6943102313252566E-4
2.028,-3.573867111269686E-4
2.032,-3.4868403458802313E-4
2.036,-3.542133594608338E-4
2.04,-3.5438164326131067E-4
2.044,-3.362069928098114E-4
2.048,-3.46207858666721E-4
2.052,-3.680847527287109E-4
2.056,-3.366397225824661E-4
2.06,-2.990162729044286E-4
2.064,-3.3791387135750505E-4
2.068,-3.3623103335273663E-4
2.072,-3.1473878797755095E-4
2.076,-2.9694878621285594E-4
2.08,-2.976459619576886E-4
2.084,-2.852891228941031E-4
2.088,-2.486753760189266E-4
2.092,-2.397803751365791E-4
2.096,-2.4403555123435073E-4
2.1,-2.4367494309047178E-4
2.104,-2.3889087504834434E-4
2.108,-2.597099852216226E-4
2.112,-2.1266264271688174E-4
2.116,-1.8388611283534124E-4
2.12,-1.912906000563224E-4
2.124,-1.9237242448795928E-4
2.128,-2.1516285918110915E-4
2.132,-2.1737458913023344E-4
2.136,-2.056908852685553E-4
2.14,-1.9614678972722566E-4
2.144,-1.745824227232642E-4
2.148,-1.6599994889894513E-4
2.152,-1.7025512499671677E-4
2.156,-1.9246858665966033E-4
2.16,-1.5847525896333763E-4
2.164,-1.6934158436555675E-4
2.168,-1.4931581210881218E-4
2.172,-1.121972138322052E-4
2.176,-1.2082776874237482E-4
2.18,-1.179429035913432E-4
2.184,-1.2301545814857382E-4
2.188,-1.2479445832504332E-4
2.192,-9.657086093078386E-5
2.196,-1.0265311829087554E-4
2.2,-1.157552141851442E-4
2.204,-1.0089815865733131E-4
2.208,-7.666529138866561E-5
2.212,-7.822792667880774E-5
2.216,-8.149744051664358E-5
2.22,-6.654422281712963E-5
2.224,-6.031772219948635E-5
2.228,-5.9572465368803184E-5
2.232,-4.433076115418607E-5
2.236,-2.0410420943548792E-5
2.24,6.827514190774861E-6
2.244,-2.50262051851994E-5
2.248,-5.264878900632727E-6
2.2520000000000002,1.197219037678127E-5
2.2560000000000002,7.067919620027497E-6
2.2600000000000002,2.3920340210637275E-5
2.2640000000000002,2.7358137848949972E-5
2.2680000000000002,2.319912392287937E-5
2.2720000000000002,3.36808006382943E-5
2.2760000000000002,2.50262051851994E-5
2.2800000000000002,2.682924590459417E-5
2.2840000000000003,5.074958611523145E-5
2.2880000000000003,6.469310101188433E-5
2.2920000000000003,4.0123666142264934E-5
2.2960000000000003,1.5890798873599236E-5
2.3000000000000003,3.293554380761113E-5
2.3040000000000003,3.276726000713428E-5
2.308,4.425863952541028E-5
2.312,5.911569505322318E-5
2.316,3.0723813858486873E-5
2.32,4.80089642217514E-5
2.324,1.0217230743237026E-4
2.328,1.261888098147086E-4
2.332,9.60179284435028E-5
2.336,1.0760547013347985E-4
2.34,1.2772740456192547E-4
2.344,1.4876287962153114E-4
2.348,1.5547019109767965E-4
2.352,1.6328336754839034E-4
2.356,1.6352377297764297E-4
2.36,1.5849929950626288E-4
2.364,1.6208134040212715E-4
2.368,1.709042196556989E-4
2.372,1.7210624680196208E-4
2.376,1.868671401580739E-4
2.38,1.823234775451991E-4
2.384,1.8458328858017388E-4
2.388,1.9278111371768874E-4
2.392,1.890067484784224E-4
2.396,1.896318025944792E-4
2.4,1.9650739787110461E-4
2.404,2.1992288668031134E-4
2.408,2.449490918655108E-4
2.412,2.4653576769857814E-4
2.416,2.324480095443737E-4
2.42,2.51079430311453E-4
2.424,2.4139109151257172E-4
2.428,2.627871747160563E-4
2.432,2.671865940713796E-4
2.436,2.7524017595134285E-4
2.44,2.8839035293146207E-4
2.444,2.826446631723241E-4
2.448,2.878614609871063E-4
2.452,3.0305508411587284E-4
2.456,3.126953418289036E-4
2.46,3.130799905157078E-4
2.464,3.171188017271521E-4
2.468,3.035839760602287E-4
2.472,3.3712053344097135E-4
2.476,3.482272642724431E-4
2.48,3.400534796778536E-4
2.484,3.6327664414365817E-4
2.488,3.803694701635206E-4
2.492,3.67459698612654E-4
2.496,3.7123406385192046E-4
2.5,3.783019834719479E-4
2.504,3.8635556535191124E-4
2.508,4.1371370320086116E-4
2.512,4.0178959390993046E-4
2.516,3.7173891525335096E-4
2.52,3.9373601202996714E-4
2.524,4.1751210898305287E-4
2.528,4.330663402556983E-4
2.532,4.3169602930895833E-4
2.536,4.2854671818574885E-4
2.54,4.5667415340830723E-4
2.544,4.4787531469766076E-4
2.548,4.363598946364595E-4
2.552,4.5775597783994406E-4
2.556,5.029762390823649E-4
2.56,4.7037726287570743E-4
2.564,4.5554424789081985E-4
2.568,4.500630041038597E-4
2.572,4.6309297836935256E-4
2.576,4.764354796928739E-4
2.58,4.6518450560385056E-4
2.584,4.791039799575782E-4
2.588,4.932879002834837E-4
2.592,5.131213481968261E-4
2.596,5.373061343796413E-4
2.6,5.414651483057119E-4
2.604,5.101162803311682E-4
2.608,5.32978836653094E-4
2.612,5.331952015394213E-4
2.616,5.229539302532589E-4
2.62,5.26776376578376E-4
2.624,5.409122158184309E-4
2.628,5.645200289710398E-4
2.632,5.733669487675367E-4
2.636,5.573319066363859E-4
2.64,5.679337860664272E-4
2.644,5.865411662905811E-4
2.648,5.649767992866198E-4
2.652,5.673808535791461E-4
2.656,5.833918551673716E-4
2.66,6.033935868811909E-4
2.664,6.055331952015393E-4
2.668,6.178659937221997E-4
2.672,6.298141435560556E-4
2.676,6.241646159686186E-4
2.68,6.19356507383566E-4
2.684,6.200056020425481E-4
2.688,6.49190821153818E-4
2.692,6.4207482044794E-4
2.696,6.435412935663811E-4
2.7,6.663557688024563E-4
2.704,6.601773492706635E-4
2.708,6.736400533088111E-4
2.712,6.793376619820986E-4
2.716,6.685915392945059E-4
2.72,6.827033379916355E-4
2.724,7.173217198040152E-4
2.728,6.953727041132495E-4
2.732,7.054697321418603E-4
2.736,7.175140441474172E-4
2.74,7.063111511442444E-4
2.744,7.318422077308743E-4
2.748,7.322989780464543E-4
2.7520000000000002,7.34462626909728E-4
2.7560000000000002,7.467713848874631E-4
2.7600000000000002,7.392707354947807E-4
2.7640000000000002,7.550894127396042E-4
2.7680000000000002,7.475406822610714E-4
2.7720000000000002,7.535508179923872E-4
2.7760000000000002,7.697301033810896E-4
2.7800000000000002,7.868710104868027E-4
2.7840000000000003,7.44295208966161E-4
2.7880000000000003,7.744420497944414E-4
2.7920000000000003,7.778317663469036E-4
2.7960000000000003,7.701628331537445E-4
2.8000000000000003,7.897558756378342E-4
2.8040000000000003,8.101182154955326E-4
2.8080000000000003,8.210326219836023E-4
2.8120000000000003,8.286294335479855E-4
2.816,8.257205278540286E-4
2.82,8.297352985225476E-4
2.824,8.54857665879448E-4
2.828,8.267302306568897E-4
2.832,8.321153122721489E-4
2.836,8.4180365107103E-4
2.84,8.544970577355691E-4
2.844,8.550740307657754E-4
2.848,8.602187069517819E-4
2.852,8.793790196632169E-4
2.856,8.93611021074973E-4
2.86,9.091171712617681E-4
2.864,8.791145736910391E-4
2.868,8.932023318452436E-4
2.872,8.631276126457387E-4
2.876,8.781529519740286E-4
2.88,8.810618576679855E-4
2.884,8.808935738675086E-4
2.888,9.041407788762384E-4
2.892,9.100066713500029E-4
2.896,9.200075372069126E-4
2.9,9.238780646178799E-4
2.904,9.223154293277378E-4
2.908,9.314748761822632E-4
2.912,9.595301897760458E-4
2.916,9.540729865320111E-4
2.92,9.307777004374306E-4
2.924,9.708773260367703E-4
2.928,9.76598975252983E-4
2.932,9.655643660502869E-4
2.936,9.721995558976597E-4
2.94,9.671029607975039E-4
2.944,9.80517583749801E-4
2.948,9.900857198340558E-4
2.952,9.917445172958992E-4
2.956,9.864075167664906E-4
2.96,0.0010100634110049498
2.964,9.766710968817586E-4
2.968,9.82705273156E-4
2.972,0.0010079959243133772
2.976,0.0010322047510391177
2.98,0.001022925101469966
2.984,0.0010174919387688564
2.988,0.0010475185768825106
2.992,0.0010567982264516624
2.996,0.001054466293787912
3.0,0.0010651883759325795
3.004,0.0011030281904969442
3.008,0.001061053402549434
3.012,0.0010503553609476917
3.016,0.0010765835932791542
3.02,0.0011056005285899474
3.024,0.0010930513651829599
3.028,0.0010975709872529094
3.032,0.0010968738115080768
3.036,0.0011058168934762749
3.04,0.0011131011779826295
3.044,0.001138487991311708
3.048,0.0011452433838737071
3.052,0.0011240396250136245
3.056,0.0011341366530422353
3.06,0.0011532969657536704
3.064,0.001157191533707563
3.068,0.0011516862493776779
3.072,0.0011679616969380812
3.076,0.0011786597385398236
3.08,0.001167024115763996
3.084,0.0011749094138434823
3.088,0.0011724813190080307
3.092,0.001177698116822813
3.096,0.0011631535883530283
3.1,0.0011536816144404746
3.104,0.0011793328737417308
3.108,0.0011792367115700299
3.112,0.001176520130219475
3.116,0.0011706061566598602
3.12,0.0011829629957234456
3.124,0.00122258181046428
3.128,0.0012304671085437667
3.132,0.0012147926745564948
3.136,0.0012306594328871687
3.14,0.0012768653563895252
3.144,0.0012313325680890761
3.148,0.001245396285700355
3.152,0.0012680184365930283
3.156,0.0012525122864062333
3.16,0.0012648450849268935
3.164,0.0012706869368577325
3.168,0.0012955688987853803
3.172,0.0012971315340755225
3.176,0.0012952563717273519
3.18,0.0013054976430135143
3.184,0.001330740213085041
3.188,0.001302468534604931
3.192,0.0013093200893386312
3.196,0.0013140320357519827
3.2,0.0013122049544896626
3.204,0.0013232395636923588
3.208,0.0013379523759626203
3.212,0.0013505736609983835
3.216,0.0013547086343815287
3.22,0.0013514150800007676
3.224,0.0013700945818536975
3.228,0.0013734362173203093
3.232,0.0013432893764920286
3.236,0.001351823769230497
3.24,0.0013910819758274524
3.244,0.0014060592340698918
3.248,0.0013992076793361917
3.2520000000000002,0.001408367126190717
3.2560000000000002,0.0014135598834625741
3.2600000000000002,0.0014044725582368243
3.2640000000000002,0.0014145215051795848
3.2680000000000002,0.0014244262088647932
3.2720000000000002,0.0014313258446843437
3.2760000000000002,0.001405818828640639
3.2800000000000002,0.0014027416391462055
3.2840000000000003,0.001416661113499933
3.2880000000000003,0.0014225750870595479
3.2920000000000003,0.001442288332258264
3.2960000000000003,0.0014476253327876728
3.3000000000000003,0.0014378648723600157
3.3040000000000003,0.0014456299677248756
3.3080000000000003,0.0014574819553870306
3.3120000000000003,0.0014582031716747885
3.3160000000000003,0.001467458780701015
3.3200000000000003,0.0014939514590046556
3.3240000000000003,0.0014597417664220054
3.3280000000000003,0.0014675789834156412
3.332,0.0014820754307995753
3.336,0.0014897443639927345
3.34,0.0015191940290761822
3.344,0.0015299401517637752
3.348,0.0015052024330936787
3.352,0.0014882538503313682
3.356,0.0015007789731954302
3.36,0.0015264061919537614
3.364,0.0015450135721779155
3.368,0.0015060438520960629
3.372,0.001522896272686673
3.376,0.0015434028558019225
3.38,0.001543090328743894
3.384,0.0015389313148178236
3.388,0.0015602071953066822
3.392,0.001560567803450561
3.396,0.0015470810588694881
3.4,0.0015464560047534312
3.404,0.0015749200075769432
3.408,0.0016089854569020419
3.412,0.0015631882226294148
3.416,0.0015713860477669294
3.42,0.0015890558468169985
3.424,0.0015959074015506986
3.428,0.001596941144896485
3.432,0.00158148307579554
3.436,0.0015918445497963292
3.44,0.0016235540259147516
3.444,0.0016338193377438389
3.448,0.0016242271611166589
3.452,0.0016471137579815098
3.456,0.0016332904457994832
3.46,0.001636103189321739
3.464,0.0016328336754839032
3.468,0.0016615861648225183
3.472,0.001681227288392459
3.476,0.001692165735423454
3.48,0.001679784855816943
3.484,0.0016666346788368242
3.488,0.0016794242476730642
3.492,0.0016931994787692402
3.496,0.001693920695056998
3.5,0.001690795424476714
3.504,0.0016760104905776767
3.508,0.0017161101161770164
3.512,0.0016976710197533391
3.516,0.0016850497347175757
3.52,0.001703032060825673
3.524,0.0017080324937541276
3.528,0.0017197642787016565
3.532,0.0017314960636491848
3.536,0.0017452953352882865
3.54,0.0017540460929130824
3.544,0.0017689993106125962
3.548,0.001754286498342335
3.552,0.001747074335464756
3.556,0.001739862172587177
3.56,0.0017721245811928806
3.564,0.0017680376888955858
3.568,0.0017675328374941552
3.572,0.0017888327585259389
3.576,0.0017914531777047924
3.58,0.0018068631657198863
3.584,0.0018228982078510373
3.588,0.0018356396956014272
3.592,0.0017950352186006566
3.596,0.0017825100957365944
3.6,0.0017993865568701293
3.604,0.0018272014650346595
3.608,0.001837899506636402
3.612,0.001816094734203188
3.616,0.0018201335454146321
3.62,0.0018238598295680479
3.624,0.0018368657632906156
3.628,0.0018425393314209777
3.632,0.0018421306421912483
3.636,0.0018544634407119084
3.64,0.0018741766859106245
3.644,0.001884682403168965
3.648,0.0018714601045600697
3.652,0.0018611226711022064
3.656,0.0018665798743462412
3.66,0.0018641277389678643
3.664,0.0018700176719845538
3.668,0.001877157713233357
3.672,0.0018811003622731
3.676,0.0019190122984662412
3.68,0.0019387255436649573
3.684,0.0019189401768374653
3.688,0.0019346146108247372
3.692,0.0019350233000544666
3.696,0.0019010780534439945
3.7,0.001927113961432055
3.704,0.0019627901271331463
3.708,0.00195810222126272
3.712,0.0019470435715170983
3.716,0.001947836909433632
3.72,0.001966348127486085
3.724,0.0019897876568382173
3.728,0.0019634632623350538
3.732,0.0019732237227627104
3.736,0.0019886096702348794
3.74,0.0019881048188334486
3.744,0.0019959660763700098
3.748,0.001987936535032972
3.7520000000000002,0.0020116164698143566
3.7560000000000002,0.0020283246471474144
3.7600000000000002,0.002027723633574283
3.7640000000000002,0.002001735806672073
3.7680000000000002,0.002035080039709414
3.7720000000000002,0.002007457455888286
3.7760000000000002,0.0020083229154335956
3.7800000000000002,0.0020181074164041775
3.7840000000000003,0.0020207518761259564
3.7880000000000003,0.0020611880693262503
3.7920000000000003,0.002088978936947855
3.7960000000000003,0.0020628709073310185
3.8000000000000003,0.002057630068973311
3.8040000000000003,0.002077439476343728
3.8080000000000003,0.0020808291928961905
3.8120000000000003,0.002079290598148973
3.8160000000000003,0.0020528219603882583
3.8200000000000003,0.002064169096648983
3.8240000000000003,0.002064722029136264
3.8280000000000003,0.0020761653275686892
3.8320000000000003,0.0020848199230217843
3.8360000000000003,0.002092560977843719
3.84,0.002102609924786479
3.844,0.00210270608695818
3.848,0.0021129473582443426
3.852,0.0021174188992284415
3.856,0.0021467243210543377
3.86,0.0021435990504740537
3.864,0.0020988836406330633
3.868,0.002112418466299987
3.872,0.002143743293731605
3.876,0.002137035982255457
3.88,0.0021382620499446454
3.884,0.0021464117939963092
3.888,0.0021478061454859748
3.892,0.0021469647264835906
3.896,0.0021504506052077536
3.9,0.00218107825689454
3.904,0.0021828572570710093
3.908,0.0021599947007490835
3.912,0.002172928512842875
3.916,0.0021832178652148883
3.92,0.002187881730542389
3.924,0.002217523719969239
3.928,0.002215071584590862
3.932,0.0022073305297689275
3.936,0.0022207211121782994
3.94,0.002220528787834897
3.944,0.002226274477594035
3.948,0.002246180047136153
3.952,0.0022046139484183727
3.956,0.0022247118423038927
3.96,0.002248271574370651
3.964,0.00224269416841199
3.968,0.0022196392877466622
3.972,0.0022490168312013343
3.976,0.0022454588308483954
3.98,0.002224447396331715
3.984,0.0022362272623650944
3.988,0.002257431021225177
3.992,0.002267672292511339
3.996,0.0022442808442450575
4.0,0.0022515891692943373
4.0040000000000004,0.0022832746048698353
4.008,0.0022911599029493217
4.0120000000000005,0.002287289375538354
4.016,0.0022845968347307245
4.0200000000000005,0.002322292406037538
4.024,0.0023264995010494594
4.0280000000000005,0.002320609568032769
4.032,0.002311161634663141
4.0360000000000005,0.0023345530829294225
4.04,0.00235029963854547
4.0440000000000005,0.002338351488711614
4.048,0.0023294564878292667
4.0520000000000005,0.0023424624215518343
4.056,0.0023446260704151076
4.0600000000000005,0.0023577281663093763
4.064,0.0023644114372425996
4.0680000000000005,0.0023678492348809125
4.072,0.0023784751548538794
4.0760000000000005,0.0023849180203578497
4.08,0.002383836195926213
4.0840000000000005,0.0023732583570390967
4.088,0.0023514295440629574
4.0920000000000005,0.002372921789438143
4.096,0.0023796771820001426
4.1,0.0023818167903204906
4.104,0.0023954718187020403
4.108,0.0023947746429572076
4.112,0.0023971546567068086
4.116,0.0024051601575009215
4.12,0.0024067227927910637
4.124,0.0024285996868530536
4.128,0.00246429989309707
4.132,0.0024124925230931266
4.136,0.0024147282935851762
4.14,0.0024355233632155295
4.144,0.0024331673900088537
4.148,0.002431821119605039
4.152,0.002437927417508056
4.156,0.0024446828100700545
4.16,0.0024433124991233147
4.164,0.002432686579150348
4.168,0.002458794608767185
4.172,0.00249855766676557
4.176,0.002479998367627267
4.18,0.0024804070568569966
4.184,0.0024811042326018293
4.188,0.002518871925537418
4.192,0.0025161553441868634
4.196,0.0024763922861884774
4.2,0.002467833852907084
4.204,0.0024761278402162996
4.208,0.002491417625516767
4.212,0.002518222830878436
4.216,0.002526829345245681
4.22,0.0025145205872679458
4.224,0.0025024522347194635
4.228,0.0025193286958529984
4.232,0.002526757223616905
4.236,0.0025373110219610957
4.24,0.002552168077488908
4.244,0.0025377677922766755
4.248,0.002549595739395905
4.252,0.002536902332731366
4.256,0.00255505294263994
4.26,0.0025781799449340437
4.264,0.002554956780468239
4.268,0.0025315653322019577
4.272,0.0025817379452869826
4.276,0.0025901280947678994
4.28,0.002569405146766322
4.284,0.0025840939184936583
4.288,0.002594094784350568
4.292,0.002600465528225763
4.296,0.0025752469986971616
4.3,0.002585993121384754
4.304,0.002603350393376795
4.308,0.002610682758969
4.312,0.0025866662565866617
4.316,0.002603278271748019
4.32,0.00260200412297298
4.324,0.002612942570003975
4.328,0.0026393150455929887
4.332,0.0026278957877034887
4.336,0.00263758412650237
4.34,0.002646863776071522
4.344,0.0026289054905063495
4.348,0.002652056533343379
4.352,0.002673043927317134
4.356,0.0026306123690540435
4.36,0.0026058986909268727
4.364,0.0026239531386637455
4.368,0.002647440749101728
4.372,0.002664677818379142
4.376,0.002646599330099344
4.38,0.002634699261351338
4.384,0.0026400603024236717
4.388,0.002671841900170871
4.392,0.0026975412405579775
4.396,0.0027073257415285595
4.4,0.002680953265939546
4.404,0.00269686810535607
4.408,0.0027144657827773626
4.412,0.002702709957286909
4.416,0.002710090403964965
4.42,0.0027078786740158405
4.424,0.002695233348437152
4.428,0.002715956296438729
4.432,0.0027238175539752905
4.436,0.0027254282703512833
4.44,0.002736198433581801
4.444,0.0027344675144911823
4.448,0.002697421037843351
4.452,0.0027232886620309348
4.456,0.002753315300144589
4.46,0.0027559597598663683
4.464,0.0027573781518989587
4.468,0.002752137313541251
4.472,0.0027574262329848093
4.476,0.002753315300144589
4.48,0.002759325435875905
4.484,0.002772211166883846
4.488,0.0027800964649633323
4.492,0.002770576409964928
4.496,0.002785529627664442
4.5,0.002780697478536464
4.5040000000000004,0.0027885346955300997
4.508,0.0028180564822423235
4.5120000000000005,0.002793823614973658
4.516,0.0028019012373965467
4.5200000000000005,0.0028133204952860468
4.524,0.0027936072500873302
4.5280000000000005,0.002798463439758234
4.532,0.002817527590297968
4.5360000000000005,0.002808776832673172
4.54,0.0028346444568607557
4.5440000000000005,0.002844428957831338
4.548,0.002831807672795575
4.5520000000000005,0.002855319323776482
4.556,0.0028772202583813977
4.5600000000000005,0.002852530620797152
4.564,0.002862339162310659
4.5680000000000005,0.002868974352158032
4.572,0.0028763547988360882
4.5760000000000005,0.002897390273895694
4.58,0.002871234163193007
4.5840000000000005,0.0028431788495992243
4.588,0.0028719313389378395
4.5920000000000005,0.002886307583607147
4.596,0.0028874134485817092
4.6000000000000005,0.0028866201106651753
4.604,0.0028683733385849006
4.6080000000000005,0.0028815956371937954
4.612,0.002880826339820187
4.616,0.002883879488771695
4.62,0.002909723072416354
4.624,0.0029333308855689624
4.628,0.002915300478375015
4.632,0.0029064054774926677
4.636,0.0029127521808249373
4.64,0.0029247484117446436
4.644,0.002955255860716803
4.648,0.002938018791439389
4.652,0.002962564185766083
4.656,0.002963910456169898
4.66,0.002955784752661159
4.664,0.0029785511468113837
4.668,0.0029829024850808565
4.672,0.0029742478896277614
4.676,0.0029777818494377754
4.68,0.0029621074154505033
4.684,0.0029552077796309527
4.688,0.002998480756896427
4.692,0.0029941534591698795
4.696,0.0029650644022303106
4.7,0.002976772146634914
4.704,0.002996365189119004
4.708,0.0030166313668050014
4.712,0.0030288680031539603
4.716,0.002978382863010907
4.72,0.0030058612035744827
4.724,0.0030183863264385455
4.728,0.0030210307861603244
4.732,0.003033339544138059
4.736,0.0030402632205005354
4.74,0.003021920286248559
4.744,0.0030353829902867065
4.748,0.0030389409906396454
4.752,0.003045624261572869
4.756,0.00307764626474932
4.76,0.0030579811006364544
4.764,0.0030283631517525294
4.768,0.003029204570754914
4.772,0.0030504083296149964
4.776,0.0030650730607994074
4.78,0.0030621881956483755
4.784,0.003059014843982241
4.788,0.0030866374278033684
4.792,0.0030852911573995534
4.796,0.003084521860025945
4.8,0.0030880317792930335
4.804,0.00311094241670081
4.808,0.0030759634267445513
4.812,0.003093849590680948
4.816,0.003092599482448834
4.82,0.003112024241132447
4.824,0.0031323865809901453
4.828,0.003090363711956785
4.832,0.0030985615370942993
4.836,0.0031187075120656703
4.84,0.0031334443648788567
4.844,0.003134742554196821
4.848,0.0031441664470235244
4.852,0.0031138994034806172
4.856,0.003137459135547376
4.86,0.003136569635459141
4.864,0.003128419891407477
4.868,0.0031550568129686688
4.872,0.0031380841896634327
4.876,0.003136377311115739
4.88,0.003136353270572814
4.884,0.0031585426916928318
4.888,0.003172149638988531
4.892,0.003182871721133199
4.896,0.0031600812864400487
4.9,0.0031822707075600675
4.904,0.0031993394930370047
4.908,0.0031966950333152254
4.912,0.003206623777543359
4.916,0.0031936899654495675
4.92,0.003204508209765936
4.924,0.003216624643400269
4.928,0.003206070845056078
4.932,0.0032107827914694296
4.936,0.003232948172046523
4.94,0.003219172940950347
4.944,0.0032069363046013876
4.948,0.0031979691820902645
4.952,0.003207946007404249
4.956,0.003239246794292942
4.96,0.0032551856742523916
4.964,0.003235135861452722
4.968,0.0032485745249479442
4.972,0.0032391025510353903
4.976,0.00325275757941694
4.98,0.0032646816887078704
4.984,0.00325778205288832
4.988,0.0032754999330242398
4.992,0.003274658514021855
4.996,0.0032544404174217082
5.0,0.003258599431347779
5.0040000000000004,0.0032988673407475955
5.008,0.003268383932318361
5.0120000000000005,0.0032737209328477694
5.016,0.0032654029049956285
5.0200000000000005,0.003266556851056041
5.024,0.0032908137588676324
5.0280000000000005,0.003291126285925661
5.032,0.0032748508383652576
5.0360000000000005,0.00329559782690976
5.04,0.0033094692201776368
5.0440000000000005,0.0033251436541649093
5.048,0.0033339665334184807
5.0520000000000005,0.00331437349093439
5.056,0.003317378558800048
5.0600000000000005,0.003332524100842965
5.064,0.0033427172910432765
5.0680000000000005,0.0033549058463063853
5.072,0.0033559636301950966
5.0760000000000005,0.0033445203317626713
5.08,0.0033497130890345283
5.0840000000000005,0.003347741764514657
5.088,0.003341563344982864
5.0920000000000005,0.003338726560917683
5.096,0.0033362984660822315
5.1000000000000005,0.0033481985348302367
5.104,0.0033626228605853946
5.1080000000000005,0.003368753199031337
5.112,0.003360339009007495
5.1160000000000005,0.0033737295914168667
5.12,0.003357382022227687
5.124,0.0033595216305480355
5.128,0.0033675511718850738
5.132,0.0033774318350273573
5.136,0.00340873262191605
5.14,0.003392817782499526
5.144,0.0033642576175043127
5.148,0.0033899809984343447
5.152,0.0033895723092046155
5.156,0.003399260648003496
5.16,0.003427484245397756
5.164,0.003405006337762634
5.168,0.003385677741250723
5.172,0.003416137109137031
5.176,0.003424647461332575
5.18,0.003436787935509833
5.184,0.0034525585316688054
5.188,0.0034339511514446517
5.192,0.003458905235001075
5.196,0.003435441665106018
5.2,0.003440898868350053
5.204,0.0034802532371187096
5.208,0.0034677040737117215
5.212,0.00345477026161793
5.216,0.0034721996552387465
5.22,0.003486936508051933
5.224,0.003475805736677536
5.228,0.003470877425377856
5.232,0.0034569098699382783
5.236,0.0034750123987610025
5.24,0.003473569966185487
5.244,0.003467752154797572
5.248,0.003493523616813455
5.252,0.0035011925500066142
5.256,0.0034727525877260275
5.26,0.003490398346233171
5.264,0.0034832583049843675
5.268,0.0034858066025344457
5.272,0.0035303777691178843
5.276,0.0035070103613945277
5.28,0.0035033081177840374
5.284,0.0035049909557888057
5.288,0.0035208096330336296
5.292,0.003517347794852391
5.296,0.003544850175958893
5.3,0.0035111934158635234
5.304,0.0035138378755853027
5.308,0.0035224684304954726
5.312,0.0035395372159724094
5.316,0.0035510526360336106
5.32,0.00355374517684124
5.324,0.0035295603906584255
5.328,0.003549538081829319
5.332,0.0035486726222840096
5.336,0.003570044664944569
5.34,0.0035730256922673017
5.344,0.0035498506088873475
5.348,0.0035600197585447337
5.352,0.0035786752198547385
5.356,0.003590671450774445
5.36,0.003589661747971584
5.364,0.0035903348831734915
5.368,0.0035767279358777924
5.372,0.0035892530587418544
5.376,0.0035990616002553617
5.38,0.003598821194826109
5.384,0.0036138465341543986
5.388,0.0036049515332720514
5.392,0.003591488829233904
5.396,0.003607860438966008
5.4,0.003613317642210043
5.404,0.003622741535036747
5.408,0.003652022916319718
5.412,0.0036267803462481916
5.416,0.003601177168032785
5.42,0.003640050725942937
5.424,0.0036307470358308597
5.428,0.0036263476164755367
5.432,0.0036273332787354726
5.436,0.0036160823046464483
5.44,0.0036476234969643946
5.444,0.0036421662937203597
5.448,0.0036303383466011305
5.452,0.0036655577419866412
5.456,0.0036558213221019095
5.46,0.003653946159753739
5.464,0.0036689234179961786
5.468,0.0036847420952410017
5.472,0.003710056786941304
5.476,0.0037178459228490897
5.48,0.00367865983788091
5.484,0.0036964979207314555
5.488,0.0037010415833443303
5.492,0.003699935718369768
5.496,0.0037064507055025145
5.5,0.00369693065050411
5.5040000000000004,0.003693877501552602
5.508,0.0037176295579627624
5.5120000000000005,0.003712532962862606
5.516,0.003713278219693289
5.5200000000000005,0.003747560033904715
5.524,0.003715730355071666
5.5280000000000005,0.003696738326160708
5.532,0.003715177422584385
5.5360000000000005,0.0037283516401074297
5.54,0.003754363507552565
5.5440000000000005,0.0037481610474778466
5.548,0.003731813478288668
5.5520000000000005,0.003747824479876893
5.556,0.0037471273041320605
5.5600000000000005,0.0037544356291813403
5.564,0.0037623209272608267
5.5680000000000005,0.003747704277162267
5.572,0.003755685737413454
5.5760000000000005,0.0037743171581805343
5.58,0.003775134536639993
5.5840000000000005,0.003780447496626476
5.588,0.0038028292420898965
5.5920000000000005,0.003753762493979433
5.596,0.0037617679947735457
5.6000000000000005,0.0037705427929412678
5.604,0.003788717443392767
5.6080000000000005,0.0037938140384929228
5.612,0.003783596807749686
5.6160000000000005,0.00377575959075605
5.62,0.0037936938357782963
5.6240000000000006,0.0038050409720390204
5.628,0.0038043678368371134
5.632,0.003818263270647916
5.636,0.003801963782544587
5.64,0.0038098971617099237
5.644,0.0038116280808005425
5.648,0.00380042518779737
5.652,0.003824393609093858
5.656,0.0038501891116526654
5.66,0.003807829675018351
5.664,0.0038059785532131058
5.668,0.0038331924478045044
5.672,0.003851607503685256
5.676,0.003877306844072363
5.68,0.0038606948289110054
5.684,0.003835884988612134
5.688,0.0038647095995795245
5.692,0.0038711524650834957
5.696,0.003860550585653454
5.7,0.003872282370600983
5.704,0.0038568002609571128
5.708,0.0038562473284698318
5.712,0.0038604303829388275
5.716,0.003863291207546934
5.72,0.00389117823734024
5.724,0.0038914426833124177
5.728,0.0038570406663863653
5.732,0.0038735805599189473
5.736,0.0038811052498545547
5.74,0.003896755643298901
5.744,0.003908319144445953
5.748,0.0038847353718362695
5.752,0.0038882212505604325
5.756,0.0038975970623012853
5.76,0.003907910455216223
5.764,0.0039127906854300515
5.768,0.003930941295338626
5.772,0.003898751008361698
5.776,0.003912333915114472
5.78,0.0039326241333433945
5.784,0.003942072066713024
5.788,0.003955053959892665
5.792,0.0039427692424578555
5.796,0.003926806321955481
5.8,0.003959669744134316
5.804,0.0039714736507106205
5.808,0.003947240783441955
5.812,0.003969334042390272
5.816,0.0039495967566486306
5.82,0.003947865837558012
5.824,0.003949500594476929
5.828,0.003941519134225742
5.832,0.0039531547570015695
5.836,0.00397645004309615
5.84,0.003954308703061982
5.844,0.0039714736507106205
5.848,0.003982075530140662
5.852,0.0039738536644602215
5.856,0.003992268720340974
5.86,0.003977555908070712
5.864,0.003966593420496792
5.868,0.003987196165783743
5.872,0.003997605720870382
5.876,0.003989600220076269
5.88,0.004021598182709795
5.884,0.004016165020008685
5.888,0.0040106597356788
5.892,0.004015612087521404
5.896,0.004019771101447475
5.9,0.0040304691430492175
5.904,0.004042825982112802
5.908,0.004017126641725696
5.912,0.004016766033581817
5.916,0.004037032211267814
5.92,0.004033979062316306
5.924,0.0040626594300261455
5.928,0.0040379938329848245
5.932,0.004017270884983248
5.936,0.0040387871709013584
5.94,0.0040595581999887855
5.944,0.00406532793029085
5.948,0.004075400917776535
5.952,0.004056456969951426
5.956,0.00406715501155317
5.96,0.004073261309456187
5.964,0.004070881295706586
5.968,0.0040841516754013315
5.972,0.004086483608065082
5.976,0.0040610727541930776
5.98,0.00406350084902853
5.984,0.004080257107447438
5.988,0.004101244501421193
5.992,0.0041062689748925735
5.996,0.00406669824123759
6.0,0.004076098093521368
6.0040000000000004,0.004089320392130263
6.008,0.0040817716616517305
6.0120000000000005,0.004083791067257452
6.016,0.004125789895747888
6.0200000000000005,0.004089272311044412
6.024,0.004093311122255856
6.0280000000000005,0.004099104893100845
6.032,0.004101292582507044
6.0360000000000005,0.004118842178842486
6.04,0.004115139935231996
6.0440000000000005,0.0041120627457375625
6.048,0.004123433922541212
6.0520000000000005,0.004129107490671574
6.056,0.004139637248472839
6.0600000000000005,0.0041605044397319685
6.064,0.004130309517817837
6.0680000000000005,0.004150407411703357
6.072,0.004169736008215269
6.0760000000000005,0.004157066642093655
6.08,0.004156105020376644
6.0840000000000005,0.004173390170739909
6.088,0.004150671857675535
6.0920000000000005,0.004165961642976003
6.096,0.004166033764604779
6.1000000000000005,0.004192959172681074
6.104,0.004212407971907613
6.1080000000000005,0.004174447954628621
6.112,0.004169423481157241
6.1160000000000005,0.004196060402718433
6.12,0.004205460255002211
6.1240000000000006,0.004199281835470418
6.128,0.004209475025670729
6.132000000000001,0.004181155266104769
6.136,0.004198296173210482
6.140000000000001,0.004219644175328117
6.144,0.004201661849220019
6.148,0.004224716729885347
6.152,0.004227625635579304
6.156,0.004212480093536388
6.16,0.004215797688460075
6.164,0.004228106446437809
6.168,0.004236280231032399
6.172,0.004251425773075315
6.176,0.0042112540258472005
6.18,0.004217336283207291
6.184,0.004254502962569749
6.188,0.004250560313530005
6.192,0.004240775812559423
6.196,0.00424048732604432
6.2,0.004246281096889308
6.204,0.004255680949173087
6.208,0.004253877908453692
6.212,0.00425368558411029
6.216,0.004275177829485476
6.22,0.0042730863022509774
6.224,0.004254791449084852
6.228,0.004275802883601533
6.232,0.0042642153419115555
6.236,0.004276644302603916
6.24,0.004305733359543485
6.244,0.004259719760384531
6.248,0.004275778843058607
6.252,0.004288977101124577
6.256,0.004293640966452078
6.26,0.004309579846411528
6.264,0.004309411562611051
6.268,0.004298112507436177
6.272,0.004320133644755719
6.276,0.004309411562611051
6.28,0.004291236912159551
6.284,0.004332899173049033
6.288,0.004321672239502935
6.292,0.004322850226106273
6.296,0.004317008374175434
6.3,0.004317200698518836
6.304,0.004324460942482265
6.308,0.0043430202416205686
6.312,0.004289530033611858
6.316,0.004308978832838396
6.32,0.004341842255017231
6.324,0.004349415026038689
6.328,0.00433804384923504
6.332,0.004344102066052206
6.336,0.004346049350029152
6.34,0.004360497716327237
6.344,0.004350953620785906
6.348,0.004352516256076048
6.352,0.004383023705048208
6.356,0.004371484244444081
6.36,0.0043759317448852555
6.364,0.004375114366425796
6.368,0.004388384746120542
6.372,0.004394418922394783
6.376,0.00438646150268652
6.38,0.004359728418953628
6.384,0.004382206326588749
6.388,0.004399755922924191
6.392,0.004397520152432142
6.396,0.004401438760928959
6.4,0.004413338829676965
6.404,0.004422570398160267
6.408,0.004399683801295415
6.412,0.00438824050286299
6.416,0.004386581705401147
6.42,0.004427114060773141
6.424,0.004413362870219891
6.428,0.00441966149246631
6.432,0.004412112761987777
6.436,0.004411752153843898
6.44,0.004435720575140386
6.444,0.004428724777149134
6.448,0.004409684667152325
6.452,0.00443067206112608
6.456,0.004445360832853416
6.46,0.004438316953776314
6.464,0.004444663657108583
6.468,0.0044222338305593125
6.472,0.004432138534244521
6.476,0.004444711738194434
6.48,0.0044564916042278135
6.484,0.00447858486317613
6.488,0.00449401889173415
6.492,0.0044553376581674
6.496,0.00446117951009824
6.5,0.004493754445761972
6.5040000000000004,0.0044816139715847135
6.508,0.004480868714754031
6.5120000000000005,0.00450041367615227
6.516,0.004469233091978203
6.5200000000000005,0.004477503038744494
6.524,0.004507433514686448
6.5280000000000005,0.004514910123536204
6.532,0.004504019757591059
6.5360000000000005,0.0044780800117747
6.54,0.004505798757767529
6.5440000000000005,0.004509549082463871
6.548,0.004495196878337488
6.5520000000000005,0.004495629608110142
6.556,0.004502937933159422
6.5600000000000005,0.004488345323603787
6.564,0.004497240324486135
6.5680000000000005,0.004505870879396305
6.572,0.004513251326074361
6.5760000000000005,0.004526233219254003
6.58,0.004491855242870876
6.5840000000000005,0.004520655813295343
6.588,0.004531954868470216
6.5920000000000005,0.004535681152623632
6.596,0.004525175435365292
6.6000000000000005,0.004525007151564815
6.604,0.004518564286060844
6.6080000000000005,0.004525415840794545
6.612,0.004520150961893911
6.6160000000000005,0.0045573416817992944
6.62,0.004577367454056039
6.6240000000000006,0.004566212642138716
6.628,0.004548254356573545
6.632000000000001,0.004554504897734114
6.636,0.004572751669814388
6.640000000000001,0.004582103441012316
6.644,0.004585613360279404
6.648000000000001,0.004552677816471793
6.652,0.004581670711239661
6.656000000000001,0.004589123279546492
6.66,0.004588546306516286
6.664,0.004594580482790527
6.668,0.004590036820177653
6.672,0.004569674480319955
6.676,0.0045863586171100874
6.68,0.00458106969766653
6.684,0.004573737332074324
6.688,0.004588281860544109
6.692,0.0045722468184129575
6.696,0.004586214373852536
6.7,0.004594652604419303
6.704,0.004605975700137103
6.708,0.004607586416513095
6.712,0.004618140214857286
6.716,0.00459614311808067
6.72,0.004614486052332646
6.724,0.00462542449936364
6.728,0.004637324568111646
6.732,0.004658792772943907
6.736,0.00464684462311005
6.74,0.004618669106801642
6.744,0.004645522393249161
6.748,0.004650234339662512
6.752,0.0046673992873111515
6.756,0.004690358005804778
6.76,0.0046277564320273915
6.764,0.004617803647256332
6.768,0.004643935717416094
6.772,0.004666365543965365
6.776,0.00467963592366011
6.78,0.004668769598257892
6.784,0.004646820582567125
6.788,0.004674948017789684
6.792,0.004679107031715754
6.796,0.004690838816663283
6.8,0.004703123534098093
6.804,0.004687569302825447
6.808,0.004665139476276177
6.812,0.004684564234959789
6.816,0.004710167413175195
6.82,0.004687761627168849
6.824,0.004687737586625924
6.828,0.004678433896513847
6.832,0.0046802369372332415
6.836,0.004700310790575837
6.84,0.004689420424630692
6.844,0.004683049680755498
6.848,0.004700791601434342
6.852,0.004668745557714966
6.856,0.0047106482240337
6.86,0.004711273278149757
6.864,0.004703916872014627
6.868,0.004737429388852444
6.872,0.0047124272242101695
6.876,0.0047094942779732875
6.88,0.00473165965855038
6.884,0.004743752051641788
6.888,0.004724062846985997
6.892,0.004733102091125896
6.896,0.0047182209950551585
6.9,0.0047524787687236595
6.904,0.0047471658087371756
6.908,0.004744497308472471
6.912,0.004775076879073407
6.916,0.004777625176623485
6.92,0.004766181878191059
6.924,0.004779308014628253
6.928,0.004768273405425558
6.932,0.004779235892999478
6.936,0.004794838205357974
6.94,0.004760941039833352
6.944,0.004754257768900129
6.948,0.0047684176486831095
6.952,0.004788755947997882
6.956,0.004783899758326979
6.96,0.004777697298252261
6.964,0.004760820837118726
6.968,0.004794838205357974
6.972,0.004802410976379431
6.976,0.0047886357452832555
6.98,0.004807699895822989
6.984,0.00480596897673237
6.988,0.00480596897673237
6.992,0.004792145664550344
6.996,0.00479454971884287
7.0,0.004820465424116304
7.0040000000000004,0.004849794886485126
7.008,0.00479358809712586
7.0120000000000005,0.0047982279219104355
7.016,0.004836885114934259
7.0200000000000005,0.004818662383396909
7.024,0.004819191275341265
7.0280000000000005,0.0048329424658945155
7.032,0.00479866065168309
7.0360000000000005,0.00481505630195812
7.04,0.004835827331045547
7.0440000000000005,0.004845635872559055
7.048,0.004852030656977176
7.0520000000000005,0.0048273891004787794
7.056,0.004832197209063832
7.0600000000000005,0.004831019222460494
7.064,0.004830971141374644
7.0680000000000005,0.00485931494148353
7.072,0.004869436010055067
7.0760000000000005,0.00482510524890088
7.08,0.004852703792179083
7.0840000000000005,0.004864026887896882
7.088,0.004866070334045529
7.0920000000000005,0.004881576484232324
7.096,0.004879268592111499
7.1000000000000005,0.004890952295973177
7.104,0.004877153024334076
7.1080000000000005,0.0048860720657593485
7.112,0.004906001675844393
7.1160000000000005,0.004921555907117038
7.12,0.004879677281341229
7.1240000000000006,0.004893236147551077
7.128,0.004881095673373819
7.132000000000001,0.0048748210916703255
7.136,0.004898861634595589
7.140000000000001,0.004919127812281586
7.144,0.004878090605508161
7.148000000000001,0.004897323039848371
7.152,0.004890062795884942
7.156000000000001,0.00490023194554233
7.16,0.004923959961409564
7.164000000000001,0.0048980442561361295
7.168,0.004896193134330884
7.172,0.0049328549622919115
7.176,0.004920257717799074
7.18,0.0049051842973849335
7.184,0.0049247773398690235
7.188,0.004909126946424677
7.192,0.0049116992845176805
7.196,0.004906097838016094
7.2,0.004933792543465997
7.204,0.0049506209235136815
7.208,0.00494682251773149
7.212,0.004930186462027208
7.216,0.00495646277544452
7.22,0.004939586314310985
7.224,0.00494271158489127
7.228,0.004962641194976313
7.232,0.004948481315193333
7.236,0.004949082328766464
7.24,0.004951654666859468
7.244,0.004953962558980293
7.248,0.00498290737266231
7.252,0.004998653928278358
7.256,0.0049631460463777435
7.26,0.004935042651698111
7.264,0.004950332436998578
7.268,0.004980335034569306
7.272,0.004985431629669463
7.276,0.004958073491820513
7.28,0.004934056989438175
7.284,0.004956582978159147
7.288,0.00496422787080938
7.292,0.004957376316075681
7.296,0.0049949276441249415
7.3,0.004969276384823686
7.304,0.004993966022407931
7.308,0.00500153879342939
7.312,0.0049967547253872615
7.316,0.005009977023996157
7.32,0.00501615544352795
7.324,0.005006034374956414
7.328,0.00503031532331093
7.332,0.005036036972527143
7.336,0.005030603809826033
7.34,0.005044523284179761
7.344,0.00502985855299535
7.348,0.005017453632845914
7.352,0.005045220459924594
7.356,0.005042311554230636
7.36,0.005048273608876103
7.364,0.005045773392411875
7.368,0.0050232474036909025
7.372,0.005049716041451618
7.376,0.005037527486188509
7.38,0.005045412784267995
7.384,0.00505894760993492
7.388,0.0050386333511630715
7.392,0.005016251605699651
7.396,0.005037551526731434
7.4,0.005048321689961954
7.404,0.0050631306644039155
7.408,0.0050743095168641625
7.412,0.005041133567627298
7.416,0.005066808867471481
7.42,0.005091137896911847
7.424,0.0050881809101320395
7.428,0.005083877652948417
7.432,0.0050841420989205955
7.436,0.005064813502408684
7.44,0.005094383370206758
7.444,0.005088926166962723
7.448,0.00508777222090231
7.452,0.005107389303929325
7.456,0.0051064998038410905
7.46,0.005092724572744915
7.464,0.005100201181594671
7.468,0.005096787424499284
7.472,0.005125660116552525
7.476,0.005117654615758412
7.48,0.005094936302694039
7.484,0.005112798426087509
7.488,0.005113279236946015
7.492,0.005116981480556505
7.496,0.005115875615581943
7.5,0.005123400305517551
7.5040000000000004,0.005118087345531068
7.508,0.005122679089229793
7.5120000000000005,0.005132247225314047
7.516,0.005127799724872873
7.5200000000000005,0.005149652578391939
7.524,0.005132679955086702
7.5280000000000005,0.005147537010614516
7.532,0.005174125851089857
7.5360000000000005,0.005160951633566812
7.54,0.005168332080244868
7.5440000000000005,0.005187396230784602
7.548,0.005173140188829921
7.5520000000000005,0.005166024188124043
7.556,0.005161576687682869
7.5600000000000005,0.005150445916308473
7.564,0.0051835737844594856
7.5680000000000005,0.005205402597435626
7.572,0.005169870674992086
7.5760000000000005,0.00518080912202308
7.58,0.0051941035422607505
7.5840000000000005,0.005211581016967418
7.588,0.0052191778285318015
7.5920000000000005,0.00515619160606761
7.596,0.0051582831333021086
7.6000000000000005,0.005194776677462659
7.604,0.005221654004453104
7.6080000000000005,0.005209802016790948
7.612,0.005190112812135157
7.6160000000000005,0.005188141487615285
7.62,0.005203839962145483
7.6240000000000006,0.005213408098229738
7.628,0.005210186665477753
7.632000000000001,0.0052197307610190825
7.636,0.0052117973818537455
7.640000000000001,0.005210763638507959
7.644,0.005201483988938807
7.648000000000001,0.0052008108537369
7.652,0.005223745531687601
7.656000000000001,0.005242425033540531
7.66,0.005215042855148656
7.664000000000001,0.005220548139478541
7.668,0.005230212437734497
7.672000000000001,0.005229106572759935
7.676,0.005246223439322723
7.68,0.005231799113567565
7.684,0.005227279491497615
7.688,0.0052487476963298755
7.692,0.005256921480924465
7.696,0.005230813451307628
7.7,0.005250069926190764
7.704,0.005238626627758339
7.708,0.005210763638507959
7.712,0.005230693248593003
7.716,0.005251055588450701
7.72,0.005266874265695523
7.724,0.005262066157110471
7.728,0.005229106572759935
7.732,0.005262210400368022
7.736,0.00527156217156595
7.74,0.005255743494321127
7.744,0.005273220969027793
7.748,0.005247112939410957
7.752,0.005251295993879953
7.756,0.00526338838697136
7.76,0.005268436900985666
7.764,0.005274855725946711
7.768,0.005295314227976111
7.772,0.005262571008511902
7.776,0.005266754062980898
7.78,0.005288270348899008
7.784,0.005278317564127949
7.788,0.005291611984365619
7.792,0.005273220969027793
7.796,0.005248555371986473
7.8,0.005283678605200282
7.804,0.005290433997762281
7.808,0.0053067815669514615
7.812,0.005329259474586583
7.816,0.005309209661786913
7.82,0.005303367809856074
7.824,0.005321278014335395
7.828,0.0053294517989299845
7.832,0.0053337310155706814
7.836,0.005338683367413286
7.84,0.005283293956513478
7.844,0.00530704601292364
7.848,0.005317359405838578
7.852,0.005311445432278962
7.856,0.0053312067585635295
7.86,0.005313777364942714
7.864,0.005312070486395019
7.868,0.005343275111112013
7.872,0.005338226597097706
7.876,0.005335750421176404
7.88,0.005363685532055561
7.884,0.0053515931389641535
7.888,0.005348011098068289
7.892,0.005321999230623153
7.896,0.005327552596038889
7.9,0.005353588504026951
7.904,0.005369912032673204
7.908,0.005352097990365584
7.912,0.005351064247019798
7.916,0.005358853382927583
7.92,0.005348395746755093
7.924,0.005373758519541246
7.928,0.005358733180212957
7.932,0.005343491475998339
7.936,0.005366041505262237
7.94,0.005368084951410884
7.944,0.0053764751008918005
7.948,0.005400010792415633
7.952,0.005356088720491177
7.956,0.005368469600097688
7.96,0.005384264236799587
7.964,0.005380249466131067
7.968,0.005392942872795606
7.972,0.0053945535891715985
7.976,0.005377821371295615
7.98,0.005392438021394176
7.984,0.0054099395366437675
7.988,0.005407246995836138
7.992,0.0054025590899657115
7.996,0.0053886876966978345
8.0,0.005413810064054734
8.004,0.0054120791449641156
8.008000000000001,0.005401308981733598
8.012,0.0054083528608107
8.016,0.005429532579127857
8.02,0.005423137794709737
8.024000000000001,0.005434701295856789
8.028,0.005443764580539614
8.032,0.005462684487821796
8.036,0.005472300704991901
8.040000000000001,0.005433643511968077
8.044,0.005407583563437092
8.048,0.0054289075250118
8.052,0.005451024824503044
8.056000000000001,0.005449702594642154
8.06,0.005475810624258989
8.064,0.005452707662507812
8.068,0.0054304701603019425
8.072000000000001,0.005437562120464895
8.076,0.0054360956473464535
8.08,0.005450207446043584
8.084,0.005450375729844061
8.088000000000001,0.005449053499983172
8.092,0.005461867109362337
8.096,0.005457563852178715
8.1,0.0054798734760133595
8.104000000000001,0.005493336180051507
8.108,0.005466987745005418
8.112,0.005472132421191425
8.116,0.005495379626200155
8.120000000000001,0.005478743570495872
8.124,0.005456698392633405
8.128,0.005481388030217651
8.132,0.005465064501571397
8.136000000000001,0.0054693196776691684
8.14,0.00548951373372639
8.144,0.005486124017173927
8.148,0.005511486789960081
8.152000000000001,0.005487999179522098
8.156,0.005466170366545959
8.16,0.005487446247034817
8.164,0.005492687085392526
8.168000000000001,0.005512809019820971
8.172,0.005530286494527637
8.176,0.005486388463146106
8.18,0.005485835530658825
8.184000000000001,0.0055146841821691415
8.188,0.005513434073937028
8.192,0.005508361519379797
8.196,0.005536609157316981
8.2,0.005509659708697761
8.204,0.005518458547408408
8.208,0.00551773733112065
8.212,0.005524204237167546
8.216,0.0055311038729870966
8.22,0.005515814087686629
8.224,0.005511342546702529
8.228,0.00553463783279711
8.232,0.0055511536857867656
8.236,0.005560313132641291
8.24,0.005560192929926665
8.244,0.00551773733112065
8.248,0.0055480524557494065
8.252,0.005571419863472763
8.256,0.005559519794724757
8.26,0.005541729792960063
8.264,0.005542835657934625
8.268,0.005545696482542731
8.272,0.005556683010659576
8.276,0.005559567875810608
8.28,0.005558269686492643
8.284,0.005604451569452076
8.288,0.0055796176886102776
8.292,0.005543292428250204
8.296,0.005567260849546692
8.3,0.005578824350693744
8.304,0.00558889733817943
8.308,0.005578151215491836
8.312,0.005542499090333671
8.316,0.005572910377134129
8.32,0.005589161784151608
8.324,0.005580122540011708
8.328,0.005599667501409948
8.332,0.005588632892207252
8.336,0.005574905742196926
8.34,0.005591950487130939
8.344,0.005600412758240631
8.348,0.005604042880222346
8.352,0.005620943381898806
8.356,0.005589330067952085
8.36,0.005609932813239036
8.364,0.00562868443672074
8.368,0.0056131542459910205
8.372,0.005619549030409141
8.376,0.0056198134763813185
8.38,0.005606230569628545
8.384,0.005615414057025996
8.388,0.0056272660446881504
8.392,0.005626809274372571
8.396,0.005643829978763657
8.4,0.005624236936279567
8.404,0.005617337300460016
8.408,0.005631352936985445
8.412,0.005644190586907537
8.416,0.00567503460348065
8.42,0.005687824172316889
8.424,0.005625631287769233
8.428,0.005632434761417082
8.432,0.005658975520806573
8.436,0.005647796668346326
8.44,0.0056478207088892516
8.444,0.005648710208977486
8.448,0.0056404402622111955
8.452,0.005658566831576844
8.456,0.005663495142876523
8.46,0.005652749020188931
8.464,0.005680203320209581
8.468,0.0056612112912986234
8.472,0.00566873598123423
8.476,0.005664961615994964
8.48,0.005674145103392415
8.484,0.005699844443779521
8.488,0.0057070566066571
8.492,0.0056777752253741294
8.496,0.005694795929765216
8.5,0.005709340458235
8.504,0.005702561025130076
8.508000000000001,0.005700517578981428
8.512,0.005672822873531525
8.516,0.005702561025130076
8.52,0.005726144797739759
8.524000000000001,0.005710782890810516
8.528,0.005716216053511625
8.532,0.005746170569996504
8.536,0.005695997956911479
8.540000000000001,0.0056803235229242076
8.544,0.005677558860487802
8.548,0.005699147268034688
8.552,0.0057437424751610525
8.556000000000001,0.005716793026541832
8.56,0.005684410415221502
8.564,0.005708090350002887
8.568,0.005720543351238173
8.572000000000001,0.005715542918309718
8.576,0.005731433717183317
8.58,0.005720158702551368
8.584,0.005733813730932918
8.588000000000001,0.005738573758432121
8.592,0.005747444718771543
8.596,0.005752517273328774
8.6,0.005764152896104601
8.604000000000001,0.005740929731638797
8.608,0.005754464557305721
8.612,0.005755017489793002
8.616,0.005742780853444042
8.620000000000001,0.005748406340488554
8.624,0.005752998084187279
8.628,0.0057505699893518275
8.632,0.005763311477102217
8.636000000000001,0.005762974909501263
8.64,0.005754777084363749
8.644,0.005777783883943226
8.648,0.005756003152052937
8.652000000000001,0.005758287003630837
8.656,0.005747492799857394
8.66,0.0057569888143128726
8.664,0.00576629250442495
8.668000000000001,0.005780476424750855
8.672,0.005764225017733377
8.676,0.005756580125083143
8.68,0.005767013720712708
8.684000000000001,0.005782447749270727
8.688,0.0057896599121483065
8.692,0.005765667450308893
8.696,0.005777399235256421
8.700000000000001,0.005782664114157054
8.704,0.005781053397781061
8.708,0.005769345653376458
8.712,0.005778841667831937
8.716,0.005759056301004446
8.72,0.0057931457908724695
8.724,0.005779202275975816
8.728,0.005784755641391552
8.732,0.005809180833003621
8.736,0.005803483224330333
8.74,0.0057809331950664355
8.744,0.00580913275191777
8.748,0.005812089738697577
8.752,0.005823845564188031
8.756,0.005834182997645894
8.76,0.005806512332738916
8.764,0.005806055562423336
8.768,0.005826778510424913
8.772,0.005834543605789774
8.776,0.005848775607201529
8.78,0.005861589216580695
8.784,0.005834735930133175
8.788,0.005833077132671332
8.792,0.0058407941469503415
8.796,0.005849496823489287
8.8,0.005872335339268287
8.804,0.005857213837768297
8.808,0.005841467282152249
8.812,0.005858824554144289
8.816,0.005864113473587847
8.82,0.0058724315014399885
8.824,0.005871493920265903
8.828,0.005855627161935229
8.832,0.005878008907398649
8.836,0.005866205000822345
8.84,0.005854497256417741
8.844,0.005864161554673697
8.848,0.005879739826489268
8.852,0.005867719555026636
8.856,0.0058649789331331565
8.86,0.005876830920795311
8.864,0.0058820236780671685
8.868,0.00590998282948925
8.872,0.005887432800225354
8.876,0.005880605286034578
8.88,0.005917411357253157
8.884,0.005918925911457448
8.888,0.005913204262241236
8.892,0.005915031343503556
8.896,0.005869282190316779
8.9,0.0058883703813994385
8.904,0.005919478843944729
8.908,0.005909574140259521
8.912,0.0059150073029606304
8.916,0.005903564004528205
8.92,0.0059035159234423545
8.924,0.005911545464779393
8.928,0.005907314329224546
8.932,0.005931234669435183
8.936,0.005954121266300035
8.94,0.005913396586584638
8.944,0.005906617153479714
8.948,0.0059232532091839955
8.952,0.005938975724257119
8.956,0.005951548928207031
8.96,0.005937893899825482
8.964,0.005908732721257136
8.968,0.00593313387232628
8.972,0.0059216665333509284
8.976,0.005906857558908966
8.98,0.005942677967867609
8.984,0.005958953415428013
8.988,0.005964819307901777
8.992,0.005956212793534533
8.996,0.005967247402737228
9.0,0.005973906633127526
9.004,0.005984965282873148
9.008000000000001,0.0059363553050782655
9.012,0.0059436395895846195
9.016,0.0059760702819908
9.02,0.005977993525424821
9.024000000000001,0.005989388742771396
9.028,0.0059621988887229235
9.032,0.005940009467602905
9.036,0.005967127200022602
9.040000000000001,0.005977512714566316
9.044,0.005986672161420841
9.048,0.006015088083158503
9.052,0.005992778459323858
9.056000000000001,0.005988330958882684
9.06,0.005993691999955018
9.064,0.00600479873078649
9.068,0.006012732109951826
9.072000000000001,0.00601215513692162
9.076,0.005980734147318301
9.08,0.005981263039262657
9.084,0.006007347028336567
9.088000000000001,0.0060000867843731385
9.092,0.005997754851709387
9.096,0.005998427986911295
9.1,0.005992441891722904
9.104000000000001,0.005986311553276962
9.108,0.005990206121230855
9.112,0.006005640149788874
9.116,0.006030642314431148
9.120000000000001,0.005997730811166462
9.124,0.005991792797063922
9.128,0.006003644784726077
9.132,0.006009967447515421
9.136000000000001,0.006024463894899355
9.14,0.006035883152788856
9.144,0.00600672197422051
9.148,0.006023670556982821
9.152000000000001,0.0060248966246720095
9.156,0.006042422180464527
9.16,0.006062952804122702
9.164,0.006019126894369947
9.168000000000001,0.006009101987970112
9.172,0.006031627976691084
9.176,0.006032878084923198
9.18,0.006036003355503482
9.184000000000001,0.006062688358150525
9.188,0.006039609436942272
9.192,0.006055476195272946
9.196,0.006061149763403308
9.200000000000001,0.00607235265640648
9.204,0.006084324846783263
9.208,0.006066246358503464
9.212,0.006057447519792817
9.216000000000001,0.0060864404145606855
9.22,0.006074035494411249
9.224,0.006062135425663243
9.228,0.006090575387943831
9.232,0.006073698926810295
9.236,0.00607276134563621
9.24,0.006063818263668012
9.244,0.006064202912354816
9.248,0.006085286468500273
9.252,0.0060901666987141015
9.256,0.00604946605954163
9.26,0.006064900088099649
9.264,0.0060861278875026575
9.268,0.006077665616392964
9.272,0.0060896137662268205
9.276,0.006084445049497889
9.28,0.006087377995734771
9.284,0.006098725131995495
9.288,0.006086897184876266
9.292,0.006074708629613157
9.296,0.006088147293108379
9.3,0.006087065468676742
9.304,0.006076631873047177
9.308,0.0060773050082490844
9.312,0.00607458842689853
9.316,0.0060965134020463715
9.32,0.0061026918215781635
9.324,0.006086055765873882
9.328,0.006108629835680703
9.332,0.006098508767109168
9.336,0.006109471254683088
9.34,0.006116418971588489
9.344,0.006079877346342088
9.348,0.0061103126736854725
9.352,0.0061218761748325235
9.356,0.006105360321842868
9.36,0.006111057930516155
9.364,0.006135723527557475
9.368,0.006104927592070214
9.372,0.006127910351106765
9.376,0.006124761039983556
9.38,0.006125241850842061
9.384,0.006154210705067003
9.388,0.0061524076643476085
9.392,0.006097979875164812
9.396,0.0061389209197665355
9.4,0.00612839116196527
9.404,0.006113582187523308
9.408,0.0061202894989994564
9.412,0.006101369591717274
9.416,0.006129472986396907
9.42,0.006140651838857154
9.424,0.006140531636142528
9.428,0.006143704987808663
9.432,0.006153321204978768
9.436,0.006147599555762556
9.44,0.006143608825636962
9.444,0.006142863568806278
9.448,0.006174404761124224
9.452,0.0062067152508157785
9.456,0.006175582747727562
9.46,0.006172914247462857
9.464,0.00617680881541675
9.468,0.006169380287652844
9.472,0.006163298030292752
9.476,0.00618717028941754
9.48,0.006166567544130588
9.484,0.00617772235604791
9.488,0.006184621991867462
9.492,0.006181881369973982
9.496,0.0061999838987967055
9.5,0.006200031979882555
9.504,0.006161567111202133
9.508000000000001,0.006187194329960465
9.512,0.006211619521572532
9.516,0.006206474845386526
9.52,0.006219240373679841
9.524000000000001,0.006185102802725967
9.528,0.006185535532498622
9.532,0.0062094077916234084
9.536,0.006214792873238667
9.540000000000001,0.0061968105471305705
9.544,0.006209119305108305
9.548,0.006186208667700529
9.552,0.0062152736840971725
9.556000000000001,0.006214937116496219
9.56,0.00620133016920052
9.564,0.006213951454236283
9.568,0.0062117878053730095
9.572000000000001,0.006200344506940584
9.576,0.006208350007734697
9.58,0.006213783170435807
9.584,0.006227197793388103
9.588000000000001,0.006249363173965197
9.592,0.006212917710890497
9.596,0.0062189999682505884
9.6,0.0062269333474159255
9.604000000000001,0.006225851522984289
9.608,0.006222582009146453
9.612,0.006236020672641676
9.616,0.006208398088820548
9.620000000000001,0.006220875130598759
9.624,0.006212388818946141
9.628,0.00621960098182372
9.632,0.006266600243242611
9.636000000000001,0.0062609507156551735
9.64,0.0062321741857736335
9.644,0.0062521518769445275
9.648,0.006254459769065353
9.652000000000001,0.006269172581335614
9.656,0.0062688840948205106
9.66,0.006245228200582051
9.664,0.006259556364165509
9.668000000000001,0.006278283947104288
9.672,0.0062809284068260675
9.676,0.006279630217508103
9.68,0.006263835580806206
9.684000000000001,0.006250276714596357
9.688,0.006295208489323674
9.692,0.006284342163921455
9.696,0.006272754622231478
9.700000000000001,0.006301555192655944
9.704,0.006274437460236247
9.708,0.006269797635451671
9.712,0.006281289014969946
9.716000000000001,0.006297324057101097
9.72,0.00631268596403034
9.724,0.006303165909031936
9.728,0.006254988661009708
9.732,0.0062879001642743935
9.736,0.006292155340372165
9.74,0.006296987489500143
9.744,0.0063085990717330455
9.748,0.006302612976544655
9.752,0.00629071290779665
9.756,0.006298502043704435
9.76,0.006301819638628121
9.764,0.006306050774182967
9.768,0.00633369739854702
9.772,0.006299103057277567
9.776,0.006295929705611432
9.78,0.006307541287844334
9.784,0.006312301315343536
9.788,0.006321797329799015
9.792,0.006308791396076448
9.796,0.006283741150348323
9.8,0.006297227894929396
9.804,0.006311339693626525
9.808,0.006299175178906343
9.812,0.006329322019734623
9.816,0.006308743314990597
9.82,0.006322013694685343
9.824,0.006333216587688515
9.828,0.006332759817372935
9.832,0.006347472629643196
9.836,0.006357401373871332
9.84,0.00631537850483797
9.844,0.006338096817902344
9.848,0.006335668723066892
9.852,0.006344756048292642
9.856,0.006358771684818072
9.86,0.006358867846989773
9.864,0.00632775938444448
9.868,0.00634415503471951
9.872,0.006342568358886443
9.876,0.006335428317637639
9.88,0.0063603824011940644
9.884,0.006329322019734623
9.888,0.006346559089012036
9.892,0.006359973711964335
9.896,0.006355910860209966
9.9,0.006375624105408682
9.904,0.006384038295432524
9.908,0.00636131998236815
9.912,0.006385312444207563
9.916,0.006390697525822822
9.92,0.00638740397144206
9.924,0.0063901205527926155
9.928,0.006365070307064491
9.932,0.006384999917149534
9.936,0.006393558350430928
9.94,0.006374782686406297
9.944,0.006377980078615357
9.948,0.006394688255948415
9.952,0.006359805428163858
9.956,0.0063845671873768795
9.96,0.0063841104170613
9.964,0.006393894918031882
9.968,0.0064215896234817845
9.972,0.00642430620483234
9.976,0.006371849740169415
9.98,0.006405554581350634
9.984,0.006415531406664619
9.988,0.00640101091873776
9.992,0.006412910987485765
9.996,0.006403631337916613
10.0,0.006407501865327581
10.004,0.006403318810858585
10.008000000000001,0.0064173825284698635
10.012,0.006426061164465884
10.016,0.006427022786182894
10.02,0.006405506500264784
10.024000000000001,0.006415435244492918
10.028,0.006418632636701977
10.032,0.0064307009892504595
10.036,0.006457001343210699
10.040000000000001,0.006427118948354595
10.044,0.006412959068571616
10.048,0.006432239583997677
10.052,0.006424258123746489
10.056000000000001,0.006410795419708341
10.06,0.0064345955572043525
10.064,0.006415843933722647
10.068,0.006432504029969854
10.072000000000001,0.0064269025834682685
10.076,0.006413944730831551
10.08,0.006440028719905462
10.084,0.006460439140849011
10.088000000000001,0.006399881013220273
10.092,0.006412165730655082
10.096,0.0064465677475811336
10.1,0.006460943992250442
10.104000000000001,0.00648536918386251
10.108,0.006452000910282244
10.112,0.006444331977089084
10.116,0.006473733561086682
10.120000000000001,0.006472194966339465
10.124,0.006474815385518319
10.128,0.006488085765213064
10.132,0.006462001776139153
10.136000000000001,0.0064741662908593366
10.14,0.006472459412311643
10.144,0.00647724348035377
10.148,0.006502389888253596
10.152000000000001,0.006492845792712266
10.156,0.0064621941004825555
10.16,0.0064803447103911295
10.164,0.006496067225464252
10.168000000000001,0.006482604521426104
10.172,0.006492533265654238
10.176,0.006451952829196393
10.18,0.00645111141019401
10.184000000000001,0.006475055790947572
10.188,0.006491547603394302
10.192,0.0064912110357933485
10.196,0.006493687211714651
10.200000000000001,0.006465631898120868
10.204,0.0064843113999737976
10.208,0.006479839858989699
10.212,0.006475897209949955
10.216000000000001,0.00651008286198968
10.22,0.006485537467662986
10.224,0.0064560878025795385
10.228,0.006473036385341849
10.232000000000001,0.006476690547866489
10.236,0.006518112403326718
10.24,0.006531599147907791
10.244,0.00649094658982117
10.248,0.006526262147378382
10.252,0.006525516890547699
10.256,0.006508520226699538
10.26,0.00652926721524404
10.264,0.006527824782668524
10.268,0.006502510090968222
10.272,0.006509193361901445
10.276,0.006524915876974568
10.28,0.006527536296153421
10.284,0.006542946284168515
10.288,0.006503904442457888
10.292,0.006508640429414164
10.296,0.006525829417605727
10.3,0.006547874595468194
10.304,0.0065438838653426
10.308,0.006535926445634338
10.312,0.006516044916635145
10.316,0.006540902838019867
10.32,0.006543739622085048
10.324,0.006541407689421298
10.328,0.006563861556513495
10.332,0.006518785538528625
10.336,0.006507390321182051
10.34,0.0065218867685659845
10.344,0.006523593647113678
10.348,0.006533522391341811
10.352,0.006555447366489653
10.356,0.0065216463631367315
10.36,0.006531430864107314
10.364,0.0065381381755834625
10.368,0.006551336433649433
10.372,0.006551985528308415
10.376,0.006551600879621611
10.38,0.006534435931972972
10.384,0.0065601112318171536
10.388,0.006553163514911753
10.392,0.006550783501162152
10.396,0.006562755691538933
10.4,0.006530156715332275
10.404,0.006541768297565177
10.408,0.006558067785668507
10.412,0.006584344099085819
10.416,0.006577973355210625
10.42,0.006569655327358484
10.424,0.006539893135217007
10.428,0.006560447799418108
10.432,0.006574415354857686
10.436,0.006578069517382326
10.44,0.006575593341461024
10.444,0.00657617031449123
10.448,0.0065716026113354295
10.452,0.006577756990324297
10.456,0.006579007098556411
10.46,0.006579704274301244
10.464,0.00659489789743001
10.468,0.0065630441780540364
10.472,0.006562106596879951
10.476,0.006590113829387882
10.48,0.00659398435679885
10.484,0.006602398546822692
10.488,0.006616558426605672
10.492,0.006583045909767855
10.496,0.006596148005662123
10.5,0.006586291383062766
10.504,0.006570064016588213
10.508000000000001,0.006600282979045269
10.512,0.006593503545940345
10.516,0.0066037928983123575
10.52,0.006600282979045269
10.524000000000001,0.006599946411444315
10.528,0.006598119330181995
10.532,0.006611774358563544
10.536,0.006598624181583425
10.540000000000001,0.0065907869645897895
10.544,0.006588671396812367
10.548,0.006613865885798043
10.552,0.00662413119762713
10.556000000000001,0.0065912677754482955
10.56,0.006600643587189148
10.564,0.006637449658407726
10.568,0.006643579996853668
10.572000000000001,0.006639012293697868
10.576,0.006628650819697079
10.58,0.006621005927046846
10.584,0.006657547552293248
10.588000000000001,0.006649590132584986
10.592,0.0066305740631311
10.596,0.006649542051499135
10.6,0.0066653366882010335
10.604000000000001,0.0066198038999005825
10.608,0.006625213022058767
10.612,0.006641752915591348
10.616,0.0066589899848687635
10.620000000000001,0.006669111053440299
10.624,0.006644036767169248
10.628,0.006631415482133485
10.632,0.006654590565513441
10.636000000000001,0.006641248064189917
10.64,0.006628314252096126
10.644,0.0066662021477463425
10.648,0.006659350593012643
10.652000000000001,0.006673053702480043
10.656,0.006662499904135852
10.66,0.00665682633600549
10.664,0.006678246459751899
10.668000000000001,0.006683343054852056
10.672,0.006650407511044445
10.676,0.00665545602505875
10.68,0.006667500337064307
10.684000000000001,0.006680939000559529
10.688,0.006695171001971285
10.692,0.006671827634790854
10.696,0.006660312214729653
10.700000000000001,0.006687189541720097
10.704,0.006699354056440281
10.708,0.006703681354166828
10.712,0.006713105246993531
10.716000000000001,0.0066749288648282135
10.72,0.006678607067895779
10.724,0.006677573324549992
10.728,0.00667002459407146
10.732000000000001,0.006703609232538052
10.736,0.006709330881754265
10.74,0.006675722202744747
10.744,0.006693103515279713
10.748000000000001,0.0067079846113504505
10.752,0.006710532908900529
10.756,0.006713033125364755
10.76,0.0066857951902304326
10.764,0.006704354489368736
10.768,0.0066906273393584105
10.772,0.0066999791105563375
10.776,0.0067170719365762
10.78,0.00673899691172404
10.784,0.006707720165378272
10.788,0.006710148260213724
10.792,0.00671433131468272
10.796,0.006717648909606406
10.8,0.006745848466457741
10.804,0.006721519437017373
10.808,0.006707095111262215
10.812,0.006713658179480812
10.816,0.006724091775110377
10.82,0.0067258226942009955
10.824,0.006740775911900509
10.828,0.006720990545073018
10.832,0.006726399667231202
10.836,0.006739718128011798
10.84,0.00672260126144901
10.844,0.006739597925297171
10.848,0.006752483656305114
10.852,0.006738443979236759
10.856,0.006739838330726424
10.86,0.006744237750081747
10.864,0.006754479021367911
10.868,0.006768278293007012
10.872,0.006729717262154889
10.876,0.006729260491839308
10.88,0.006749334345181904
10.884,0.006771499725758997
10.888,0.006769384157981574
10.892,0.006755152156569817
10.896,0.006738059330549955
10.9,0.0067421943039331
10.904,0.00675032000744184
10.908,0.006754839629511789
10.912,0.006767076265860749
10.916,0.006770081333726407
10.92,0.006763782711479987
10.924,0.0067581091433496256
10.928,0.006771595887930698
10.932,0.006781692915959308
10.936,0.006799579079895705
10.94,0.006746930290889378
10.944,0.0067611142112152835
10.948,0.006770562144584912
10.952,0.006779409064381408
10.956,0.006797247147231953
10.96,0.006796357647143719
10.964,0.006766523333373468
10.968,0.006778591685921949
10.972,0.006777077131717658
10.976,0.006778615726464874
10.98,0.006818354743920335
10.984,0.0068046275939100094
10.988,0.006792943890048332
10.992,0.006787630930061848
10.996,0.006802319701789184
11.0,0.006807656702318593
11.004,0.006810036716068194
11.008000000000001,0.00676361442767951
11.012,0.006787558808433073
11.016,0.00679828089057774
11.02,0.00680787306720492
11.024000000000001,0.006805276688568992
11.028,0.006810301162040372
11.032,0.0068024158639608855
11.036,0.006793208336020509
11.040000000000001,0.006794915214568203
11.044,0.0068097963106389416
11.048,0.0068253265013686615
11.052,0.006821431933414768
11.056000000000001,0.006814123608365488
11.06,0.006823379217391715
11.064,0.006831144312756575
11.068,0.006841433665128588
11.072000000000001,0.006864127937650037
11.076,0.006818354743920335
11.08,0.006825542866254988
11.084,0.006845256111453706
11.088000000000001,0.006834942718538767
11.092,0.006829774001809835
11.096,0.0068099405538964925
11.1,0.006805060323682664
11.104000000000001,0.006812344608189019
11.108,0.006806719121144508
11.112,0.006822369514588854
11.116,0.006856555166628579
11.120000000000001,0.0068274661096890095
11.124,0.006826216001456896
11.128,0.006844270449193769
11.132,0.006842803976075328
11.136000000000001,0.006842371246302673
11.14,0.006864200059278813
11.144,0.006845087827653229
11.148,0.006860281450781995
11.152000000000001,0.006861122869784379
11.156,0.0068538145447351
11.16,0.006872421924959253
11.164,0.006871412222156392
11.168000000000001,0.006850905639041142
11.172,0.006861194991413155
11.176,0.006862565302359895
11.18,0.006877061749743829
11.184000000000001,0.006898770360005342
11.188,0.006853357774419519
11.192,0.006863118234847176
11.196,0.006881461169099152
11.200000000000001,0.00689401033250614
11.204,0.0068856682641110735
11.208,0.0068652338026246
11.212,0.006862252775301866
11.216000000000001,0.006901583103527597
11.22,0.0068760039658551176
11.224,0.006907569198715988
11.228,0.006932162674128532
11.232000000000001,0.00688675008854271
11.236,0.006904035238905974
11.24,0.006890476372696126
11.244,0.0068861490749695786
11.248000000000001,0.00689588549485431
11.252,0.006900068549323306
11.256,0.006872614249302655
11.26,0.006895909535397235
11.264,0.006891053345726332
11.268,0.006892760224274026
11.272,0.00690684798242823
11.276,0.006890524453781976
11.28,0.0068970875220005735
11.284,0.006914396712906763
11.288,0.006910742550382123
11.292,0.006919252902577666
11.296,0.006952164405842353
11.3,0.00691324276684635
11.304,0.006900188752037932
11.308,0.0069245899031070745
11.312,0.006935504309595144
11.316,0.006938845945061755
11.32,0.006942908796816127
11.324,0.006913050442502948
11.328,0.0069368746205418835
11.332,0.006926777592513273
11.336,0.006917281578057794
11.34,0.006939639282978289
11.344,0.006926681430341572
11.348,0.006923676362475914
11.352,0.0069211761460116865
11.356,0.006926296781654768
11.36,0.006948269837888461
11.364,0.006966180042367782
11.368,0.006933316620188945
11.372,0.006930912565896418
11.376,0.006922907065102306
11.38,0.006935720674481471
11.384,0.00694201929672789
11.388,0.0069451445673081764
11.392,0.0069280757818312375
11.396,0.006932066511956831
11.4,0.006938028566602296
11.404,0.006952669257243783
11.408,0.006970339056293852
11.412,0.006944735878078447
11.416,0.006953919365475897
11.42,0.006963150933959199
11.424,0.00695507331153631
11.428,0.006963078812330423
11.432,0.006960891122924224
11.436,0.006931826106527579
11.44,0.006940360499266047
11.444,0.006964304880019611
11.448,0.006984667219877309
11.452,0.0069978654779432785
11.456,0.0069714689618113395
11.46,0.0069786811246889185
11.464,0.007015679520250899
11.468,0.0070207761153510545
11.472,0.006981325584410698
11.476,0.006979955273463958
11.48,0.006965891555852678
11.484,0.006971925732126919
11.488,0.006969137029147589
11.492,0.006984114287390028
11.496,0.006985532679422619
11.5,0.007001423478296217
11.504,0.0069883694634878
11.508000000000001,0.0069871674363415365
11.512,0.006995749910165856
11.516,0.007009453019633256
11.52,0.007013179303786672
11.524000000000001,0.006967021461370166
11.528,0.006987431882313715
11.532,0.006993297774787479
11.536,0.006984330652276356
11.540000000000001,0.007014140925503682
11.544,0.007028589291801765
11.548,0.007013684155188102
11.552,0.007009621303433733
11.556000000000001,0.006990941801580803
11.56,0.00699481232899177
11.564,0.00702765171062768
11.568,0.007009260695289853
11.572000000000001,0.006989980179863792
11.576,0.00700709704642658
11.58,0.007032051129983003
11.584,0.007041739468781885
11.588000000000001,0.00704130673900923
11.592,0.00700481319484868
11.596,0.0070114243441531275
11.6,0.007029286467546598
11.604000000000001,0.007019574088204791
11.608,0.007028829697231018
11.612,0.007034383062646754
11.616,0.007016857506854237
11.620000000000001,0.007022338750641197
11.624,0.007032003048897152
11.628,0.007038734400916226
11.632,0.007031546278581572
11.636000000000001,0.007007289370769982
11.64,0.007014333249847084
11.644,0.007014741939076813
11.648,0.00704354250950128
11.652000000000001,0.007052197104954375
11.656,0.007049793050661848
11.66,0.007015535276993347
11.664,0.007046018685422582
11.668000000000001,0.0070473409152834714
11.672,0.0070218819803256165
11.676,0.007050971037265186
11.68,0.007047749604513201
11.684000000000001,0.007031858805639601
11.688,0.007033397400386818
11.692,0.007030752940665039
11.696,0.007041547144438483
11.700000000000001,0.0070654194035632695
11.704,0.007056668645938474
11.708,0.007030488494692861
11.712,0.007043013617556924
11.716000000000001,0.0070250553319917515
11.72,0.007006544113939299
11.724,0.007037965103542618
11.728,0.007035320643820839
11.732000000000001,0.007059048659688075
11.736,0.007052028821153898
11.74,0.0070604189706348144
11.744,0.0070930900684702475
11.748000000000001,0.007069963066176145
11.752,0.0070352004411062125
11.756,0.0070558272269360895
11.76,0.007077247350682499
11.764000000000001,0.007077247350682499
11.768,0.0071093414754877255
11.772,0.007071982471781866
11.776,0.007070660241920977
11.78,0.00709885979877231
11.784,0.007094219973987735
11.788,0.007100807082749257
11.792,0.007084459513560078
11.796,0.007066188700936878
11.8,0.0070768386614527695
11.804,0.007084964364961509
11.808,0.007089580149203159
11.812,0.007106648934680096
11.816,0.0070751798639909266
11.82,0.007063616362843875
11.824,0.007078593621086314
11.828,0.007077127147967873
11.832,0.007099340609630816
11.836,0.007103307299213484
11.84,0.00707323258001398
11.844,0.007096648068823186
11.848,0.007109245313316024
11.852,0.007116048786963874
11.856,0.007117058489766735
11.86,0.007089243581602205
11.864,0.007092465014354191
11.868,0.007119198098087084
11.872,0.007095277757876446
11.876,0.0070792907968311464
11.88,0.007103163055955933
11.884,0.00706866487685818
11.888,0.007093234311727799
11.892,0.007102249515324773
11.896,0.0070997492988605455
11.9,0.007102153353153072
11.904,0.007104004474958317
11.908,0.007090637933091871
11.912,0.0071252082338184
11.916,0.007120352044147496
11.92,0.007109197232230174
11.924,0.007129247045029844
11.928,0.007135569707819187
11.932,0.007119630827859738
11.936,0.0071298720991459005
11.94,0.007126650666393915
11.944,0.007139344073058455
11.948,0.0071640337106427
11.952,0.007135353342932861
11.956,0.007144512789787387
11.96,0.007135112937503608
11.964,0.007151075858005984
11.968,0.007167591710995639
11.972,0.0071354254645616365
11.976,0.007123910044500435
11.98,0.007158456304684039
11.984,0.00715804761545431
11.988,0.007139897005545736
11.992,0.007165836751362095
11.996,0.00715165283103619
12.0,0.0071592977236864235
12.004,0.0071534318312126595
12.008000000000001,0.00715622053419199
12.012,0.007158167818168936
12.016,0.007150955655291357
12.02,0.007109293394401875
12.024000000000001,0.007133622423842242
12.028,0.007150042114660197
12.032,0.007156821547765121
12.036,0.007182953617924883
12.040000000000001,0.00715713407482315
12.044,0.007140257613689615
12.048,0.007152133641894695
12.052,0.007151989398637143
12.056000000000001,0.0071478784657969235
12.06,0.0071710295086339524
12.064,0.007153407790669734
12.068,0.007177087725451118
12.072000000000001,0.007156893669393897
12.076,0.007150162317374823
12.08,0.007177328130880371
12.084,0.007175933779390705
12.088000000000001,0.007155403155732531
12.092,0.007181487144806441
12.096,0.0071905263889463404
12.1,0.007185117266788156
12.104000000000001,0.007188915672570348
12.108,0.0071659569540767215
12.112,0.007167759994796116
12.116,0.007180669766346983
12.120000000000001,0.007187473239994832
12.124,0.0071925938756379135
12.128,0.007213629350697519
12.132,0.007182184320551274
12.136000000000001,0.00717905904997099
12.14,0.007178385914769082
12.144,0.00719550278133187
12.148,0.007204854552529797
12.152000000000001,0.007203003430724552
12.156,0.007174178819757161
12.16,0.007210455999031384
12.164,0.007211561864005946
12.168000000000001,0.007195983592190375
12.172,0.007197426024765891
12.176,0.007177472374137923
12.18,0.007209253971885121
12.184000000000001,0.007225385176187972
12.188,0.007203820809184011
12.192,0.007209903066544103
12.196,0.007230433690202278
12.200000000000001,0.007208172147453484
12.204,0.007214062080470173
12.208,0.007225048608587019
12.212,0.007220072216201489
12.216000000000001,0.0072481996514240496
12.22,0.0072119945937786
12.224,0.007197834713995621
12.228,0.007220336662173667
12.232000000000001,0.007224639919357289
12.236,0.007224014865241232
12.24,0.007230794298346156
12.244,0.007220601108145845
12.248000000000001,0.007261061341889065
12.252,0.007247598637850918
12.256,0.007237213123307201
12.26,0.007249978651600519
12.264000000000001,0.007246204286361252
12.268,0.007208532755597363
12.272,0.007248055408166498
12.276,0.007265436720701463
12.280000000000001,0.0072579360713087805
12.284,0.007252430786978896
12.288,0.007215119864358885
12.292,0.007222163743435987
12.296,0.007230289446944726
12.3,0.0072392325289129264
12.304,0.00724144425886205
12.308,0.007253728976296859
12.312,0.007241179812889872
12.316,0.007240097988458235
12.32,0.007218076851138692
12.324,0.007227981554823901
12.328,0.007258272638909735
12.332,0.007240674961488442
12.336,0.0072189182701410766
12.34,0.007238487272082243
12.344,0.007253608773582234
12.348,0.007261686396005122
12.352,0.00727661557316171
12.356,0.007242381840036135
12.36,0.007278250330080629
12.364,0.007284356627983645
12.368,0.007273682626924828
12.372,0.0072722161538063875
12.376,0.007286039465988414
12.38,0.007247093786449487
12.384,0.007261614274376346
12.388,0.007248007327080647
12.392,0.007274716370270614
12.396,0.007292434250406534
12.4,0.007260941139174438
12.404,0.0072550031250718985
12.408,0.007250507543544875
12.412,0.007270725640145021
12.416,0.007278178208451853
12.42,0.0072884675608238655
12.424,0.007268706234539298
12.428,0.00728063034383023
12.432,0.0072975068049637645
12.436,0.007288707966253118
12.44,0.007293395872123544
12.444,0.007304911292184745
12.448,0.007272841207922444
12.452,0.007279211951797639
12.456,0.007279572559941517
12.46,0.007296473061617978
12.464,0.007315104482385057
12.468,0.00728296227649398
12.472,0.007289188777111623
12.476,0.007292794858550412
12.48,0.0073026514811497705
12.484,0.007297699129307166
12.488,0.007304694927298418
12.492,0.0072757020325305505
12.496,0.007311306076602866
12.5,0.007312868711893007
12.504,0.007304502602955016
12.508000000000001,0.007321499266803177
12.512,0.007318566320566295
12.516,0.0073170036852761525
12.52,0.007320513604543241
12.524000000000001,0.007330754875829403
12.528,0.007344746471811907
12.532,0.007345010917784086
12.536,0.007280750546544855
12.540000000000001,0.007297771250935942
12.544,0.007325586159100472
12.548,0.007333783984237986
12.552,0.007315801658129889
12.556000000000001,0.007300728237715749
12.56,0.007293756480267423
12.564,0.007324792821183938
12.568,0.007321643510060728
12.572000000000001,0.007303733305581407
12.576,0.007322412807434337
12.58,0.007299982980885066
12.584,0.007300704197172824
12.588000000000001,0.007305704630101279
12.592,0.007325922726701425
12.596,0.007334505200525744
12.6,0.007342198174261829
12.604000000000001,0.007299502170026561
12.608,0.0073077961573357764
12.612,0.0073166911582181245
12.616,0.00733452924106867
12.620000000000001,0.007355107945812696
12.624,0.007337029457532898
12.628,0.007313710130895392
12.632,0.007333832065323837
12.636000000000001,0.00731863844219507
12.64,0.007329673051397766
12.644,0.007357487959562297
12.648,0.007332101146233218
12.652000000000001,0.007329023956738784
12.656,0.007339697957797603
12.66,0.007351453783288056
12.664,0.007380013948283268
12.668000000000001,0.007373523001693447
12.672,0.007340106647027332
12.676,0.007361695054574218
12.68,0.007386240448900912
12.684000000000001,0.007387706922019353
12.688,0.007380134150997895
12.692,0.0073581610947642045
12.696,0.007354458851153714
12.700000000000001,0.007372224812375483
12.704,0.007375037555897739
12.708,0.007368498528222068
12.712,0.007387658840933503
12.716000000000001,0.007340924025486791
12.72,0.007352535607719693
12.724,0.007358834229966112
12.728,0.007357415837933521
12.732000000000001,0.007399775274567835
12.736,0.007394366152409651
12.74,0.007345611931357217
12.744,0.007375470285670394
12.748000000000001,0.0073893176383953455
12.752,0.00737422017743828
12.756,0.007395039287611558
12.76,0.007356261891873109
12.764000000000001,0.007359747770597272
12.768,0.007375710691099647
12.772,0.007362873041177556
12.776,0.007382802651262599
12.780000000000001,0.007400159923254639
12.784,0.007347967904563893
12.788,0.007349746904740362
12.792,0.007356189770244333
12.796000000000001,0.007384052759494713
12.8,0.0074092953295662395
12.804,0.007385783678585332
12.808,0.007374532704496309
12.812,0.007385879840757033
12.816,0.007387875205819829
12.82,0.00740482378858214
12.824,0.007406001775185478
12.828,0.007379821623939867
12.832,0.007387610759847652
12.836,0.007368690852565469
12.84,0.007377537772361967
12.844,0.007396818287788028
12.848,0.007416675776244295
12.852,0.007381432340315859
12.856,0.007392202503546377
12.86,0.007398020314934291
12.864,0.0073989819366513014
12.868,0.007399895477282461
12.872,0.007357247554133044
12.876,0.007357079270332568
12.88,0.0074000156799970875
12.884,0.007408670275450183
12.888,0.007408165424048752
12.892,0.007435956291670358
12.896,0.007410857964856381
12.9,0.00740619409952888
12.904,0.007414271721951768
12.908,0.007411555140601214
12.912,0.007442879968032833
12.916,0.00744076440025541
12.92,0.007427590182732364
12.924,0.0074364130619859374
12.928,0.00742350329043507
12.932,0.007437422764788798
12.936,0.007435643764612329
12.94,0.007403958329036831
12.944,0.007423383087720443
12.948,0.007435403359183077
12.952,0.007421628128086899
12.956,0.007421243479400095
12.96,0.007453842455606753
12.964,0.00742811907467672
12.968,0.00743035484516877
12.972,0.007417156587102801
12.976,0.0074181662899056615
12.98,0.007454948320581315
12.984,0.007442399157174328
12.988,0.007393572814493117
12.992,0.007422854195776088
12.996,0.007445860995355566
13.0,0.007453794374520903
13.004,0.007464492416122645
13.008000000000001,0.007429224939651283
13.012,0.007436052453842058
13.016,0.007459419861565415
13.02,0.007444971495267331
13.024000000000001,0.007442615522060656
13.028,0.007460092996767321
13.032,0.007433359913034428
13.036,0.007432446372403268
13.040000000000001,0.007438769035192613
13.044,0.0074396585352808475
13.048,0.0074670166731297975
13.052,0.007448096765847615
13.056000000000001,0.007450741225569394
13.06,0.007472618119631384
13.064,0.0074819218097434605
13.068,0.0074678821326751065
13.072000000000001,0.00747278640343186
13.076,0.00744400987355032
13.08,0.0074531452798619205
13.084,0.007451919212172732
13.088000000000001,0.007451799009458106
13.092,0.007485768296611503
13.096,0.007468483146248238
13.1,0.007431604953400884
13.104000000000001,0.007456126307184653
13.108,0.007466415659556666
13.112,0.0074831959585185
13.116,0.007511082988311805
13.120000000000001,0.00748370080991993
13.124,0.007488124269818179
13.128,0.007487980026560627
13.132,0.007488629121219609
13.136000000000001,0.007489710945651246
13.14,0.007492812175688605
13.144,0.0074920669188579215
13.148,0.007490840851168733
13.152000000000001,0.007473627822434245
13.156,0.007487282850815794
13.16,0.007523415786832465
13.164,0.007508270244789549
13.168000000000001,0.007487282850815794
13.172,0.0074915139863706405
13.176,0.0074931727838324835
13.18,0.007509520353021663
13.184000000000001,0.007515410286038352
13.188,0.007476176119984323
13.192,0.007508101960989073
13.196,0.007501322527884148
13.200000000000001,0.007487739621131374
13.204,0.007497836649159985
13.208,0.007515338164409577
13.212,0.007506274879726753
13.216000000000001,0.007519136570191768
13.22,0.00751247733980147
13.224,0.0075031736496893936
13.228,0.007527478638586834
13.232000000000001,0.007516948880785569
13.236,0.007513775529119434
13.24,0.0075142563399779394
13.244,0.007513174515546303
13.248000000000001,0.007530844314596372
13.252,0.007527526719672685
13.256,0.007489398418593218
13.26,0.007513511083147257
13.264000000000001,0.007520963651454088
13.268,0.0075088712583626805
13.272,0.00752161274611307
13.276,0.007513246637175079
13.280000000000001,0.007526492976326899
13.284,0.007522141638057426
13.288,0.007523824476062194
13.292,0.007523920638233895
13.296000000000001,0.007527166111528806
13.3,0.007489903269994648
13.304,0.007508967420534382
13.308,0.0075088712583626805
13.312000000000001,0.00750105808191197
13.316,0.007519545259421498
13.32,0.007520987691997013
13.324,0.0075159391779827086
13.328,0.007538849815390486
13.332,0.007543826207776016
13.336,0.0075378160720447
13.34,0.007552552924857886
13.344,0.007530651990252969
13.348,0.007527021868271254
13.352,0.007541758721084443
13.356,0.007543657923975539
13.36,0.007558490938960426
13.364,0.0075557503170669464
13.368,0.007527478638586834
13.372,0.007555029100779188
13.376,0.007569621710334823
13.38,0.007564861682835621
13.384,0.007562145101485066
13.388,0.007554788695349935
13.392,0.007550004627307808
13.396,0.007532695436401617
13.4,0.007542215491400023
13.404,0.007541470234569339
13.408,0.007555870519781572
13.412,0.007537888193673475
13.416,0.007554211722319729
13.42,0.007552769289744214
13.424,0.007543032869859482
13.428,0.007575992454210018
13.432,0.007583517144145625
13.436,0.007517261407843597
13.44,0.0075213242595979675
13.444,0.007543104991488258
13.448,0.007553562627660747
13.452,0.007569934237392851
13.456,0.00755659173606933
13.46,0.007544956113293503
13.464,0.007560005493164718
13.468,0.007549163208305424
13.472,0.007564068344919087
13.476,0.007607581727613813
13.48,0.0075778676165581885
13.484,0.007574958710864232
13.488,0.007579887022163911
13.492,0.007599359861933374
13.496,0.007610731038737023
13.5,0.007607509605985038
13.504,0.007580031265421462
13.508000000000001,0.007594239226290293
13.512,0.007596643280582819
13.516,0.007577675292214786
13.52,0.007579069643704452
13.524000000000001,0.007560414182394447
13.528,0.007576569427240224
13.532,0.007587243428299041
13.536,0.007580944806052622
13.540000000000001,0.00758029571139364
13.544,0.007602533213599509
13.548,0.007567578264186176
13.552,0.007571544953768844
13.556000000000001,0.00756841968318856
13.56,0.007588589698702856
13.564,0.007622679188570879
13.568,0.0075919072936265425
13.572000000000001,0.0075687562507895136
13.576,0.007596234591353089
13.58,0.007613423579544653
13.584,0.007633617635601875
13.588000000000001,0.007628304675615391
13.592,0.007596114388638464
13.596,0.007616452687953236
13.6,0.007612365795655941
13.604000000000001,0.007608927998017628
13.608,0.007616885417725891
13.612,0.0076162363230669085
13.616,0.007608735673674227
13.620000000000001,0.007626165067295043
13.624,0.007626405472724295
13.628,0.007626333351095519
13.632,0.007630300040678188
13.636000000000001,0.0076103704305931445
13.64,0.007618976944960388
13.644,0.00760952901159076
13.648,0.007590825469194905
13.652000000000001,0.007608326984444497
13.656,0.0076112358901384534
13.66,0.0075884935365311545
13.664,0.007598278037501737
13.668000000000001,0.007602292808170256
13.672,0.007603110186629715
13.676,0.007638714230702031
13.68,0.007630877013708394
13.684000000000001,0.00761633248523861
13.688,0.007621669485768018
13.692,0.00765003732641983
13.696,0.007654364624146377
13.700000000000001,0.007656696556810128
13.704,0.007623400404858637
13.708,0.007614745809405543
13.712,0.007633858041031128
13.716000000000001,0.00764140677150966
13.72,0.007634627338404736
13.724,0.007620804026222708
13.728,0.007621957972283122
13.732000000000001,0.007642464555398372
13.736,0.007635925527722701
13.74,0.007635901487179775
13.744,0.007659966070647964
13.748000000000001,0.007636742906182159
13.752,0.007629338418961177
13.756,0.007651696123881673
13.76,0.007648138123528734
13.764000000000001,0.007658211111014419
13.768,0.0076515999617099715
13.772,0.007603975646175024
13.776,0.007641430812052585
13.780000000000001,0.00767196230156767
13.784,0.007657994746128092
13.788,0.007664942463033493
13.792,0.0076706400717067805
13.796000000000001,0.007664557814346689
13.8,0.00766241820602634
13.804,0.007639940298391219
13.808,0.007661576787023956
13.812000000000001,0.007683309437828394
13.816,0.007655927259436519
13.82,0.007632776216599491
13.824,0.007641430812052585
13.828,0.007663043260142397
13.832,0.007677732031869733
13.836,0.007672899882741755
13.84,0.007658211111014419
13.844,0.00767790031567021
13.848,0.0076768906128673485
13.852,0.007663451949372127
13.856,0.0076656396387783255
13.86,0.007671769977224268
13.864,0.00767104876093651
13.868,0.007675496261377684
13.872,0.007691579384594685
13.876,0.007707878872698013
13.88,0.00770982615667496
13.884,0.007661095976165451
13.888,0.007666961868639215
13.892,0.007671673815052567
13.896,0.007694584452460343
13.9,0.0077123263731391865
13.904,0.007706748967180526
13.908,0.007673356653057335
13.912,0.00768246801882601
13.916,0.00768475187040391
13.92,0.007686098140807725
13.924,0.0077025899532544555
13.928,0.007687636735554941
13.932,0.007681818924167028
13.936,0.0077021812640247255
13.94,0.0076892714924738596
13.944,0.007686675113837931
13.948,0.007711989805538233
13.952,0.007667322476783094
13.956,0.007681770843081177
13.96,0.007699176196159068
13.964,0.007700113777333153
13.968,0.0077147063868887875
13.972,0.007694993141690072
13.976,0.007699320439416619
13.98,0.007724370685144743
13.984,0.007713480319199599
13.988,0.007717038319552539
13.992,0.007744276254686862
13.996,0.007724803414917399
14.0,0.007711100305449998
14.004,0.007715235278833144
14.008000000000001,0.00771311971105572
14.012,0.0077292989964444225
14.016,0.007734804280774309
14.02,0.007702061061310099
14.024000000000001,0.007716244981636005
14.028,0.0077260535231495125
14.032,0.007723793712114537
14.036,0.007744348376315638
14.040000000000001,0.00773261659136811
14.044,0.007712903346169393
14.048,0.007715547805891172
14.052,0.007720283792847449
14.056000000000001,0.007732977199511989
14.06,0.007764446270201159
14.064,0.007725692915005633
14.068,0.007704489156145551
14.072000000000001,0.007715884373492125
14.076,0.007736775605294181
14.08,0.007747762133411026
14.084,0.007742016443651888
14.088000000000001,0.007723000374198004
14.092,0.007751488417564441
14.096,0.007753796309685267
14.1,0.007747521727981773
14.104000000000001,0.007747040917123268
14.108,0.00773764106483949
14.112,0.007736775605294181
14.116,0.00774398776817176
14.120000000000001,0.007746896673865716
14.124,0.007765095364860141
14.128,0.007779375447357747
14.132,0.007732496388653484
14.136000000000001,0.007729659604588302
14.14,0.007739035416329155
14.144,0.00774216068690944
14.148,0.007748122741554905
14.152000000000001,0.0077188413602719335
14.156,0.007709994440475436
14.16,0.007760671904961892
14.164,0.007762114337537408
14.168000000000001,0.007742905943740123
14.172,0.007762643229481764
14.176,0.007744733025002443
14.18,0.007727303631381625
14.184000000000001,0.007735044686203562
14.188,0.0077468245522369404
14.192,0.007772019041222616
14.196,0.00776687436503661
14.200000000000001,0.0077372323756097604
14.204,0.007748723755128036
14.208,0.007781370812420544
14.212,0.007791876529678884
14.216000000000001,0.00779149188099208
14.22,0.007757955323611338
14.224,0.00775362802588479
14.228,0.007779038879756794
14.232000000000001,0.007793198759539773
14.236,0.007781226569162992
14.24,0.007789039745613703
14.244,0.0077704564059324745
14.248000000000001,0.007786347204806073
14.252,0.007758508256098619
14.256,0.007759710283244882
14.26,0.007784832650601782
14.264000000000001,0.007774326933343441
14.268,0.0077494449714157945
14.272,0.007765912743319599
14.276,0.007773461473798132
14.280000000000001,0.007782837285538985
14.284,0.007796684638263936
14.288,0.0077739422846566375
14.292,0.007797069286950741
14.296000000000001,0.007797982827581901
14.3,0.007799906071015922
14.304,0.007792357340537389
14.308,0.007813392815596995
14.312000000000001,0.0077750481496311995
14.316,0.0077682927570692
14.32,0.0077808419204761885
14.324,0.007788775299641525
14.328000000000001,0.00782971634424325
14.332,0.007812238869536582
14.336,0.007804497814714647
14.34,0.007803704476798114
14.344,0.007826374708776637
14.348,0.007822744586794921
14.352,0.007814138072427678
14.356,0.007792165016193987
14.36,0.007819955883815592
14.364,0.007817191221379187
14.368,0.0078043054903712454
14.372,0.00779793474649605
14.376,0.007802766895624028
14.38,0.007778726352698765
14.384,0.007778029176953932
14.388,0.007799136773642313
14.392,0.007793944016370457
14.396,0.007814570802200332
14.4,0.007772379649366496
14.404,0.007779976460930879
14.408,0.007812912004738489
14.412,0.0078230090327671
14.416,0.007820893464989676
14.42,0.00782839411438236
14.424,0.007787188623808458
14.428,0.007814210194056453
14.432,0.007818537491783
14.436,0.007800699408932456
14.44,0.007840366304759141
14.444,0.007831471303876795
14.448,0.00782127811367648
14.452,0.007817647991694767
14.456,0.0078077192474666325
14.46,0.007833394547310815
14.464,0.00784570330528855
14.468,0.007788174286068393
14.472,0.00781574878880367
14.476,0.007829019168498418
14.48,0.007823826411226559
14.484,0.007834668696085855
14.488,0.007838803669469
14.492,0.007821855086706688
14.496,0.007830653925417336
14.5,0.00783560627725994
14.504,0.007820869424446751
14.508000000000001,0.007828346033296508
14.512,0.007821975289421313
14.516,0.0078016129495636155
14.52,0.00781848941069715
14.524000000000001,0.007822744586794921
14.528,0.00781880193775518
14.532,0.007850511413873603
14.536,0.00780610853109064
14.540000000000001,0.007802334165851374
14.544,0.007844885926829092
14.548,0.007843611778054052
14.552,0.007842481872536566
14.556000000000001,0.007848876656954685
14.56,0.007845775426917325
14.564,0.00785880540118282
14.568,0.007837769926123214
14.572000000000001,0.00783286565536646
14.576,0.007856497509061994
14.58,0.007847698670351348
14.584,0.00784053458855962
14.588000000000001,0.00783844306132512
14.592,0.007850391211158977
14.596,0.007867291712835437
14.6,0.007864551090941956
14.604000000000001,0.007829740384786175
14.608,0.007832048276907
14.612,0.007857867820008734
14.616,0.00785154515721939
14.620000000000001,0.007863156739452292
14.624,0.007856906198291724
14.628,0.007875273173086624
14.632,0.007860392077015886
14.636000000000001,0.007857675495665331
14.64,0.007886403944461022
14.644,0.007904746878712997
14.648,0.007853708806082663
14.652000000000001,0.007853636684453887
14.656,0.00789503449937119
14.66,0.007887798295950687
14.664,0.0078821006872774
14.668000000000001,0.007885370201115235
14.672,0.007877701267922076
14.676,0.007894601769598535
14.68,0.007888880120382323
14.684000000000001,0.007890611039472943
14.688,0.007898352094294877
14.692,0.007877460862492823
14.696,0.007875104889286147
14.700000000000001,0.007869623645499188
14.704,0.007873999024311585
14.708,0.007898376134837803
14.712,0.007905203649028577
14.716000000000001,0.007878133997694731
14.72,0.007884312417226523
14.724,0.007870008294185991
14.728,0.007882773822479306
14.732000000000001,0.007882485335964202
14.736,0.007862483604250384
14.74,0.007864863617999986
14.744,0.007895515310229697
14.748000000000001,0.007894746012856087
14.752,0.00789397671548248
14.756,0.007911189744216968
14.76,0.007882485335964202
14.764000000000001,0.007879480268098545
14.768,0.007874624078427641
14.772,0.007869936172557216
14.776,0.007892894891050842
14.780000000000001,0.007906766284318719
14.784,0.007882268971077876
14.788,0.007891404377389477
14.792,0.007893760350596152
14.796000000000001,0.00790005897284257
14.8,0.007903641013738435
14.804,0.007872628713364846
14.808,0.007879840876242425
14.812000000000001,0.007898015526693924
14.816,0.007887197282377556
14.82,0.007887846377036536
14.824,0.007923642745452254
14.828000000000001,0.007898063607779773
14.832,0.007888038701379938
14.836,0.007901453324332236
14.84,0.007904458392197894
14.844000000000001,0.00793047025964303
14.848,0.007930277935299627
14.852,0.007894120958740031
14.856,0.00790782406820743
14.86,0.007908713568295665
14.864,0.007907751946578655
14.868,0.007903520811023808
14.872,0.007889120525811576
14.876,0.00791594977171617
14.88,0.007928955705438738
14.884,0.007905107486856876
14.888,0.007914098649910925
14.892,0.007948909356066706
14.896,0.007921695461475307
14.9,0.007912079244305202
14.904,0.007907535581692328
14.908,0.007904097784054015
14.912,0.007908617406123964
14.916,0.007910156000871181
14.92,0.007901910094647815
14.924,0.007940831733643818
14.928,0.007945495598971319
14.932,0.007932922395021406
14.936,0.007948067937064322
14.94,0.007920253028899793
14.944,0.00790686244649042
14.948,0.007933643611309164
14.952,0.007921863745275785
14.956,0.007952683721305974
14.96,0.007962564384448256
14.964,0.007931768448960994
14.968,0.007941528909388651
14.972,0.007942370328391036
14.976,0.00793147996244589
14.98,0.007940591328214565
14.984,0.007926191043002332
14.988,0.007921623339846532
14.992,0.007925181340199471
14.996,0.007934148462710596
15.0,0.007933859976195492
15.004,0.007933283003165285
15.008000000000001,0.00791518047434256
15.012,0.007938620003694694
15.016,0.007943452152822671
15.02,0.007950904721129503
15.024000000000001,0.00796528096579881
15.028,0.007956385964916464
15.032,0.00792006070455639
15.036,0.007928210448608055
15.040000000000001,0.00793782666577816
15.044,0.007947442882948266
15.048,0.007955640708085781
15.052,0.00792955671901187
15.056000000000001,0.007913377433623166
15.06,0.007943981044767028
15.064,0.00796386257376622
15.068,0.007964583790053978
15.072000000000001,0.007966579155116775
15.076,0.007955616667542855
15.08,0.007962684587162882
15.084,0.00795148169415971
15.088000000000001,0.007949294004753511
15.092,0.007977325277804368
15.096,0.007967660979548413
15.1,0.007958765978666064
15.104000000000001,0.007957395667719325
15.108,0.007970377560898967
15.112,0.007978984075266211
15.116,0.00799071586021374
15.120000000000001,0.00796016033015573
15.124,0.007969151493209778
15.128,0.007973022020620746
15.132,0.007968718763437124
15.136000000000001,0.007961194073501517
15.14,0.007989129184380672
15.144,0.007935663016914887
15.148,0.007957083140661295
15.152000000000001,0.007971363223158903
15.156,0.007978527304950632
15.16,0.007991485157587347
15.164,0.007965978141543643
15.168000000000001,0.007964559749511053
15.172,0.007984224913623918
15.176,0.007981652575530915
15.18,0.007979633169925194
15.184000000000001,0.007994177698394977
15.188,0.007972805655734418
15.192,0.007992254454960957
15.196,0.007981051561957784
15.200000000000001,0.007958140924550008
15.204,0.007982638237790851
15.208,0.008012304267760626
15.212,0.007973070101706597
15.216000000000001,0.007983191170278132
15.22,0.007979537007753492
15.224,0.007965377127970512
15.228,0.007977445480518994
15.232000000000001,0.007959030424638242
15.236,0.007961963370875125
15.24,0.007987927157234408
15.244,0.007992711225276537
15.248000000000001,0.008002567847875895
15.252,0.008005188267054748
15.256,0.00798665300845937
15.26,0.007992903549619939
15.264000000000001,0.00799898580698003
15.268,0.00799537972554124
15.272,0.008008962632294014
15.276,0.007995187401197838
15.280000000000001,0.007985402900227256
15.284,0.00798533077859848
15.288,0.007980666913270979
15.292,0.008002207239732015
15.296000000000001,0.008026512228629457
15.3,0.0079870616976891
15.304,0.008009058794465715
15.308,0.0080394941218091
15.312000000000001,0.00801598247082819
15.316,0.008022425336332161
15.32,0.008004443010224065
15.324,0.007989441711438701
15.328000000000001,0.008014876605853628
15.332,0.007992975671248714
15.336,0.007987133819317874
15.34,0.008009419402609593
15.344000000000001,0.007987181900403725
15.348,0.008001510063987183
15.352,0.007993432441564294
15.356,0.00800172642887351
15.36,0.00801304952459131
15.364,0.008024324539223257
15.368,0.007982854602677178
15.372,0.007996725995945055
15.376,0.008007592321347274
15.38,0.008000788847699425
15.384,0.008017352781774931
15.388,0.008009804051296398
15.392,0.008033243580648532
15.396,0.00804959114983771
15.4,0.008015718024856013
15.404,0.007994345982195453
15.408,0.008029469215409264
15.412,0.008011342646043616
15.416,0.008014828524767778
15.42,0.008011583051472869
15.424,0.008025358282569044
15.428,0.008038147851405286
15.432,0.008029733661381443
15.436,0.00800679898343074
15.44,0.008026031417770953
15.444,0.008026319904286055
15.448,0.008018386525120717
15.452,0.008003313104706578
15.456,0.007988432008635839
15.46,0.008006534537458563
15.464,0.008017184497974453
15.468,0.008015189132911658
15.472,0.008021559876786852
15.476,0.008062164353787623
15.48,0.008032979134676353
15.484,0.008023531201306723
15.488,0.008014275592280497
15.492,0.008023002309362369
15.496,0.00805964009678047
15.5,0.008062813448446605
15.504,0.008044446473651703
15.508000000000001,0.008073247044076168
15.512,0.008059255448093666
15.516,0.00804552829808334
15.52,0.008038147851405286
15.524000000000001,0.008039037351493519
15.528,0.008054279055708137
15.532,0.008045961027855996
15.536,0.008050721055355198
15.540000000000001,0.008074256746879031
15.544,0.008074809679366312
15.548,0.00804132120307142
15.552,0.008057620691174747
15.556000000000001,0.008052764501503844
15.56,0.00805918332646489
15.564,0.008059207367007815
15.568,0.008037017945887797
15.572000000000001,0.008048725690292401
15.576,0.00807009773295296
15.58,0.008061827786186668
15.584,0.008051346109471254
15.588000000000001,0.008068462976034042
15.592,0.008060361313068228
15.596,0.008071756530414803
15.6,0.008055096434167595
15.604000000000001,0.008064135678307495
15.608,0.008078656166234353
15.612,0.008076155949770127
15.616,0.00802766617468987
15.620000000000001,0.008064255881022121
15.624,0.0080600487860102
15.628,0.008072189260187457
15.632,0.008082262247673142
15.636000000000001,0.008036849662087321
15.64,0.008050216203953768
15.644,0.008080819815097628
15.648,0.008084786504680296
15.652000000000001,0.008096325965284422
15.656,0.00810065326301097
15.66,0.008074953922623864
15.664,0.008088632991548338
15.668000000000001,0.008077478179631016
15.672,0.008062500921388577
15.676,0.00807416058470733
15.68,0.008088681072634189
15.684000000000001,0.008078127274289998
15.688,0.008078872531120681
15.692,0.008095147978681085
15.696,0.008105966222997453
15.700000000000001,0.00812385238693385
15.704,0.008084498018165192
15.708,0.008103393884904449
15.712,0.008105365209424321
15.716000000000001,0.008100412857581717
15.72,0.00807370381439175
15.724,0.008095364343567411
15.728,0.008100052249437838
15.732000000000001,0.008083416193733555
15.736,0.008095147978681085
15.74,0.00810668743928521
15.744,0.008118443264775664
15.748000000000001,0.008094186356964074
15.752,0.0080783195986334
15.756,0.008107456736658818
15.76,0.0081124812101302
15.764000000000001,0.008094907573251832
15.768,0.00812604007634005
15.772,0.008095027775966457
15.776,0.0081195250892073
15.780000000000001,0.008110774331582506
15.784,0.008104908439108742
15.788,0.008099643560208107
15.792,0.00809389787044897
15.796000000000001,0.00807420866579318
15.8,0.008094114235335298
15.804,0.008102624587530841
15.808,0.008119501048664376
15.812000000000001,0.008138805604633365
15.816,0.008109139574663587
15.82,0.008097720316774087
15.824,0.008125366941138142
15.828000000000001,0.008131497279584085
15.832,0.008129982725379792
15.836,0.008156475403683432
15.84,0.00812558330602447
15.844000000000001,0.008121087724497444
15.848,0.008098585776319396
15.852,0.00810481227693704
15.856,0.008138661361375813
15.860000000000001,0.008130535657867073
15.864,0.008100124371066613
15.868,0.008097095262658031
15.872,0.00811353899401891
15.876,0.008126761292627807
15.88,0.008133660928447358
15.884,0.00810202357395771
15.888,0.008124020670734327
15.892,0.00813253102292987
15.896,0.008140368239923507
15.9,0.008118683670204917
15.904,0.008114981426594427
15.908,0.008147580402801086
15.912,0.008149479605692182
15.916,0.00812034246766676
15.92,0.008137074685542745
15.924,0.008166620512797894
15.928,0.00814152218598392
15.932,0.00813334840138933
15.936,0.008141858753584873
15.94,0.008154335795363085
15.944,0.008155489741423497
15.948,0.008148974754290751
15.952,0.008122482075987108
15.956,0.008151859619441782
15.96,0.008149647889492658
15.964,0.008153422254731924
15.968,0.0081557782279386
15.972,0.008156547525312209
15.976,0.008124453400506982
15.98,0.008153710741247027
15.984,0.008144551294392502
15.988,0.008135319725909201
15.992,0.008181237162896454
15.996,0.008172390243099957
16.0,0.008153302052017298
16.004,0.008152340430300288
16.008,0.008163855850361489
16.012,0.008171789229526825
16.016000000000002,0.008165851215424286
16.02,0.008148325659631769
16.024,0.008174650054134931
16.028,0.00817460197304908
16.032,0.008162749985386927
16.036,0.00818217474407054
16.04,0.00816856779677484
16.044,0.008166067580310613
16.048000000000002,0.008155201254908394
16.052,0.00815582630902445
16.056,0.008171092053781992
16.06,0.008191286109839213
16.064,0.008140416321009357
16.068,0.008149575767863883
16.072,0.00816349524221761
16.076,0.008168928404918719
16.080000000000002,0.008157509147029219
16.084,0.008158182282231126
16.088,0.008133492644646882
16.092,0.008146474537826524
16.096,0.00815222022758566
16.1,0.008164528985563396
16.104,0.008192632380243028
16.108,0.008170178513150833
16.112000000000002,0.008159744917521269
16.116,0.008181020798010126
16.12,0.008196550988739847
16.124,0.008217297977284349
16.128,0.008217826869228704
16.132,0.008159720876978343
16.136,0.008170779526723964
16.14,0.008188906096089613
16.144000000000002,0.008198450191630942
16.148,0.008198089583487063
16.152,0.008180828473666725
16.156,0.008176044405624597
16.16,0.00818962731237737
16.164,0.008204556489533959
16.168,0.008192848745129357
16.172,0.008203931435417902
16.176000000000002,0.00818191029809836
16.18,0.008167413850714428
16.184,0.008165731012709659
16.188,0.008189723474549071
16.192,0.008212105220012492
16.196,0.008203618908359874
16.2,0.008159961282407596
16.204,0.008169409215777225
16.208000000000002,0.008170827607809815
16.212,0.008178640784260525
16.216,0.008204219921933006
16.22,0.008177462797657187
16.224,0.008161331593354335
16.228,0.008188016596001378
16.232,0.008192031366669896
16.236,0.008199339691719177
16.240000000000002,0.008223115788672264
16.244,0.008211432084810585
16.248,0.008226241059252548
16.252,0.008206984584369411
16.256,0.00821643251773904
16.26,0.008233909992445707
16.264,0.008240713466093556
16.268,0.008212153301098342
16.272000000000002,0.008199820502577683
16.276,0.008213379368787532
16.28,0.00822227436966988
16.284,0.008232251194983864
16.288,0.008211744611868613
16.292,0.008215326652764476
16.296,0.008224005288760498
16.3,0.008217995153029182
16.304000000000002,0.008229943302863038
16.308,0.008238645979401984
16.312,0.008183304649588026
16.316,0.008190805298980709
16.32,0.00819405077227562
16.324,0.00821099935503793
16.328,0.008230279870463993
16.332,0.008202993854243817
16.336000000000002,0.008166957080398848
16.34,0.008200205151264487
16.344,0.008201118691895647
16.348,0.008204436286819333
16.352,0.008233429181587202
16.356,0.008213066841729502
16.36,0.00824419934481772
16.364,0.00824470419621915
16.368000000000002,0.008235857276422653
16.372,0.008249608466975904
16.376,0.008252228886154758
16.38,0.008219365463975921
16.384,0.008219413545061772
16.388,0.008234775451991016
16.392,0.008249920994033932
16.396,0.008258840035459205
16.4,0.008239992249805799
16.404,0.008244079142103093
16.408,0.008248791088516444
16.412,0.008251315345523598
16.416,0.008241386601295463
