time,channel2
0.0,-0.013749483674703081
0.004,-0.013747776796155388
0.008,-0.013746767093352527
0.012,-0.01374847397190022
0.016,-0.013749603877417709
0.02,-0.013750878026192747
0.024,-0.01374943559361723
0.028,-0.01375010872881914
0.032,-0.013751238634336626
0.036000000000000004,-0.013750733782935195
0.04,-0.013745805471635517
0.044,-0.013750805904563972
0.048,-0.013745709309463816
0.052000000000000005,-0.013746358404122798
0.056,-0.01374604587706477
0.06,-0.013746310323036947
0.064,-0.013745420822948712
0.068,-0.013739386646674472
0.07200000000000001,-0.013740300187305632
0.076,-0.013745565066206264
0.08,-0.013744915971547282
0.084,-0.013748209525928043
0.088,-0.013749291350359679
0.092,-0.013750974188364448
0.096,-0.013752007931710235
0.1,-0.013754604310346162
0.10400000000000001,-0.013757248770067941
0.108,-0.013756888161924063
0.112,-0.013747993161041715
0.116,-0.01374614203923647
0.12,-0.01375248874256874
0.124,-0.013746478606837424
0.128,-0.013749195188187978
0.132,-0.013754628350889088
0.136,-0.013752248337139486
0.14,-0.013756407351065557
0.14400000000000002,-0.013748762458415324
0.148,-0.013747488309640284
0.152,-0.013748570134071922
0.156,-0.013747127701496406
0.16,-0.013748522052986071
0.164,-0.013744194755259525
0.168,-0.013743449498428841
0.17200000000000001,-0.013748089323213416
0.176,-0.013749579836874783
0.18,-0.013741862822595773
0.184,-0.013747752755612463
0.188,-0.01375294551288432
0.192,-0.013752681066912142
0.196,-0.01375258490474044
0.2,-0.013748522052986071
0.20400000000000001,-0.013746887296067153
0.20800000000000002,-0.013751118431622
0.212,-0.013750036607190362
0.216,-0.013750733782935195
0.22,-0.013750493377505942
0.224,-0.013750757823478121
0.228,-0.013751695404652205
0.232,-0.013750084688276213
0.23600000000000002,-0.013752344499311188
0.24,-0.013751046309993223
0.244,-0.013752464702025815
0.248,-0.01375477259414664
0.252,-0.013749123066559203
0.256,-0.01375426774274521
0.26,-0.013757320891696718
0.264,-0.013752921472341395
0.268,-0.013744795768832656
0.272,-0.013743040809199112
0.276,-0.013740756957621211
0.28,-0.013743593741686393
0.28400000000000003,-0.013745204458062385
0.28800000000000003,-0.013748041242127565
0.292,-0.01374599779597892
0.296,-0.0137488345800441
0.3,-0.013745324660777011
0.304,-0.01374650264738035
0.308,-0.013746791133895452
0.312,-0.013745324660777011
0.316,-0.013745060214804834
0.32,-0.013745060214804834
0.324,-0.013745204458062385
0.328,-0.013748522052986071
0.332,-0.0137488345800441
0.336,-0.013750637620763494
0.34,-0.01375518128337637
0.34400000000000003,-0.013747175782582256
0.34800000000000003,-0.013740540592734884
0.352,-0.01374481980937558
0.356,-0.013742511917254755
0.36,-0.013751839647909757
0.364,-0.013749748120675259
0.368,-0.01375116651270785
0.372,-0.013754243702202283
0.376,-0.013746791133895452
0.38,-0.01374477172828973
0.384,-0.013747896998870015
0.388,-0.013753666729172078
0.392,-0.013750036607190362
0.396,-0.013749988526104512
0.4,-0.013750733782935195
0.404,-0.013748113363756342
0.40800000000000003,-0.01374888266112995
0.41200000000000003,-0.013750541458591793
0.41600000000000004,-0.01374741618801151
0.42,-0.013740276146762705
0.424,-0.013745468904034563
0.428,-0.013749195188187978
0.432,-0.013748738417872398
0.436,-0.013748954782758727
0.44,-0.013746887296067153
0.444,-0.013746334363579872
0.448,-0.01374376202548687
0.452,-0.013745300620234087
0.456,-0.013748570134071922
0.46,-0.013749531755788932
0.464,-0.013743689903858094
0.468,-0.013746310323036947
0.47200000000000003,-0.01374979620176111
0.47600000000000003,-0.01374842589081437
0.48,-0.0137488345800441
0.484,-0.013749123066559203
0.488,-0.013753522485914526
0.492,-0.013751118431622
0.496,-0.013748305688099744
0.5,-0.013748618215157772
0.504,-0.013751046309993223
0.508,-0.01374472364720388
0.512,-0.013740420390020257
0.516,-0.013750541458591793
0.52,-0.013750252972076691
0.524,-0.013740420390020257
0.528,-0.013737367241068749
0.532,-0.013742223430739652
0.536,-0.013741790700966998
0.54,-0.013740107862962229
0.544,-0.013740901200878763
0.548,-0.013738569268215012
0.552,-0.013738112497899432
0.556,-0.013737487443783376
0.56,-0.013737583605955077
0.5640000000000001,-0.013740925241421688
0.5680000000000001,-0.013740829079249986
0.5720000000000001,-0.013740131903505154
0.5760000000000001,-0.013740973322507538
0.58,-0.013742223430739652
0.584,-0.013742007065853325
0.588,-0.013742608079426457
0.592,-0.01374335333625714
0.596,-0.01373919432233107
0.6,-0.01373426601103139
0.604,-0.013735155511119625
0.608,-0.013735900767950308
0.612,-0.013737343200525824
0.616,-0.013740107862962229
0.62,-0.01373554015980643
0.624,-0.013733448632571931
0.628,-0.013741862822595773
0.632,-0.013740059781876379
0.636,-0.013742271511825502
0.64,-0.013740805038707062
0.644,-0.013736453700437589
0.648,-0.013738352903328685
0.652,-0.013740564633277809
0.656,-0.013737247038354123
0.66,-0.013736670065323916
0.664,-0.013740444430563183
0.668,-0.013740252106219781
0.672,-0.01374243979562598
0.676,-0.013736790268038543
0.68,-0.013739098160159368
0.684,-0.013737535524869227
0.6880000000000001,-0.013736141173379561
0.6920000000000001,-0.01374162241716652
0.6960000000000001,-0.013734169848859688
0.7000000000000001,-0.013738641389843789
0.704,-0.013742103228025026
0.708,-0.013735564200349354
0.712,-0.013732462970311995
0.716,-0.013737198957268272
0.72,-0.013737247038354123
0.724,-0.013737992295184806
0.728,-0.013737559565412151
0.732,-0.013737030673467796
0.736,-0.013736621984238065
0.74,-0.013736333497722963
0.744,-0.013736213295008336
0.748,-0.01373695855183902
0.752,-0.013737775930298478
0.756,-0.013736429659894665
0.76,-0.013733208227142678
0.764,-0.013733328429857306
0.768,-0.01373436217320309
0.772,-0.013736405619351738
0.776,-0.013738521187129161
0.78,-0.013735371876005951
0.784,-0.013733448632571931
0.788,-0.01373705471401072
0.792,-0.013738328862785759
0.796,-0.013736982592381946
0.8,-0.013736790268038543
0.804,-0.013738449065500386
0.808,-0.013737583605955077
0.812,-0.013735684403063981
0.8160000000000001,-0.013738400984414536
0.8200000000000001,-0.01373801633572773
0.8240000000000001,-0.013737030673467796
0.8280000000000001,-0.01374239171454013
0.8320000000000001,-0.013738136538442358
0.836,-0.013732150443253967
0.84,-0.013734434294831867
0.844,-0.013737174916725346
0.848,-0.01373609309229371
0.852,-0.0137375114843263
0.856,-0.013739867457532976
0.86,-0.013737319159982898
0.864,-0.01373517955166255
0.868,-0.013741189687393867
0.872,-0.013741141606308016
0.876,-0.013740684835992436
0.88,-0.013744411120145851
0.884,-0.013743064849742036
0.888,-0.013741333930651417
0.892,-0.013734169848859688
0.896,-0.013736790268038543
0.9,-0.0137328476189988
0.904,-0.013736141173379561
0.908,-0.013740444430563183
0.912,-0.013733112064970977
0.916,-0.013723279482914545
0.92,-0.01373020315927702
0.924,-0.013730780132307227
0.928,-0.013728856888873205
0.932,-0.013728616483443954
0.936,-0.013728880929416131
0.9400000000000001,-0.01373116478099403
0.9440000000000001,-0.013734290051574316
0.9480000000000001,-0.013731621551309612
0.9520000000000001,-0.013729962753847767
0.9560000000000001,-0.013732006199996415
0.96,-0.013732655294655397
0.964,-0.013737751889755553
0.968,-0.013731861956738863
0.972,-0.013726068185893876
0.976,-0.01373015507819117
0.98,-0.013730443564706273
0.984,-0.013728760726701504
0.988,-0.013726164348065577
0.992,-0.013729866591676068
0.996,-0.013726885564353334
1.0,-0.013728616483443954
1.004,-0.013732511051397845
1.008,-0.013723015036942367
1.012,-0.01372736637521184
1.016,-0.013730948416107704
1.02,-0.013728808807787355
1.024,-0.013729001132130757
1.028,-0.013732414889226144
1.032,-0.013731357105337433
1.036,-0.013733424592029007
1.04,-0.013729217497017086
1.044,-0.013728640523986878
1.048,-0.01373142922696621
1.052,-0.013741141606308016
1.056,-0.013733977524516288
1.06,-0.013736934511296095
1.064,-0.013739218362873994
1.068,-0.013736381578808814
1.072,-0.013733929443430437
1.076,-0.013736141173379561
1.08,-0.013739506849389098
1.084,-0.013732174483796893
1.088,-0.013735419957091802
1.092,-0.01373609309229371
1.096,-0.013736982592381946
1.1,-0.013737343200525824
1.104,-0.013736333497722963
1.108,-0.013734338132660166
1.112,-0.013732462970311995
1.116,-0.01373380924071581
1.12,-0.013735564200349354
1.124,-0.013736886430210244
1.1280000000000001,-0.013730900335021853
1.1320000000000001,-0.013731092659365255
1.1360000000000001,-0.013733424592029007
1.1400000000000001,-0.01372928961864586
1.1440000000000001,-0.013730082956562395
1.1480000000000001,-0.013737271078897047
1.1520000000000001,-0.013725803739921697
1.156,-0.013722534226083861
1.16,-0.01372974638896144
1.164,-0.013729049213216608
1.168,-0.013728616483443954
1.172,-0.01372777506444157
1.176,-0.013728472240186402
1.18,-0.013728520321272253
1.184,-0.013731236902622807
1.188,-0.013730058916019468
1.192,-0.013727606780641092
1.196,-0.013728159713128373
1.2,-0.013730804172850152
1.204,-0.013733689038001184
1.208,-0.01373097245665063
1.212,-0.013727582740098167
1.216,-0.0137260922264368
1.22,-0.013735780565235682
1.224,-0.013735347835463027
1.228,-0.013732535091940772
1.232,-0.013724769996575912
1.236,-0.013728568402358103
1.24,-0.013732006199996415
1.244,-0.013732318727054443
1.248,-0.01372731829412599
1.252,-0.013723952618116451
1.256,-0.013725491212863669
1.26,-0.013725298888520266
1.264,-0.013728616483443954
1.268,-0.013730539726877974
1.272,-0.013726933645439185
1.276,-0.013732559132483696
1.28,-0.013735972889579083
1.284,-0.013727558699555241
1.288,-0.013724385347889107
1.292,-0.013726404753494828
1.296,-0.013729121334845384
1.3,-0.013730082956562395
1.304,-0.013731645591852536
1.308,-0.013732198524339817
1.312,-0.013729049213216608
1.316,-0.013733448632571931
1.32,-0.01373193407836764
1.324,-0.013729554064618038
1.328,-0.013727029807610886
1.332,-0.013726284550780203
1.336,-0.013727895267156195
1.34,-0.013726981726525036
1.344,-0.013725346969606117
1.348,-0.013727654861726942
1.352,-0.013734097727230913
1.356,-0.01373517955166255
1.36,-0.013727125969782587
1.364,-0.013721404320566375
1.368,-0.01372238998282631
1.372,-0.013725322929063193
1.3760000000000001,-0.013724457469517884
1.3800000000000001,-0.013727726983355719
1.3840000000000001,-0.013726933645439185
1.3880000000000001,-0.013726164348065577
1.3920000000000001,-0.013727486577926466
1.3960000000000001,-0.013729409821360486
1.4000000000000001,-0.013730563767420899
1.4040000000000001,-0.01372924153756001
1.408,-0.01372553929394952
1.412,-0.013724914239833463
1.416,-0.013725972023722175
1.42,-0.013730876294478929
1.424,-0.01373147730805206
1.428,-0.013727414456297691
1.432,-0.013726380712951904
1.436,-0.013720827347536168
1.44,-0.013716788536324723
1.444,-0.013715658630807237
1.448,-0.01371558650917846
1.452,-0.013715418225377984
1.456,-0.013712821846742055
1.46,-0.01371371134683029
1.464,-0.013711331333080688
1.468,-0.013714432563118047
1.472,-0.013713350738686412
1.476,-0.013708614751730134
1.48,-0.01371178810339627
1.484,-0.013712509319684027
1.488,-0.013713470941401037
1.492,-0.013711812143939194
1.496,-0.0137122929547977
1.5,-0.013715033576691179
1.504,-0.013717101063382753
1.508,-0.01371681257686765
1.512,-0.013717942482385136
1.516,-0.013712028508825521
1.52,-0.013706378981238086
1.524,-0.013710850522222184
1.528,-0.013710129305934425
1.532,-0.013707581008384349
1.536,-0.013707172319154618
1.54,-0.013708206062500405
1.544,-0.01370421533237481
1.548,-0.013705128873005972
1.552,-0.01370640302178101
1.556,-0.013702484413284192
1.56,-0.013701162183423302
1.564,-0.013703325832286577
1.568,-0.013703542197172904
1.572,-0.01370685979209659
1.576,-0.013708398386843807
1.58,-0.013706066454180056
1.584,-0.013705777967664954
1.588,-0.013701114102337451
1.592,-0.013703446035001203
1.596,-0.01370279694034222
1.6,-0.013697868629042542
1.604,-0.013703926845859709
1.608,-0.013706691508296114
1.612,-0.013702508453827117
1.616,-0.013703157548486099
1.62,-0.013706330900152235
1.624,-0.013706619386667337
1.6280000000000001,-0.013705176954091822
1.6320000000000001,-0.013705008670291344
1.6360000000000001,-0.013705321197349372
1.6400000000000001,-0.013706282819066384
1.6440000000000001,-0.013702532494370043
1.6480000000000001,-0.013704624021604541
1.6520000000000001,-0.01370366239988753
1.6560000000000001,-0.013705369278435223
1.6600000000000001,-0.013705970292008355
1.6640000000000001,-0.013705369278435223
1.668,-0.013704383616175288
1.672,-0.013705753927122028
1.676,-0.013705585643321552
1.68,-0.013702772899799296
1.684,-0.013702917143056846
1.688,-0.013710778400593407
1.692,-0.01370777333272775
1.696,-0.01370539331897815
1.7,-0.013709504251818369
1.704,-0.013700585210393097
1.708,-0.013704624021604541
1.712,-0.013706643427210263
1.716,-0.013707749292184825
1.72,-0.013706210697437608
1.724,-0.013701474710481332
1.728,-0.013705681805493253
1.732,-0.013708807076073536
1.736,-0.013713687306287364
1.74,-0.013712653562941579
1.744,-0.013705537562235701
1.748,-0.013707701211098974
1.752,-0.013704768264862091
1.756,-0.013705585643321552
1.76,-0.013708807076073536
1.764,-0.013710393751906604
1.768,-0.013704599981061615
1.772,-0.013706427062323936
1.776,-0.013705152913548896
1.78,-0.013708061819242853
1.784,-0.013708542630101359
1.788,-0.013708157981414554
1.792,-0.01370777333272775
1.796,-0.01370681171101074
1.8,-0.013708783035530612
1.804,-0.013709744657247622
1.808,-0.013709384049103743
1.812,-0.01370589817037958
1.816,-0.013706042413637131
1.82,-0.013714192157688796
1.824,-0.013711860225025045
1.828,-0.013704696143233316
1.832,-0.013700729453650648
1.836,-0.013702412291655416
1.84,-0.013704407656718213
1.844,-0.013704311494546512
1.848,-0.013703277751200726
1.852,-0.013705080791920121
1.856,-0.013700993899622826
1.86,-0.013708566670644283
1.864,-0.013711667900681642
1.868,-0.013711619819595792
1.872,-0.013710369711363678
1.8760000000000001,-0.013711451535795316
1.8800000000000001,-0.01371234103588355
1.8840000000000001,-0.013715826914607713
1.8880000000000001,-0.013712509319684027
1.8920000000000001,-0.01370868687335891
1.8960000000000001,-0.01370777333272775
1.9000000000000001,-0.013704359575632362
1.9040000000000001,-0.013707220400240468
1.9080000000000001,-0.013706835751553665
1.9120000000000001,-0.013705826048750805
1.9160000000000001,-0.013708975359874013
1.92,-0.013710441832992455
1.924,-0.01370493654866257
1.928,-0.013699839953562413
1.932,-0.013702219967312015
1.936,-0.013704047048574334
1.94,-0.013706475143409785
1.944,-0.01370813394087163
1.948,-0.013708903238245237
1.952,-0.013706979994811217
1.956,-0.01370589817037958
1.96,-0.013705441400064
1.964,-0.01370416725128896
1.968,-0.013705970292008355
1.972,-0.013702508453827117
1.976,-0.013699022575102955
1.98,-0.013702075724054463
1.984,-0.013700128440077517
1.988,-0.013704359575632362
1.992,-0.013707124238068767
1.996,-0.013705249075720597
2.0,-0.013703397953915352
2.004,-0.013705249075720597
2.008,-0.013704407656718213
2.012,-0.013704407656718213
2.016,-0.013705369278435223
2.02,-0.013706138575808833
2.024,-0.013705441400064
2.028,-0.01370493654866257
2.032,-0.013704912508119643
2.036,-0.01370685979209659
2.04,-0.013698517723701524
2.044,-0.013701955521339836
2.048,-0.013706595346124412
2.052,-0.013708975359874013
2.056,-0.013709456170732518
2.06,-0.013707460805669721
2.064,-0.013711547697967017
2.068,-0.01370736464349802
2.072,-0.013709480211275443
2.076,-0.013707677170556048
2.08,-0.013702436332198342
2.084,-0.01370092177799405
2.088,-0.013702917143056846
2.092,-0.013704311494546512
2.096,-0.013703446035001203
2.1,-0.013707340602955096
2.104,-0.01370640302178101
2.108,-0.01370736464349802
2.112,-0.013709504251818369
2.116,-0.013704095129660185
2.12,-0.01370447977834699
2.124,-0.013707172319154618
2.128,-0.013713975792802468
2.132,-0.013716067320036966
2.136,-0.013707581008384349
2.14,-0.013704648062147466
2.144,-0.01370279694034222
2.148,-0.013704287454003587
2.152,-0.013705802008207878
2.156,-0.013710273549191977
2.16,-0.013707532927298498
2.164,-0.013704648062147466
2.168,-0.013707172319154618
2.172,-0.013705176954091822
2.176,-0.013707052116439992
2.18,-0.013711499616881166
2.184,-0.013710441832992455
2.188,-0.013707124238068767
2.192,-0.013707581008384349
2.196,-0.01371152365742409
2.2,-0.013712773765656204
2.204,-0.013709480211275443
2.208,-0.013705609683864476
2.212,-0.013708398386843807
2.216,-0.013706547265038562
2.22,-0.013710874562765108
2.224,-0.013703830683688007
2.228,-0.01370371048097338
2.232,-0.013708903238245237
2.236,-0.013702941183599772
2.24,-0.013705513521692775
2.244,-0.013705874129836653
2.248,-0.013707148278611693
2.2520000000000002,-0.013705802008207878
2.2560000000000002,-0.013702652697084669
2.2600000000000002,-0.013707749292184825
2.2640000000000002,-0.013710610116792931
2.2680000000000002,-0.013712052549368447
2.2720000000000002,-0.01370960041399007
2.2760000000000002,-0.013713951752259543
2.2800000000000002,-0.013716187522751591
2.2840000000000003,-0.013719625320389905
2.2880000000000003,-0.013712629522398653
2.2920000000000003,-0.01370589817037958
2.2960000000000003,-0.013710225468106126
2.3000000000000003,-0.01370539331897815
2.3040000000000003,-0.013701474710481332
2.308,-0.013704047048574334
2.312,-0.013705657764950327
2.316,-0.013701883399711061
2.32,-0.013701210264509153
2.324,-0.013700080358991666
2.328,-0.013703470075544127
2.332,-0.013704696143233316
2.336,-0.013703085426857324
2.34,-0.013703566237715828
2.344,-0.013706571305581486
2.348,-0.013703854724230932
2.352,-0.013703830683688007
2.356,-0.013703566237715828
2.36,-0.013706042413637131
2.364,-0.013709384049103743
2.368,-0.013701594913195957
2.372,-0.013703133507943175
2.376,-0.013708855157159387
2.38,-0.0137100091032198
2.384,-0.01370914364367449
2.388,-0.013710393751906604
2.392,-0.013706138575808833
2.396,-0.013706306859609309
2.4,-0.013703301791743651
2.404,-0.01370229208894079
2.408,-0.013704311494546512
2.412,-0.013704311494546512
2.416,-0.013705561602778625
2.42,-0.013704696143233316
2.424,-0.013704840386490868
2.428,-0.013702893102513922
2.432,-0.013707076156982917
2.436,-0.01370589817037958
2.44,-0.013705200994634747
2.444,-0.013704143210746035
2.448,-0.013704455737804063
2.452,-0.01370183531862521
2.456,-0.0136964021559241
2.46,-0.01369767630469914
2.464,-0.013701210264509153
2.468,-0.013703470075544127
2.472,-0.013703181589029025
2.476,-0.013706378981238086
2.48,-0.013706835751553665
2.484,-0.013703566237715828
2.488,-0.013701522791567182
2.492,-0.01370183531862521
2.496,-0.013703518156629978
2.5,-0.013702508453827117
2.504,-0.013701955521339836
2.508,-0.01370589817037958
2.512,-0.013706186656894683
2.516,-0.013702941183599772
2.52,-0.01370000823736289
2.524,-0.013697075291126008
2.528,-0.01369726761546941
2.532,-0.01370010439953459
2.536,-0.013705008670291344
2.54,-0.013707725251641899
2.544,-0.01370681171101074
2.548,-0.013708879197702311
2.552,-0.013705152913548896
2.556,-0.013705056751377195
2.56,-0.013708302224672106
2.564,-0.013707556967841423
2.568,-0.013705513521692775
2.572,-0.01370548948114985
2.576,-0.013707605048927273
2.58,-0.013703157548486099
2.584,-0.013704624021604541
2.588,-0.013700200561706292
2.592,-0.013702869061970996
2.596,-0.013700801575279423
2.6,-0.013700489048221395
2.604,-0.013700657332021872
2.608,-0.013701955521339836
2.612,-0.013702364210569565
2.616,-0.013702604615998818
2.62,-0.013703878764773858
2.624,-0.013700176521163367
2.628,-0.013702051683511537
2.632,-0.013698686007502
2.636,-0.013697652264156214
2.64,-0.013699335102160983
2.644,-0.01370229208894079
2.648,-0.01370000823736289
2.652,-0.013698878331845403
2.656,-0.013698325399358122
2.66,-0.013694863561176884
2.664,-0.013698445602072748
2.668,-0.013695729020722193
2.672,-0.013703542197172904
2.676,-0.013706210697437608
2.68,-0.013702436332198342
2.684,-0.013698517723701524
2.688,-0.01369635407483825
2.692,-0.013696666601896279
2.696,-0.013698157115557644
2.7,-0.01370056116985017
2.704,-0.013703061386314398
2.708,-0.013701354507766704
2.712,-0.013700969859079901
2.716,-0.013706835751553665
2.72,-0.013706691508296114
2.724,-0.013705802008207878
2.728,-0.01370051308876432
2.732,-0.013695320331492464
2.736,-0.013698830250759552
2.74,-0.013705513521692775
2.744,-0.01370645110286686
2.748,-0.01370472018377624
2.7520000000000002,-0.013706282819066384
2.7560000000000002,-0.01370457594051869
2.7600000000000002,-0.013704383616175288
2.7640000000000002,-0.013702893102513922
2.7680000000000002,-0.013702051683511537
2.7720000000000002,-0.013705729886579103
2.7760000000000002,-0.013701426629395481
2.7800000000000002,-0.013697459939812811
2.7840000000000003,-0.013699407223789758
2.7880000000000003,-0.01370183531862521
2.7920000000000003,-0.013702676737627595
2.7960000000000003,-0.013703542197172904
2.8000000000000003,-0.013703614318801679
2.8040000000000003,-0.013702003602425687
2.8080000000000003,-0.0137032537106578
2.8120000000000003,-0.013704287454003587
2.816,-0.013704047048574334
2.82,-0.013703373913372428
2.824,-0.01370421533237481
2.828,-0.013699359142703907
2.832,-0.013701234305052079
2.836,-0.013706883832639516
2.84,-0.01370640302178101
2.844,-0.01369909469673173
2.848,-0.01369690700732553
2.852,-0.013693637493487695
2.856,-0.013698734088587851
2.86,-0.013700993899622826
2.864,-0.013706162616351757
2.868,-0.013704624021604541
2.872,-0.013705056751377195
2.876,-0.013707292521869245
2.88,-0.013708951319331088
2.884,-0.013712533360226951
2.888,-0.013708999400416939
2.892,-0.013705200994634747
2.896,-0.0137032537106578
2.9,-0.013699839953562413
2.904,-0.013703686440430456
2.908,-0.01370868687335891
2.912,-0.01370914364367449
2.916,-0.013707460805669721
2.92,-0.01369959954813316
2.924,-0.013703518156629978
2.928,-0.013709528292361293
2.932,-0.013708855157159387
2.936,-0.013706018373094205
2.94,-0.01370685979209659
2.944,-0.013712557400769878
2.948,-0.013713230535971784
2.952,-0.013713494981943963
2.956,-0.01371508165777703
2.96,-0.013716379847094994
2.964,-0.013717678036412958
2.968,-0.013715346103749209
2.972,-0.01370960041399007
2.976,-0.013713903671173693
2.98,-0.013719360874417727
2.984,-0.013715514387549685
2.988,-0.013714144076602946
2.992,-0.013718976225730923
2.996,-0.013720731185364467
3.0,-0.013716427928180844
3.004,-0.013718880063559221
3.008,-0.013720322496134738
3.012,-0.013718615617587044
3.016,-0.013719985928533783
3.02,-0.013718952185187998
3.024,-0.013721788969253178
3.028,-0.013722077455768282
3.032,-0.013719793604190381
3.036,-0.013720346536677662
3.04,-0.013726981726525036
3.044,-0.013724361307346182
3.048,-0.013724265145174481
3.052,-0.013724842118204687
3.056,-0.013718351171614867
3.06,-0.013711956387196746
3.064,-0.013718904104102148
3.068,-0.013727678902269868
3.072,-0.013721716847624403
3.076,-0.013720635023192766
3.08,-0.013725803739921697
3.084,-0.013724096861374003
3.088,-0.013724409388432033
3.092,-0.013728568402358103
3.096,-0.013726308591323127
3.1,-0.013726308591323127
3.104,-0.013730395483620423
3.108,-0.013720899469164943
3.112,-0.013720394617763513
3.116,-0.013721404320566375
3.12,-0.013722678469341413
3.124,-0.013725250807434416
3.128,-0.013728760726701504
3.132,-0.013728929010501982
3.136,-0.013731236902622807
3.14,-0.013731260943165732
3.144,-0.013733905402887511
3.148,-0.013733496713657782
3.152,-0.013731044578279405
3.156,-0.013732511051397845
3.16,-0.013731284983708658
3.164,-0.013729025172673683
3.168,-0.013728640523986878
3.172,-0.013733015902799276
3.176,-0.013738328862785759
3.18,-0.013737391281611675
3.184,-0.013734506416460643
3.188,-0.013736453700437589
3.192,-0.013727270213040139
3.196,-0.013732775497370025
3.2,-0.013735876727407384
3.204,-0.01373746340324045
3.208,-0.013741430092823118
3.212,-0.013742632119969381
3.216,-0.013742656160512307
3.22,-0.01374015594404808
3.224,-0.013742800403769859
3.228,-0.013743233133542513
3.232,-0.013746911336610079
3.236,-0.013748017201584641
3.24,-0.013741333930651417
3.244,-0.013739627052103723
3.248,-0.013736934511296095
3.2520000000000002,-0.013739410687217396
3.2560000000000002,-0.013741093525222165
3.2600000000000002,-0.013743040809199112
3.2640000000000002,-0.013740853119792912
3.2680000000000002,-0.013741406052280193
3.2720000000000002,-0.013744483241774626
3.2760000000000002,-0.013747127701496406
3.2800000000000002,-0.013742103228025026
3.2840000000000003,-0.01374162241716652
3.2880000000000003,-0.013743161011913738
3.2920000000000003,-0.013746887296067153
3.2960000000000003,-0.013752897431798469
3.3000000000000003,-0.013747608512354912
3.3040000000000003,-0.01374614203923647
3.3080000000000003,-0.013749916404475737
3.3120000000000003,-0.013751647323566355
3.3160000000000003,-0.01375061358022057
3.3200000000000003,-0.013749483674703081
3.3240000000000003,-0.01375116651270785
3.3280000000000003,-0.013750902066735673
3.332,-0.013755638053691949
3.336,-0.013757705540383521
3.34,-0.013759268175673665
3.344,-0.013758306553956653
3.348,-0.013753161877770648
3.352,-0.013754436026545686
3.356,-0.013756263107808007
3.36,-0.01375710452681039
3.364,-0.013760229797390675
3.368,-0.013762393446253948
3.372,-0.01375354652645745
3.376,-0.013755710175320726
3.38,-0.013759196054044888
3.384,-0.013758330594499579
3.388,-0.013759604743274617
3.392,-0.013760662527163329
3.396,-0.01375888352698686
3.4,-0.01375989322978972
3.404,-0.013761816473223741
3.408,-0.013760013432504346
3.412,-0.013763379108513885
3.416,-0.01376660054126587
3.42,-0.013764028203172867
3.424,-0.013761143338021834
3.428,-0.013761936675938368
3.432,-0.013764028203172867
3.436,-0.013768956514472545
3.44,-0.013767057311581449
3.444,-0.013767466000811178
3.448,-0.01376208091919592
3.452,-0.013769052676644246
3.456,-0.013772803001340587
3.46,-0.013773235731113241
3.464,-0.013775399379976516
3.468,-0.013772754920254737
3.472,-0.013771360568765071
3.476,-0.013773067447312765
3.48,-0.013778500610013875
3.484,-0.013780423853447896
3.488,-0.013780856583220551
3.492,-0.013779967083132316
3.496,-0.013779101623587007
3.5,-0.013782082650909739
3.504,-0.013776962015266658
3.508,-0.013771456730936773
3.512,-0.01377537533943359
3.516,-0.013778548691099726
3.52,-0.013779654556074288
3.524,-0.013773716541971747
3.528,-0.013776168677350124
3.532,-0.013783621245656956
3.536,-0.013782299015796065
3.54,-0.01378131335353613
3.544,-0.013779894961503539
3.548,-0.013782659623939946
3.552,-0.013781241231907354
3.556,-0.013782419218510693
3.56,-0.01378436650248764
3.564,-0.013786409948636285
3.568,-0.013786602272979688
3.572,-0.013786313786464586
3.576,-0.013784823272803219
3.58,-0.013789294813787318
3.584,-0.013775735947577469
3.588,-0.013776168677350124
3.592,-0.013784703070088592
3.596,-0.013784895394431994
3.6,-0.013789871786817525
3.604,-0.013784630948459817
3.608,-0.01378314043479845
3.612,-0.013783332759141852
3.616,-0.013781409515707832
3.62,-0.013785183880947098
3.624,-0.013784703070088592
3.628,-0.013786433989179211
3.632,-0.013788429354242009
3.636,-0.013794078881829446
3.64,-0.013797011828066327
3.644,-0.013784895394431994
3.648,-0.013786506110807987
3.652,-0.013792420084367601
3.656,-0.013795930003634691
3.66,-0.013794199084544071
3.664,-0.01379496838191768
3.668,-0.013797276274038504
3.672,-0.013796074246892241
3.676,-0.013795641517119588
3.68,-0.013794343327801623
3.684,-0.013793670192599715
3.688,-0.0137945116116021
3.692,-0.013797156071323879
3.696,-0.013798430220098917
3.7,-0.013803863382800027
3.704,-0.013809296545501136
3.708,-0.013790520881476507
3.712,-0.013795304949518633
3.716,-0.013800281341904162
3.72,-0.013798862949871572
3.724,-0.013801339125792875
3.728,-0.013801843977194306
3.732,-0.013800930436563144
3.736,-0.013801795896108455
3.74,-0.013806868450665685
3.744,-0.013808887856271407
3.748,-0.013803358531398597
3.7520000000000002,-0.013807036734466161
3.7560000000000002,-0.013810787059162503
3.7600000000000002,-0.013808911896814333
3.7640000000000002,-0.013812614140424824
3.7680000000000002,-0.013821605303478871
3.7720000000000002,-0.013808695531928004
3.7760000000000002,-0.013804223990943906
3.7800000000000002,-0.01380770986966807
3.7840000000000003,-0.013808238761612425
3.7880000000000003,-0.01381420081625789
3.7920000000000003,-0.013813912329742788
3.7960000000000003,-0.013812590099881897
3.8000000000000003,-0.013810378369932774
3.8040000000000003,-0.01380049770679049
3.8080000000000003,-0.013806868450665685
3.8120000000000003,-0.013807469464238817
3.8160000000000003,-0.013806724207408133
3.8200000000000003,-0.013810931302420055
3.8240000000000003,-0.013815739411005107
3.8280000000000003,-0.013819633978959
3.8320000000000003,-0.01381552304611878
3.8360000000000003,-0.013813623843227684
3.84,-0.013817205884123548
3.844,-0.01381602789752021
3.848,-0.013823600668541668
3.852,-0.013816725073265044
3.856,-0.013807493504781741
3.86,-0.013818504073441512
3.864,-0.013815691329919257
3.868,-0.013817710735524978
3.872,-0.013824273803743575
3.876,-0.013820691762847712
3.88,-0.013819994587102879
3.884,-0.013816316384035314
3.888,-0.013820451357418459
3.892,-0.013820234992532132
3.896,-0.013823648749627519
3.9,-0.013823167938769013
3.904,-0.013822446722481256
3.908,-0.013824033398314324
3.912,-0.013823264100940714
3.916,-0.013824995020031334
3.92,-0.013830933034133873
3.924,-0.013830908993590948
3.928,-0.0138287693852706
3.932,-0.01382735099323801
3.936,-0.013829250196129106
3.94,-0.013822927533339762
3.944,-0.01382694230400828
3.948,-0.013832687993767417
3.952,-0.013827182709437533
3.956,-0.013824418047001127
3.96,-0.013823504506369967
3.964,-0.013823216019854864
3.968,-0.013824105519943099
3.972,-0.013824562290258679
3.976,-0.013827471195952635
3.98,-0.013827879885182364
3.984,-0.013827206749980458
3.988,-0.0138288655474423
3.992,-0.013834587196658513
3.996,-0.013835957507605254
4.0,-0.013835476696746748
4.0040000000000004,-0.013837159534751517
4.008,-0.013844035130028142
4.0120000000000005,-0.0138356209400043
4.016,-0.013830764750333397
4.0200000000000005,-0.01383470739937314
4.024,-0.013831702331507482
4.0280000000000005,-0.013832255263994763
4.032,-0.013834803561544842
4.0360000000000005,-0.013831606169335781
4.04,-0.013827976047354066
4.0440000000000005,-0.013828937669071078
4.048,-0.013831870615307959
4.0520000000000005,-0.013833841939827831
4.056,-0.013838914494385061
4.0600000000000005,-0.01383836156189778
4.064,-0.013834010223628308
4.0680000000000005,-0.013835452656203824
4.072,-0.013842592697452626
4.0760000000000005,-0.01383927510252894
4.08,-0.013836245994120358
4.0840000000000005,-0.013837423980723695
4.088,-0.013834058304714158
4.0920000000000005,-0.013836943169865189
4.096,-0.013843458156997937
4.1,-0.013838698129498733
4.104,-0.013837159534751517
4.108,-0.013840356926960578
4.112,-0.01384389088677059
4.116,-0.013843674521884263
4.12,-0.013843241792111608
4.124,-0.013844131292199843
4.128,-0.013842352292023373
4.132,-0.013840549251303978
4.136,-0.013839539548501117
4.14,-0.013842640778538477
4.144,-0.013846198778891415
4.148,-0.013839852075559147
4.152,-0.013837375899637844
4.156,-0.013843193711025758
4.16,-0.013848097981782511
4.164,-0.013844467859800797
4.168,-0.013841751278450241
4.172,-0.013837231656380292
4.176,-0.01383927510252894
4.18,-0.013839491467415267
4.184,-0.013841222386505887
4.188,-0.013841078143248335
4.192,-0.013837159534751517
4.196,-0.013844059170571068
4.2,-0.013839154899814314
4.204,-0.013839082778185538
4.208,-0.0138356209400043
4.212,-0.013837183575294442
4.216,-0.013840621372932755
4.22,-0.013844515940886648
4.224,-0.013844467859800797
4.228,-0.013840669454018606
4.232,-0.013840765616190307
4.236,-0.013846895954636248
4.24,-0.013843121589396983
4.244,-0.013830428182732443
4.248,-0.01383785671049635
4.252,-0.013845140995002704
4.256,-0.013840477129675203
4.26,-0.013838073075382677
4.264,-0.013835789223804776
4.268,-0.013841775318993168
4.272,-0.013840429048589353
4.276,-0.01383927510252894
4.28,-0.013844275535457395
4.284,-0.013844419778714947
4.288,-0.013843722602970114
4.292,-0.013843963008399367
4.296,-0.013842520575823851
4.3,-0.013842688859624327
4.304,-0.013847400806037679
4.308,-0.013851006887476468
4.312,-0.013851127090191095
4.316,-0.013843241792111608
4.32,-0.013837231656380292
4.324,-0.013843794724598889
4.328,-0.013836294075206207
4.332,-0.013841727237907317
4.336,-0.013847569089838157
4.34,-0.013849300008928775
4.344,-0.013836750845521788
4.348,-0.01384288118396773
4.352,-0.013847328684408904
4.356,-0.013843410075912086
4.36,-0.013845477562603658
4.364,-0.013845092913916853
4.368,-0.013846775751921623
4.372,-0.013846222819434342
4.376,-0.013844251494914469
4.38,-0.01384480442740175
4.384,-0.013844636143601274
4.388,-0.013840933899990783
4.392,-0.013847905657439109
4.396,-0.013848170103411288
4.4,-0.013844515940886648
4.404,-0.01384064541347568
4.408,-0.01384389088677059
4.412,-0.013843169670482833
4.416,-0.013845597765318284
4.42,-0.013842785021796028
4.424,-0.013841126224334185
4.428,-0.013838145197011452
4.432,-0.01383663064280716
4.436,-0.013839828035016221
4.44,-0.013840717535104456
4.444,-0.013845645846404134
4.448,-0.01384566988694706
4.452,-0.013838601967327033
4.456,-0.013839082778185538
4.46,-0.013834178507428784
4.464,-0.013831534047707005
4.468,-0.013834587196658513
4.472,-0.013836270034663282
4.476,-0.01383735185909492
4.48,-0.013830187777303191
4.484,-0.013832591831595718
4.488,-0.013834274669600485
4.492,-0.013830019493502713
4.496,-0.013837520142895396
4.5,-0.013832808196482044
4.5040000000000004,-0.013834274669600485
4.508,-0.013836702764435937
4.5120000000000005,-0.013834298710143411
4.516,-0.013831702331507482
4.5200000000000005,-0.013832736074853268
4.524,-0.013837279737466143
4.5280000000000005,-0.013834827602087766
4.532,-0.013836173872491581
4.5360000000000005,-0.013840885818904932
4.54,-0.013835596899461376
4.5440000000000005,-0.013837736507781723
4.548,-0.01383191869639381
4.5520000000000005,-0.013831077277391425
4.556,-0.01383151000716408
4.5600000000000005,-0.013834587196658513
4.564,-0.013838409642983631
4.5680000000000005,-0.013832351426166465
4.572,-0.013829033831242779
4.5760000000000005,-0.01383658256172131
4.58,-0.01383968379175867
4.5840000000000005,-0.013833817899284905
4.588,-0.013833914061456606
4.5920000000000005,-0.013834947804802393
4.596,-0.013838722170041659
4.6000000000000005,-0.013837880751039274
4.604,-0.013835380534575047
4.6080000000000005,-0.013842712900167253
4.612,-0.013838601967327033
4.616,-0.013829466561015432
4.62,-0.01383374577765613
4.624,-0.01383968379175867
4.628,-0.013840477129675203
4.632,-0.013841871481164869
4.636,-0.01384115026487711
4.64,-0.01384333795428331
4.644,-0.013839154899814314
4.648,-0.013837207615837368
4.652,-0.013836798926607639
4.656,-0.013838938534927986
4.66,-0.013837640345610022
4.664,-0.013838217318640229
4.668,-0.01384333795428331
4.672,-0.013842039764965345
4.676,-0.013833673656027353
4.68,-0.013834298710143411
4.684,-0.013842087846051196
4.688,-0.01384521311663148
4.692,-0.013840789656733231
4.696,-0.01383247162888109
4.7,-0.013834635277744364
4.704,-0.013829250196129106
4.708,-0.013829105952871554
4.712,-0.013832183142365987
4.716,-0.013833769818199055
4.72,-0.013833505372226877
4.724,-0.013829202115043255
4.728,-0.013826221087720521
4.732,-0.013826990385094131
4.736,-0.013824874817316707
4.74,-0.0138264855336927
4.744,-0.013834875683173617
4.748,-0.01383389002091368
4.752,-0.01383420254797171
4.756,-0.013833457291141027
4.76,-0.01382977908807346
4.764,-0.013823216019854864
4.768,-0.013824610371344529
4.772,-0.013830019493502713
4.776,-0.0138310532368485
4.78,-0.013827567358124336
4.784,-0.0138287693852706
4.788,-0.013830644547618771
4.792,-0.013829057871785703
4.796,-0.013825523911975689
4.8,-0.013823817033427995
4.804,-0.013826701898579027
4.808,-0.013829562723187134
4.812,-0.013824418047001127
4.816,-0.013821364898049618
4.82,-0.013831846574765034
4.824,-0.013838409642983631
4.828,-0.013831894655850885
4.832,-0.013825307547089362
4.836,-0.013824682492973306
4.84,-0.013827062506722906
4.844,-0.0138310532368485
4.848,-0.013828408777126721
4.852,-0.013828096250068693
4.856,-0.013826629776950252
4.86,-0.013825908560662493
4.864,-0.01382273520899636
4.868,-0.013821893789993975
4.872,-0.013820355195246757
4.876,-0.013819994587102879
4.88,-0.013819105087014644
4.884,-0.013819850343845327
4.888,-0.013821605303478871
4.892,-0.013815186478517826
4.896,-0.013819008924842942
4.9,-0.013820331154703833
4.904,-0.013822254398137853
4.908,-0.013812926667482852
4.912,-0.013811436153821485
4.916,-0.01381547496503293
4.92,-0.013821845708908124
4.924,-0.013819561857330223
4.928,-0.01381552304611878
4.932,-0.013814897992002723
4.936,-0.013816869316522595
4.94,-0.013813768086485236
4.944,-0.013812566059338973
4.948,-0.013810883221334204
4.952,-0.013813768086485236
4.956,-0.013818888722128317
4.96,-0.013819369532986823
4.964,-0.013817229924666474
4.968,-0.013812758383682375
4.972,-0.013813383437798431
4.976,-0.013812469897167272
4.98,-0.013814465262230069
4.984,-0.013813960410828639
4.988,-0.013810787059162503
4.992,-0.013806339558721329
4.996,-0.013808959977900184
5.0,-0.0138127824242253
5.0040000000000004,-0.013809200383329437
5.008,-0.013804488436916083
5.0120000000000005,-0.013806195315463779
5.016,-0.013807469464238817
5.0200000000000005,-0.01380744542369589
5.024,-0.013806820369579835
5.0280000000000005,-0.013807854112925622
5.032,-0.01381182080250829
5.0360000000000005,-0.013814393140601292
5.04,-0.013809825437445493
5.0440000000000005,-0.013802444990767437
5.048,-0.013807541585867592
5.0520000000000005,-0.013808815734642632
5.056,-0.013809849477988417
5.0600000000000005,-0.01380770986966807
5.064,-0.013802060342080633
5.0680000000000005,-0.013805738545148197
5.072,-0.013812638180967748
5.0760000000000005,-0.01381379212702816
5.08,-0.01381323919454088
5.0840000000000005,-0.013808286842698275
5.088,-0.013810017761788895
5.0920000000000005,-0.013810017761788895
5.096,-0.01380597895057745
5.1000000000000005,-0.013804776923431187
5.104,-0.013802493071853288
5.1080000000000005,-0.013796050206349317
5.112,-0.013801531450136276
5.1160000000000005,-0.013791602705908143
5.12,-0.013802853679997167
5.124,-0.013806291477635478
5.128,-0.013804680761259486
5.132,-0.013804223990943906
5.136,-0.013805305815375543
5.14,-0.013809873518531343
5.144,-0.013807469464238817
5.148,-0.013804656720716561
5.152,-0.013802204585338184
5.156,-0.013805137531575066
5.16,-0.013803839342257101
5.164,-0.013804007626057579
5.168,-0.013799247598558377
5.172,-0.013796410814493195
5.176,-0.013797949409240413
5.18,-0.01380181993665138
5.184,-0.013807132896637863
5.188,-0.01380040154461879
5.192,-0.013793790395314342
5.196,-0.013798550422813544
5.2,-0.01379354998988509
5.204,-0.01379191523296617
5.208,-0.013793790395314342
5.212,-0.01379547323331911
5.216,-0.013793069179026583
5.22,-0.013792516246539302
5.224,-0.013794319287258697
5.228,-0.013794920300831829
5.232,-0.013795809800920064
5.236,-0.013796410814493195
5.24,-0.013796170409063942
5.244,-0.013794920300831829
5.248,-0.013802012260994782
5.252,-0.013799007193129124
5.256,-0.013802877720540091
5.26,-0.01380506540994629
5.264,-0.013797083949695104
5.268,-0.013802132463709408
5.272,-0.013798093652497965
5.276,-0.013801892058280156
5.28,-0.013800641950048043
5.284,-0.013798045571412114
5.288,-0.013794872219745978
5.292,-0.01379415100345822
5.296,-0.013791242097764264
5.3,-0.013793718273685565
5.304,-0.013793501908799239
5.308,-0.013796410814493195
5.312,-0.013795689598205438
5.316,-0.01379775708489701
5.32,-0.013793309584455836
5.324,-0.013800016895931985
5.328,-0.013796362733407345
5.332,-0.013798117693040889
5.336,-0.01379816577412674
5.34,-0.013793213422284135
5.344,-0.013794078881829446
5.348,-0.013797805165982861
5.352,-0.013801218923078248
5.356,-0.013802469031310362
5.36,-0.013793910598028968
5.364,-0.013790665124734057
5.368,-0.01379167482753692
5.372,-0.013791049773420862
5.376,-0.01378989582736045
5.38,-0.013796098287435167
5.384,-0.013793982719657745
5.388,-0.013794175044001147
5.392,-0.013789871786817525
5.396,-0.013786554191893837
5.4,-0.013788501475870784
5.404,-0.013788934205643439
5.408,-0.013784991556603695
5.412,-0.013788838043471738
5.416,-0.013790520881476507
5.42,-0.013786986921666492
5.424,-0.013786025299949482
5.428,-0.013790761286905758
5.432,-0.013793405746627537
5.436,-0.013790472800390656
5.44,-0.01378811682718398
5.444,-0.013786626313522614
5.448,-0.013790881489620386
5.452,-0.013794199084544071
5.456,-0.013792588368168079
5.46,-0.013783789529457432
5.464,-0.013788501475870784
5.468,-0.013782010529280964
5.472,-0.013775134934004337
5.476,-0.013768283379270638
5.48,-0.013772971285141064
5.484,-0.013775639785405767
5.488,-0.013773404014913719
5.492,-0.013772610676997185
5.496,-0.013774485839345355
5.5,-0.0137763369611506
5.5040000000000004,-0.013776721609837405
5.508,-0.013773668460885896
5.5120000000000005,-0.013771961582338203
5.516,-0.013773596339257121
5.5200000000000005,-0.013775255136718964
5.524,-0.01377131248767922
5.5280000000000005,-0.013776000393549648
5.532,-0.01378542428637635
5.5360000000000005,-0.013780928704849326
5.54,-0.013771576933651398
5.5440000000000005,-0.013773716541971747
5.548,-0.013767441960268254
5.5520000000000005,-0.013762826176026604
5.556,-0.013767802568412132
5.5600000000000005,-0.013771288447136296
5.564,-0.01377212986613868
5.5680000000000005,-0.013766961149409748
5.572,-0.013764581135660148
5.5760000000000005,-0.013771552893108474
5.58,-0.013773091487855691
5.5840000000000005,-0.013772899163512289
5.588,-0.01376902863610132
5.5920000000000005,-0.013766360135836616
5.596,-0.013766672662894644
5.6000000000000005,-0.013767682365697507
5.604,-0.013771865420166502
5.6080000000000005,-0.013776505244951078
5.612,-0.013771961582338203
5.6160000000000005,-0.013772081785052829
5.62,-0.013774774325860458
5.6240000000000006,-0.013770206622704659
5.628,-0.013763066581455855
5.632,-0.01376542255466253
5.636,-0.013763691635571913
5.64,-0.013771552893108474
5.644,-0.013765951446606887
5.648,-0.013765013865432801
5.652,-0.013761335662365237
5.656,-0.013763403149056809
5.66,-0.013758667162100533
5.664,-0.013759556662188767
5.668,-0.013759316256759515
5.672,-0.01376395608154409
5.676,-0.013764677297831849
5.68,-0.01376258577059735
5.684,-0.013763739716657763
5.688,-0.013766360135836616
5.692,-0.013767634284611656
5.696,-0.01376486962217525
5.7,-0.013759532621645842
5.704,-0.013758667162100533
5.708,-0.013755061080661744
5.712,-0.013760614446077478
5.716,-0.013758619081014683
5.72,-0.013756840080838212
5.724,-0.013759436459474141
5.728,-0.013760975054221358
5.732,-0.01376446093294552
5.736,-0.013760975054221358
5.74,-0.013764076284258717
5.744,-0.013761552027251564
5.748,-0.013764244568059194
5.752,-0.013768283379270638
5.756,-0.013766937108866823
5.76,-0.013767898730583834
5.764,-0.013772827041883512
5.768,-0.013765999527692738
5.772,-0.01376614377095029
5.776,-0.013766864987238047
5.78,-0.013758138270156177
5.784,-0.013756359269979706
5.788,-0.01375883544590101
5.792,-0.013762657892226126
5.796,-0.013764028203172867
5.8,-0.013764100324801642
5.804,-0.013764244568059194
5.808,-0.013765518716834232
5.812,-0.013766119730407363
5.816,-0.01376258577059735
5.82,-0.013760061513590197
5.824,-0.013757056445724539
5.828,-0.01375710452681039
5.832,-0.013761840513766667
5.836,-0.013762201121910546
5.84,-0.013759051810787336
5.844,-0.013764028203172867
5.848,-0.013763066581455855
5.852,-0.013759748986532169
5.856,-0.01376121545965061
5.86,-0.013757777662012298
5.864,-0.013760975054221358
5.868,-0.013762056878652994
5.872,-0.01376258577059735
5.876,-0.013758691202643458
5.88,-0.01375710452681039
5.884,-0.013761984757024219
5.888,-0.013760542324448703
5.892,-0.013758643121557607
5.896,-0.013759700905446318
5.9,-0.013758619081014683
5.904,-0.01375765745929767
5.908,-0.013756960283552838
5.912,-0.013757176648439166
5.916,-0.013754195621116433
5.92,-0.013758595040471756
5.924,-0.013763066581455855
5.928,-0.013751238634336626
5.932,-0.013749483674703081
5.936,-0.013751767526280982
5.94,-0.01374431495797415
5.944,-0.013745084255347758
5.948,-0.013753979256230106
5.952,-0.013755301486090995
5.956,-0.013752368539854114
5.96,-0.013754748553603714
5.964,-0.013755758256406575
5.968,-0.013753113796684797
5.972,-0.013756407351065557
5.976,-0.013755325526633921
5.98,-0.01375157520193758
5.984,-0.013755662094234875
5.988,-0.013749531755788932
5.992,-0.013751839647909757
5.996,-0.013742752322684008
6.0,-0.013745252539148236
6.0040000000000004,-0.013748401850271446
6.008,-0.013743906268744421
6.0120000000000005,-0.013745372741862862
6.016,-0.013745805471635517
6.0200000000000005,-0.013747945079955864
6.024,-0.01374568526892089
6.0280000000000005,-0.013739026038530592
6.032,-0.01373436217320309
6.0360000000000005,-0.013733136105513903
6.04,-0.013735251673291326
6.0440000000000005,-0.013736742186952693
6.048,-0.013733664997458258
6.0520000000000005,-0.013727414456297691
6.056,-0.013729962753847767
6.0600000000000005,-0.013737174916725346
6.064,-0.013738593308757938
6.0680000000000005,-0.013737222997811197
6.072,-0.013734602578632344
6.0760000000000005,-0.013736381578808814
6.08,-0.013739266443959845
6.0840000000000005,-0.013737583605955077
6.088,-0.01373111669990818
6.0920000000000005,-0.013729842551133142
6.096,-0.0137351314705767
6.1000000000000005,-0.013731140740451106
6.104,-0.013730635889049676
6.1080000000000005,-0.013732246605425668
6.112,-0.01373193407836764
6.1160000000000005,-0.013729457902446337
6.12,-0.01373152538913791
6.1240000000000006,-0.013732366808140294
6.128,-0.01373070801067845
6.132000000000001,-0.013731621551309612
6.136,-0.013731453267509134
6.140000000000001,-0.013730227199819946
6.144,-0.013730828213393078
6.148,-0.01373462661917527
6.152,-0.013728303956385924
6.156,-0.013727726983355719
6.16,-0.013732727416284174
6.164,-0.013728448199643476
6.168,-0.013728688605072729
6.172,-0.013734650659718194
6.176,-0.013734939146233298
6.18,-0.013729938713304843
6.184,-0.013726837483267484
6.188,-0.01372873668615858
6.192,-0.013731212862079881
6.196,-0.01373436217320309
6.2,-0.013737559565412151
6.204,-0.013737679768126778
6.208,-0.01373477086243282
6.212,-0.013731741754024238
6.216,-0.013730443564706273
6.22,-0.013729121334845384
6.224,-0.013729433861903412
6.228,-0.013723063118028218
6.232,-0.01372320736128577
6.236,-0.013725972023722175
6.24,-0.013716476009266695
6.244,-0.013718856023016297
6.248,-0.013724409388432033
6.252,-0.013723327564000395
6.256,-0.013722606347712638
6.26,-0.013725972023722175
6.264,-0.013726524956209456
6.268,-0.013727895267156195
6.272,-0.013728400118557626
6.276,-0.013727294253583064
6.28,-0.013728063550956673
6.284,-0.013724289185717406
6.288,-0.0137214283611093
6.292,-0.01372243806391216
6.296,-0.013725202726348565
6.3,-0.013719144509531399
6.304,-0.013710706278964632
6.308,-0.013713422860315187
6.312,-0.013717557833698333
6.316,-0.013717942482385136
6.32,-0.013715610549721386
6.324,-0.013717726117498809
6.328,-0.01371787036075636
6.332,-0.013717966522928062
6.336,-0.013716235603837442
6.34,-0.013714745090176077
6.344,-0.013719985928533783
6.348,-0.013719793604190381
6.352,-0.013721380280023449
6.356,-0.01372700576706796
6.36,-0.013716764495781799
6.364,-0.013716788536324723
6.368,-0.013718687739215819
6.372,-0.01371823096890024
6.376,-0.013716019238951115
6.38,-0.013712821846742055
6.384,-0.013714312360403422
6.388,-0.013714552765832675
6.392,-0.013716620252524247
6.396,-0.013718639658129968
6.4,-0.013719721482561606
6.404,-0.013713302657600561
6.408,-0.0137122929547977
6.412,-0.01371563459026431
6.416,-0.013717221266097378
6.42,-0.01371553842809261
6.424,-0.013713999833345394
6.428,-0.013717269347183229
6.432,-0.013720755225907393
6.436,-0.013716740455238872
6.44,-0.013717918441842211
6.444,-0.01372508252363394
6.448,-0.013723495847800872
6.452,-0.013718807941930446
6.456,-0.013721837050339029
6.46,-0.01371539418483506
6.464,-0.013710489914078305
6.468,-0.013714961455062404
6.472,-0.013715298022663358
6.476,-0.013713903671173693
6.48,-0.01370818202195748
6.484,-0.013710537995164156
6.488,-0.013711451535795316
6.492,-0.013710946684393885
6.496,-0.013711619819595792
6.5,-0.013707845454356526
6.5040000000000004,-0.013707605048927273
6.508,-0.013708614751730134
6.5120000000000005,-0.013710850522222184
6.516,-0.013718423293243642
6.5200000000000005,-0.013708831116616462
6.524,-0.013703566237715828
6.5280000000000005,-0.013701474710481332
6.532,-0.013699287021075132
6.5360000000000005,-0.013707484846212648
6.54,-0.013704960589205494
6.5440000000000005,-0.013693661534030621
6.548,-0.013701402588852555
6.5520000000000005,-0.013704816345947942
6.556,-0.013704455737804063
6.5600000000000005,-0.01370375856205923
6.564,-0.01370133046722378
6.5680000000000005,-0.013702364210569565
6.572,-0.013703157548486099
6.5760000000000005,-0.013705777967664954
6.58,-0.013706378981238086
6.5840000000000005,-0.013708013738157002
6.588,-0.01370777333272775
6.5920000000000005,-0.013710994765479736
6.596,-0.013714817211804852
6.6000000000000005,-0.013716476009266695
6.604,-0.01370402300803141
6.6080000000000005,-0.013702075724054463
6.612,-0.013708494549015508
6.6160000000000005,-0.01371005718430565
6.62,-0.013707100197525843
6.6240000000000006,-0.013708374346300881
6.628,-0.013700993899622826
6.632000000000001,-0.01369959954813316
6.636,-0.013702652697084669
6.640000000000001,-0.013703566237715828
6.644,-0.01370133046722378
6.648000000000001,-0.013699166818360507
6.652,-0.0136985898453303
6.656000000000001,-0.013701570872653033
6.66,-0.013702316129483715
6.664,-0.01370447977834699
6.668,-0.013706499183952711
6.672,-0.01370041692659262
6.676,-0.01369274799339946
6.68,-0.013700080358991666
6.684,-0.013702724818713445
6.688,-0.01369914277781758
6.692,-0.013698469642615674
6.696,-0.013701114102337451
6.7,-0.013697604183070363
6.704,-0.013695753061265118
6.708,-0.013697748426327915
6.712,-0.013700609250936021
6.716,-0.013701739156453509
6.72,-0.01370056116985017
6.724,-0.013698541764244449
6.728,-0.01370010439953459
6.732,-0.01370270077817052
6.736,-0.013699479345418535
6.74,-0.013699190858903431
6.744,-0.01369959954813316
6.748,-0.013706138575808833
6.752,-0.013707484846212648
6.756,-0.013693493250230143
6.76,-0.013687747560471007
6.764,-0.013694671236833482
6.768,-0.013696378115381175
6.772,-0.013696426196467026
6.776,-0.013695632858550492
6.78,-0.013693589412401844
6.784,-0.01369447891249008
6.788,-0.013691666168967824
6.792,-0.013692844155571161
6.796,-0.013694262547603753
6.8,-0.013690776668879589
6.804,-0.013690632425622037
6.808,-0.013689550601190401
6.812,-0.013690993033765916
6.816,-0.01369544053420709
6.82,-0.013693397088058442
6.824,-0.013689718884990877
6.828,-0.013687146546897871
6.832,-0.013690175655306457
6.836,-0.013693877898916948
6.84,-0.013692267182540956
6.844,-0.013687338871241276
6.848,-0.013695680939636343
6.852,-0.013693781736745247
6.856,-0.013689791006619653
6.86,-0.013693445169144293
6.864,-0.013694406790861305
6.868,-0.013694551034118855
6.872,-0.01369548861529294
6.876,-0.013694214466517902
6.88,-0.01369407022326035
6.884,-0.013694094263803275
6.888,-0.01369452699357593
6.892,-0.013696666601896279
6.896,-0.013706571305581486
6.9,-0.013696979128954307
6.904,-0.013688564938930465
6.908,-0.013698325399358122
6.912,-0.013698036912843018
6.916,-0.0136894544390187
6.92,-0.013696498318095801
6.924,-0.01369863792641615
6.928,-0.013702171886226164
6.932,-0.013698277318272271
6.936,-0.013688108168614885
6.94,-0.013695272250406614
6.944,-0.0137010660212516
6.948,-0.013702268048397864
6.952,-0.013701979561882762
6.956,-0.01370234017002664
6.96,-0.01370452785943284
6.964,-0.013704143210746035
6.968,-0.013702123805140314
6.972,-0.01370452785943284
6.976,-0.013707725251641899
6.98,-0.013708013738157002
6.984,-0.013707052116439992
6.988,-0.013703926845859709
6.992,-0.01370863879227306
6.996,-0.013709335968017893
7.0,-0.013703734521516306
7.0040000000000004,-0.01370320562957195
7.008,-0.01371224487371185
7.0120000000000005,-0.013712148711540148
7.016,-0.013704960589205494
7.0200000000000005,-0.013703566237715828
7.024,-0.01371183618448212
7.0280000000000005,-0.013714721049633151
7.032,-0.013718038644556837
7.0360000000000005,-0.013718663698672895
7.04,-0.013717509752612482
7.0440000000000005,-0.013718615617587044
7.048,-0.01372010613124841
7.0520000000000005,-0.013717077022839827
7.056,-0.013720610982649841
7.0600000000000005,-0.013721837050339029
7.064,-0.013725010402005165
7.0680000000000005,-0.013727799104984494
7.072,-0.013719625320389905
7.0760000000000005,-0.013713230535971784
7.08,-0.013725106564176864
7.0840000000000005,-0.013723952618116451
7.088,-0.01372335160454332
7.0920000000000005,-0.013727174050868438
7.096,-0.013729049213216608
7.1000000000000005,-0.013732775497370025
7.104,-0.013728496280729327
7.1080000000000005,-0.013729169415931235
7.112,-0.013730419524163349
7.1160000000000005,-0.01373330438931438
7.12,-0.013736381578808814
7.1240000000000006,-0.013738617349300862
7.128,-0.013737655727583852
7.132000000000001,-0.013739627052103723
7.136,-0.013746719012266677
7.140000000000001,-0.013747344066382733
7.144,-0.013746406485208649
7.148000000000001,-0.01373828078169991
7.152,-0.01374234363345428
7.156000000000001,-0.013740540592734884
7.16,-0.01374340141734299
7.164000000000001,-0.013741718579338221
7.168,-0.013739434727760323
7.172,-0.013739843416990052
7.176,-0.013746069917607694
7.18,-0.013745877593264292
7.184,-0.013746526687923274
7.188,-0.013748233566470968
7.192,-0.013748233566470968
7.196,-0.013746117998693545
7.2,-0.013750950147821522
7.204,-0.013753979256230106
7.208,-0.013744915971547282
7.212,-0.01373746340324045
7.216,-0.013736525822066364
7.22,-0.013740877160335837
7.224,-0.013745156376976535
7.228,-0.013753738850800853
7.232,-0.013751118431622
7.236,-0.013743425457885915
7.24,-0.01374599779597892
7.244,-0.013747752755612463
7.248,-0.01374741618801151
7.252,-0.013747680633983687
7.256,-0.01374573335000674
7.26,-0.013751695404652205
7.264,-0.013755157242833443
7.268,-0.013756263107808007
7.272,-0.01375385905351548
7.276,-0.013750853985649823
7.28,-0.013752056012796086
7.284,-0.013750733782935195
7.288,-0.013755253405005144
7.292,-0.013759051810787336
7.296,-0.013764436892402596
7.3,-0.013762441527339799
7.304,-0.013747704674526613
7.308,-0.013746430525751573
7.312,-0.013755037040118817
7.316,-0.013756575634866035
7.32,-0.01375934029730244
7.324,-0.013757994026898625
7.328,-0.013755974621292903
7.332,-0.013756070783464604
7.336,-0.013757248770067941
7.34,-0.013755085121204668
7.344,-0.013758306553956653
7.348,-0.013756022702378754
7.352,-0.013756479472694334
7.356,-0.013759147972959037
7.36,-0.013757849783641073
7.364,-0.013760109594676048
7.368,-0.013761912635395442
7.372,-0.01376126354073646
7.376,-0.013763763757200688
7.38,-0.01375664775649481
7.384,-0.013754123499487658
7.388,-0.013752296418225337
7.392,-0.013751599242480504
7.396,-0.013753738850800853
7.4,-0.013749171147645053
7.404,-0.013752296418225337
7.408,-0.013747728715069537
7.412,-0.01374979620176111
7.416,-0.013755830378035351
7.42,-0.013752104093881936
7.424,-0.01375400329677303
7.428,-0.013752296418225337
7.432,-0.013749555796331858
7.436,-0.013751094391079074
7.44,-0.01375020489099084
7.444,-0.013753642688629152
7.448,-0.01376345123014266
7.452,-0.013762417486796873
7.456,-0.013758042107984475
7.46,-0.01376212900028177
7.464,-0.013759773027075095
7.468,-0.013765903365521037
7.472,-0.013750301053162542
7.476,-0.013750829945106896
7.48,-0.01375623906726508
7.484,-0.013756022702378754
7.488,-0.013755253405005144
7.492,-0.0137556861347778
7.496,-0.013758691202643458
7.5,-0.013756335229436782
7.5040000000000004,-0.013760518283905778
7.508,-0.013759941310875571
7.5120000000000005,-0.013757393013325493
7.516,-0.01375837867558543
7.5200000000000005,-0.013760470202819928
7.524,-0.013760734648792105
7.5280000000000005,-0.013761431824536938
7.532,-0.013753233999399423
7.5360000000000005,-0.01375888352698686
7.54,-0.01376203283811007
7.5440000000000005,-0.013762345365168098
7.548,-0.013756022702378754
7.5520000000000005,-0.013749459634160157
7.556,-0.013755421688805622
7.5600000000000005,-0.013755253405005144
7.564,-0.013749363471988456
7.5680000000000005,-0.013748762458415324
7.572,-0.01374979620176111
7.5760000000000005,-0.013751262674879552
7.58,-0.013752801269626767
7.5840000000000005,-0.013753233999399423
7.588,-0.013754411986002761
7.5920000000000005,-0.013758619081014683
7.596,-0.01376157606779449
7.6000000000000005,-0.0137579699863557
7.604,-0.013757489175497194
7.6080000000000005,-0.013758811405358083
7.612,-0.013759003729701486
7.6160000000000005,-0.0137603500001053
7.62,-0.013758787364815159
7.6240000000000006,-0.013757056445724539
7.628,-0.01375157520193758
7.632000000000001,-0.013747536390726135
7.636,-0.013749363471988456
7.640000000000001,-0.013758090189070326
7.644,-0.013750421255877167
7.648000000000001,-0.01374609395815062
7.652,-0.013751815607366833
7.656000000000001,-0.013752849350712618
7.66,-0.01375162328302343
7.664000000000001,-0.013751406918137104
7.668,-0.013748810539501175
7.672000000000001,-0.013749507715246008
7.676,-0.013751454999222954
7.68,-0.013751719445195132
7.684,-0.013750325093705466
7.688,-0.013744194755259525
7.692,-0.013744459201231702
7.696,-0.013749627917960633
7.7,-0.013750974188364448
7.704,-0.013748714377329474
7.708,-0.013745637187835039
7.712,-0.01374376202548687
7.716,-0.013747151742039332
7.72,-0.013749363471988456
7.724,-0.013748954782758727
7.728,-0.013752344499311188
7.732,-0.01374243979562598
7.736,-0.01374330525517129
7.74,-0.013744002430916122
7.744,-0.013748209525928043
7.748,-0.013748137404299266
7.752,-0.013749507715246008
7.756,-0.013751815607366833
7.76,-0.013749964485561587
7.764,-0.013746021836521844
7.768,-0.013747151742039332
7.772,-0.013752416620939964
7.776,-0.013752681066912142
7.78,-0.013751406918137104
7.784,-0.013750589539677643
7.788,-0.013749916404475737
7.792,-0.013740756957621211
7.796,-0.013734169848859688
7.8,-0.013736814308581468
7.804,-0.013735876727407384
7.808,-0.013735732484149832
7.812,-0.01373426601103139
7.816,-0.013735780565235682
7.82,-0.013737583605955077
7.824,-0.013737078754553647
7.828,-0.013736429659894665
7.832,-0.013737271078897047
7.836,-0.013738545227672087
7.84,-0.013739458768303247
7.844,-0.013738641389843789
7.848,-0.013739314525045695
7.852,-0.013746887296067153
7.856,-0.013738545227672087
7.86,-0.013737102795096571
7.864,-0.0137351314705767
7.868,-0.013739266443959845
7.872,-0.013736189254465412
7.876,-0.013736020970664934
7.88,-0.01373842502495746
7.884,-0.013733929443430437
7.888,-0.01373558824089228
7.892,-0.013730780132307227
7.896,-0.013730058916019468
7.9,-0.013729505983532187
7.904,-0.013730732051221377
7.908,-0.013732054281082266
7.912,-0.013728880929416131
7.916,-0.013729818510590217
7.92,-0.013735684403063981
7.924,-0.013739218362873994
7.928,-0.013739218362873994
7.932,-0.013738449065500386
7.936,-0.013736934511296095
7.94,-0.013726645158924081
7.944,-0.013725875861550474
7.948,-0.01372604414535095
7.952,-0.013727174050868438
7.956,-0.013729578105160964
7.96,-0.013728616483443954
7.964,-0.013726765361638709
7.968,-0.01372700576706796
7.972,-0.013725611415578296
7.976,-0.013726837483267484
7.98,-0.013727414456297691
7.984,-0.013727438496840615
7.988,-0.013728255875300074
7.992,-0.013729722348418516
7.996,-0.013722317861197535
8.0,-0.013724553631689583
8.004,-0.013729481942989263
8.008000000000001,-0.01371969744201868
8.012,-0.013716043279494041
8.016,-0.01371517781994873
8.02,-0.013710826481679258
8.024000000000001,-0.01370685979209659
8.028,-0.013703494116087053
8.032,-0.013709456170732518
8.036,-0.01371589903623649
8.040000000000001,-0.013709384049103743
8.044,-0.013703638359344605
8.048,-0.013703950886402633
8.052,-0.013706931913725367
8.056000000000001,-0.013706763629924889
8.06,-0.013703373913372428
8.064,-0.013702676737627595
8.068,-0.013697195493840634
8.072000000000001,-0.013691545966253197
8.076,-0.013693661534030621
8.08,-0.013696882966782606
8.084,-0.013695777101808044
8.088000000000001,-0.013689766966076728
8.092,-0.013689021709246045
8.096,-0.013692964358285788
8.1,-0.013693781736745247
8.104000000000001,-0.013697003169497231
8.108,-0.013697339737098186
8.112,-0.01369599346669437
8.116,-0.013696161750494849
8.120000000000001,-0.013706018373094205
8.124,-0.013702099764597388
8.128,-0.013700392886049694
8.132,-0.013701907440253985
8.136000000000001,-0.01369762822361329
8.14,-0.013695825182893894
8.144,-0.013694310628689603
8.148,-0.013691137277023467
8.152000000000001,-0.013688084128071959
8.156,-0.013687026344183246
8.16,-0.013695825182893894
8.164,-0.013697243574926484
8.168000000000001,-0.013695777101808044
8.172,-0.013699743791390712
8.176,-0.013693493250230143
8.18,-0.013690752628336664
8.184000000000001,-0.013688324533501212
8.188,-0.01368416551957514
8.192,-0.01368705038472617
8.196,-0.013688492817301688
8.2,-0.013687386952327126
8.204,-0.013682049951797717
8.208,-0.013684429965547317
8.212,-0.013687603317213455
8.216,-0.013690295858021083
8.22,-0.013686473411695965
8.224,-0.013689622722819176
8.228,-0.013689670803905027
8.232,-0.013684958857491674
8.236,-0.013686930182011545
8.24,-0.013691954655482928
8.244,-0.013686809979296919
8.248,-0.013682867330257175
8.252,-0.013683011573514727
8.256,-0.013684117438489289
8.26,-0.013690776668879589
8.264,-0.013693349006972591
8.268,-0.0136918344527683
8.272,-0.01368649745223889
8.276,-0.013687747560471007
8.28,-0.013688757263273867
8.284,-0.013686930182011545
8.288,-0.01369356537185892
8.292,-0.01369635407483825
8.296,-0.013694310628689603
8.3,-0.013697123372211859
8.304,-0.013696690642439203
8.308,-0.013695103966606136
8.312,-0.013701114102337451
8.316,-0.013697243574926484
8.32,-0.013692146979826328
8.324,-0.013691954655482928
8.328,-0.01368822837132951
8.332,-0.013689742925533802
8.336,-0.013696690642439203
8.34,-0.013698758129130776
8.344,-0.01369959954813316
8.348,-0.01370051308876432
8.352,-0.013703397953915352
8.356,-0.013703734521516306
8.36,-0.01369599346669437
8.364,-0.01369863792641615
8.368,-0.013708975359874013
8.372,-0.01370955233290422
8.376,-0.01370320562957195
8.38,-0.013701931480796911
8.384,-0.013708350305757957
8.388,-0.01370411917020311
8.392,-0.013703830683688007
8.396,-0.013706619386667337
8.4,-0.013704744224319167
8.404,-0.013703734521516306
8.408,-0.013702268048397864
8.412,-0.013702917143056846
8.416,-0.013706739589381964
8.42,-0.013708831116616462
8.424,-0.013712437198055252
8.428,-0.013715730752436012
8.432,-0.01371635580655207
8.436,-0.013716235603837442
8.44,-0.013710610116792931
8.444,-0.01370036884550677
8.448,-0.01370082561582235
8.452,-0.013694046182717424
8.456,-0.013697291656012335
8.46,-0.013691954655482928
8.464,-0.013689214033589447
8.468,-0.013694358709775454
8.472,-0.013691810412225376
8.476,-0.013684045316860512
8.48,-0.013689021709246045
8.484,-0.01369310860154334
8.488,-0.01369260375014191
8.492,-0.013691353641909796
8.496,-0.013688733222730941
8.5,-0.013691257479738095
8.504,-0.013695560736921717
8.508000000000001,-0.013694286588146677
8.512,-0.013693493250230143
8.516,-0.013695753061265118
8.52,-0.013695152047691986
8.524000000000001,-0.013687795641556857
8.528,-0.013687410992870052
8.532,-0.01368818029024366
8.536,-0.01368914191196067
8.540000000000001,-0.01368822837132951
8.544,-0.01368909383087482
8.548,-0.013693998101631574
8.552,-0.01369447891249008
8.556000000000001,-0.013694190425974976
8.56,-0.013688036046986108
8.564,-0.01368613684409501
8.568,-0.01369041606073571
8.572000000000001,-0.013694671236833482
8.576,-0.013695296290949538
8.58,-0.013692820115028237
8.584,-0.013696089628866072
8.588000000000001,-0.013696882966782606
8.592,-0.0136918344527683
8.596,-0.013689021709246045
8.6,-0.013690031412048905
8.604000000000001,-0.013687939884814407
8.608,-0.0136894544390187
8.612,-0.013692315263626806
8.616,-0.013696065588323147
8.620000000000001,-0.013687386952327126
8.624,-0.013684550168261944
8.628,-0.013684982898034598
8.632,-0.013681376816595809
8.636000000000001,-0.013683588546544933
8.64,-0.01368991120933428
8.644,-0.013692579709598984
8.648,-0.013692435466341432
8.652000000000001,-0.013685559871064805
8.656,-0.01368243460048452
8.66,-0.013680126708363695
8.664,-0.01368197783016894
8.668000000000001,-0.013686641695496441
8.672,-0.013691257479738095
8.676,-0.01369082474996544
8.68,-0.013686329168438413
8.684000000000001,-0.013680727721936826
8.688,-0.013683612587087859
8.692,-0.013680319032707097
8.696,-0.013678011140586272
8.700000000000001,-0.013681400857138735
8.704,-0.013685728154865281
8.708,-0.013687122506354947
8.712,-0.013691041114851766
8.716,-0.013688613020016316
8.72,-0.013682242276141118
8.724,-0.013679766100219816
8.728,-0.013679934384020292
8.732,-0.013674477180776258
8.736,-0.01367274626168564
8.74,-0.013675390721407419
8.744,-0.013675246478149867
8.748,-0.013679958424563219
8.752,-0.013680775803022677
8.756,-0.013679189127189609
8.76,-0.013684766533148271
8.764,-0.01368202591125479
8.768,-0.01367055857227944
8.772,-0.01367695335669756
8.776,-0.013688853425445568
8.78,-0.013680487316507573
8.784,-0.013674837788920138
8.788,-0.013675270518692792
8.792,-0.01367786689732872
8.796,-0.013681352776052884
8.8,-0.013680439235421723
8.804,-0.013675366680864493
8.808,-0.01367416465371823
8.812,-0.01367493395109184
8.816,-0.013675246478149867
8.82,-0.013674429099690407
8.824,-0.013675919613351774
8.828,-0.013681160451709482
8.832,-0.013681400857138735
8.836,-0.013684285722289765
8.84,-0.013684093397946363
8.844,-0.013680294992164173
8.848,-0.013685944519751608
8.852,-0.013680294992164173
8.856,-0.01367827558655845
8.86,-0.013683083695143502
8.864,-0.013679405492075938
8.868,-0.013677073559412186
8.872,-0.013683780870888335
8.876,-0.013686184925180861
8.88,-0.013681809546368464
8.884,-0.013683107735686428
8.888,-0.013681448938224585
8.892,-0.013677963059500422
8.896,-0.013679213167732535
8.9,-0.013685776235951132
8.904,-0.013690295858021083
8.908,-0.013674356978061632
8.912,-0.013679838221848591
8.916,-0.013681448938224585
8.92,-0.01368010266782077
8.924,-0.013680655600308051
8.928,-0.013676328302581503
8.932,-0.013686112803552086
8.936,-0.01368894958761727
8.94,-0.013687987965900258
8.944,-0.013684574208804869
8.948,-0.013684045316860512
8.952,-0.013688252411872437
8.956,-0.013693637493487695
8.96,-0.013691954655482928
8.964,-0.013694887601719809
8.968,-0.013699407223789758
8.972,-0.013692579709598984
8.976,-0.013691858493311226
8.98,-0.013700152480620441
8.984,-0.013695296290949538
8.988,-0.013695632858550492
8.992,-0.013697147412754783
8.996,-0.013689815047162579
9.0,-0.013684982898034598
9.004,-0.013690392020192784
9.008000000000001,-0.013688564938930465
9.012,-0.013687939884814407
9.016,-0.013685968560294534
9.02,-0.013688516857844614
9.024000000000001,-0.01368818029024366
9.028,-0.01368293945188595
9.032,-0.013678395789273077
9.036,-0.01367731396484144
9.040000000000001,-0.013681881667997239
9.044,-0.013684742492605345
9.048,-0.013684934816948748
9.052,-0.013692940317742862
9.056000000000001,-0.013692219101455105
9.06,-0.013681905708540165
9.064,-0.013679693978591041
9.068,-0.013682650965370849
9.072000000000001,-0.013683901073602962
9.076,-0.013686305127895489
9.08,-0.013685439668350178
9.084,-0.013678660235245254
9.088000000000001,-0.013667240977355754
9.092,-0.013674813748377212
9.096,-0.013672073126483731
9.1,-0.013672433734627612
9.104000000000001,-0.013674549302405034
9.108,-0.013676640829639533
9.112,-0.013678251546015525
9.116,-0.013679381451533012
9.120000000000001,-0.013678203464929675
9.124,-0.01367599173498055
9.128,-0.013673996369917753
9.132,-0.013678155383843824
9.136000000000001,-0.013677530329727766
9.14,-0.013667962193643511
9.144,-0.01366767370712841
9.148,-0.013662264584970225
9.152000000000001,-0.013659331638733343
9.156,-0.01366457247709105
9.16,-0.013664812882520302
9.164,-0.013668827653188822
9.168000000000001,-0.013675150315978166
9.172,-0.013672097167026658
9.176,-0.013672001004854956
9.18,-0.013670390288478964
9.184000000000001,-0.013673804045574351
9.188,-0.013678515991987703
9.192,-0.013675559005207895
9.196,-0.013674188694261156
9.200000000000001,-0.013676833153982933
9.204,-0.013681689343653837
9.208,-0.013682626924827922
9.212,-0.013680078627277844
9.216000000000001,-0.013680319032707097
9.22,-0.013688012006443184
9.224,-0.013682602884284998
9.228,-0.013682170154512343
9.232,-0.013679309329904236
9.236,-0.013673924248288977
9.24,-0.013681857627454315
9.244,-0.013678996802846208
9.248,-0.013677001437783411
9.252,-0.013683011573514727
9.256,-0.01368471845206242
9.26,-0.013681328735509958
9.264,-0.013684117438489289
9.268,-0.013686016641380385
9.272,-0.01368705038472617
9.276,-0.013687290790155423
9.28,-0.013687410992870052
9.284,-0.013688420695672913
9.288,-0.013686737857668142
9.292,-0.013685704114322357
9.296,-0.01368762735775638
9.3,-0.013688084128071959
9.304,-0.013687819682099782
9.308,-0.013695680939636343
9.312,-0.013688012006443184
9.316,-0.013687699479385156
9.32,-0.01368991120933428
9.324,-0.013682650965370849
9.328,-0.013687915844271483
9.332,-0.013695873263979745
9.336,-0.01368613684409501
9.34,-0.013681352776052884
9.344,-0.013685656033236506
9.348,-0.013683852992517112
9.352,-0.013678467910901852
9.356,-0.013681809546368464
9.36,-0.013684766533148271
9.364,-0.013688060087529035
9.368,-0.01369274799339946
9.372,-0.01369599346669437
9.376,-0.013696522358638727
9.38,-0.013695200128777837
9.384,-0.013696137709951922
9.388,-0.013695729020722193
9.392,-0.013695272250406614
9.396,-0.013697363777641112
9.4,-0.013697075291126008
9.404,-0.013700753494193573
9.408,-0.013701186223966228
9.412,-0.01369132960136687
9.416,-0.013696474277552877
9.42,-0.01369274799339946
9.424,-0.01369503184497736
9.428,-0.013698734088587851
9.432,-0.013702195926769089
9.436,-0.013702436332198342
9.44,-0.013704383616175288
9.444,-0.013706691508296114
9.448,-0.013704359575632362
9.452,-0.013706306859609309
9.456,-0.013704095129660185
9.46,-0.013701763196996434
9.464,-0.013705008670291344
9.468,-0.013706042413637131
9.472,-0.013708302224672106
9.476,-0.013706090494722982
9.48,-0.013704744224319167
9.484,-0.013700032277905816
9.488,-0.013695680939636343
9.492,-0.013698878331845403
9.496,-0.013698084993928869
9.5,-0.013691185358109318
9.504,-0.013692988398828713
9.508000000000001,-0.013693397088058442
9.512,-0.013691906574397077
9.516,-0.013689021709246045
9.52,-0.01368899766870312
9.524000000000001,-0.013688781303816792
9.528,-0.013689670803905027
9.532,-0.013693877898916948
9.536,-0.013691209398652244
9.540000000000001,-0.013689310195761148
9.544,-0.013687747560471007
9.548,-0.01368731483069835
9.552,-0.013688829384902642
9.556000000000001,-0.013690343939106933
9.56,-0.013699431264332684
9.564,-0.013699262980532206
9.568,-0.013692074858197553
9.572000000000001,-0.013690271817478158
9.576,-0.01369279607448531
9.58,-0.01369767630469914
9.584,-0.013686930182011545
9.588000000000001,-0.013682650965370849
9.592,-0.013682602884284998
9.596,-0.013689214033589447
9.6,-0.013690175655306457
9.604000000000001,-0.013691257479738095
9.608,-0.013690247776935232
9.612,-0.013695729020722193
9.616,-0.013702099764597388
9.620000000000001,-0.013698734088587851
9.624,-0.013700080358991666
9.628,-0.013700993899622826
9.632,-0.013697459939812811
9.636000000000001,-0.013700681372564798
9.64,-0.013705128873005972
9.644,-0.013699671669761937
9.648,-0.013691401722995647
9.652000000000001,-0.01369274799339946
9.656,-0.013689766966076728
9.66,-0.013687747560471007
9.664,-0.01368649745223889
9.668000000000001,-0.01368818029024366
9.672,-0.013692483547427282
9.676,-0.013691906574397077
9.68,-0.013691978696025852
9.684000000000001,-0.013690704547250814
9.688,-0.013686978263097395
9.692,-0.013684862695319973
9.696,-0.013684886735862897
9.700000000000001,-0.013690295858021083
9.704,-0.013692267182540956
9.708,-0.013691401722995647
9.712,-0.013691906574397077
9.716000000000001,-0.013684478046633168
9.72,-0.013683179857315203
9.724,-0.013685800276494057
9.728,-0.013684982898034598
9.732,-0.013684021276317588
9.736,-0.013688060087529035
9.74,-0.013686016641380385
9.744,-0.013683059654600578
9.748,-0.013683684708716634
9.752,-0.013685151181835076
9.756,-0.013685728154865281
9.76,-0.01368608876300916
9.764,-0.013682122073426492
9.768,-0.013679477613704713
9.772,-0.013672602018428088
9.776,-0.013672986667114893
9.78,-0.0136737559644885
9.784,-0.01367640042421028
9.788,-0.01367909296501791
9.792,-0.01367736204592729
9.796,-0.013679693978591041
9.8,-0.013683083695143502
9.804,-0.013677890937871647
9.808,-0.013679020843389133
9.812,-0.013680775803022677
9.816,-0.013686785938753993
9.82,-0.013688709182188017
9.824,-0.013686064722466236
9.828,-0.013684814614234122
9.832,-0.013679934384020292
9.836,-0.013678900640674507
9.84,-0.013680799843565603
9.844,-0.0136828913708001
9.848,-0.013682410559941596
9.852,-0.01368152105985336
9.856,-0.013682122073426492
9.86,-0.013682098032883568
9.864,-0.013681088330080705
9.868,-0.013680439235421723
9.872,-0.013677602451356543
9.876,-0.013679573775876414
9.88,-0.013684454006090243
9.884,-0.013676977397240485
9.888,-0.013676592748553682
9.892,-0.013677794775699945
9.896,-0.013679044883932059
9.9,-0.013680367113792948
9.904,-0.01367563112683667
9.908,-0.013671183626395498
9.912,-0.01367928528936131
9.916,-0.013681160451709482
9.92,-0.013680775803022677
9.924,-0.013678924681217432
9.928,-0.013676809113440009
9.932,-0.013677698613528244
9.936,-0.013686064722466236
9.94,-0.013677722654071169
9.944,-0.013672553937342237
9.948,-0.013680294992164173
9.952,-0.013678612154159404
9.956,-0.013676833153982933
9.96,-0.013676592748553682
9.964,-0.013671736558882779
9.968,-0.013670702815536992
9.972,-0.013672121207569582
9.976,-0.013670678774994068
9.98,-0.013667577544956708
9.984,-0.013669909477620458
9.988,-0.01366837088287324
9.992,-0.013667024612469427
9.996,-0.013672481815713462
10.0,-0.013672962626571966
10.004,-0.013680198829992472
10.008000000000001,-0.013669813315448757
10.012,-0.013668515126130792
10.016,-0.013675703248465447
10.02,-0.013670462410107739
10.024000000000001,-0.013667216936812828
10.028,-0.01366858724775957
10.032,-0.013671640396711078
10.036,-0.013677794775699945
10.040000000000001,-0.01367685719452586
10.044,-0.013674501221319184
10.048,-0.013677506289184842
10.052,-0.013678395789273077
10.056000000000001,-0.013677073559412186
10.06,-0.01367640042421028
10.064,-0.013673275153629995
10.068,-0.01367567920792252
10.072000000000001,-0.013682049951797717
10.076,-0.013685223303463851
10.08,-0.01368344430328738
10.084,-0.01367599173498055
10.088000000000001,-0.013673587680688024
10.092,-0.013676472545839055
10.096,-0.013674861829463062
10.1,-0.013675366680864493
10.104000000000001,-0.013672073126483731
10.108,-0.013674116572632379
10.112,-0.01367786689732872
10.116,-0.013676833153982933
10.120000000000001,-0.013678179424386748
10.124,-0.013679693978591041
10.128,-0.013677121640498037
10.132,-0.013676039816066401
10.136000000000001,-0.013680198829992472
10.14,-0.0136806075192222
10.144,-0.013685968560294534
10.148,-0.013678035181129197
10.152000000000001,-0.013677073559412186
10.156,-0.013679886302934442
10.16,-0.01367426081588993
10.164,-0.013676328302581503
10.168000000000001,-0.013677193762126814
10.172,-0.013678035181129197
10.176,-0.013679405492075938
10.18,-0.013678131343300898
10.184000000000001,-0.013678347708187226
10.188,-0.01367954973533349
10.192,-0.013681593181482135
10.196,-0.013678924681217432
10.200000000000001,-0.013679477613704713
10.204,-0.013673587680688024
10.208,-0.013677794775699945
10.212,-0.0136759436538947
10.216000000000001,-0.013668827653188822
10.22,-0.013672385653541761
10.224,-0.013677049518869262
10.228,-0.01367493395109184
10.232000000000001,-0.013670270085764337
10.236,-0.013667745828757185
10.24,-0.013668755531560045
10.244,-0.013672505856256387
10.248,-0.013673323234715845
10.252,-0.01367548688357912
10.256,-0.013673996369917753
10.26,-0.013672626058971012
10.264,-0.01366767370712841
10.268,-0.013666567842153846
10.272,-0.013665846625866089
10.276,-0.013665822585323164
10.28,-0.01366954886947658
10.284,-0.013669813315448757
10.288,-0.01366858724775957
10.292,-0.01367188080214033
10.296,-0.013671688477796928
10.3,-0.013665654301522686
10.304,-0.013666062990752416
10.308,-0.013662360747141925
10.312,-0.01366425995003302
10.316,-0.013669236342418551
10.32,-0.013671904842683255
10.324,-0.013670173923592635
10.328,-0.013668010274729362
10.332,-0.013667697747671334
10.336,-0.013665918747494865
10.34,-0.013666784207040174
10.344,-0.0136714721129106
10.348,-0.013669741193819982
10.352,-0.013665053287949555
10.356,-0.013664043585146694
10.36,-0.013665846625866089
10.364,-0.013670390288478964
10.368,-0.013666808247583099
10.372,-0.013666615923239697
10.376,-0.013664860963606152
10.38,-0.013665389855550509
10.384,-0.013667265017898679
10.388,-0.013661062557823962
10.392,-0.01366046154425083
10.396,-0.013665221571750033
10.4,-0.013667385220613306
10.404,-0.01366772178821426
10.408,-0.013668875734274673
10.412,-0.013672409694084686
10.416,-0.013674188694261156
10.42,-0.013671928883226181
10.424,-0.013677193762126814
10.428,-0.01367471758620551
10.432,-0.013669572910019504
10.436,-0.013669428666761954
10.44,-0.013666712085411398
10.444,-0.013670149883049711
10.448,-0.013668875734274673
10.452,-0.013664452274376423
10.456,-0.013670678774994068
10.46,-0.013668875734274673
10.464,-0.013661543368682466
10.468,-0.013661351044339064
10.472,-0.013664356112204722
10.476,-0.013664428233833499
10.48,-0.013664187828404246
10.484,-0.013665197531207107
10.488,-0.01366553409880806
10.492,-0.01366046154425083
10.496,-0.013659740327963072
10.5,-0.013659764368505998
10.504,-0.013662937720172132
10.508000000000001,-0.013655605354579927
10.512,-0.013655725557294553
10.516,-0.013655100503178497
10.52,-0.013663538733745264
10.524000000000001,-0.013665702382608537
10.528,-0.01365260028671427
10.532,-0.013653441705716652
10.536,-0.013659283557647492
10.540000000000001,-0.013659499922533819
10.544,-0.013658009408872454
10.548,-0.01365695162498374
10.552,-0.013656975665526667
10.556000000000001,-0.013656615057382788
10.56,-0.013656182327610133
10.564,-0.013656735260097414
10.568,-0.013659740327963072
10.572000000000001,-0.013661495287596616
10.576,-0.01366010093610695
10.58,-0.01366060578750838
10.584,-0.013667841990928886
10.588000000000001,-0.013661903976826345
10.592,-0.01365599000326673
10.596,-0.013653081097572774
10.6,-0.013659523963076745
10.604000000000001,-0.01366010093610695
10.608,-0.01365812961158708
10.612,-0.013662769436371656
10.616,-0.013657793043986125
10.620000000000001,-0.013657648800728573
10.624,-0.013657288192584695
10.628,-0.013654763935577543
10.632,-0.013653802313860533
10.636000000000001,-0.013657937287243677
10.64,-0.013654643732862915
10.644,-0.013649859664820789
10.648,-0.013650268354050518
10.652000000000001,-0.013652432002913792
10.656,-0.013657648800728573
10.66,-0.013662625193114104
10.664,-0.013659523963076745
10.668000000000001,-0.013647912380843842
10.672,-0.013651662705540184
10.676,-0.013646998840212683
10.68,-0.013646518029354177
10.684000000000001,-0.013649234610704731
10.688,-0.013649835624277863
10.692,-0.013653730192231756
10.696,-0.013646782475326354
10.700000000000001,-0.013641108907195993
10.704,-0.013645580448180091
10.708,-0.013647335407813635
10.712,-0.013645412164379615
10.716000000000001,-0.013644378421033828
10.72,-0.013648801880932078
10.724,-0.013650484718936845
10.728,-0.013647431569985337
10.732000000000001,-0.013646902678040982
10.736,-0.013650220272964668
10.74,-0.013649619259391536
10.744,-0.013650172191878817
10.748000000000001,-0.013645460245465466
10.752,-0.01364457074537723
10.756,-0.013651037651424126
10.76,-0.01364452266429138
10.764,-0.013648801880932078
10.768,-0.013648200867358946
10.772,-0.013647575813242888
10.776,-0.013644426502119679
10.78,-0.013646590150982954
10.784,-0.013650292394593444
10.788,-0.013643729326374846
10.792,-0.01364675843478343
10.796,-0.013648513394416974
10.8,-0.013650027948621265
10.804,-0.013650725124366098
10.808,-0.013647551772699964
10.812,-0.013649330772876432
10.816,-0.0136554851518653
10.82,-0.01365772092235735
10.824,-0.013650965529795351
10.828,-0.01364497943460696
10.832,-0.013645868934695195
10.836,-0.013646493988811252
10.84,-0.01364452266429138
10.844,-0.013649715421563237
10.848,-0.01365543707077945
10.852,-0.01364995582699249
10.856,-0.013646542069897103
10.86,-0.013651927151512361
10.864,-0.013643585083117296
10.868,-0.013641108907195993
10.872,-0.013643897610175324
10.876,-0.013645267921122063
10.88,-0.01364447458320553
10.884,-0.013642984069544164
10.888,-0.013643344677688043
10.892,-0.013645099637321587
10.896,-0.013641830123483752
10.9,-0.013644089934518726
10.904,-0.01364675843478343
10.908,-0.013647455610528263
10.912,-0.013650388556765144
10.916,-0.013651013610881202
10.92,-0.01364630166446785
10.924,-0.013645412164379615
10.928,-0.01364534004275084
10.932,-0.013645412164379615
10.936,-0.013650556840565622
10.94,-0.013654283124719037
10.944,-0.013651758867711885
10.948,-0.0136486335971316
10.952,-0.013646662272611729
10.956,-0.013650100070250042
10.96,-0.013654331205804887
10.964,-0.013643633164203146
10.968,-0.013637550906843054
10.972,-0.013640988704481367
10.976,-0.013640820420680889
10.98,-0.013646518029354177
10.984,-0.013645099637321587
10.988,-0.013644739029177708
10.992,-0.013645917015781045
10.996,-0.0136440658939758
11.0,-0.013646133380667372
11.004,-0.013648104705187245
11.008000000000001,-0.013647792178129217
11.012,-0.013646133380667372
11.016,-0.013645820853609344
11.02,-0.013646926718583906
11.024000000000001,-0.013646229542839073
11.028,-0.013648561475502825
11.032,-0.013650508759479771
11.036,-0.013647143083470235
11.040000000000001,-0.013642479218142734
11.044,-0.013645316002207914
11.048,-0.013647984502472617
11.052,-0.013643873569632398
11.056000000000001,-0.013641084866653068
11.06,-0.013643585083117296
11.064,-0.013638728893446393
11.068,-0.013645820853609344
11.072000000000001,-0.013644787110263559
11.076,-0.01364507559677866
11.08,-0.013641108907195993
11.084,-0.013642118609998853
11.088000000000001,-0.01364452266429138
11.092,-0.013644498623748455
11.096,-0.013639786677335104
11.1,-0.013641253150453544
11.104000000000001,-0.01364534004275084
11.108,-0.013648393191702348
11.112,-0.013644546704834306
11.116,-0.013635723825580735
11.120000000000001,-0.013643464880402668
11.124,-0.013637791312272307
11.128,-0.013627429838271518
11.132,-0.01363584402829536
11.136000000000001,-0.013636156555353388
11.14,-0.013636925852726998
11.144,-0.013636661406754819
11.148,-0.013633391892916983
11.152000000000001,-0.01363315148748773
11.156,-0.013636733528383595
11.16,-0.013635483420151482
11.164,-0.013633343811831133
11.168000000000001,-0.013636973933812848
11.172,-0.013636517163497267
11.176,-0.013636973933812848
11.18,-0.013634233311919368
11.184000000000001,-0.013636084433724613
11.188,-0.01363894525833272
11.192,-0.013639930920592656
11.196,-0.013639329907019524
11.200000000000001,-0.013639329907019524
11.204,-0.01363707009598455
11.208,-0.01363726242032795
11.212,-0.01362944924387724
11.216000000000001,-0.013632261987399497
11.22,-0.013635098771464677
11.224,-0.01363680565001237
11.228,-0.01363625271752509
11.232000000000001,-0.013631108041339083
11.236,-0.013629377122248465
11.24,-0.01363223794685657
11.244,-0.01363392078486134
11.248000000000001,-0.013640724258509188
11.252,-0.013639762636792178
11.256,-0.013633680379432087
11.26,-0.013638656771817616
11.264,-0.013637286460870876
11.268,-0.013636324839153866
11.272,-0.013641060826110142
11.276,-0.01364041173145116
11.28,-0.013635026649835902
11.284,-0.013640267488193608
11.288,-0.013636132514810464
11.292,-0.01363630079861094
11.296,-0.013634906447121274
11.3,-0.013632718757715077
11.304,-0.01363853656910299
11.308,-0.013642719623571985
11.312,-0.013635771906666585
11.316,-0.013638224042044962
11.32,-0.013638175960959112
11.324,-0.013634353514633994
11.328,-0.013634738163320798
11.332,-0.013635940190467061
11.336,-0.013629881973649895
11.34,-0.013637815352815231
11.344,-0.013633488055088685
11.348,-0.013625963365153078
11.352,-0.013631612892740515
11.356,-0.013632838960429702
11.36,-0.013627718324786622
11.364,-0.013628559743789006
11.368,-0.013628367419445604
11.372,-0.013630507027765951
11.376,-0.013632790879343852
11.38,-0.013637334541956727
11.384,-0.013631492690025887
11.388,-0.013630410865594252
11.392,-0.013639089501590271
11.396,-0.013638296163673737
11.4,-0.01363077147373813
11.404,-0.01362980985202112
11.408,-0.013631444608940037
11.412,-0.013635699785037808
11.416,-0.013638752933989317
11.42,-0.013632430271199973
11.424,-0.013625771040809675
11.428,-0.013629353081705538
11.432,-0.013632574514457525
11.436,-0.013629184797905062
11.44,-0.013628199135645126
11.444,-0.013628463581617305
11.448,-0.01362894439247581
11.452,-0.013630482987223027
11.456,-0.013628391459988528
11.46,-0.013631108041339083
11.464,-0.013635916149924135
11.468,-0.01363707009598455
11.472,-0.013633271690202358
11.476,-0.013628872270847034
11.48,-0.013628415500531454
11.484,-0.013627910649130024
11.488,-0.013627189432842265
11.492,-0.013627742365329546
11.496,-0.01362620377058233
11.5,-0.013630627230480578
11.504,-0.013634281393005218
11.508000000000001,-0.013628679946503632
11.512,-0.013618727161732572
11.516,-0.013623823756832729
11.52,-0.013625819121895526
11.524000000000001,-0.013623703554118103
11.528,-0.01362533831103702
11.532,-0.013628006811301725
11.536,-0.01362899247356166
11.540000000000001,-0.013631156122424933
11.544,-0.013629160757362138
11.548,-0.013623823756832729
11.552,-0.013619159891505228
11.556000000000001,-0.01362634801383988
11.56,-0.013622741932401091
11.564,-0.0136212273781968
11.568,-0.013628151054559275
11.572000000000001,-0.01363168501436929
11.576,-0.013625242148865319
11.58,-0.013622862135115718
11.584,-0.013622597689143541
11.588000000000001,-0.013623992040633205
11.592,-0.01362117929711095
11.596,-0.01362218899991381
11.6,-0.013620986972767547
11.604000000000001,-0.013625747000266749
11.608,-0.013625482554294572
11.612,-0.013628920351932885
11.616,-0.01362387183791858
11.620000000000001,-0.013623222743259597
11.624,-0.013633536136174535
11.628,-0.013637887474444008
11.632,-0.013624905581264366
11.636000000000001,-0.013630338743965475
11.64,-0.013632935122601404
11.644,-0.013634690082234948
11.648,-0.013630963798081533
11.652000000000001,-0.013625698919180898
11.656,-0.013623270824345448
11.66,-0.013626636500354984
11.664,-0.013626516297640359
11.668000000000001,-0.013630290662879624
11.672,-0.013631877338712692
11.676,-0.013633079365858955
11.68,-0.013631588852197589
11.684000000000001,-0.013630795514281055
11.688,-0.013634858366035424
11.692,-0.013627886608587098
11.696,-0.013631204203510784
11.700000000000001,-0.013629473284420166
11.704,-0.013628295297816827
11.708,-0.01362853570324608
11.712,-0.013632790879343852
11.716000000000001,-0.013626227811125255
11.72,-0.013622020716113334
11.724,-0.013624112243347832
11.728,-0.013617356850785833
11.732000000000001,-0.013619664742906658
11.736,-0.013622934256744493
11.74,-0.013621395661997278
11.744,-0.013624064162261982
11.748000000000001,-0.013619953229421762
11.752,-0.013619183932048152
11.756,-0.013621804351227007
11.76,-0.013620001310507612
11.764000000000001,-0.013625939324610151
11.768,-0.01363305532531603
11.772,-0.013625578716466273
11.776,-0.013625506594837498
11.78,-0.013625242148865319
11.784,-0.013626973067955938
11.788,-0.01362620377058233
11.792,-0.01362218899991381
11.796,-0.013625145986693617
11.8,-0.013626420135468657
11.804,-0.013628679946503632
11.808,-0.013625121946150693
11.812,-0.013616082702010793
11.816,-0.013620073432136387
11.82,-0.013623607391946402
11.824,-0.01362980985202112
11.828,-0.013631805217083915
11.832,-0.013632766838800927
11.836,-0.013630675311566429
11.84,-0.013629521365506016
11.844,-0.01362848762216023
11.848,-0.01363081955482398
11.852,-0.013632814919886778
11.856,-0.013635651703951958
11.86,-0.013638656771817616
11.864,-0.013627141351756415
11.868,-0.013614327742377249
11.872,-0.013622116878285035
11.876,-0.01362168414851238
11.88,-0.013620674445709519
11.884,-0.013623992040633205
11.888,-0.013626997108498863
11.892,-0.013624400729862936
11.896,-0.013619520499649106
11.9,-0.01362634801383988
11.904,-0.013626804784155462
11.908,-0.013623631432489326
11.912,-0.01362218899991381
11.916,-0.013623895878461504
11.92,-0.013626468216554508
11.924,-0.013627790446415397
11.928,-0.01363392078486134
11.932,-0.013635603622866107
11.936,-0.013623318905431298
11.94,-0.013625578716466273
11.944,-0.01362980985202112
11.948,-0.01362615568949648
11.952,-0.01362661245981206
11.956,-0.013622910216201569
11.96,-0.013626083567867703
11.964,-0.013626540338183283
11.968,-0.013626973067955938
11.972,-0.013625747000266749
11.976,-0.013628006811301725
11.98,-0.013630362784508401
11.984,-0.013630795514281055
11.988,-0.01362985793310697
11.992,-0.013627285595013966
11.996,-0.013623823756832729
12.0,-0.01362300637837327
12.004,-0.013630915716995682
12.008000000000001,-0.013635098771464677
12.012,-0.01364000304222143
12.016,-0.013630579149394728
12.02,-0.013624641135292187
12.024000000000001,-0.013628824189761184
12.028,-0.013636372920239717
12.032,-0.013631324406225411
12.036,-0.013628559743789006
12.040000000000001,-0.013634978568750051
12.044,-0.013633632298346236
12.048,-0.01362716539229934
12.052,-0.013629208838447988
12.056000000000001,-0.013632526433371674
12.06,-0.0136326466360863
12.064,-0.013631949460341467
12.068,-0.013633536136174535
12.072000000000001,-0.013635651703951958
12.076,-0.013635988271552912
12.08,-0.013637911514986932
12.084,-0.013638055758244484
12.088000000000001,-0.013640171326021907
12.092,-0.013642407096513957
12.096,-0.013645628529265942
12.1,-0.013641469515339871
12.104000000000001,-0.01362803085184465
12.108,-0.013637839393358157
12.112,-0.013642286893799331
12.116,-0.013641613758597423
12.120000000000001,-0.013638776974532243
12.124,-0.013643344677688043
12.128,-0.01363757494738598
12.132,-0.01363031470342255
12.136000000000001,-0.013631540771111738
12.14,-0.013635603622866107
12.144,-0.01363529109580808
12.148,-0.013640700217966263
12.152000000000001,-0.01364356104257437
12.156,-0.013640892542309666
12.16,-0.013640147285478983
12.164,-0.013639161623219046
12.168000000000001,-0.013641205069367694
12.172,-0.01364137335316817
12.176,-0.013639329907019524
12.18,-0.013640339609822385
12.184000000000001,-0.013643681245288997
12.188,-0.013639570312448775
12.192,-0.01362706923012764
12.196,-0.01363000217636452
12.200000000000001,-0.013638175960959112
12.204,-0.013636421001325567
12.208,-0.013636324839153866
12.212,-0.013641517596425722
12.216000000000001,-0.013640435771994086
12.22,-0.013633992906490115
12.224,-0.013635699785037808
12.228,-0.013638704852903466
12.232000000000001,-0.013637166258156249
12.236,-0.013635988271552912
12.24,-0.013637887474444008
12.244,-0.013638103839330335
12.248000000000001,-0.013639209704304897
12.252,-0.01364538812383669
12.256,-0.01364579681306642
12.26,-0.013652071394769913
12.264000000000001,-0.013651350178482156
12.268,-0.013648417232245273
12.272,-0.01364990774590664
12.276,-0.013653898476032234
12.280000000000001,-0.013653249381373252
12.284,-0.013640339609822385
12.288,-0.01364223881271348
12.292,-0.013644041853432876
12.296,-0.013647503691614113
12.3,-0.01364848935387405
12.304,-0.013641012745024291
12.308,-0.013642623461400284
12.312,-0.013648032583558468
12.316,-0.013647143083470235
12.32,-0.013644714988634782
12.324,-0.013646878637498056
12.328,-0.013647383488899486
12.332,-0.01365625444923891
12.336,-0.013653033016486923
12.34,-0.01363990688004973
12.344,-0.013648321070073572
12.348,-0.013654739895034617
12.352,-0.013655605354579927
12.356,-0.013648272988987721
12.36,-0.013648441272788199
12.364,-0.013646157421210298
12.368,-0.013643296596602192
12.372,-0.013645412164379615
12.376,-0.013643008110087089
12.38,-0.013643849529089473
12.384,-0.013651734827168959
12.388,-0.013654259084176112
12.392,-0.013650845327080725
12.396,-0.013648874002560853
12.4,-0.01365279261105767
12.404,-0.013653682111145905
12.408,-0.01365649485466816
12.412,-0.013658562341359735
12.416,-0.013665341774464658
12.42,-0.013660750030765932
12.424,-0.013659980733392325
12.428,-0.01365498030046387
12.432,-0.013654403327433664
12.436,-0.013654235043633186
12.44,-0.013652167556941614
12.444,-0.013653033016486923
12.448,-0.013656158287067208
12.452,-0.013654451408519515
12.456,-0.013655845760009179
12.46,-0.013654787976120467
12.464,-0.013658922949503613
12.468,-0.01366036538207913
12.472,-0.013662504990399477
12.476,-0.013666087031295342
12.48,-0.013671664437254002
12.484,-0.013667457342242081
12.488,-0.013663106003972608
12.492,-0.01366036538207913
12.496,-0.013651205935224604
12.5,-0.013657047787155442
12.504,-0.013660581746965456
12.508000000000001,-0.01366498116632078
12.512,-0.013667289058441605
12.516,-0.013666543801610921
12.52,-0.01366498116632078
12.524000000000001,-0.013667096734098202
12.528,-0.013669452707304878
12.532,-0.013670246045221412
12.536,-0.013670270085764337
12.540000000000001,-0.013670318166850187
12.544,-0.013672866464400265
12.548,-0.013677482248641916
12.552,-0.013679910343477368
12.556000000000001,-0.013677217802669738
12.56,-0.013667024612469427
12.564,-0.013673828086117275
12.568,-0.013682170154512343
12.572000000000001,-0.013676160018781027
12.576,-0.0136783236676443
12.58,-0.013684237641203915
12.584,-0.013677001437783411
12.588000000000001,-0.013670702815536992
12.592,-0.01367320303200122
12.596,-0.01367644850529613
12.6,-0.013678756397416955
12.604000000000001,-0.013674453140233333
12.608,-0.013676761032354158
12.612,-0.013682602884284998
12.616,-0.01368055943813635
12.620000000000001,-0.013682915411343026
12.624,-0.01368248268157037
12.628,-0.01368202591125479
12.632,-0.013686425330610114
12.636000000000001,-0.013686064722466236
12.64,-0.013685175222378
12.644,-0.013681112370623631
12.648,-0.013684502087176094
12.652000000000001,-0.013685607952150656
12.656,-0.01368705038472617
12.66,-0.013685415627807253
12.664,-0.013680896005737304
12.668000000000001,-0.01368818029024366
12.672,-0.01368909383087482
12.676,-0.013691762331139525
12.68,-0.013692940317742862
12.684000000000001,-0.01368899766870312
12.688,-0.013690392020192784
12.692,-0.013691161317566394
12.696,-0.013690752628336664
12.700000000000001,-0.013692579709598984
12.704,-0.013692411425798507
12.708,-0.013697243574926484
12.712,-0.013696594480267502
12.716000000000001,-0.013699070656188805
12.72,-0.013692507587970209
12.724,-0.013692387385255581
12.728,-0.013694599115204705
12.732000000000001,-0.013691209398652244
12.736,-0.013692074858197553
12.74,-0.013694334669232528
12.744,-0.013696041547780221
12.748000000000001,-0.01369914277781758
12.752,-0.013700248642792142
12.756,-0.013702003602425687
12.76,-0.013706138575808833
12.764000000000001,-0.013706763629924889
12.768,-0.013708398386843807
12.772,-0.013707917575985301
12.776,-0.013699383183246833
12.780000000000001,-0.013701715115910583
12.784,-0.013705080791920121
12.788,-0.013701114102337451
12.792,-0.0137008736969082
12.796000000000001,-0.013702893102513922
12.8,-0.01370594625146543
12.804,-0.013706691508296114
12.808,-0.013706258778523458
12.812,-0.013709023440959863
12.816,-0.013709287886932042
12.82,-0.013712004468282597
12.824,-0.013707172319154618
12.828,-0.013708783035530612
12.832,-0.01371005718430565
12.836,-0.01370964849507592
12.84,-0.0137076290894702
12.844,-0.013706499183952711
12.848,-0.013710537995164156
12.852,-0.013712413157512326
12.856,-0.013710586076250007
12.86,-0.013711547697967017
12.864,-0.013710658197878782
12.868,-0.013711379414166539
12.872,-0.013708566670644283
12.876,-0.013707845454356526
12.88,-0.01371174002231042
12.884,-0.013713903671173693
12.888,-0.01371152365742409
12.892,-0.01371517781994873
12.896,-0.013717509752612482
12.9,-0.013722582307169712
12.904,-0.0137214283611093
12.908,-0.01371782227967051
12.912,-0.013725491212863669
12.916,-0.013726981726525036
12.92,-0.013719000266273849
12.924,-0.013718038644556837
12.928,-0.013720947550250794
12.932,-0.01371827904998609
12.936,-0.013721716847624403
12.94,-0.013721308158394674
12.944,-0.013720827347536168
12.948,-0.013722630388255563
12.952,-0.01372325544237162
12.956,-0.013723543928886722
12.96,-0.013724433428974957
12.964,-0.013726284550780203
12.968,-0.013728039510413747
12.972,-0.013725467172320744
12.976,-0.013727390415754765
12.98,-0.013732823578455875
12.984,-0.013737944214098956
12.988,-0.013718639658129968
12.992,-0.013721067752965421
12.996,-0.01372563545612122
13.0,-0.013729602145703889
13.004,-0.013728111632042522
13.008000000000001,-0.013724890199290537
13.012,-0.013719793604190381
13.016,-0.013718928144645072
13.02,-0.013718134806728538
13.024000000000001,-0.013717389549897855
13.028,-0.01371731742826908
13.032,-0.01371645196872377
13.036,-0.013719457036589429
13.040000000000001,-0.013723592009972573
13.044,-0.013724553631689583
13.048,-0.013728015469870822
13.052,-0.013733664997458258
13.056000000000001,-0.013734169848859688
13.06,-0.013728039510413747
13.064,-0.013726789402181633
13.068,-0.01372508252363394
13.072000000000001,-0.013727390415754765
13.076,-0.013727486577926466
13.08,-0.013725755658835846
13.084,-0.013723039077485292
13.088000000000001,-0.013726645158924081
13.092,-0.013725515253406595
13.096,-0.013724745956032985
13.1,-0.01372513060471979
13.104000000000001,-0.013731717713481311
13.108,-0.013728544361815177
13.112,-0.013724721915490061
13.116,-0.013727101929239661
13.120000000000001,-0.013726356672408978
13.124,-0.013734025605602138
13.128,-0.013735059348947923
13.132,-0.013727654861726942
13.136000000000001,-0.013729361740274636
13.14,-0.013728929010501982
13.144,-0.013729602145703889
13.148,-0.013725972023722175
13.152000000000001,-0.013725851821007547
13.156,-0.013726260510237278
13.16,-0.01372965022678974
13.164,-0.013733063983885126
13.168000000000001,-0.013737222997811197
13.172,-0.013739506849389098
13.176,-0.013736862389667318
13.18,-0.013737799970841404
13.184000000000001,-0.013736285416637113
13.188,-0.01373385732180166
13.192,-0.013737535524869227
13.196,-0.01373380924071581
13.200000000000001,-0.013737391281611675
13.204,-0.01374604587706477
13.208,-0.013739386646674472
13.212,-0.013734939146233298
13.216000000000001,-0.013734025605602138
13.22,-0.013733448632571931
13.224,-0.013732823578455875
13.228,-0.013739795335904201
13.232000000000001,-0.013739915538618827
13.236,-0.013731741754024238
13.24,-0.013733015902799276
13.244,-0.013734193889402614
13.248000000000001,-0.013735660362521055
13.252,-0.013737872092470179
13.256,-0.01373878563310134
13.26,-0.01373823270061406
13.264000000000001,-0.013737271078897047
13.268,-0.013740588673820735
13.272,-0.013744290917431226
13.276,-0.013739506849389098
13.280000000000001,-0.013729962753847767
13.284,-0.013728880929416131
13.288,-0.013738593308757938
13.292,-0.013734121767773838
13.296000000000001,-0.013732823578455875
13.3,-0.013738905835815966
13.304,-0.013740780998164136
13.308,-0.01374066079544951
13.312000000000001,-0.013736646024780991
13.316,-0.013737343200525824
13.32,-0.013736814308581468
13.324,-0.013735924808493232
13.328,-0.013742007065853325
13.332,-0.013741934944224548
13.336,-0.013736261376094187
13.34,-0.013742728282141082
13.344,-0.013737824011384328
13.348,-0.013733184186599754
13.352,-0.013735660362521055
13.356,-0.013737896133013105
13.36,-0.013736718146409766
13.364,-0.013739146241245219
13.368,-0.013739506849389098
13.372,-0.0137396991737325
13.376,-0.013737102795096571
13.38,-0.01373563632197813
13.384,-0.01373481894351867
13.388,-0.013733376510943156
13.392,-0.01373330438931438
13.396,-0.01373431409211724
13.4,-0.01373892987635889
13.404,-0.01374330525517129
13.408,-0.01373705471401072
13.412,-0.01373188599728179
13.416,-0.013735059348947923
13.42,-0.01373924240341692
13.424,-0.013737271078897047
13.428,-0.013737271078897047
13.432,-0.013732150443253967
13.436,-0.013733689038001184
13.44,-0.013739843416990052
13.444,-0.013740035741333454
13.448,-0.013738953916901817
13.452,-0.013737078754553647
13.456,-0.013736141173379561
13.46,-0.013736213295008336
13.464,-0.013737078754553647
13.468,-0.013740756957621211
13.472,-0.013741958984767474
13.476,-0.0137396991737325
13.48,-0.013734386213746017
13.484,-0.013733520754200706
13.488,-0.013735972889579083
13.492,-0.013735323794920101
13.496,-0.013734073686687989
13.5,-0.01372736637521184
13.504,-0.013731357105337433
13.508000000000001,-0.013731765794567162
13.512,-0.013736790268038543
13.516,-0.013735660362521055
13.52,-0.013735612281435204
13.524000000000001,-0.01373847310604331
13.528,-0.013738977957444741
13.532,-0.013741790700966998
13.536,-0.013742824444312783
13.540000000000001,-0.013739627052103723
13.544,-0.013740949281964614
13.548,-0.01373965109264665
13.552,-0.013743593741686393
13.556000000000001,-0.013743521620057616
13.56,-0.013741790700966998
13.564,-0.013741045444136315
13.568,-0.013744940012090206
13.572000000000001,-0.01373974725481835
13.576,-0.013737679768126778
13.58,-0.013739795335904201
13.584,-0.013734482375917718
13.588000000000001,-0.013737030673467796
13.592,-0.013736020970664934
13.596,-0.013735756524692756
13.6,-0.013738833714187191
13.604000000000001,-0.013734386213746017
13.608,-0.013738833714187191
13.612,-0.01374212726856795
13.616,-0.013742223430739652
13.620000000000001,-0.013742559998340606
13.624,-0.013740444430563183
13.628,-0.013743930309287345
13.632,-0.013738977957444741
13.636000000000001,-0.01374070887653536
13.64,-0.013740564633277809
13.644,-0.013739627052103723
13.648,-0.01374614203923647
13.652000000000001,-0.013750132769362064
13.656,-0.013749123066559203
13.66,-0.013744483241774626
13.664,-0.01374162241716652
13.668000000000001,-0.013744651525575104
13.672,-0.01374695941769593
13.676,-0.01374335333625714
13.68,-0.01374340141734299
13.684000000000001,-0.013743112930827887
13.688,-0.01374258403888353
13.692,-0.013744940012090206
13.696,-0.013745757390549666
13.700000000000001,-0.013746358404122798
13.704,-0.013745925674350143
13.708,-0.013741550295537745
13.712,-0.013737222997811197
13.716000000000001,-0.013739939579161753
13.72,-0.013744122633630748
13.724,-0.013741862822595773
13.728,-0.013739987660247603
13.732000000000001,-0.013739218362873994
13.736,-0.013737944214098956
13.74,-0.013730852253936002
13.744,-0.01373015507819117
13.748000000000001,-0.013733664997458258
13.752,-0.013734506416460643
13.756,-0.01373477086243282
13.76,-0.013735684403063981
13.764000000000001,-0.013734338132660166
13.768,-0.013739506849389098
13.772,-0.013743834147115644
13.776,-0.01374700749878178
13.780000000000001,-0.01374522849860531
13.784,-0.013742487876711831
13.788,-0.013743425457885915
13.792,-0.013741550295537745
13.796000000000001,-0.013744483241774626
13.8,-0.01374294464702741
13.804,-0.013733376510943156
13.808,-0.013736189254465412
13.812000000000001,-0.013742055146939176
13.816,-0.013738713511472564
13.82,-0.013739410687217396
13.824,-0.013736213295008336
13.828,-0.013742271511825502
13.832,-0.01374330525517129
13.836,-0.013739458768303247
13.84,-0.013741598376623596
13.844,-0.013740901200878763
13.848,-0.013739506849389098
13.852,-0.013735732484149832
13.856,-0.013736886430210244
13.86,-0.01374070887653536
13.864,-0.013739554930474948
13.868,-0.013740901200878763
13.872,-0.013740372308934407
13.876,-0.013740564633277809
13.88,-0.013737703808669703
13.884,-0.013738064416813581
13.888,-0.013734241970488465
13.892,-0.013743521620057616
13.896,-0.013742704241598158
13.9,-0.013743665863315168
13.904,-0.013746526687923274
13.908,-0.013745324660777011
13.912,-0.013741213727936791
13.916,-0.013734987227319148
13.92,-0.013740179984591004
13.924,-0.013743954349830272
13.928,-0.013745444863491638
13.932,-0.013744050512001973
13.936,-0.013741910903681624
13.94,-0.013738905835815966
13.944,-0.013735924808493232
13.948,-0.013736573903152215
13.952,-0.01373746340324045
13.956,-0.01373868947092964
13.96,-0.01374162241716652
13.964,-0.013743906268744421
13.968,-0.013749411553074306
13.972,-0.01375623906726508
13.976,-0.013737727849212627
13.98,-0.013732294686511519
13.984,-0.013737992295184806
13.988,-0.013736742186952693
13.992,-0.013738112497899432
13.996,-0.013738064416813581
14.0,-0.013734145808316764
14.004,-0.013733496713657782
14.008000000000001,-0.013739675133189574
14.012,-0.013739146241245219
14.016,-0.013735227632748401
14.02,-0.01373801633572773
14.024000000000001,-0.013736309457180037
14.028,-0.013738304822242834
14.032,-0.013739963619704677
14.036,-0.013740780998164136
14.040000000000001,-0.013741958984767474
14.044,-0.013736790268038543
14.048,-0.013744699606660955
14.052,-0.013743281214628363
14.056000000000001,-0.013737343200525824
14.06,-0.013737703808669703
14.064,-0.013739939579161753
14.068,-0.013740083822419305
14.072000000000001,-0.013737174916725346
14.076,-0.013734530457003569
14.08,-0.013733328429857306
14.084,-0.013732967821713425
14.088000000000001,-0.013734602578632344
14.092,-0.013735347835463027
14.096,-0.013734290051574316
14.1,-0.013732054281082266
14.104000000000001,-0.013733015902799276
14.108,-0.01373380924071581
14.112,-0.013731861956738863
14.116,-0.013735227632748401
14.120000000000001,-0.013737391281611675
14.124,-0.013737631687040928
14.128,-0.013740372308934407
14.132,-0.013741718579338221
14.136000000000001,-0.013740540592734884
14.14,-0.013739578971017873
14.144,-0.013736814308581468
14.148,-0.01373380924071581
14.152000000000001,-0.01373801633572773
14.156,-0.013736910470753169
14.16,-0.013738617349300862
14.164,-0.013744002430916122
14.168000000000001,-0.013737198957268272
14.172,-0.013733208227142678
14.176,-0.01373335247040023
14.18,-0.013735251673291326
14.184000000000001,-0.013738809673644265
14.188,-0.013736621984238065
14.192,-0.013734121767773838
14.196,-0.013729097294302458
14.200000000000001,-0.013731669632395463
14.204,-0.01373152538913791
14.208,-0.013731765794567162
14.212,-0.013732006199996415
14.216000000000001,-0.013734121767773838
14.22,-0.013738400984414536
14.224,-0.013733232267685604
14.228,-0.01373472278134697
14.232000000000001,-0.013727702942812793
14.236,-0.01372883284833028
14.24,-0.013732871659541726
14.244,-0.013729097294302458
14.248000000000001,-0.013734410254288941
14.252,-0.013733496713657782
14.256,-0.013732487010854921
14.26,-0.013731741754024238
14.264000000000001,-0.013728712645615654
14.268,-0.01372924153756001
14.272,-0.013731068618822331
14.276,-0.01373385732180166
14.280000000000001,-0.013731717713481311
14.284,-0.013733136105513903
14.288,-0.01373705471401072
14.292,-0.013738256741156984
14.296000000000001,-0.01373239084868322
14.3,-0.013731669632395463
14.304,-0.013734698740804045
14.308,-0.013732919740627575
14.312000000000001,-0.013735059348947923
14.316,-0.013743834147115644
14.32,-0.013722558266626788
14.324,-0.01372517868580564
14.328000000000001,-0.013732174483796893
14.332,-0.013734410254288941
14.336,-0.013736910470753169
14.34,-0.013736934511296095
14.344,-0.013735828646321533
14.348,-0.013737102795096571
14.352,-0.013736790268038543
14.356,-0.013735876727407384
14.36,-0.013740372308934407
14.364,-0.013738160578985283
14.368,-0.013733256308228529
14.372,-0.01373873755201549
14.376,-0.013743040809199112
14.38,-0.013745324660777011
14.384,-0.013736718146409766
14.388,-0.0137351314705767
14.392,-0.013741646457709446
14.396,-0.013739819376447126
14.4,-0.013724313226260332
14.404,-0.013723616050515499
14.408,-0.013728255875300074
14.412,-0.013734073686687989
14.416,-0.013738521187129161
14.42,-0.013736165213922485
14.424,-0.01373457853808942
14.428,-0.013735203592205475
14.432,-0.013731669632395463
14.436,-0.013731140740451106
14.44,-0.01373234276759737
14.444,-0.013729457902446337
14.448,-0.01372832799692885
14.452,-0.01373234276759737
14.456,-0.013733689038001184
14.46,-0.013738809673644265
14.464,-0.01372974638896144
14.468,-0.013730900335021853
14.472,-0.013736261376094187
14.476,-0.013722365942283385
14.48,-0.013722630388255563
14.484,-0.013728087591499597
14.488,-0.01372294291531359
14.492,-0.013725707577749996
14.496,-0.01372878476724443
14.5,-0.013729361740274636
14.504,-0.013727967388784972
14.508000000000001,-0.013728640523986878
14.512,-0.013727486577926466
14.516,-0.013727462537383541
14.52,-0.013728760726701504
14.524000000000001,-0.013727967388784972
14.528,-0.013729602145703889
14.532,-0.013733256308228529
14.536,-0.013732823578455875
14.540000000000001,-0.013730852253936002
14.544,-0.013734217929945539
14.548,-0.01373188599728179
14.552,-0.013733737119087035
14.556000000000001,-0.013730876294478929
14.56,-0.013721764928710254
14.564,-0.013724649793861284
14.568,-0.01372736637521184
14.572000000000001,-0.013729361740274636
14.576,-0.013735419957091802
14.58,-0.01372659707783823
14.584,-0.013724842118204687
14.588000000000001,-0.013727799104984494
14.592,-0.013724505550603732
14.596,-0.013722990996399441
14.6,-0.013724601712775434
14.604000000000001,-0.013725731618292922
14.608,-0.013727270213040139
14.612,-0.013727558699555241
14.616,-0.01372965022678974
14.620000000000001,-0.013729337699731711
14.624,-0.013733088024428053
14.628,-0.013729842551133142
14.632,-0.013720130171791335
14.636000000000001,-0.013725803739921697
14.64,-0.013731381145880359
14.644,-0.013726236469694352
14.648,-0.013727294253583064
14.652000000000001,-0.013721716847624403
14.656,-0.013718880063559221
14.66,-0.013723039077485292
14.664,-0.013717966522928062
14.668000000000001,-0.013718663698672895
14.672,-0.013721837050339029
14.676,-0.013722462104455086
14.68,-0.013723135239656993
14.684000000000001,-0.013722918874770666
14.688,-0.013723015036942367
14.692,-0.013723279482914545
14.696,-0.013721284117851748
14.700000000000001,-0.013722510185540937
14.704,-0.013730058916019468
14.708,-0.01373188599728179
14.712,-0.013735612281435204
14.716000000000001,-0.013727198091411362
14.72,-0.013724144942459854
14.724,-0.013727678902269868
14.728,-0.013723447766715021
14.732000000000001,-0.013726837483267484
14.736,-0.013727390415754765
14.74,-0.013726116266979727
14.744,-0.013727174050868438
14.748000000000001,-0.013726476875123605
14.752,-0.013726212429151428
14.756,-0.013727943348242046
14.76,-0.013728640523986878
14.764000000000001,-0.013730323361991648
14.768,-0.01373193407836764
14.772,-0.01373142922696621
14.776,-0.013732246605425668
14.780000000000001,-0.01373801633572773
14.784,-0.013736670065323916
14.788,-0.013731837916195939
14.792,-0.013733977524516288
14.796000000000001,-0.013734506416460643
14.8,-0.013741478173908969
14.804,-0.013736525822066364
14.808,-0.013720034009619634
14.812000000000001,-0.013716572171438396
14.816,-0.013721668766538552
14.82,-0.013725899902093398
14.824,-0.013722173617939983
14.828000000000001,-0.013721909171967805
14.832,-0.013722798672056039
14.836,-0.013722750590970188
14.84,-0.013723447766715021
14.844000000000001,-0.013722750590970188
14.848,-0.013725707577749996
14.852,-0.013731501348594985
14.856,-0.013731333064794508
14.86,-0.013725851821007547
14.864,-0.013719985928533783
14.868,-0.013717461671526631
14.872,-0.01371974552310453
14.876,-0.013722750590970188
14.88,-0.01372335160454332
14.884,-0.013729313659188785
14.888,-0.013734169848859688
14.892,-0.01373061184850675
14.896,-0.013724842118204687
14.9,-0.013722678469341413
14.904,-0.01372325544237162
14.908,-0.013723279482914545
14.912,-0.01372513060471979
14.916,-0.013726933645439185
14.92,-0.01372659707783823
14.924,-0.01372366413160135
14.928,-0.013721788969253178
14.932,-0.013723471807257947
14.936,-0.013727414456297691
14.94,-0.013732655294655397
14.944,-0.013730347402534572
14.948,-0.013730683970135526
14.952,-0.013724361307346182
14.956,-0.013717653995870034
14.96,-0.013719360874417727
14.964,-0.013719889766362082
14.968,-0.013720346536677662
14.972,-0.013719168550074325
14.976,-0.013719865725819158
14.98,-0.013725250807434416
14.984,-0.01371974552310453
14.988,-0.013713446900858113
14.992,-0.013719865725819158
14.996,-0.013721596644909776
15.0,-0.013722197658482907
15.004,-0.013720875428622019
15.008000000000001,-0.013719793604190381
15.012,-0.013717269347183229
15.016,-0.013716980860668125
15.02,-0.013718591577044118
15.024000000000001,-0.013721163915137122
15.028,-0.01372243806391216
15.032,-0.013722654428798489
15.036,-0.013718206928357315
15.040000000000001,-0.013717581874241257
15.044,-0.01372097159079372
15.048,-0.013719625320389905
15.052,-0.013724072820831079
15.056000000000001,-0.013726380712951904
15.06,-0.013728640523986878
15.064,-0.01371782227967051
15.068,-0.01371279780619913
15.072000000000001,-0.013717461671526631
15.076,-0.013720394617763513
15.08,-0.01372335160454332
15.084,-0.013721163915137122
15.088000000000001,-0.013720274415048887
15.092,-0.01372320736128577
15.096,-0.013726212429151428
15.1,-0.01372320736128577
15.104000000000001,-0.0137214283611093
15.108,-0.0137190483473597
15.112,-0.013724000699202302
15.116,-0.013725010402005165
15.120000000000001,-0.013727414456297691
15.124,-0.013727919307699121
15.128,-0.013723231401828694
15.132,-0.013717966522928062
15.136000000000001,-0.01371741359044078
15.14,-0.013727967388784972
15.144,-0.0137239045370306
15.148,-0.013725371010149043
15.152000000000001,-0.013722462104455086
15.156,-0.01372188513142488
15.16,-0.013719961887990859
15.164,-0.01372101967187957
15.168000000000001,-0.01372147644219515
15.172,-0.01372198129359658
15.176,-0.013721308158394674
15.18,-0.013720154212334261
15.184000000000001,-0.01372000996907671
15.188,-0.013721043712422495
15.192,-0.013722125536854132
15.196,-0.013726404753494828
15.200000000000001,-0.013729602145703889
15.204,-0.013723928577573527
15.208,-0.013716331766009143
15.212,-0.0137192406717031
15.216000000000001,-0.013717509752612482
15.22,-0.01372376029377305
15.224,-0.01372193321251073
15.228,-0.01371558650917846
15.232000000000001,-0.013715778833521862
15.236,-0.013718351171614867
15.24,-0.013714456603660974
15.244,-0.013711283251994838
15.248000000000001,-0.013714336400946346
15.252,-0.01371599519840819
15.256,-0.013714336400946346
15.26,-0.013715033576691179
15.264000000000001,-0.013715346103749209
15.268,-0.013713278617057635
15.272,-0.013716115401122816
15.276,-0.01371919259061725
15.280000000000001,-0.013717990563470986
15.284,-0.013722221699025833
15.288,-0.01373097245665063
15.292,-0.013729505983532187
15.296000000000001,-0.013720034009619634
15.3,-0.01371878390138752
15.304,-0.013720082090705485
15.308,-0.01371883198247337
15.312000000000001,-0.013717726117498809
15.316,-0.013717509752612482
15.32,-0.013713038211628384
15.324,-0.01371315841434301
15.328000000000001,-0.013717197225554454
15.332,-0.013713951752259543
15.336,-0.013715370144292133
15.34,-0.013716211563294518
15.344000000000001,-0.01371919259061725
15.348,-0.013718399252700717
15.352,-0.013715514387549685
15.356,-0.013717990563470986
15.36,-0.013724096861374003
15.364,-0.013727294253583064
15.368,-0.013725731618292922
15.372,-0.013727630821184018
15.376,-0.01373462661917527
15.38,-0.01372467383440421
15.384,-0.013723928577573527
15.388,-0.01372686152381041
15.392,-0.013735419957091802
15.396,-0.01372751061846939
15.4,-0.01372604414535095
15.404,-0.013726645158924081
15.408,-0.013727462537383541
15.412,-0.013726452834580679
15.416,-0.01372654899675238
15.42,-0.01372965022678974
15.424,-0.01373020315927702
15.428,-0.013730491645792124
15.432,-0.013734338132660166
15.436,-0.013734939146233298
15.44,-0.013735251673291326
15.444,-0.013733448632571931
15.448,-0.013730900335021853
15.452,-0.013734434294831867
15.456,-0.013736381578808814
15.46,-0.013729578105160964
15.464,-0.013727462537383541
15.468,-0.013730010834933618
15.472,-0.013731573470223761
15.476,-0.01373147730805206
15.48,-0.013730106997105319
15.484,-0.013739338565588621
15.488,-0.013732174483796893
15.492,-0.013726332631866053
15.496,-0.013732222564882744
15.5,-0.013731597510766686
15.504,-0.013732679335198323
15.508000000000001,-0.013733881362344586
15.512,-0.013737992295184806
15.516,-0.01373746340324045
15.52,-0.01373477086243282
15.524000000000001,-0.0137374153221546
15.528,-0.01373558824089228
15.532,-0.013738665430386713
15.536,-0.013738617349300862
15.540000000000001,-0.013734963186776222
15.544,-0.013733136105513903
15.548,-0.013732462970311995
15.552,-0.01373385732180166
15.556000000000001,-0.013740997363050464
15.56,-0.013733592875829483
15.564,-0.01373234276759737
15.568,-0.013732054281082266
15.572000000000001,-0.013735395916548878
15.576,-0.01374162241716652
15.58,-0.013743112930827887
15.584,-0.01374376202548687
15.588000000000001,-0.013747824877241238
15.592,-0.01374258403888353
15.596,-0.013742151309110877
15.6,-0.013748113363756342
15.604000000000001,-0.013749315390902605
15.608,-0.01375015680990499
15.612,-0.013750325093705466
15.616,-0.013741742619881148
15.620000000000001,-0.013746358404122798
15.624,-0.013750445296420092
15.628,-0.013744555363403403
15.632,-0.01374239171454013
15.636000000000001,-0.013738449065500386
15.64,-0.013739578971017873
15.644,-0.013749267309816755
15.648,-0.013752512783111666
15.652000000000001,-0.013748329728642669
15.656,-0.01374381010657272
15.66,-0.013746117998693545
15.664,-0.013748906701672876
15.668000000000001,-0.01374792103941294
15.672,-0.013747848917784165
15.676,-0.013745372741862862
15.68,-0.013746382444665722
15.684000000000001,-0.013745204458062385
15.688,-0.013745420822948712
15.692,-0.013747584471811986
15.696,-0.01374792103941294
15.700000000000001,-0.01374989236393281
15.704,-0.013750373174791317
15.708,-0.013748161444842193
15.712,-0.013744483241774626
15.716000000000001,-0.01375614290509338
15.72,-0.013756816040295288
15.724,-0.013748065282670491
15.728,-0.013750036607190362
15.732000000000001,-0.013747175782582256
15.736,-0.013749074985473352
15.74,-0.013755998661835828
15.744,-0.013760975054221358
15.748000000000001,-0.013761600108337414
15.752,-0.013760999094764283
15.756,-0.01376527831140498
15.76,-0.013766023568235662
15.764000000000001,-0.013765638919548859
15.768,-0.01376883631175792
15.772,-0.01376907671718717
15.776,-0.013769725811846153
15.780000000000001,-0.013771192284964595
15.784,-0.013774485839345355
15.788,-0.013777899596440744
15.792,-0.01377583210974917
15.796000000000001,-0.01377249047428256
15.8,-0.013774173312287327
15.804,-0.013767081352124375
15.808,-0.013770471068676836
15.812000000000001,-0.013771625014737249
15.816,-0.013774197352830253
15.82,-0.013773716541971747
15.824,-0.013771793298537727
15.828000000000001,-0.013770687433563165
15.832,-0.013770975920078267
15.836,-0.013769581568588601
15.84,-0.013769124798273021
15.844000000000001,-0.013767706406240431
15.848,-0.01377075955519194
15.852,-0.013770447028133912
15.856,-0.013768643987414517
15.860000000000001,-0.013769942176732481
15.864,-0.013772658758083036
15.868,-0.01377537533943359
15.872,-0.013771504812022623
15.876,-0.013781072948106878
15.88,-0.013769269041530573
15.884,-0.013769821974017854
15.888,-0.013773428055456644
15.892,-0.013774750285317534
15.896,-0.013773524217628345
15.9,-0.013776120596264273
15.904,-0.013774606042059982
15.908,-0.013775928271920871
15.912,-0.013776529285494003
15.916,-0.013775567663776992
15.92,-0.013773932906858074
15.924,-0.013772274109396231
15.928,-0.01377390886631515
15.932,-0.013772033703966978
15.936,-0.01376898055501547
15.94,-0.013767994892755535
15.944,-0.013771913501252352
15.948,-0.01377030278487636
15.952,-0.013772562595911335
15.956,-0.013772923204055213
15.96,-0.013770326825419284
15.964,-0.01377080763627779
15.968,-0.013761552027251564
15.972,-0.013764533054574297
15.976,-0.01376436477077382
15.98,-0.013756623715951885
15.984,-0.01375893160807271
15.988,-0.013764845581632325
15.992,-0.01376801893329846
15.996,-0.01376811509547016
16.0,-0.013767778527869206
16.004,-0.013769485406416902
16.008,-0.013768547825242816
16.012,-0.013767249635924851
16.016000000000002,-0.013764316689687969
16.02,-0.013765013865432801
16.024,-0.013771120163335818
16.028,-0.013768740149586218
16.032,-0.013767057311581449
16.036,-0.01376623993312199
16.04,-0.013765759122263485
16.044,-0.013777779393726116
16.048000000000002,-0.013787924502840578
16.052,-0.013781145069735653
16.056,-0.013777466866668088
16.06,-0.013780111326389868
16.064,-0.013782299015796065
16.068,-0.013793405746627537
16.072,-0.013799728409416881
16.076,-0.013798045571412114
16.080000000000002,-0.01380273347728254
16.084,-0.013807806031839771
16.088,-0.013811724640336588
16.092,-0.013806772288493984
16.096,-0.013805450058633095
16.1,-0.013808070477811948
16.104,-0.013807733910210994
16.108,-0.013810065842874746
16.112000000000002,-0.013809320586044062
16.116,-0.013811748680879513
16.12,-0.013816508708378715
16.124,-0.013816797194893819
16.128,-0.013821196614249142
16.132,-0.013826245128263448
