time,channel1
0.0,0.002528584304879225
0.004,0.0025304354266844705
0.008,0.002536253238072384
0.012,0.0025491870501661755
0.016,0.0025557741589276976
0.02,0.0025678905925620304
0.024,0.0025581060915914485
0.028,0.002539835278968248
0.032,0.0025317336160024344
0.036000000000000004,0.0025351954541836725
0.04,0.002526036007329147
0.044,0.002523824277380023
0.048,0.002518655560651091
0.052000000000000005,0.0025199056688832047
0.056,0.0025266370209022786
0.06,0.0025264927776447272
0.064,0.0025436817658362905
0.068,0.00255642325358668
0.07200000000000001,0.002550124631340261
0.076,0.0025439462118084684
0.08,0.0025414219548013156
0.084,0.0025468310769595
0.088,0.0025547404155819116
0.092,0.002556158807614502
0.096,0.0025606063080556756
0.1,0.0025589955916796832
0.10400000000000001,0.002549595739395905
0.108,0.002543705806379216
0.112,0.002541253671000839
0.116,0.0025387774950795367
0.12,0.0025263725749301007
0.124,0.0025099288435692204
0.128,0.002523752155751247
0.132,0.0025480090635628377
0.136,0.0025550048615540894
0.14,0.002551134334143122
0.14400000000000002,0.0025639479435222872
0.148,0.00257103990368524
0.152,0.0025662798761860377
0.156,0.0025572165915032138
0.16,0.002548874523108147
0.164,0.002550773725999243
0.168,0.0025448837929825537
0.17200000000000001,0.0025438740901796925
0.176,0.002562914200176501
0.18,0.0025787328774213246
0.184,0.002569597471109724
0.188,0.0025507256449133924
0.192,0.00254591753632834
0.196,0.0025208432500572896
0.2,0.002515386046813255
0.20400000000000001,0.00255505294263994
0.20800000000000002,0.002567650187132778
0.212,0.0025648855246963725
0.216,0.0025606784296844515
0.22,0.0025560626454428008
0.224,0.0025525527261757125
0.228,0.0025521440369459833
0.232,0.0025553654696979684
0.23600000000000002,0.002558154172677299
0.24,0.0025583224564777757
0.244,0.0025587311457075054
0.248,0.0025616640919443874
0.252,0.0025677944303903293
0.256,0.0025709677820564643
0.26,0.0025587792267933555
0.264,0.002538633251821985
0.268,0.0025274303588188126
0.272,0.0025464464282726955
0.276,0.0025695013089380232
0.28,0.002571568795629596
0.28400000000000003,0.0025628661190906506
0.28800000000000003,0.0025586590240787295
0.292,0.002560365902626423
0.296,0.0025531056586629935
0.3,0.0025496438204817558
0.304,0.0025576012401900177
0.308,0.0025676021060469273
0.312,0.002566183714014337
0.316,0.002563034402891127
0.32,0.0025603418620834977
0.324,0.002561616010858537
0.328,0.002566039470756785
0.332,0.002564092186779839
0.336,0.0025397631573394726
0.34,0.0025323827106614166
0.34400000000000003,0.0025385851707361348
0.34800000000000003,0.0025419508467456713
0.352,0.002549403415052503
0.356,0.002540532454713081
0.36,0.002553081618120068
0.364,0.0025661596734714116
0.368,0.0025785165125349974
0.372,0.002583757350892705
0.376,0.0025758480122702932
0.38,0.0025665202816152906
0.384,0.0025660635112997104
0.388,0.0025722419308315033
0.392,0.0025680829169054324
0.396,0.0025637556191788853
0.4,0.002551254536857748
0.404,0.0025376716301049747
0.40800000000000003,0.0025402199276550524
0.41200000000000003,0.002540364170912604
0.41600000000000004,0.0025352675758124484
0.42,0.0025402199276550524
0.424,0.002546494509358546
0.428,0.002550845847628019
0.432,0.0025680348358195822
0.436,0.0025848391753243417
0.44,0.002580487837054869
0.444,0.002572554457889532
0.448,0.0025696215116526493
0.452,0.0025732516336343645
0.456,0.00258012722891099
0.46,0.0025895992028235437
0.464,0.0025792617693656803
0.468,0.002569116660251219
0.47200000000000003,0.0025561828481574273
0.47600000000000003,0.002550413117855364
0.48,0.0025498361448251577
0.484,0.0025472397661892294
0.488,0.002542359535975401
0.492,0.002552865253233741
0.496,0.0025485139149642685
0.5,0.0025572887131319892
0.504,0.002567674227675703
0.508,0.002581689864201132
0.512,0.0025847430131526405
0.516,0.0025812571344284775
0.52,0.0025687079710214893
0.524,0.0025671453357313475
0.528,0.002564452794923718
0.532,0.0025664241194435894
0.536,0.002568227160162984
0.54,0.0025685396872210126
0.544,0.002572915066033411
0.548,0.002560173578283021
0.552,0.00257241021463198
0.556,0.00257327567417729
0.56,0.0025648855246963725
0.5640000000000001,0.0025641162273227643
0.5680000000000001,0.002551254536857748
0.5720000000000001,0.0025494755366812787
0.5760000000000001,0.00256190449737364
0.58,0.002571592836172521
0.584,0.00258241108048889
0.588,0.0025854642294403985
0.592,0.002573299714720215
0.596,0.0025767855934443785
0.6,0.0025792617693656803
0.604,0.002575006593267909
0.608,0.0025671934168171977
0.612,0.0025714485929149693
0.616,0.002574549822952329
0.62,0.0025736843634070194
0.624,0.0025785405530779227
0.628,0.0025879404053617007
0.632,0.0025934456896915857
0.636,0.0025866422160437364
0.64,0.0025603899431693483
0.644,0.002539618914081921
0.648,0.002550966050342645
0.652,0.002569188781879995
0.656,0.0025679146331049557
0.66,0.002559091753851384
0.664,0.002575391241954713
0.668,0.0025680829169054324
0.672,0.002559716807967441
0.676,0.0025644287543807927
0.68,0.0025635152137496327
0.684,0.002568635849392714
0.6880000000000001,0.0025724342551749053
0.6920000000000001,0.0025794300531661574
0.6960000000000001,0.0025841179590365836
0.7000000000000001,0.002581064810085075
0.704,0.0025826514859181426
0.708,0.0025690685791653683
0.712,0.0025570242671598114
0.716,0.002583108256233723
0.72,0.00259611418995629
0.724,0.00257555952575519
0.728,0.002574982552724984
0.732,0.0025842141212082848
0.736,0.0025737084039499447
0.74,0.0025671453357313475
0.744,0.002575271039240087
0.748,0.002581593702029431
0.752,0.002593469730234511
0.756,0.002588156770248028
0.76,0.002572650620061233
0.764,0.002585776756498427
0.768,0.0025946957979236995
0.772,0.0025944313519515217
0.776,0.0025875557566748964
0.78,0.002584598769895089
0.784,0.00259657096027187
0.788,0.0025992635010795
0.792,0.0025674338222464507
0.796,0.0025577695239904948
0.8,0.002545821374156639
0.804,0.0025536105100644243
0.808,0.0025818821885445343
0.812,0.002589551121737693
0.8160000000000001,0.0025937101356637636
0.8200000000000001,0.0026048889881240115
0.8240000000000001,0.002610586596797299
0.8280000000000001,0.002608206583047698
0.8320000000000001,0.0026023887716597844
0.836,0.002599960676824333
0.84,0.0026064997045000043
0.844,0.002605297677353741
0.848,0.002603398474462645
0.852,0.002600898257998418
0.856,0.0025988067307639202
0.86,0.002596138230499215
0.864,0.0026015473526574003
0.868,0.0026162842054705863
0.872,0.0026075094073028655
0.876,0.0025817379452869826
0.88,0.0025757037690127414
0.884,0.0025813773371431035
0.888,0.002572722741690009
0.892,0.0025822668372313382
0.896,0.002594383270865671
0.9,0.002595441054754383
0.904,0.0026022445284022326
0.908,0.0026097451777949148
0.912,0.00261570723244038
0.916,0.0026126781240317968
0.92,0.002611572259057235
0.924,0.0026083508263052496
0.928,0.002606908393729734
0.932,0.00261433692149364
0.936,0.002618808462477739
0.9400000000000001,0.0026161159216701096
0.9440000000000001,0.0026059708125556486
0.9480000000000001,0.002584069877950733
0.9520000000000001,0.0025743334580660016
0.9560000000000001,0.0025617842946590134
0.96,0.0025502448340548873
0.964,0.0025763288231287983
0.968,0.00262616486861287
0.972,0.002628328517476143
0.976,0.002621549084371219
0.98,0.0026106587184260748
0.984,0.002599551987594603
0.988,0.002596691162986496
0.992,0.0026093845696510357
0.996,0.0026139041917209852
1.0,0.0026099855832241673
1.004,0.002607389204588239
1.008,0.0025987346091351443
1.012,0.0025983740009912653
1.016,0.002609576893994438
1.02,0.0026158514756979318
1.024,0.0025978931901327602
1.028,0.002563827740807661
1.032,0.0025887337432782343
1.036,0.0026076296100174916
1.04,0.002592195581459472
1.044,0.0026056102044117696
1.048,0.00260246089328856
1.052,0.002599455825422902
1.056,0.002608735474992054
1.06,0.002614120556607313
1.064,0.0026117165023147866
1.068,0.002605009190838638
1.072,0.002595729541269486
1.076,0.0026001530011677348
1.08,0.00260474474486646
1.084,0.0026085431506486516
1.088,0.002609937502138317
1.092,0.002593974581635942
1.096,0.0025825312832035165
1.1,0.002592844676118454
1.104,0.002592556189603351
1.108,0.002601643514829101
1.112,0.0026089518398783812
1.116,0.002616428448728138
1.12,0.002627270733587432
1.124,0.0026204913004825073
1.1280000000000001,0.0026091922453076338
1.1320000000000001,0.002591233959742462
1.1360000000000001,0.00259657096027187
1.1400000000000001,0.002605994853098574
1.1440000000000001,0.002610057704852943
1.1480000000000001,0.0026099855832241673
1.1520000000000001,0.0026108991238553273
1.156,0.0026200345301669275
1.16,0.002619289273336244
1.164,0.0026055140422400684
1.168,0.0025884933378489817
1.172,0.0025890222297933374
1.176,0.0026091922453076338
1.18,0.0026159235973267077
1.184,0.0026118367050294126
1.188,0.002611740542857712
1.192,0.0025920272976589953
1.196,0.002595104487153429
1.2,0.002600441487682838
1.204,0.002601715636457877
1.208,0.0026155629891828286
1.212,0.002616885219043718
1.216,0.0026125579213171707
1.22,0.002616212083841811
1.224,0.0026164524892710633
1.228,0.0026137359079205086
1.232,0.0026085431506486516
1.236,0.002606187177441976
1.24,0.0026019560418871295
1.244,0.002600898257998418
1.248,0.002623712733234493
1.252,0.0026317903556573813
1.256,0.0026281361931327412
1.26,0.0026106346778831495
1.264,0.002575631647383966
1.268,0.0025876999999324478
1.272,0.0026145532863799674
1.276,0.0026231357602042866
1.28,0.0026225828277170057
1.284,0.002626453355127973
1.288,0.0026208519086263864
1.292,0.0026100817453958685
1.296,0.0026039273664070013
1.3,0.0026027734203465883
1.304,0.002610033664310018
1.308,0.0026145773269228927
1.312,0.0026170775433871202
1.316,0.0026055380827829937
1.32,0.0025987586496780696
1.324,0.0026110674076558044
1.328,0.002618880584106515
1.332,0.0026107067995119254
1.336,0.0026140243944356117
1.34,0.0026014031093998485
1.344,0.002584502607723388
1.348,0.002599071176736098
1.352,0.002618592097591412
1.356,0.0026098172994236907
1.36,0.0025965228791860195
1.364,0.0026093845696510357
1.368,0.0026217654492575464
1.372,0.00262616486861287
1.3760000000000001,0.0026168130974149424
1.3800000000000001,0.0026220539357726495
1.3840000000000001,0.002612221353716217
1.3880000000000001,0.002607749812732118
1.3920000000000001,0.002615442786468202
1.3960000000000001,0.0026329202611748686
1.4000000000000001,0.0026611919396549786
1.4040000000000001,0.0026423201134586466
1.408,0.002605369798982517
1.412,0.0025968834873298986
1.416,0.0025969556089586745
1.42,0.0026163082460135116
1.424,0.002630371963624791
1.428,0.002635877247954676
1.432,0.002630997017740848
1.436,0.002632463490859289
1.44,0.00262621294969872
1.444,0.0026179430029324297
1.448,0.0026135195430341813
1.452,0.002607581528931641
1.456,0.002610033664310018
1.46,0.002624289706264699
1.464,0.0026306123690540435
1.468,0.002619625840937198
1.472,0.002607100718073136
1.476,0.002620539381568358
1.48,0.0026406853565397286
1.484,0.002648426411361664
1.488,0.0026510949116263683
1.492,0.002634146328864057
1.496,0.0026400603024236717
1.5,0.0026319826800007833
1.504,0.0026229434358608843
1.508,0.00261433692149364
1.512,0.0026047928259523108
1.516,0.0026121732726303664
1.52,0.002624097381921297
1.524,0.0026402766673099994
1.528,0.0026327760179173172
1.532,0.002607293042416538
1.536,0.002611019326569954
1.54,0.0026140724755214623
1.544,0.0026363820993561067
1.548,0.0026670818726716684
1.552,0.0026670097510428925
1.556,0.00263534835601032
1.56,0.002615875516240857
1.564,0.002622727070974557
1.568,0.0026436904244053865
1.572,0.002651431479227322
1.576,0.0026273188146732824
1.58,0.0026313816664276517
1.584,0.0026392188834212875
1.588,0.0026279679093322646
1.592,0.0026277034633600863
1.596,0.002629193977021453
1.6,0.0026295305446224063
1.604,0.002627775584988862
1.608,0.0026275111390166844
1.612,0.002624289706264699
1.616,0.0026247224360373537
1.62,0.0026373196805301916
1.624,0.0026311893420842497
1.6280000000000001,0.0026181112867329063
1.6320000000000001,0.0026261167875270192
1.6360000000000001,0.0026443395190643686
1.6400000000000001,0.0026803762929093395
1.6440000000000001,0.002671769778542095
1.6480000000000001,0.002641911424228917
1.6520000000000001,0.0026062592990707518
1.6560000000000001,0.0026135435835771066
1.6600000000000001,0.002621068273512714
1.6640000000000001,0.0026258523415548414
1.668,0.002627270733587432
1.672,0.002622919395317959
1.676,0.0026208519086263864
1.68,0.0026323432881446623
1.684,0.002642704762145451
1.688,0.002646431046298867
1.692,0.0026331847071470464
1.696,0.0026151302594101737
1.7,0.002613062772718601
1.704,0.002612485799688395
1.708,0.002638425545504754
1.712,0.0026701350216231765
1.716,0.002664221048063562
1.72,0.002657297371701086
1.724,0.002658499398847349
1.728,0.0026290497337639013
1.732,0.002620058570709853
1.736,0.0026301555987384632
1.74,0.0026347233018942633
1.744,0.0026308287339403707
1.748,0.002620996151883938
1.752,0.0026214048411136674
1.756,0.0026346752208084127
1.76,0.0026381130184467256
1.764,0.0026401324240524476
1.768,0.002638786153648633
1.772,0.0026361897750127043
1.776,0.002627919828246414
1.78,0.002628665085077097
1.784,0.002639242923964213
1.788,0.0026574175744157125
1.792,0.002665567318467377
1.796,0.002663043061460224
1.8,0.0026333289504045982
1.804,0.002625828301011916
1.808,0.0026438346676629382
1.812,0.0026426807216025257
1.816,0.0026342424910357582
1.82,0.002643930829834639
1.824,0.002630396004167716
1.828,0.0026334731936621496
1.832,0.0026483062086470376
1.836,0.0026429211270317782
1.84,0.002643810627120013
1.844,0.0026481138843036356
1.848,0.002647344586930027
1.852,0.0026461666003266887
1.856,0.002647873478874383
1.86,0.0026534989659188946
1.864,0.0026562155472694493
1.868,0.002639074640163736
1.872,0.0026284487201907697
1.8760000000000001,0.0026188325030206644
1.8800000000000001,0.002623905057577895
1.8840000000000001,0.0026341944099499076
1.8880000000000001,0.0026479215599602333
1.8920000000000001,0.0026421277891152443
1.8960000000000001,0.002660398601738445
1.9000000000000001,0.0026793665901064783
1.9040000000000001,0.002658018587988844
1.9080000000000001,0.002643810627120013
1.9120000000000001,0.002643810627120013
1.9160000000000001,0.0026358291668688253
1.92,0.0026444837623219204
1.924,0.002658210912332246
1.928,0.0026588840475341535
1.932,0.0026524892631160334
1.936,0.0026488591411343186
1.94,0.002649339951992824
1.944,0.0026482821681041123
1.948,0.0026449405326375
1.952,0.002649267830364048
1.956,0.0026619852775715126
1.96,0.0026491957087352723
1.964,0.0026421518296581696
1.968,0.002656744439213805
1.972,0.0026518642089999765
1.976,0.002645565586753557
1.98,0.002644555883950696
1.984,0.0026421518296581696
1.988,0.0026380408968179497
1.992,0.002640637275453878
1.996,0.002644724167751173
2.0,0.0026548933174085597
2.004,0.002652729668545286
2.008,0.0026577060609308156
2.012,0.002645709830011109
2.016,0.002647969641046084
2.02,0.002647609032902205
2.024,0.002621717368171696
2.028,0.002632391369230513
2.032,0.002643450018976134
2.036,0.0026289776121351254
2.04,0.0026352762343815443
2.044,0.002638882315820334
2.048,0.002661672750513484
2.052,0.0026712408865977393
2.056,0.0026556626147821684
2.06,0.0026558068580397197
2.064,0.0026597975881653135
2.068,0.0026580666690746947
2.072,0.0026629949803743734
2.076,0.0026641729669777113
2.08,0.00265813879070347
2.084,0.0026587157637336764
2.088,0.002658210912332246
2.092,0.0026383053427901275
2.096,0.0026144571242082667
2.1,0.002648426411361664
2.104,0.0026736449408902656
2.108,0.00267088027845386
2.112,0.002655975141840197
2.116,0.0026510227899975924
2.12,0.0026757364681247635
2.124,0.0026757124275818382
2.128,0.002661672750513484
2.132,0.002655566452610467
2.136,0.0026565040337845525
2.14,0.002659124452963406
2.144,0.0026658317644395546
2.148,0.0026703033054236536
2.152,0.0026487389384196925
2.156,0.00264534922186723
2.16,0.002664773980550843
2.164,0.0026822033741716596
2.168,0.002686073901582627
2.172,0.0026517680468282757
2.176,0.002622005854686799
2.18,0.0026140243944356117
2.184,0.0026548692768656344
2.188,0.0026918917129705403
2.192,0.002696243051240013
2.196,0.0026889106856478077
2.2,0.0026841506581486057
2.204,0.002686843198956235
2.208,0.0026835736851183994
2.212,0.002671841900170871
2.216,0.0026723707921152266
2.22,0.002672490994829853
2.224,0.002673524738175639
2.228,0.0026800878063942364
2.232,0.002666120250954658
2.236,0.0026522969387726314
2.24,0.0026315980313139794
2.244,0.002619722003108899
2.248,0.0026355887614395728
2.2520000000000002,0.0026389544374491097
2.2560000000000002,0.0026627064938592702
2.2600000000000002,0.0026789338603338234
2.2640000000000002,0.002689367455963388
2.2680000000000002,0.002687949063930797
2.2720000000000002,0.002665567318467377
2.2760000000000002,0.002665326913038124
2.2800000000000002,0.0026716976569133195
2.2840000000000003,0.0026796550766215814
2.2880000000000003,0.0026646537778362168
2.2920000000000003,0.0026534028037471934
2.2960000000000003,0.0026488591411343186
2.3000000000000003,0.002648979343848945
2.3040000000000003,0.00264534922186723
2.308,0.002648522573533365
2.312,0.002652537344201884
2.316,0.002652753709088211
2.32,0.002647801357245607
2.324,0.002665062467065946
2.328,0.002682155293085809
2.332,0.0027069891739276057
2.336,0.0026987673082471656
2.34,0.00263854574821938
2.344,0.002630131558195538
2.348,0.0026580666690746947
2.352,0.002651142992712219
2.356,0.002661865074856886
2.36,0.0026638363993767575
2.364,0.0026637883182909074
2.368,0.002670327345966579
2.372,0.0026700148189085504
2.376,0.0026643652913211136
2.38,0.002651623803570724
2.384,0.002650926627825891
2.388,0.0026744863598926498
2.392,0.002665711561724928
2.396,0.0026601341557662673
2.4,0.0026740536301199953
2.404,0.0026889587667336583
2.408,0.002672611197544479
2.412,0.0026547009930651577
2.416,0.0026683800619896323
2.42,0.0026802320496517877
2.424,0.0026896319019355658
2.428,0.002670615832481682
2.432,0.0026582589934180966
2.436,0.002666216413126359
2.44,0.002669413805335419
2.444,0.0026725871570015543
2.448,0.0026730920084029846
2.452,0.0026739815084912194
2.456,0.0026649663048942452
2.46,0.00265078238456834
2.464,0.0026331125855182705
2.468,0.0026674665213584723
2.472,0.002704272592577051
2.476,0.0027044168358346028
2.48,0.002647056100414924
2.484,0.002643618302776611
2.488,0.0026862181448401782
2.492,0.002673236251660536
2.496,0.0026811455902829478
2.5,0.002695161226808376
2.504,0.002695858402553209
2.508,0.0026854248069236447
2.512,0.002672058265057198
2.516,0.002665158629237647
2.52,0.002667322278100921
2.524,0.002671361089312366
2.528,0.00267768375210171
2.532,0.0026797512387932826
2.536,0.002676409603326671
2.54,0.002677972238616813
2.544,0.002682828428287716
2.548,0.002677972238616813
2.552,0.002690112712794071
2.556,0.0027105471742805446
2.56,0.0026771789007002792
2.564,0.002647969641046084
2.568,0.002631501869142278
2.572,0.0026608313315110996
2.576,0.0026815542795126774
2.58,0.0026932379833743553
2.584,0.0026810253875683213
2.588,0.002667250156472145
2.592,0.0026646297372932915
2.596,0.0026716976569133195
2.6,0.0026802320496517877
2.604,0.002687035523299637
2.608,0.0026968440648131448
2.612,0.0027123502149999394
2.616,0.0026952573889800773
2.62,0.0026596293043648364
2.624,0.00267128896768359
2.628,0.002682083171457033
2.632,0.0026827563066589405
2.636,0.002699704889421251
2.64,0.00268818946936005
2.644,0.002670183102709027
2.648,0.0026755441437813616
2.652,0.002680448414538115
2.656,0.002671409170398216
2.66,0.0026787415359904214
2.664,0.0026827563066589405
2.668,0.0026796791171645067
2.672,0.0026802320496517877
2.676,0.0026828765093735666
2.68,0.002687468253072292
2.684,0.0026842227797773816
2.688,0.0026750152518370054
2.692,0.00266128810182668
2.696,0.0026766500087559235
2.7,0.002670183102709027
2.704,0.0026611678991120533
2.708,0.002682780347201866
2.712,0.0026953775916947038
2.716,0.0026792944684777024
2.72,0.002680400333452265
2.724,0.0027015560112264962
2.728,0.00270646028198325
2.732,0.0026954256727805543
2.736,0.0027009309571104393
2.74,0.0027109077824244237
2.744,0.002712326174457014
2.748,0.002690906050710605
2.7520000000000002,0.0026753758599808845
2.7560000000000002,0.0026754479816096604
2.7600000000000002,0.0026901607938799215
2.7640000000000002,0.002697132551328248
2.7680000000000002,0.002678501130561169
2.7720000000000002,0.0026634517506899536
2.7760000000000002,0.002647609032902205
2.7800000000000002,0.0026863143070118794
2.7840000000000003,0.0027200191481930986
2.7880000000000003,0.002718696918332209
2.7920000000000003,0.0027144417422344373
2.7960000000000003,0.0027311739601104212
2.8000000000000003,0.002740020879906918
2.8040000000000003,0.0027325923521430116
2.8080000000000003,0.0026995366056207742
2.8120000000000003,0.002692156158942718
2.816,0.002700257821908532
2.82,0.0026980941730452585
2.824,0.0026802320496517877
2.828,0.0026822995363433603
2.832,0.0026905214020238005
2.836,0.002699873173221728
2.84,0.002704272592577051
2.844,0.0027000414570222046
2.848,0.0026974450783862763
2.852,0.0027248272567781517
2.856,0.0027389630960182065
2.86,0.0027192017697336393
2.864,0.0027287218247320443
2.868,0.0027362465146676517
2.872,0.002715956296438729
2.876,0.002714153255719334
2.88,0.002708119079445093
2.884,0.002708623930846524
2.888,0.0027135282016032772
2.892,0.0027170140803274407
2.896,0.0027108356607956478
2.9,0.002707469984786111
2.904,0.002698887510961792
2.908,0.002699248119105671
2.912,0.002709297066048431
2.916,0.0027228078511724297
2.92,0.002730260419479261
2.924,0.002719778742763846
2.928,0.0026989355920476426
2.932,0.0027251878649220307
2.936,0.002745622326408505
2.94,0.0027362465146676517
2.944,0.0027305008249085137
2.948,0.0027280967706159874
2.952,0.0027255725136088346
2.956,0.0027202595536223516
2.96,0.002705739065695492
2.964,0.002709321106591356
2.968,0.0027169900397845154
2.972,0.0027214615807686147
2.976,0.002717038120870366
2.98,0.0027186007561605077
2.984,0.0027136484043179037
2.988,0.002698959632590568
2.992,0.002692035956228092
2.996,0.0026879250233878722
3.0,0.0027261494866390413
3.004,0.002731510527711375
3.008,0.0027246589729776746
3.012,0.002737184095841737
3.016,0.002743939488403736
3.02,0.00273107779793872
3.024,0.002719418134619967
3.028,0.002714321539519811
3.032,0.002715980336981654
3.036,0.002717999742587376
3.04,0.0027195142967916678
3.044,0.002721004810453035
3.048,0.0027195623778775184
3.052,0.002718071864216152
3.056,0.002714033053004708
3.06,0.0027044168358346028
3.064,0.0027061477549252216
3.068,0.0027338424603751254
3.072,0.002732616392685937
3.076,0.0027050178494077344
3.08,0.002702325308600105
3.084,0.0027561040031239196
3.088,0.002768100234043626
3.092,0.0027189373237614615
3.096,0.0027177352966151983
3.1,0.002724947459492778
3.104,0.0027164851883830846
3.108,0.0027132637556310994
3.112,0.002723601189088963
3.116,0.002722687648457803
3.12,0.0027220866348846716
3.124,0.002716124580239206
3.128,0.0027003780246231584
3.132,0.0027104269715659186
3.136,0.0027145379044061385
3.14,0.002707301700985634
3.144,0.0027303806221938873
3.148,0.0027579791654720903
3.152,0.0027507670025945113
3.156,0.0027367994471549327
3.16,0.00271148475545463
3.164,0.002726582216411696
3.168,0.0027464156643250384
3.172,0.002716244782953832
3.176,0.00271970662113507
3.18,0.0027244666486342726
3.184,0.0027257888784951623
3.188,0.0027264620136970693
3.192,0.0027284573787598665
3.196,0.002727038986727276
3.2,0.0027189373237614615
3.204,0.002712879106944295
3.208,0.0027212452158822875
3.212,0.002737087933670036
3.216,0.0027403574475078716
3.22,0.00272651009478292
3.224,0.0027331452846302926
3.228,0.002746752231925992
3.232,0.0027277602030150337
3.236,0.0027276159597574823
3.24,0.0027498775025062766
3.244,0.0027510554891096144
3.248,0.0027291545545046992
3.2520000000000002,0.0027294670815627272
3.2560000000000002,0.0027333135684307697
3.2600000000000002,0.002729899811335382
3.2640000000000002,0.0027348281226350613
3.2680000000000002,0.0027371600552988117
3.2720000000000002,0.0027202595536223516
3.2760000000000002,0.002696026686353686
3.2800000000000002,0.0027447328263202697
3.2840000000000003,0.0027609361522518976
3.2880000000000003,0.0027261975677248915
3.2920000000000003,0.0027191777291907145
3.2960000000000003,0.0027539163137177206
3.3000000000000003,0.002769206099018188
3.3040000000000003,0.002763436368716125
3.3080000000000003,0.002747858096900554
3.3120000000000003,0.002750382353907707
3.3160000000000003,0.002766176990609605
3.3200000000000003,0.0027380735959299718
3.3240000000000003,0.0027223751213997748
3.3280000000000003,0.0027324000277996097
3.332,0.0027293709193910265
3.336,0.0027063160387256983
3.34,0.002727231311070678
3.344,0.0027390592581899077
3.348,0.002725620594694685
3.352,0.0027291064734188486
3.356,0.002752858529829009
3.36,0.0027565848139824247
3.364,0.0027481465834156577
3.368,0.0027408863394522273
3.372,0.002735212771321865
3.376,0.002740117042078619
3.38,0.0027280967706159874
3.384,0.002724202202662095
3.388,0.0027410065421668538
3.392,0.002728433338216941
3.396,0.0027223751213997748
3.4,0.002726870702926799
3.404,0.0027319432574840295
3.408,0.0027304767843655884
3.412,0.002723745432346515
3.416,0.0027125184988004165
3.42,0.0027272553516136033
3.424,0.002747858096900554
3.428,0.002748435069930761
3.432,0.002764085463375107
3.436,0.002765167287806744
3.44,0.0027747835049768492
3.444,0.0027599504899919617
3.448,0.0027416075557399854
3.452,0.002746896475183544
3.456,0.0027543490434903755
3.46,0.002745285758807551
3.464,0.002744804947949045
3.468,0.0027469445562693946
3.472,0.002744804947949045
3.476,0.002749901543049202
3.48,0.0027507910431374366
3.484,0.0027437231235174085
3.488,0.002741463312482434
3.492,0.002732183662913282
3.496,0.0027325202305142357
3.5,0.002745550204779729
3.504,0.002753026813629486
3.508,0.0027551904624927596
3.512,0.0027629555578576196
3.516,0.0027839669923742996
3.52,0.0027704562072503017
3.524,0.002759710084562709
3.528,0.0027719226803687427
3.532,0.0027539884353464964
3.536,0.0027436510018886326
3.54,0.002742569177456996
3.544,0.0027494207321906963
3.548,0.0027605034224792427
3.552,0.0027566569356112006
3.556,0.002730260419479261
3.56,0.002721004810453035
3.564,0.0027458867723806827
3.568,0.002760046652163663
3.572,0.0027746392617192975
3.576,0.0027862268034092746
3.58,0.002772571775027725
3.584,0.0027680521529577754
3.588,0.002776153815923589
3.592,0.0027666818420110355
3.596,0.002775504721264607
3.6,0.002788919344216904
3.604,0.002780433032564286
3.608,0.0027510795296525397
3.612,0.002729322838305176
3.616,0.002734443473948257
3.62,0.002745357880436327
3.624,0.0027432663532018287
3.628,0.0027435067586310813
3.632,0.0027511756918242405
3.636,0.0027759855321231124
3.64,0.0027465839481255155
3.644,0.0027440116100325117
3.648,0.0027704562072503017
3.652,0.0027689656935889354
3.656,0.002782885167942663
3.66,0.0027941361420316868
3.664,0.002778509789130265
3.668,0.0027631238416580967
3.672,0.002734707919920435
3.676,0.0027284814193027918
3.68,0.0027315345682543003
3.684,0.0027481706239585826
3.688,0.0027710091397375827
3.692,0.002766729923096886
3.696,0.0027749277482344006
3.7,0.0027720909641692198
3.704,0.0027611284765952995
3.708,0.0027623785848274133
3.712,0.0027643739498902104
3.716,0.00275382015154602
3.72,0.0027541567191469735
3.724,0.002761248679309926
3.728,0.0027623305037415627
3.732,0.0027706966126795542
3.736,0.002787717317070641
3.74,0.002802213764454575
3.744,0.0027781010999005356
3.748,0.0027708648964800313
3.7520000000000002,0.0027590369493608016
3.7560000000000002,0.0027353089334935664
3.7600000000000002,0.0027230482566016822
3.7640000000000002,0.00275158438105397
3.7680000000000002,0.0027688454908743093
3.7720000000000002,0.0027772837214410768
3.7760000000000002,0.002759277354790054
3.7800000000000002,0.002766561639296409
3.7840000000000003,0.0027593975575046807
3.7880000000000003,0.0027623305037415627
3.7920000000000003,0.002766898206897363
3.7960000000000003,0.002781082127223268
3.8000000000000003,0.002791852290453786
3.8040000000000003,0.0027768990727542724
3.8080000000000003,0.0027802647487638094
3.8120000000000003,0.0028000501155913014
3.8160000000000003,0.0027854815465785912
3.8200000000000003,0.002770071558563498
3.8240000000000003,0.0027708648964800313
3.8280000000000003,0.0027781010999005356
3.8320000000000003,0.0027577147194999124
3.8360000000000003,0.0027453819209792524
3.84,0.002771201464080985
3.844,0.002771105301909284
3.848,0.002763195963286872
3.852,0.0027875249927272385
3.856,0.0027767307889537953
3.86,0.0027674511393846438
3.864,0.0027501659890213797
3.868,0.0027617775712542817
3.872,0.0027704562072503017
3.876,0.002769566707162067
3.88,0.0027636046525166017
3.884,0.0027702398423639744
3.888,0.002775528761807532
3.892,0.0027911791552518786
3.896,0.002785553668207367
3.9,0.0027702638829068997
3.904,0.0027777404917566566
3.908,0.002788486614444249
3.912,0.0027910589525372525
3.916,0.002828826645472842
3.92,0.002806396818923571
3.924,0.0027397323933918147
3.928,0.00275752239515651
3.932,0.0027646383958623883
3.936,0.002756344408553172
3.94,0.002765263449978445
3.944,0.0027686291259879816
3.948,0.00277168227493949
3.952,0.002766826085268587
3.956,0.0027593975575046807
3.96,0.002757955124929165
3.964,0.002745838691294832
3.968,0.002774855626605625
3.972,0.0027941121014887615
3.976,0.0028221914556254696
3.98,0.002843058646884598
3.984,0.002827528456154878
3.988,0.0027796396946477525
3.992,0.0027506948809657354
3.996,0.0027547096516342545
4.0,0.0027605755441080185
4.0040000000000004,0.002781490816452998
4.008,0.002789207830732007
4.0120000000000005,0.002788919344216904
4.016,0.002783438100429944
4.0200000000000005,0.0027756970456080093
4.024,0.002773942085974465
4.0280000000000005,0.0027542048002328237
4.032,0.002742761501800398
4.0360000000000005,0.002768316598929953
4.04,0.002783173654457766
4.0440000000000005,0.002793030277057124
4.048,0.0027937274528019567
4.0520000000000005,0.002781154248852044
4.056,0.0027701677207351985
4.0600000000000005,0.0027658404230086514
4.064,0.0027830534517431396
4.0680000000000005,0.0027864912493814524
4.072,0.0027730766264291557
4.0760000000000005,0.0027773077619840016
4.08,0.0027973335342407466
4.0840000000000005,0.002805555399921187
4.088,0.0027923571418552165
4.0920000000000005,0.002776586545696244
4.096,0.0027612967603957766
4.1,0.002781827384053951
4.104,0.0027883183306437725
4.108,0.002795001601576996
4.112,0.0028246676315467714
4.116,0.0028227443881127506
4.12,0.0028078392514990867
4.124,0.002802309926626276
4.128,0.0027931023986859
4.132,0.0027763461402669914
4.136,0.0027794954513902007
4.14,0.0027923571418552165
4.144,0.0027865633710102283
4.148,0.002788198127929146
4.152,0.002790193492991943
4.156,0.00279269370945617
4.16,0.0027969729260968676
4.164,0.002793871696059508
4.168,0.002787933681956968
4.172,0.002781418694824222
4.176,0.002777788572842507
4.18,0.0027875249927272385
4.184,0.002836038808350421
4.188,0.0028335866729720443
4.192,0.002832649091797959
4.196,0.0028543577020594714
4.2,0.0028121184681397836
4.204,0.0027742305724895683
4.208,0.0027799281811628556
4.212,0.0027912512768806545
4.216,0.0027973816153265972
4.22,0.0028034398321437636
4.224,0.0028048101430905035
4.228,0.0028060842918655425
4.232,0.0028037042781159415
4.236,0.0027966123179529886
4.24,0.0027859623574370967
4.244,0.00277762028904203
4.248,0.0027915157228528323
4.252,0.0028254609694633053
4.256,0.002855968418435464
4.26,0.0028521459721103475
4.264,0.0028267831993241945
4.268,0.002812767562798766
4.272,0.002780240708220884
4.276,0.0028048341836334287
4.28,0.0028060842918655425
4.284,0.0028044735754895497
4.288,0.00280127618328049
4.292,0.0027930062365141986
4.296,0.0027923571418552165
4.3,0.00279442462854679
4.304,0.0027971171693544194
4.308,0.002790289655163644
4.312,0.002793463006829779
4.316,0.0027955064529784266
4.32,0.0027919003715396367
4.324,0.0027985115208440845
4.328,0.002816085157722452
4.332,0.002844332795659637
4.336,0.0028559924589783895
4.34,0.0028394766059887337
4.344,0.002806468940552347
4.348,0.0027762499780952903
4.352,0.0027948813988623697
4.356,0.0028042572106032225
4.36,0.002803944683545194
4.364,0.0028079834947566384
4.368,0.0028058198458933647
4.372,0.0027913955201382063
4.376,0.0027791829243321723
4.38,0.0027818754651398017
4.384,0.002796468074695437
4.388,0.002801636791424369
4.392,0.002796444034152512
4.396,0.0027915397633957576
4.4,0.0028033436699720624
4.404,0.002828826645472842
4.408,0.002848179282527679
4.412,0.002864094121944203
4.416,0.002835774362378243
4.42,0.0027777164512137313
4.424,0.002774470977918821
4.428,0.002803680237573016
4.432,0.002819258509388587
4.436,0.002800002034505451
4.44,0.002772956423714529
4.444,0.002778678072930742
4.448,0.0027855777087502924
4.452,0.0027934149257439283
4.456,0.002806589143266973
4.46,0.0028129598871421677
4.464,0.002793126439228825
4.468,0.0027887270198735017
4.472,0.002807406521726432
4.476,0.002802934980742333
4.48,0.0028058679269792153
4.484,0.002816085157722452
4.488,0.0028181286038710994
4.492,0.0028285141184148134
4.496,0.0028313989835658453
4.5,0.0028213740771660103
4.5040000000000004,0.0028131522114855697
4.508,0.0027981749532431308
4.5120000000000005,0.0027929821959712733
4.516,0.0027923571418552165
4.5200000000000005,0.002801131940022938
4.524,0.002792212898597665
4.5280000000000005,0.002791852290453786
4.532,0.0028015165887097424
4.5360000000000005,0.0028018771968536214
4.54,0.0027979585883568035
4.5440000000000005,0.0027943765474609393
4.548,0.002792765831084946
4.5520000000000005,0.00280949804896093
4.556,0.0028160370766366015
4.5600000000000005,0.0028247397531755473
4.564,0.0028291632130737956
4.5680000000000005,0.0028225039826834976
4.572,0.0028166861712955837
4.5760000000000005,0.0028100750219911363
4.58,0.0028146908062327866
4.5840000000000005,0.0028030792239998846
4.588,0.0028065651027240476
4.5920000000000005,0.002817527590297968
4.596,0.0028170467794394623
4.6000000000000005,0.002801997399568248
4.604,0.002794977561034071
4.6080000000000005,0.002781250411023745
4.612,0.002785625789836143
4.616,0.002810724116650118
4.62,0.0028290189698162442
4.624,0.0028274803750690273
4.628,0.0028280333075563083
4.632,0.002815267779262993
4.636,0.0028003145615634792
4.64,0.002804786102547578
4.644,0.002825797537064259
4.648,0.0028262302668369136
4.652,0.002817383347040416
4.656,0.0028099067381906592
4.66,0.002804641859290027
4.664,0.002807166116297179
4.668,0.002810676035564268
4.672,0.0028074786433552076
4.676,0.002795193925920398
4.68,0.0027832698166294673
4.684,0.0027843997221469545
4.688,0.002804377413317849
4.692,0.0028353656731485138
4.696,0.002877244298924323
4.7,0.0028337309162295957
4.704,0.00278310153282899
4.708,0.0028173352659545655
4.712,0.0028203643743631495
4.716,0.0028226482259410494
4.72,0.002819763360790018
4.724,0.002823898334173163
4.728,0.0028277929021270558
4.732,0.0028226001448551988
4.736,0.0028282256318997103
4.74,0.0028244753072033694
4.744,0.0028176958740984445
4.748,0.0028198595229617187
4.752,0.0028161332388083023
4.756,0.002812166549225634
4.76,0.0028135609007152993
4.764,0.0028380582139561432
4.768,0.0028526267829688525
4.772,0.002865560595062644
4.776,0.0028341155649164
4.78,0.002809690373304332
4.784,0.0028149792927478897
4.788,0.0028203643743631495
4.792,0.002835846484007019
4.796,0.002855679931920361
4.8,0.0028602716756190865
4.804,0.0028351973893480367
4.808,0.00280995481927651
4.812,0.002811445332937876
4.816,0.0028191863877598117
4.82,0.0028191623472168864
4.824,0.0028280573480992336
4.828,0.0028471214986389676
4.832,0.0028154841441493206
4.836,0.0027972614126119707
4.84,0.0028297882671898525
4.844,0.002832552929626258
4.848,0.002834524254146129
4.852,0.0028275765372407285
4.856,0.0028338751594871475
4.86,0.0028494774718456433
4.864,0.0028599831891039833
4.868,0.002857290648296354
4.872,0.002837673565269339
4.876,0.0028251003613194263
4.88,0.002829619983389376
4.884,0.0028337309162295957
4.888,0.0028361830516079726
4.892,0.0028354137542343644
4.896,0.00283502910554756
4.9,0.002845102093033245
4.904,0.0028214702393377115
4.908,0.002782716884142186
4.912,0.002795626655693053
4.916,0.0028468330121238644
4.92,0.002853227796541984
4.924,0.0028378178085268907
4.928,0.002840534389877445
4.932,0.00283320202428524
4.936,0.002821229833908459
4.94,0.0028268553209529704
4.944,0.0028346925379466063
4.948,0.0028408228763925486
4.952,0.002840894998021324
4.956,0.0028380582139561432
4.96,0.00283594264617872
4.964,0.0028377937679839654
4.968,0.002829571902303525
4.972,0.0028187296174442314
4.976,0.0027917080471962347
4.98,0.002793751493344882
4.984,0.0028226963070269
4.988,0.002839164078930705
4.992,0.002850847782792383
4.996,0.002849525552931494
5.0,0.0028471695797248177
5.0040000000000004,0.0028304854429346852
5.008,0.002817743955184295
5.0120000000000005,0.0028176958740984445
5.016,0.0028189459823305587
5.0200000000000005,0.002823537726029284
5.024,0.0028271438074680736
5.0280000000000005,0.0028282256318997103
5.032,0.002834956983918784
5.0360000000000005,0.0028284660373289632
5.04,0.002817623752469669
5.0440000000000005,0.00280127618328049
5.048,0.002811301089680325
5.0520000000000005,0.0028426259171119433
5.056,0.002835774362378243
5.0600000000000005,0.0028131041303997195
5.064,0.002826470672266166
5.0680000000000005,0.0028413036872510537
5.072,0.0028372648760396093
5.0760000000000005,0.002833033740484763
5.08,0.0028302209969625074
5.0840000000000005,0.0028295478617606
5.088,0.0028339713216588482
5.0920000000000005,0.002825629253263782
5.096,0.002828994929273319
5.1000000000000005,0.002833754956772521
5.104,0.002827167848010999
5.1080000000000005,0.002823177117885405
5.112,0.002814450400803534
5.1160000000000005,0.0028081758191000404
5.12,0.0027985115208440845
5.124,0.002804665899832952
5.128,0.002826278347922764
5.132,0.002847289782439444
5.136,0.002858684999786019
5.14,0.002863445027285221
5.144,0.002850775661163607
5.148,0.0028480831203559777
5.152,0.002840486308791595
5.156,0.00282635046955154
5.16,0.0028276246183265787
5.164,0.00283594264617872
5.168,0.00283731295712546
5.172,0.0028323125241970053
5.176,0.0028339953622017735
5.18,0.0028357984029211683
5.184,0.0028293314968742727
5.188,0.0028194508337319895
5.192,0.0028159649550078257
5.196,0.0028319519160531262
5.2,0.0028283458346143367
5.204,0.0028234175233146576
5.208,0.0028338992000300728
5.212,0.0028538768912009663
5.216,0.0028575550942685317
5.22,0.002833129902656464
5.224,0.002825340766748679
5.228,0.002850439093562654
5.232,0.0028448376470610673
5.236,0.002834956983918784
5.24,0.0028293074563313474
5.244,0.002828105429185084
5.248,0.002841976822452961
5.252,0.0028452222957478716
5.256,0.002835654159663617
5.26,0.0028207490230499534
5.264,0.0028304373618488346
5.268,0.0028297882671898525
5.272,0.002821422158251861
5.276,0.002833682835143745
5.28,0.0028420970251675872
5.284,0.002864647054431484
5.288,0.0028904425569902924
5.292,0.0028778693530403794
5.296,0.0028305816051063864
5.3,0.0028186094147296045
5.304,0.002833394348628642
5.308,0.0028445732010888894
5.312,0.0028386832680722
5.316,0.0028354377947772892
5.32,0.0028392602411024064
5.324,0.002842313390053915
5.328,0.002836976389524506
5.332,0.002831230699765368
5.336,0.002824908036976024
5.34,0.0028229126719132272
5.344,0.0028279611859275324
5.348,0.002820172050019747
5.352,0.0028182007254998753
5.356,0.0028204124554489997
5.36,0.002837529322011787
5.364,0.002841976822452961
5.368,0.002857146405038802
5.372,0.0028544298236882473
5.376,0.002839765092503837
5.38,0.0028408469169354735
5.384,0.0028610409729926947
5.388,0.002881643718279646
5.392,0.002847914836555501
5.396,0.002830100794247881
5.4,0.002837697605812264
5.404,0.0028479388770984264
5.408,0.0028471455391818924
5.412,0.0028461117958361063
5.416,0.0028431307685133737
5.42,0.002839500646531659
5.424,0.0028489726204442125
5.428,0.0028341155649164
5.432,0.0028504150530197286
5.436,0.002892630246396492
5.44,0.002898568260499032
5.444,0.002849381309673942
5.448,0.0028352454704338873
5.452,0.002856112661693016
5.456,0.002869383041387762
5.46,0.0028656807977772707
5.464,0.002854141337173144
5.468,0.0028497659583607464
5.472,0.002831999997138977
5.476,0.0028288987671016177
5.48,0.0028198595229617187
5.484,0.002821422158251861
5.488,0.0028415440926803062
5.492,0.002847289782439444
5.496,0.002856401148208119
5.5,0.002852674864054703
5.5040000000000004,0.002859141770101599
5.508,0.0028725083119680458
5.5120000000000005,0.0028745998392025436
5.516,0.002880994623620664
5.5200000000000005,0.0028660173653782244
5.524,0.002840221862819417
5.5280000000000005,0.0028373850787542358
5.532,0.0028480590798130524
5.5360000000000005,0.002872460230882195
5.54,0.0028710177983066795
5.5440000000000005,0.002846424322894135
5.548,0.002842649957654868
5.5520000000000005,0.002838587105900499
5.556,0.002834019402744699
5.5600000000000005,0.0028339713216588482
5.564,0.002850270809762177
5.5680000000000005,0.0028626516893686875
5.572,0.0028426259171119433
5.5760000000000005,0.0028405824709632956
5.58,0.0028422893495109896
5.5840000000000005,0.002857482972639756
5.588,0.0028729410417407007
5.5920000000000005,0.002872460230882195
5.596,0.0028564492292939697
5.6000000000000005,0.0028368081057240295
5.604,0.002833490510800343
5.6080000000000005,0.0028503188908480274
5.612,0.0028834467589990407
5.6160000000000005,0.00285741085101098
5.62,0.002827600577783654
5.6240000000000006,0.0028374572003830117
5.628,0.0028464724039799854
5.632,0.00284827544469938
5.636,0.0028570502428671013
5.64,0.0028496697961890452
5.644,0.0028511603098504115
5.648,0.0028483235257852307
5.652,0.0028375774030976377
5.656,0.0028424816738543916
5.66,0.0028683012169561247
5.664,0.0028686377845570784
5.668,0.0028768356096945933
5.672,0.002874623879745469
5.676,0.0028599351080181327
5.68,0.002857290648296354
5.684,0.002848900498815437
5.688,0.002838514984271723
5.692,0.0028488764582725117
5.696,0.0028647432166031854
5.7,0.002862243000138958
5.704,0.002863589270542773
5.708,0.002861906432538004
5.712,0.0028581801483845886
5.716,0.0028479629176413517
5.72,0.002840221862819417
5.724,0.0028668587843806085
5.728,0.0028824370561961795
5.732,0.0028759220690634333
5.736,0.0028564492292939697
5.74,0.0028607524864775915
5.744,0.002874070947258188
5.748,0.002857146405038802
5.752,0.0028452944173766475
5.756,0.0028512324314791874
5.76,0.002861786229823378
5.764,0.00286289209479794
5.768,0.002856401148208119
5.772,0.0028565453914656705
5.776,0.0028509439449640843
5.78,0.0028434913766572528
5.784,0.002841688335937858
5.788,0.00283594264617872
5.792,0.002830749888906863
5.796,0.002832576970169183
5.8,0.0028620025947097053
5.804,0.002888783759528449
5.808,0.0029099634778456066
5.812,0.0029041937475435434
5.816,0.0028833265562844142
5.82,0.002850823742249458
5.824,0.0028514487963655147
5.828,0.0028533479992566106
5.832,0.002851280512565038
5.836,0.0028654884734338683
5.84,0.002868060811526872
5.844,0.0028614737027653496
5.848,0.0028496938367319705
5.852,0.002846712809409238
5.856,0.002855968418435464
5.86,0.0028573868104680546
5.864,0.0028384669031858724
5.868,0.0028461839174648822
5.872,0.00285969470258888
5.876,0.002889769421788385
5.88,0.002886572029579325
5.884,0.002863084419141342
5.888,0.002868205054784424
5.892,0.002859334094445001
5.896,0.002851665161251842
5.9,0.002866377973522103
5.904,0.0028715947713368857
5.908,0.0028743834743162164
5.912,0.002884216056372649
5.916,0.0028763067177502376
5.92,0.0028489245393583623
5.924,0.0028507997017065325
5.928,0.002845102093033245
5.932,0.002841616214309082
5.936,0.002843996228058683
5.94,0.0028429384441699714
5.944,0.0028614015811365737
5.948,0.002872267906538793
5.952,0.0028847689888599304
5.956,0.0028916205435936303
5.96,0.0028955872331762993
5.964,0.0028860912187208196
5.968,0.0028865239484934745
5.972,0.002864647054431484
5.976,0.0028592619728162252
5.98,0.0028761143934068352
5.984,0.0028529633505698063
5.988,0.0028368081057240295
5.992,0.002846929174295565
5.996,0.0028533479992566106
6.0,0.0028459435120356293
6.0040000000000004,0.002840269943905267
6.008,0.002848636052843259
6.0120000000000005,0.0028608967297351433
6.016,0.0028618343109092286
6.0200000000000005,0.0028619304730809294
6.024,0.0028720275011095407
6.0280000000000005,0.002901597368907615
6.032,0.002907727707353557
6.0360000000000005,0.002884167975286799
6.04,0.0028645989733456336
6.0440000000000005,0.0028773885421818743
6.048,0.0028696955684457902
6.0520000000000005,0.002850847782792383
6.056,0.0028556558913774358
6.0600000000000005,0.002867820406097619
6.064,0.0028790473396437177
6.0680000000000005,0.0028711139604783806
6.072,0.0028715466902510356
6.0760000000000005,0.002884288178001425
6.08,0.002885850813291567
6.0840000000000005,0.002877268339467248
6.088,0.002871763055137363
6.0920000000000005,0.00287791743412623
6.096,0.002887028799894905
6.1000000000000005,0.0028935197464847267
6.104,0.0029121271267088804
6.1080000000000005,0.002932657750367055
6.112,0.0028894568947303565
6.1160000000000005,0.002856112661693016
6.12,0.002855752053549137
6.1240000000000006,0.0028523623369966747
6.128,0.0028634690678281463
6.132000000000001,0.002866065446464075
6.136,0.002850294850305102
6.140000000000001,0.002817623752469669
6.144,0.0028453424984624977
6.148,0.0028823168534815534
6.152,0.0029075594235530803
6.156,0.0029100836805602327
6.16,0.002904794761116675
6.164,0.0029056842612049097
6.168,0.002899505841673117
6.172,0.0028990009902716864
6.176,0.0029086893290705676
6.18,0.0029295084392438457
6.184,0.002925974479433832
6.188,0.0028837112049712186
6.192,0.002875080650061049
6.196,0.002877532785439426
6.2,0.0028612092567931718
6.204,0.0028592379322733
6.208,0.0028594542971596276
6.212,0.0028717390145944375
6.216,0.0028898175028742356
6.22,0.0028874134485817092
6.224,0.0028852497997184355
6.228,0.0028850815159179584
6.232,0.002881643718279646
6.236,0.0028802012857041303
6.24,0.002885778691662791
6.244,0.0028932553005125484
6.248,0.0028986403821278078
6.252,0.0028969094630371885
6.256,0.0028981836118122275
6.26,0.0028899377055888616
6.264,0.0028892886109298794
6.268,0.0028825812994537313
6.272,0.002877725109782828
6.276,0.002890057908303488
6.28,0.0028566896347232223
6.284,0.0028449338092327685
6.288,0.0028583484321850652
6.292,0.002879552191045148
6.296,0.002894649652002214
6.3,0.002899866449816996
6.304,0.002901068476963259
6.308,0.002901020395877409
6.312,0.0028946977330880645
6.316,0.002899842409274071
6.32,0.002903977382657216
6.324,0.002905515977404433
6.328,0.002905155369260554
6.332,0.0029138820863424245
6.336,0.002905996788262938
6.34,0.0028778933935833047
6.344,0.0028752248933186005
6.348,0.00286923879813021
6.352,0.00287106587939253
6.356,0.0028823168534815534
6.36,0.0028949621790602424
6.364,0.0028816917993654966
6.368,0.0028780376368408565
6.372,0.0028805138127621587
6.376,0.002880105123532429
6.38,0.0028874134485817092
6.384,0.0028961401656635802
6.388,0.002897582598239096
6.392,0.002895274706118271
6.396,0.0029076796262677063
6.4,0.002919146965243057
6.404,0.002920204749131769
6.408,0.002908905693956895
6.412,0.0028997462471023697
6.416,0.0028705610279910997
6.42,0.0028604880405054137
6.424,0.002872412149796345
6.428,0.002889144367672328
6.432,0.002903881220485515
6.436,0.002894914097974392
6.44,0.0028801532046182797
6.444,0.0029008280715340064
6.448,0.002896861381951338
6.452,0.002887389408038784
6.456,0.0028928706518257445
6.46,0.0028988086659282844
6.464,0.002898303814526854
6.468,0.0028940726789720077
6.472,0.0028960920845777297
6.476,0.0029023907068241486
6.48,0.0029178728164680184
6.484,0.0029161899784632497
6.488,0.0029221039520228643
6.492,0.0029122473294235065
6.496,0.0028973421928098434
6.5,0.002892437922053089
6.5040000000000004,0.002881451393936244
6.508,0.0028699840549608934
6.5120000000000005,0.002877989555755006
6.516,0.0028814033128503934
6.5200000000000005,0.0028910195300204987
6.524,0.0028922696382526125
6.5280000000000005,0.0029011886796778854
6.532,0.00290116463913496
6.5360000000000005,0.002890755084048321
6.54,0.0028932793410554737
6.5440000000000005,0.0029055640584902836
6.548,0.002904722639487899
6.5520000000000005,0.002906429518035593
6.556,0.002909146099386148
6.5600000000000005,0.002904602436773273
6.564,0.002910203883274859
6.5680000000000005,0.0029175122083241393
6.572,0.0029175843299529152
6.5760000000000005,0.002923065573739875
6.58,0.0029116943969362255
6.5840000000000005,0.002878542488242287
6.588,0.0028583484321850652
6.5920000000000005,0.002859887026932282
6.596,0.0028743834743162164
6.6000000000000005,0.0028859710160061935
6.604,0.0028876298134680365
6.6080000000000005,0.0028960920845777297
6.612,0.002906886288351173
6.6160000000000005,0.0029068622478082475
6.62,0.002901861814879793
6.6240000000000006,0.002902631112253401
6.628,0.0029041937475435434
6.632000000000001,0.0029084970047271656
6.636,0.0029073190181238277
6.640000000000001,0.0028993615984155654
6.644,0.0028965728954362347
6.648000000000001,0.00290248686899585
6.652,0.0029004674633901274
6.656000000000001,0.002889985786674712
6.66,0.0028763547988360882
6.664,0.0028713062848217826
6.668,0.002885562326776464
6.672,0.002866810703294758
6.676,0.0028586369187001684
6.68,0.0028814033128503934
6.684,0.002885778691662791
6.688,0.002905083247631778
6.692,0.0029044101124298706
6.696,0.0028960680440348044
6.7,0.0029090499372144466
6.704,0.002908280639840838
6.708,0.002909146099386148
6.712,0.002924267600886138
6.716,0.0029403507241031394
6.72,0.002931624007021269
6.724,0.0029050351665459275
6.728,0.0028788790558432406
6.732,0.0028799608802748777
6.736,0.002885490205147688
6.74,0.002888783759528449
6.744,0.0029018137337939423
6.748,0.0029032321258265327
6.752,0.002881162907421141
6.756,0.0028867403133798018
6.76,0.002898952909185836
6.764,0.0029240993170856614
6.768,0.002932032696250998
6.772,0.0029173439245236622
6.776,0.0029246762901158677
6.78,0.0029190988841572064
6.784,0.002900034733617473
6.788,0.0028959478413201783
6.792,0.0028932072194266982
6.796,0.0028961401656635802
6.8,0.0028985201794131813
6.804,0.002904722639487899
6.808,0.0029191229247001317
6.812,0.002936384034520471
6.816,0.0029335232099123643
6.82,0.002896957544123039
6.824,0.0028830861508551617
6.828,0.002890875286762947
6.832,0.002927801560696152
6.836,0.0029283064120975825
6.84,0.0029299411690165
6.844,0.0029139782485141257
6.848,0.0029062371936921906
6.852,0.002904530315144497
6.856,0.002898231692898078
6.86,0.002900227057960875
6.864,0.0029050351665459275
6.868,0.0029110453022772433
6.872,0.002914843708059435
6.876,0.0029192912085006088
6.88,0.002924964776630971
6.884,0.0029129685457112645
6.888,0.002888591435185047
6.892,0.0028973421928098434
6.896,0.0029082325587549878
6.9,0.00288563444840524
6.904,0.0028919811517375093
6.908,0.0028983518956127046
6.912,0.002900683828276455
6.916,0.0029019098959656435
6.92,0.002904602436773273
6.924,0.0028977028009537224
6.928,0.0029140022890570506
6.932,0.00290796811278281
6.936,0.002905515977404433
6.94,0.002901501206735914
6.944,0.002903809098856739
6.948,0.002908376802012539
6.952,0.002904049504285992
6.956,0.0028990009902716864
6.96,0.002897750882039573
6.964,0.002907895991154034
6.968,0.0029163342217208015
6.972,0.0029068382072653222
6.976,0.002911381869878197
6.98,0.0029103000454465604
6.984,0.0028970777468376656
6.988,0.002884841110488706
6.992,0.0028702485009330712
6.996,0.002880369569504607
7.0,0.002883374637370265
7.0040000000000004,0.0028916205435936303
7.008,0.002900515544475978
7.0120000000000005,0.0028948179358026906
7.016,0.002898688463213658
7.0200000000000005,0.0029073670992096783
7.024,0.0029136657214560973
7.0280000000000005,0.0029103721670753363
7.032,0.0029146994648018834
7.0360000000000005,0.0029169592758368583
7.04,0.0029075594235530803
7.0440000000000005,0.002918233424611897
7.048,0.002919243127414758
7.0520000000000005,0.0029096990318734288
7.056,0.0029048428422025255
7.0600000000000005,0.002900876152619857
7.064,0.002901717571622241
7.0680000000000005,0.002912487734852759
7.072,0.002902510909538775
7.0760000000000005,0.0029158293703193706
7.08,0.0029223443574521173
7.0840000000000005,0.0028970056252088897
7.088,0.002899265436243864
7.0920000000000005,0.0029016694905363905
7.096,0.002903424450169935
7.1000000000000005,0.002913761883627798
7.104,0.002922152033108715
7.1080000000000005,0.002922031830394089
7.112,0.0029158293703193706
7.1160000000000005,0.0029128243024537127
7.12,0.0029093143831866244
7.1240000000000006,0.0029056121395761338
7.128,0.0029089537750427454
7.132000000000001,0.0029126079375673855
7.136,0.0029087614506993435
7.140000000000001,0.0029046745584020484
7.144,0.002920781722161975
7.148000000000001,0.0029202768707605447
7.152,0.0028970777468376656
7.156000000000001,0.002896380571092833
7.16,0.0029042177880864686
7.164000000000001,0.0029178728164680184
7.168,0.0029234742629696046
7.172,0.002928907425670714
7.176,0.0029156130054330434
7.18,0.002913281072769293
7.184,0.002921238492477555
7.188,0.0029213586951921814
7.192,0.002918497870584075
7.196,0.0029152764378320897
7.2,0.0029169592758368583
7.204,0.0029172958434378117
7.208,0.002924700330658793
7.212,0.002910179842731934
7.216,0.0029133291538551436
7.22,0.0029411681025625983
7.224,0.002939196778042727
7.228,0.0029092422615578485
7.232,0.0029063093153209665
7.236,0.00288613929980667
7.24,0.0028771962178384724
7.244,0.002911117423906019
7.248,0.002932465426023653
7.252,0.002941336386363075
7.256,0.0029341723045713465
7.26,0.0029277534796103015
7.264,0.0029287872229560876
7.268,0.002926070641605533
7.272,0.002926166803777234
7.276,0.0029350858452025065
7.28,0.0029280179255824794
7.284,0.002907895991154034
7.288,0.0029072949775809025
7.292,0.002937586061666734
7.296,0.0029525633199091734
7.3,0.0029345088721723003
7.304,0.002913281072769293
7.308,0.002889120327129403
7.312,0.002891308016535602
7.316,0.0029051794098034793
7.32,0.002926166803777234
7.324,0.0029259263983479815
7.328,0.002926888020064992
7.332,0.0029249166955451203
7.336,0.002923522344055455
7.34,0.002920204749131769
7.344,0.0029187863570991784
7.348,0.002917776654296317
7.352,0.0029168150325793066
7.356,0.0029149639107740612
7.36,0.0029180170597255697
7.364,0.002938042831982314
7.368,0.002953044130767679
7.372,0.002949678454758142
7.376,0.002927537114723974
7.38,0.0029147715864306593
7.384,0.00291938737067231
7.388,0.002920709600533199
7.392,0.0029357349398614887
7.396,0.002942730737852741
7.4,0.002934220385657197
7.404,0.002939413142929054
7.408,0.0029386198050125206
7.412,0.0029336193720840655
7.416,0.002934580993801076
7.42,0.002937946669810613
7.424,0.002937297575151631
7.428,0.002939052534785175
7.432,0.002952250792851145
7.436,0.0029548471714870737
7.44,0.002940326683560214
7.444,0.0029285948986126856
7.448,0.002935133926288357
7.452,0.0029570108203503475
7.456,0.002938211115782791
7.46,0.002908376802012539
7.464,0.0029023185851953727
7.468,0.0029270322633225434
7.472,0.002952875846967202
7.476,0.0029643431859425525
7.48,0.002970016754072915
7.484,0.002960737104503763
7.488,0.002942105683736684
7.492,0.002938691926641296
7.496,0.002952058468507743
7.5,0.002951697860363864
7.5040000000000004,0.0029297728852160235
7.508,0.0029153485594608656
7.5120000000000005,0.0029302056149886784
7.516,0.0029344127100005995
7.5200000000000005,0.0029443414542287337
7.524,0.0029749931464584448
7.5280000000000005,0.0029856911880601867
7.532,0.002944197210971182
7.5360000000000005,0.0029213106141063308
7.54,0.0029136657214560973
7.5440000000000005,0.002909650950787578
7.548,0.002937297575151631
7.5520000000000005,0.0029548471714870737
7.556,0.002935133926288357
7.5600000000000005,0.002928354493183433
7.564,0.002914386937743855
7.5680000000000005,0.002907270937037977
7.572,0.0029295565203296963
7.5760000000000005,0.002943307710882947
7.58,0.0029449665083447906
7.5840000000000005,0.0029448943867160147
7.588,0.0029466974274354094
7.5920000000000005,0.002951289171134135
7.596,0.002947586927523644
7.6000000000000005,0.002948139860010925
7.604,0.0029445097380292103
7.6080000000000005,0.0029485485492406547
7.612,0.002950327549417124
7.6160000000000005,0.0029203970734751707
7.62,0.002904073544828917
7.6240000000000006,0.002905515977404433
7.628,0.0029139782485141257
7.632000000000001,0.0029230415331969496
7.636,0.0029326817909099802
7.640000000000001,0.0029464329814632316
7.644,0.0029506881575610032
7.648000000000001,0.0029404949673606908
7.652,0.0029435961973980503
7.656000000000001,0.0029406392106182426
7.66,0.0029424182107947124
7.664000000000001,0.0029466253058066335
7.668,0.002958092644781984
7.672000000000001,0.0029570348608932723
7.676,0.0029400862781309616
7.68,0.0029314557232207918
7.684,0.0029378264670959866
7.688,0.002944774184001388
7.692,0.0029054678963185824
7.696,0.002901957977051494
7.7,0.002923786790027633
7.704,0.0029286670202414615
7.708,0.002925685992918729
7.712,0.002926791857893291
7.716,0.0029375379805808835
7.72,0.002942273967537161
7.724,0.0029306623853042582
7.728,0.002914026329599976
7.732,0.002916670789321755
7.736,0.002933643412626991
7.74,0.0029509285629902558
7.744,0.002956818496006945
7.748,0.0029434279135975737
7.752,0.002935855142576115
7.756,0.0029444376164004344
7.76,0.002938836169898848
7.764,0.0029346290748869268
7.768,0.002938980413156399
7.772,0.0029457117651754735
7.776,0.002932465426023653
7.78,0.0029334991693694395
7.784,0.0029315759259354182
7.788,0.0029295565203296963
7.792,0.002953861509227138
7.796,0.002931095115076913
7.8,0.0028946015709163633
7.804,0.002921238492477555
7.808,0.002937129291351154
7.812,0.002930085412274052
7.816,0.0029298450068447994
7.82,0.002938331318497417
7.824,0.002955496266146056
7.828,0.00296044861798866
7.832,0.002954726968772447
7.836,0.002943740440655602
7.84,0.002940663251161168
7.844,0.00293765818329551
7.848,0.0029449665083447906
7.852,0.002946505103092007
7.856,0.0029494380493288895
7.86,0.002945038629973566
7.864,0.002945279035402819
7.868,0.0029559289959187104
7.872,0.002957900320438582
7.876,0.0029328019936246067
7.88,0.00293491756140203
7.884,0.002918738276013328
7.888,0.0028824370561961795
7.892,0.0028902261921039648
7.896,0.002943500035226349
7.9,0.002965665415803442
7.904,0.002945567521917922
7.908,0.0029397256699870825
7.912,0.002946457022006157
7.916,0.002954438482257344
7.92,0.002951866144164341
7.924,0.002954246157913942
7.928,0.002947562886980719
7.932,0.00294765904915242
7.936,0.0029458800489759506
7.94,0.0029469137923217367
7.944,0.0029484283465260283
7.948,0.002964823996801058
7.952,0.002994465986227908
7.956,0.0029732381868249006
7.96,0.0029037129366850383
7.964,0.002906525680207294
7.968,0.002925397506403626
7.972,0.002956890617635721
7.976,0.0029367206021214246
7.98,0.0029051313287176287
7.984,0.002918137262440196
7.988,0.0029320807773368486
7.992,0.002939220818585652
7.996,0.0029338838180562434
8.0,0.0029335232099123643
8.004,0.0029401343592168117
8.008000000000001,0.0029393650618432035
8.012,0.0029389323320705486
8.016,0.002941432548534776
8.02,0.002949317846614263
8.024000000000001,0.002962131455993428
8.028,0.002960737104503763
8.032,0.002935903223661966
8.036,0.002930446020417931
8.040000000000001,0.002947226319379765
8.044,0.0029348213992303287
8.048,0.002946192576033979
8.052,0.002957732036638105
8.056000000000001,0.0029486447114123555
8.06,0.002947394603180242
8.064,0.00294674550852126
8.068,0.0029401824403026623
8.072000000000001,0.002941023859305047
8.076,0.0029483562248972524
8.08,0.002958092644781984
8.084,0.0029649922806015347
8.088000000000001,0.002963453685854318
8.092,0.002971555348820132
8.096,0.0029912926345617733
8.1,0.002967011686207257
8.104000000000001,0.0029309027907335108
8.108,0.002935278169545909
8.112,0.002944990548887716
8.116,0.0029388121293559225
8.120000000000001,0.0029387400077271466
8.124,0.0029247484117446436
8.128,0.002927825601239077
8.132,0.0029167909920363813
8.136000000000001,0.002930734506933034
8.14,0.002939389102386129
8.144,0.0029527316037096505
8.148,0.002953717265969586
8.152000000000001,0.002961025591018866
8.156,0.0029707860514465237
8.16,0.0029718197947923098
8.164,0.002966194307747798
8.168000000000001,0.0029576599150093292
8.172,0.002956722333835244
8.176,0.002952346955022846
8.18,0.0029511930089624336
8.184000000000001,0.002979681052328871
8.188,0.0029897780803574817
8.192,0.002945134792145267
8.196,0.002924243560343213
8.2,0.0029306143042184076
8.204,0.0029487889546699073
8.208,0.002918666154384552
8.212,0.0029152764378320897
8.216,0.0029322490611373257
8.22,0.0029671078483789583
8.224,0.0029704975649314205
8.228,0.0029370571697223784
8.232,0.0029276092363527497
8.236,0.002930830669104735
8.24,0.002937297575151631
8.244,0.002946384900377381
8.248,0.0029502794683312736
8.252,0.0029511689684195083
8.256,0.002941336386363075
8.26,0.002935109885745432
8.264,0.0029332587639401865
8.268,0.002949966941273245
8.272,0.0029615304424202966
8.276,0.002954991414744625
8.28,0.0029591504286706955
8.284,0.0029771327547787932
8.288,0.0029545346444290453
8.292,0.0029306623853042582
8.296,0.0029428749811102927
8.3,0.0029546788876865966
8.304,0.002958357090754162
8.308,0.002947370562637317
8.312,0.002946673386892484
8.316,0.002945182873231118
8.32,0.0029388121293559225
8.324,0.0029444376164004344
8.328,0.0029545586849719706
8.332,0.0029575637528376285
8.336,0.0029600639693018556
8.34,0.0029569386987215716
8.344,0.0029613381180768946
8.348,0.002945279035402819
8.352,0.00296227569925098
8.356,0.0029917013237915025
8.36,0.002972925659766872
8.364,0.002931359561049091
8.368,0.0029243156819719887
8.372,0.0029379707103535384
8.376,0.0029555683877748313
8.38,0.00296501632114446
8.384,0.0029742719301706867
8.388,0.002975762443832053
8.392,0.0029587417394409663
8.396,0.002947009954493438
8.4,0.0029476350086094947
8.404,0.0029467935896071106
8.408,0.002947226319379765
8.412,0.002964583591371805
8.416,0.00297456041668579
8.42,0.0029636460101977197
8.424,0.0029592225502994714
8.428,0.0029448703461730894
8.432,0.002933835736970393
8.436,0.002946577224720783
8.44,0.002966434713177051
8.444,0.0029519142252501913
8.448,0.0029425864945951895
8.452,0.0029494620898718148
8.456,0.002943019224367844
8.46,0.002971098578504552
8.464,0.002975089308630146
8.468,0.002965857740146844
8.472,0.0029637662129123462
8.476,0.0029668674429497058
8.48,0.0029703292811309435
8.484,0.002972997781395648
8.488,0.002959751442243827
8.492,0.002943163467625396
8.496,0.002939244859128577
8.5,0.002946577224720783
8.504,0.002957924360981507
8.508000000000001,0.0029456156030037723
8.512,0.0029400622375880363
8.516,0.002950664117018078
8.52,0.002961025591018866
8.524000000000001,0.002942538413509339
8.528,0.002931648047564194
8.532,0.0029474667248090176
8.536,0.002943668319026826
8.540000000000001,0.0029454232786603704
8.544,0.0029541259551993156
8.548,0.002960376496359884
8.552,0.0029597995233296777
8.556000000000001,0.002967011686207257
8.56,0.0029711947406762533
8.564,0.0029758826465466795
8.568,0.0029839362284266426
8.572000000000001,0.0029789598360411133
8.576,0.002921142330305854
8.58,0.002930734506933034
8.584,0.0029419373999362074
8.588000000000001,0.002935494534432236
8.592,0.002949317846614263
8.596,0.002947154197750989
8.6,0.0029241233576285867
8.604000000000001,0.0029339799802279446
8.608,0.0029407113322470185
8.612,0.0029357108993185634
8.616,0.0029455915624608474
8.620000000000001,0.002962347820879756
8.624,0.0029560011175474863
8.628,0.0029391486969568763
8.632,0.0029484283465260283
8.636000000000001,0.002966026023947321
8.64,0.002970305240588018
8.644,0.002973550713882929
8.648,0.0029749931464584448
8.652000000000001,0.002980233984816152
8.656,0.0029462646976627545
8.66,0.0029233059791691275
8.664,0.002917392005609513
8.668000000000001,0.0029296767230443223
8.672,0.002930638344761333
8.676,0.0029274890336381237
8.68,0.0029403747646460647
8.684000000000001,0.002953813428141287
8.688,0.0029383793995832676
8.692,0.0029396295078153814
8.696,0.002925397506403626
8.700000000000001,0.0029173439245236622
8.704,0.002941336386363075
8.708,0.002940230521388513
8.712,0.0029403747646460647
8.716,0.0029520825090506683
8.72,0.002958717698898041
8.724,0.0029539095903129884
8.728,0.002956530009491842
8.732,0.002954919293115849
8.736,0.002965376929288339
8.74,0.0029892011073272755
8.744,0.0029801618631873764
8.748,0.002953813428141287
8.752,0.0029499188601873946
8.756,0.00292623892540601
8.76,0.002925710033461654
8.764,0.0029342444262001224
8.768,0.0029639825777986735
8.772,0.0029744882950570144
8.776,0.0029409998187621216
8.78,0.0029200845464171423
8.784,0.002918954640899655
8.788,0.0029240031549139602
8.792,0.00293491756140203
8.796,0.0029399179943304845
8.8,0.0029480677383821492
8.804,0.0029669876456643323
8.808,0.002968141591724745
8.812,0.0029578281988098063
8.816,0.0029545586849719706
8.82,0.0029546548471436713
8.824,0.002965761577975143
8.828,0.0029927110265943638
8.832,0.002967636740323314
8.836,0.00291390612688535
8.84,0.0029178728164680184
8.844,0.0029391727374998016
8.848,0.002957443550123002
8.852,0.002967877145752567
8.856,0.0029470820761222137
8.86,0.002922873249396473
8.864,0.0029517219009067893
8.868,0.0029620352938217274
8.872,0.002967925226838417
8.876,0.0029654250103741896
8.88,0.002955135658002177
8.884,0.0029523950361086968
8.888,0.0029448943867160147
8.892,0.0029669876456643323
8.896,0.002990427175016464
8.9,0.0029656894563463675
8.904,0.002952491198280398
8.908,0.0029499909818161705
8.912,0.002938980413156399
8.916,0.0029472503599226904
8.92,0.002940951737676271
8.924,0.002958717698898041
8.928,0.002964391267028403
8.932,0.002943019224367844
8.936,0.0029489812790133092
8.94,0.0029526354415379493
8.944,0.0029491495628137863
8.948,0.002952491198280398
8.952,0.002959703361157977
8.956,0.002962011253278802
8.96,0.0029601360909306314
8.964,0.002957611833923479
8.968,0.0029477552113241208
8.972,0.00295176998199264
8.976,0.0029539095903129884
8.98,0.002952322914479921
8.984,0.0029477311707811955
8.988,0.002941432548534776
8.992,0.0029008521120769317
8.996,0.0029241233576285867
9.0,0.002952322914479921
9.004,0.0029784069035538323
9.008000000000001,0.0029749691059155195
9.012,0.002975089308630146
9.016,0.002964295104856702
9.02,0.0029604245774457346
9.024000000000001,0.002952899887510127
9.028,0.0029480196572962986
9.032,0.0029563857662342906
9.036,0.0029533566578257074
9.040000000000001,0.0029428749811102927
9.044,0.0029479956167533738
9.048,0.002949870779101544
9.052,0.0029491736033567116
9.056000000000001,0.0029465291436349323
9.06,0.002955977077004561
9.064,0.0029629728749958127
9.068,0.0029262148848630846
9.072000000000001,0.0029365523183209476
9.076,0.0029614102397056705
9.08,0.0029468897517788114
9.084,0.0029591263881277702
9.088000000000001,0.0029733583895395267
9.092,0.002969343618871008
9.096,0.0029573233474083755
9.1,0.0029480677383821492
9.104000000000001,0.002957515671751778
9.108,0.002958453252925863
9.112,0.00295633768514844
9.116,0.0029562174824338135
9.120000000000001,0.0029592225502994714
9.124,0.002960929428847165
9.128,0.0029575637528376285
9.132,0.0029506400764751526
9.136000000000001,0.0029436202379409756
9.14,0.0029243637630578393
9.144,0.002921599100621434
9.148,0.0029649682400586094
9.152000000000001,0.0029683819971539974
9.156,0.0029915811210768765
9.16,0.002996918121606285
9.164,0.0029611457937334927
9.168000000000001,0.0029588138610697422
9.172,0.0029919898103066057
9.176,0.0029731660651961247
9.18,0.0029481639005538504
9.184000000000001,0.0029468416706929608
9.188,0.002955063536373401
9.192,0.002957804158266881
9.196,0.0029600399287589303
9.200000000000001,0.002959703361157977
9.204,0.0029604966990745105
9.208,0.002955496266146056
9.212,0.0029424182107947124
9.216000000000001,0.00294765904915242
9.22,0.0029546548471436713
9.224,0.002947033995036363
9.228,0.0029631411587962894
9.232,0.002998480756896427
9.236,0.0030029282573376006
9.24,0.002950375630502975
9.244,0.0029584772934687885
9.248,0.002972925659766872
9.252,0.0029793925658137678
9.256,0.0029675646186945385
9.26,0.0029633575236826166
9.264,0.002963838334541122
9.268,0.002966434713177051
9.272,0.002968285834982296
9.276,0.002969247456699307
9.28,0.002961987212735877
9.284,0.002946096413862278
9.288,0.002966434713177051
9.292,0.002976675984463213
9.296,0.00296136215861982
9.3,0.0029712668623050288
9.304,0.002993480323967972
9.308,0.002997278729750164
9.312,0.0030044428115418922
9.316,0.0029932639590816447
9.32,0.0029871095800927776
9.324,0.0029712668623050288
9.328,0.0029715072677342813
9.332,0.002976940430435391
9.336,0.0029695119026714846
9.34,0.0029779260926953268
9.344,0.0029842247149417457
9.348,0.0029730458624814982
9.352,0.0029598476044155283
9.356,0.002958260928582461
9.36,0.0029562896040625894
9.364,0.002953044130767679
9.368,0.002942826900024442
9.372,0.002970112916244616
9.376,0.0030025436086507963
9.38,0.00301429943414125
9.384,0.0030178814750371147
9.388,0.0029710264568757762
9.392,0.002941504670163552
9.396,0.0029571310230649735
9.4,0.002992999513109467
9.404,0.003008914352525991
9.408,0.00299831247309595
9.412,0.00296770886195209
9.416,0.0029685983620403246
9.42,0.002971170700133328
9.424,0.002983503498653988
9.428,0.0029844891609139236
9.432,0.002983888147340792
9.436,0.002985354620459233
9.44,0.0029856671475172614
9.444,0.0029957882160887976
9.448,0.0029992740948129606
9.452,0.0029867249314059732
9.456,0.0029891049451555743
9.46,0.002967588659237464
9.464,0.002976820227720765
9.468,0.002992013850849531
9.472,0.0029927110265943638
9.476,0.0029800657010156753
9.48,0.0029735747544258543
9.484,0.002971988078592787
9.488,0.0029764355790339605
9.492,0.00298415259331297
9.496,0.002984945931229504
9.5,0.0029837919851690912
9.504,0.0029665549158916773
9.508000000000001,0.002956722333835244
9.512,0.0029732381868249006
9.516,0.0029741276869131353
9.52,0.002976772146634914
9.524000000000001,0.003036825422862222
9.528,0.0030460810318884493
9.532,0.0030029042167946753
9.536,0.0029954276079449185
9.540000000000001,0.002999730865128541
9.544,0.0029969902432350607
9.548,0.003000956932817729
9.552,0.002993768810483075
9.556000000000001,0.0029844891609139236
9.56,0.0029828063229091553
9.564,0.0029823735931365004
9.568,0.002978094376495804
9.572000000000001,0.0029744402139711638
9.576,0.0029714832271913565
9.58,0.0029838641067978667
9.584,0.0029765317412056617
9.588000000000001,0.0029867489719488985
9.592,0.0030084095011245608
9.596,0.0030132176097096134
9.6,0.003014275393598325
9.604000000000001,0.0030095874877278986
9.608,0.002992735067137289
9.612,0.002988624134297069
9.616,0.0029788877144123374
9.620000000000001,0.002977397200750971
9.624,0.0029823976336794257
9.628,0.0029856911880601867
9.632,0.002991605161619802
9.636000000000001,0.002990643539902791
9.64,0.0029784790251826078
9.644,0.0029746325383145657
9.648,0.0029759547681754554
9.652000000000001,0.0029840083500554185
9.656,0.0029902348506730615
9.66,0.003000764608474327
9.664,0.0030184824886102463
9.668000000000001,0.0030373543148065783
9.672,0.003036344612003717
9.676,0.0029885039315824427
9.68,0.0029584772934687885
9.684000000000001,0.0029675405781516132
9.688,0.0029767000250061383
9.692,0.0029853305799163077
9.696,0.0029935043645108973
9.700000000000001,0.0029837439040832406
9.704,0.0029815321741341163
9.708,0.0029837439040832406
9.712,0.0029603043747311085
9.716000000000001,0.0029841285527700445
9.72,0.0029957641755458723
9.724,0.003006053527917885
9.728,0.0030210548267032497
9.732,0.0030208865429027726
9.736,0.002993215877995794
9.74,0.0029856911880601867
9.744,0.0030041783655697144
9.748,0.0029942496213415807
9.752,0.002952611400995024
9.756,0.0029640787399703747
9.76,0.002977204876407569
9.764,0.00298095520110391
9.768,0.002989561715471154
9.772,0.002983984309512493
9.776,0.0029687426052978764
9.78,0.002969896551358289
9.784,0.0029744882950570144
9.788,0.0029951631619727407
9.792,0.002990619499359866
9.796,0.0029966296350911817
9.8,0.003013313771881314
9.804,0.0030243243405410855
9.808,0.0030015339058479355
9.812,0.0029735266733400038
9.816,0.0029770846736929426
9.82,0.0030068468658344186
9.824,0.0029990817704695586
9.828,0.002974728700486267
9.832,0.002975305673516473
9.836,0.0029763394168622593
9.84,0.00296501632114446
9.844,0.0029485245086977294
9.848,0.0029704735243884953
9.852,0.00299785570278037
9.856,0.0030027599735371236
9.86,0.003019083502183378
9.864,0.003023026151223121
9.868,0.0029983605541818005
9.872,0.0029783347819250564
9.876,0.0029810754038185365
9.88,0.0029981682298383986
9.884,0.0029977114595228184
9.888,0.003004346649370191
9.892,0.0029969662026921354
9.896,0.002973117984110274
9.9,0.002974728700486267
9.904,0.002964583591371805
9.908,0.0029646076319147304
9.912,0.0029752335518876973
9.916,0.0029862441205474677
9.92,0.002987422107150806
9.924,0.0029809792416468353
9.928,0.0029898742425291825
9.932,0.002997975905494996
9.936,0.0029953554863161426
9.94,0.003018434407524396
9.944,0.003024636867599114
9.948,0.0030115107311619194
9.952,0.0029986490406969037
9.956,0.0029854027015450836
9.96,0.002988455850496592
9.964,0.0030056448386881554
9.968,0.003014491758484652
9.972,0.0030124242717930795
9.976,0.0029833111743105857
9.98,0.002956409806777216
9.984,0.0029572512257796
9.988,0.002974392132885313
9.992,0.0029956439728312458
9.996,0.003003144622223928
10.0,0.002996509432376555
10.004,0.002994538107856684
10.008000000000001,0.0030007165273884763
10.012,0.002999490459699288
10.016,0.0029990096488407827
10.02,0.0030274255705784446
10.024000000000001,0.003017713191236638
10.028,0.00299511508088689
10.032,0.002999730865128541
10.036,0.0030111020419321902
10.040000000000001,0.003002327243764469
10.044,0.0029996106624139143
10.048,0.002986075836746991
10.052,0.002997951864952071
10.056000000000001,0.0030080488929806817
10.06,0.003000404000330448
10.064,0.0029954997295736944
10.068,0.002981387930876565
10.072000000000001,0.00296999271352999
10.076,0.0029726852543376196
10.08,0.0029940332564552534
10.084,0.0030220164484202603
10.088000000000001,0.0030197566373852854
10.092,0.00300790464972313
10.096,0.0030019185545347394
10.1,0.003000956932817729
10.104000000000001,0.0030274015300355193
10.108,0.0030223530160212136
10.112,0.003019804718471136
10.116,0.003015116812600709
10.120000000000001,0.003009250920126945
10.124,0.0029900184857867343
10.128,0.0029961247836897513
10.132,0.0029909320264178943
10.136000000000001,0.0030071353523495217
10.14,0.003004514933170668
10.144,0.0029972546892072386
10.148,0.003017088137120581
10.152000000000001,0.0030173045020069084
10.156,0.003006726663119792
10.16,0.0030038177574258354
10.164,0.003000067432729494
10.168000000000001,0.002994562148399609
10.172,0.002990835864246193
10.176,0.0030169198533201045
10.18,0.0030571637221769956
10.184000000000001,0.0030471147752342354
10.188,0.003002519568107871
10.192,0.0030073036361499984
10.196,0.003005524635973529
10.200000000000001,0.0029974470135506405
10.204,0.0029913407156476235
10.208,0.002973550713882929
10.212,0.002977517403465597
10.216000000000001,0.002995451648487844
10.22,0.0030204778536730434
10.224,0.0030285314355530065
10.228,0.0030216077591905307
10.232000000000001,0.003023170394480673
10.236,0.003023939691854281
10.24,0.0030204057320442675
10.244,0.003014780244999755
10.248,0.0030037456357970595
10.252,0.0029944419456849826
10.256,0.00300196663562059
10.26,0.003015285096401186
10.264,0.003042883639679389
10.268,0.0030560578572024336
10.272,0.003005885244117408
10.276,0.0029970864054067615
10.28,0.003006366054975913
10.284,0.0030024714870220204
10.288,0.0030004761219592237
10.292,0.0030034090681961057
10.296,0.003011919420391649
10.3,0.003018554610239022
10.304,0.0030154533802016627
10.308,0.0030159341910601686
10.312,0.003020237448243791
10.316,0.003016511164090375
10.32,0.0030144196368558766
10.324,0.003012544474507706
10.328,0.0029973268108360145
10.332,0.0029805705524171056
10.336,0.0029779741737811774
10.34,0.0030117511365911724
10.344,0.003045071329085588
10.348,0.0030269688002628643
10.352,0.003019876840099912
10.356,0.0030383399770665138
10.36,0.0030296373005275685
10.364,0.003019804718471136
10.368,0.0030198527995569865
10.372,0.003010236582386881
10.376,0.0030019425950776647
10.38,0.003002110878878142
10.384,0.003009996176957628
10.388,0.0030150687315148588
10.392,0.0030105491094449092
10.396,0.003004274527741415
10.4,0.003006726663119792
10.404,0.003012544474507706
10.408,0.003023458880995776
10.412,0.0030456483021157944
10.416,0.0030549039111420206
10.42,0.0030181459210092926
10.424,0.0030017262301913375
10.428,0.003032786611650778
10.432,0.0030378351256650834
10.436,0.003015549542373364
10.44,0.0030115347717048447
10.444,0.003010741433788311
10.448,0.003011703055505322
10.452,0.0030255984893161245
10.456,0.00302932477346954
10.46,0.003031680746676216
10.464,0.003026295665060957
10.468,0.0030158380288884674
10.472,0.003039542004212777
10.476,0.003041777774704827
10.48,0.002996004580975125
10.484,0.0029779982143241027
10.488,0.0029751614302589214
10.492,0.0030004520814162984
10.496,0.003015693785630916
10.5,0.003007063230720746
10.504,0.0030076642442938774
10.508000000000001,0.003006726663119792
10.512,0.0030163909613757484
10.516,0.0030183622858956202
10.52,0.00301699197494888
10.524000000000001,0.003021727961905157
10.528,0.003028916084239811
10.532,0.003030743165502131
10.536,0.003027738097636473
10.540000000000001,0.0030336280306531623
10.544,0.0030379072472938593
10.548,0.003028026584151576
10.552,0.0030208384618169225
10.556000000000001,0.0030268966786340884
10.56,0.003006438176604689
10.564,0.002985450782630934
10.568,0.0029906916209886418
10.572000000000001,0.0030031205816810026
10.576,0.003012376190707229
10.58,0.0030248772730283664
10.584,0.00301607843431772
10.588000000000001,0.0030145398395705026
10.592,0.003028699719353483
10.596,0.0030264399083185086
10.6,0.003007784447008504
10.604000000000001,0.003012760839394033
10.608,0.003021367353761278
10.612,0.003023170394480673
10.616,0.0030183622858956202
10.620000000000001,0.0030149004477143817
10.624,0.00301018850130103
10.628,0.0030190354210975277
10.632,0.003033411665766835
10.636000000000001,0.0030091307174123184
10.64,0.0029880231207239376
10.644,0.0029962690269473027
10.648,0.003011366487904368
10.652000000000001,0.003016703488433777
10.656,0.0030106933527024606
10.66,0.0030166794478908516
10.664,0.0030216558402763813
10.668000000000001,0.003031704787219141
10.672,0.0030249013135712917
10.676,0.003021078867246175
10.68,0.0030255263676873486
10.684000000000001,0.003032137516991796
10.688,0.003027738097636473
10.692,0.0030215115970188295
10.696,0.003013265690795464
10.700000000000001,0.003037787044579233
10.704,0.00304430203171198
10.708,0.0030445664776841577
10.712,0.0030528845055362987
10.716000000000001,0.0030376428013216814
10.72,0.0029917734454202784
10.724,0.002972372727279591
10.728,0.00300013955435827
10.732000000000001,0.0029942977024274313
10.736,0.0030003559192445972
10.74,0.003017232380378133
10.744,0.003022280894392438
10.748000000000001,0.003017352583092759
10.752,0.0030196845157565095
10.756,0.003024829191942516
10.76,0.0030269688002628643
10.764,0.003019804718471136
10.768,0.003019444110327257
10.772,0.003023939691854281
10.776,0.0030337241928248635
10.78,0.003030935489845533
10.784,0.0030333876252239098
10.788,0.0030320894359059454
10.792,0.0030116790149623965
10.796,0.0030112222446468163
10.8,0.0030383159365235885
10.804,0.003050095802556968
10.808,0.0030170160154918053
10.812,0.003022641502536317
10.816,0.0030222087727636623
10.82,0.003027762138179398
10.824,0.0030484850861809756
10.828,0.003051922883819288
10.832,0.0030466580049186556
10.836,0.0030445664776841577
10.84,0.003044446274969531
10.844,0.003045239612886065
10.848,0.003040383423215162
10.852,0.0030382678554377383
10.856,0.0030330029765371054
10.86,0.003030166192471924
10.864,0.003032498125135675
10.868,0.003025838894745377
10.872,0.003013818623282745
10.876,0.003014996609886083
10.88,0.0030141551908836987
10.884,0.0030140349881690722
10.888,0.0030291805302119887
10.892,0.0030416335314472757
10.896,0.003035623395715959
10.9,0.0030253580838868715
10.904,0.003055553005801003
10.908,0.003086397022374116
10.912,0.003111110700501287
10.916,0.003078463643208779
10.92,0.003037787044579233
10.924,0.0030344934901984717
10.928,0.0030341328820545927
10.932,0.0030224010971070642
10.936,0.003014780244999755
10.94,0.0030280746652374263
10.944,0.0030311037736460095
10.948,0.0030074719199504754
10.952,0.0030024955275649457
10.956,0.003019997042814538
10.96,0.0030422826261062574
10.964,0.0030680060070362894
10.968,0.0030584138304091094
10.972,0.0030425230315355104
10.976,0.0030455521399440936
10.98,0.003052836424450448
10.984,0.00308130042727396
10.988,0.0030818774003041663
10.992,0.00303617632820324
10.996,0.003036705220147596
11.0,0.0030175689479790863
11.004,0.0030138426638256703
11.008000000000001,0.003015020650429008
11.012,0.0030195643130418834
11.016,0.0030383399770665138
11.02,0.003039902612356656
11.024000000000001,0.0030383159365235885
11.028,0.003031776908847917
11.032,0.003034589652370173
11.036,0.003027016881348715
11.040000000000001,0.0030269207191770137
11.044,0.0030443741533407553
11.048,0.003054182694854263
11.052,0.003043412531623745
11.056000000000001,0.0030366330985188202
11.06,0.0030608178847016357
11.064,0.003064039317453621
11.068,0.0030345656118272476
11.072000000000001,0.0030425470720784357
11.076,0.0030395179636698516
11.08,0.003017280461463983
11.084,0.003032786611650778
11.088000000000001,0.0030469464914337587
11.092,0.0030397583690991046
11.096,0.0030228819079655697
11.1,0.003010020217500553
11.104000000000001,0.0030010050139035794
11.108,0.003010933758131713
11.112,0.0030195883535848087
11.116,0.003034974301056977
11.120000000000001,0.0030321615575347213
11.124,0.003046465680575253
11.128,0.00306901570983915
11.132,0.0030600245467851017
11.136000000000001,0.0030337722739107137
11.14,0.003030935489845533
11.144,0.0030409844367882935
11.148,0.0030512016675315304
11.152000000000001,0.0030569713978335937
11.156,0.0030474032617493385
11.16,0.0030237954485967298
11.164,0.0030176651101507875
11.168000000000001,0.0030329068143654042
11.172,0.003031512462875739
11.176,0.0030242522189123096
11.18,0.0030343492469409204
11.184000000000001,0.003039277558240599
11.188,0.003044037585739802
11.192,0.0030433644505378945
11.196,0.0030362965309178665
11.200000000000001,0.0030297334626992697
11.204,0.003033243381966358
11.208,0.0030455521399440936
11.212,0.0030481965996658725
11.216000000000001,0.0030442779911690546
11.22,0.0030445664776841577
11.224,0.003042883639679389
11.228,0.0030558655328590313
11.232000000000001,0.003064063357996546
11.236,0.003071636129018004
11.24,0.0030685108584377198
11.244,0.003041681612533126
11.248000000000001,0.003012376190707229
11.252,0.0030163909613757484
11.256,0.0030270649624345655
11.26,0.0030380274500084853
11.264,0.0030442058695402787
11.268,0.0030364648147183436
11.272,0.003048220640208798
11.276,0.0030623564794488526
11.28,0.0030451674912572893
11.284,0.0030440135451968767
11.288,0.0030535816812811314
11.292,0.003044446274969531
11.296,0.0030451674912572893
11.3,0.0030540624921396365
11.304,0.003052475816306569
11.308,0.0030483168023804985
11.312,0.0030532931947660283
11.316,0.0030652173040569587
11.32,0.003065866398715941
11.324,0.003027569813835996
11.328,0.003012183866363827
11.332,0.003004779379142846
11.336,0.0030152370153153354
11.34,0.003032618327850301
11.344,0.0030532210731372524
11.348,0.003029853665413896
11.352,0.003048364883466349
11.356,0.0030720688587906587
11.36,0.0030693282368971786
11.364,0.003051249748617381
11.368,0.0030575724114067252
11.372,0.003071732291189705
11.376,0.003073919980595904
11.38,0.0030625488037922546
11.384,0.0030549760327707965
11.388,0.0030546875462556934
11.392,0.0030331472197946572
11.396,0.003017352583092759
11.4,0.003026391827232658
11.404,0.0030373062337207277
11.408,0.003043508693795446
11.412,0.0030478359915219935
11.416,0.0030418258557906776
11.42,0.003039974733985432
11.424,0.0030430038423940155
11.428,0.0030373062337207277
11.432,0.0030344934901984717
11.436,0.0030457204237445703
11.44,0.003032209638620572
11.444,0.0030417537341619017
11.448,0.003060577479272383
11.452,0.003048364883466349
11.456,0.003043508693795446
11.46,0.003058317668237408
11.464,0.0030576204924925754
11.468,0.003039998774528357
11.472,0.0030443501127978305
11.476,0.0030443741533407553
11.48,0.003030045989757298
11.484,0.003014010947626147
11.488,0.0030305268006158032
11.492,0.003062019911847899
11.496,0.0030724775480203883
11.5,0.003072381385848687
11.504,0.0030637989120243683
11.508000000000001,0.00306348638496634
11.512,0.0030632700200800126
11.516,0.003064808614827229
11.52,0.0030736074535378756
11.524000000000001,0.0030646403310267524
11.528,0.00305668291131849
11.532,0.0030635585065951158
11.536,0.0030528845055362987
11.540000000000001,0.0030502881269003704
11.544,0.0030471388157771607
11.548,0.0030029282573376006
11.552,0.0029986250001539784
11.556000000000001,0.0030608659657874863
11.56,0.003077910710721498
11.564,0.00304709073469131
11.568,0.0030557693706873305
11.572000000000001,0.00306348638496634
11.576,0.0030569473572906684
11.58,0.0030479321536936946
11.584,0.0030717803722755555
11.588000000000001,0.003081973562475867
11.592,0.003086036414230237
11.596,0.0030844016573113187
11.6,0.0030796175892691914
11.604000000000001,0.0030737516967954273
11.608,0.0030666597366324744
11.612,0.0030639191147389944
11.616,0.003070554304586367
11.620000000000001,0.0030661068041451934
11.624,0.003067356912377307
11.628,0.00304115272058877
11.632,0.003016439042461599
11.636000000000001,0.003038628463581617
11.64,0.0030559857355736578
11.644,0.0030654096284003607
11.648,0.0030558174517731807
11.652000000000001,0.0030549039111420206
11.656,0.00305165843784711
11.66,0.0030534133974806543
11.664,0.0030586061547525113
11.668000000000001,0.0030599043440704757
11.672,0.0030557693706873305
11.676,0.003048437005095125
11.68,0.0030665635744607737
11.684000000000001,0.003074016142767605
11.688,0.003063221938994162
11.692,0.003047619626635666
11.696,0.003054543302998142
11.700000000000001,0.0030549519922278712
11.704,0.0030595196953836713
11.708,0.0030482927618375733
11.712,0.0030188190562112
11.716000000000001,0.0030358397606022867
11.72,0.0030617073847898704
11.724,0.003059928384613401
11.728,0.003055649167972704
11.732000000000001,0.0030558174517731807
11.736,0.0030560578572024336
11.74,0.0030567309924043407
11.744,0.0030522594514202418
11.748000000000001,0.003049687113327239
11.752,0.003050095802556968
11.756,0.003052163289248541
11.76,0.0030490380186682566
11.764000000000001,0.0030471868968630113
11.768,0.003038628463581617
11.772,0.0030334597468526857
11.776,0.0030311037736460095
11.78,0.003016583285719151
11.784,0.0030034090681961057
11.788,0.0030584138304091094
11.792,0.0031202461068128872
11.796,0.003106398754087935
11.8,0.003051730559475886
11.804,0.0030309114493026076
11.808,0.0030332193414234327
11.812,0.00304338849108082
11.816,0.0030484129645521997
11.82,0.0030399266528995813
11.824,0.0030357435984305855
11.828,0.0030439173830251755
11.832,0.003053461478566505
11.836,0.0030443501127978305
11.84,0.0030410805989599943
11.844,0.0030410805989599943
11.848,0.003045960829173823
11.852,0.003057476249235024
11.856,0.0030752902915426442
11.86,0.0030786559675521808
11.864,0.003059687979184148
11.868,0.0030499275187564913
11.872,0.003040503625929788
11.876,0.0030379793689226347
11.88,0.0030418979774194535
11.884,0.0030552645192858997
11.888,0.003060601519815308
11.892,0.0030636306282238912
11.896,0.0030586782763812872
11.9,0.0030582695871515576
11.904,0.003053822086710384
11.908,0.003048340842923424
11.912,0.00305389420833916
11.916,0.0030562501815458356
11.92,0.003060313033300205
11.924,0.003061515060446468
11.928,0.0030693282368971786
11.932,0.003067981966493364
11.936,0.0030668280204329515
11.94,0.0030700494531849367
11.944,0.003082141846276344
11.948,0.0030662750879456705
11.952,0.0030520430865339145
11.956,0.003045888707545047
11.96,0.0030523075325060924
11.964,0.0030662029663168946
11.968,0.003066803979890026
11.972,0.0030603851549289808
11.976,0.003052475816306569
11.98,0.003041777774704827
11.984,0.0030584138304091094
11.988,0.0030691118720108513
11.992,0.003076179791630879
11.996,0.0030811081029305577
12.0,0.0031000280102127403
12.004,0.003082141846276344
12.008000000000001,0.0030374264364353538
12.012,0.0030129772042803604
12.016,0.003029204570754914
12.02,0.003067549236720709
12.024000000000001,0.0030726939129067155
12.028,0.0030609140468733365
12.032,0.0030515622756754094
12.036,0.0030556972490585546
12.040000000000001,0.003061587182075244
12.044,0.003062957493021984
12.048,0.003063342141708788
12.052,0.0030597360602699986
12.056000000000001,0.003057307965434547
12.06,0.0030544231002835156
12.064,0.003044446274969531
12.068,0.0030601687900426535
12.072000000000001,0.003081564873246138
12.076,0.0030812523461881095
12.08,0.003099451037182534
12.084,0.0031155822414853864
12.088000000000001,0.003094691009683332
12.092,0.0031031292402500994
12.096,0.0030978162802636163
12.1,0.00310089346975805
12.104000000000001,0.0031118078762461194
12.108,0.0031089470516380132
12.112,0.0030957487935720437
12.116,0.003077766467463946
12.120000000000001,0.003088993401010044
12.124,0.0031174333632906317
12.128,0.0031153177955132085
12.132,0.0031157986063717136
12.136000000000001,0.0031367860003454684
12.14,0.003138589041064863
12.144,0.003124669566711136
12.148,0.00313555993265628
12.152000000000001,0.0031443106902810758
12.156,0.0031221933907898338
12.16,0.0031097163490116215
12.164,0.003115486079313685
12.168000000000001,0.0031088028083804614
12.172,0.003103033078078398
12.176,0.0031088989705521626
12.18,0.0031177939714345107
12.184000000000001,0.003119765295954382
12.188,0.003101927213103836
12.192,0.003109019173266789
12.196,0.0031214721745020757
12.200000000000001,0.0031211115663581966
12.204,0.003126063918200801
12.208,0.0031320500133891916
12.212,0.003121135606901122
12.216000000000001,0.003123587742279499
12.22,0.0031550808535115936
12.224,0.0031543355966809107
12.228,0.0031005809427000217
12.232000000000001,0.0031021435779901635
12.236,0.0031260879587437264
12.24,0.003125775431685698
12.244,0.003113130106107009
12.248000000000001,0.003109211497610191
12.252,0.0030981288073216448
12.256,0.0030825745760489987
12.26,0.00310409086196711
12.264000000000001,0.003134550229853419
12.268,0.0031468109067453033
12.272,0.003142291284675354
12.276,0.0031358724597143083
12.280000000000001,0.0031289487833518325
12.284,0.003127866958920196
12.288,0.003132146175560893
12.292,0.0031475321230330614
12.296,0.003157725313233373
12.3,0.003140392081784258
12.304,0.0031109904977866605
12.308,0.0031107260518144827
12.312,0.0031227463232771147
12.316,0.0031316894052453126
12.32,0.003125342701913043
12.324,0.0031031532807930247
12.328,0.0031001482129273668
12.332,0.003108754727294611
12.336,0.003129501715839114
12.34,0.0031646489895958488
12.344,0.0031580618808343267
12.348,0.003137483176090301
12.352,0.003136641757087917
12.356,0.0031370744868605715
12.36,0.003118635390436895
12.364,0.0030976720370060645
12.368,0.0031011819562731533
12.372,0.003115630322571237
12.376,0.0031304873780990494
12.38,0.0031294055536674127
12.384,0.0031236839044512
12.388,0.003119212363467101
12.392,0.0031183949850076423
12.396,0.0031268091750314845
12.4,0.0031259196749432493
12.404,0.0031230828908780685
12.408,0.003120294187898738
12.412,0.0031196931743256062
12.416,0.003121015404186496
12.42,0.0031491428394090537
12.424,0.0031576772321475224
12.428,0.0031497438529821853
12.432,0.0031630863543057066
12.436,0.0031610669486999846
12.44,0.003126039877657876
12.444,0.0030999318480410395
12.448,0.0031063025919162344
12.452,0.0031163274983160693
12.456,0.0031088989705521626
12.46,0.0031244532018248083
12.464,0.003142796136076784
12.468,0.003131256675472658
12.472,0.0031228905665346665
12.476,0.0031176978092628095
12.48,0.0031152937549702832
12.484,0.0031352233650553266
12.488,0.0031457050417707413
12.492,0.0031453444336268623
12.496,0.003164408584166596
12.5,0.003180299383040196
12.504,0.0031793377613231854
12.508000000000001,0.003143565433450393
12.512,0.003138396716721461
12.516,0.00314560887959904
12.52,0.003142507649561681
12.524000000000001,0.00312185682318888
12.528,0.0031231790530497697
12.532,0.0031376995409766284
12.536,0.0031359445813430842
12.540000000000001,0.0031305594997278253
12.544,0.003127458269690466
12.548,0.0031243329991101822
12.552,0.003125342701913043
12.556000000000001,0.003112505051990952
12.56,0.0030947150502262572
12.564,0.0031080575515497785
12.568,0.0031283718103216262
12.572000000000001,0.003159456232323992
12.576,0.0031919350058160234
12.58,0.003179169477522709
12.584,0.0031521238667317863
12.588000000000001,0.003161643921730191
12.592,0.003175154706854189
12.596,0.003174024801336701
12.6,0.003141329662958343
12.604000000000001,0.003117505484919407
12.608,0.0031297661618112918
12.612,0.0031311124322151063
12.616,0.0031290930266093843
12.620000000000001,0.0031348627569114476
12.624,0.0031422672441324285
12.628,0.0031366657976308423
12.632,0.0031172410389472293
12.636000000000001,0.003101831050932135
12.64,0.00311368303859429
12.644,0.0031177939714345107
12.648,0.0031638316111363895
12.652000000000001,0.0032168890893724466
12.656,0.0032152062513676784
12.66,0.003157100259117316
12.664,0.0031462098931721717
12.668000000000001,0.0031312326349297328
12.672,0.0031227944043629653
12.676,0.0031401757168979306
12.68,0.0031508737584996726
12.684000000000001,0.003153710542564854
12.688,0.003158013799748476
12.692,0.00314926304212368
12.696,0.0031487101096363992
12.700000000000001,0.0031511622450147757
12.704,0.0031419306765314747
12.708,0.003118563268808119
12.712,0.003120750958214318
12.716000000000001,0.0031476523257476874
12.72,0.003182679396789797
12.724,0.003196815236029852
12.728,0.0031860210322564087
12.732000000000001,0.003170971652385193
12.736,0.003161283313586312
12.74,0.00314784465009109
12.744,0.0031572685429177927
12.748000000000001,0.0031629180705052295
12.752,0.003138925608665817
12.756,0.0031290209049806084
12.76,0.00313327608107838
12.764000000000001,0.0031228184449058906
12.768,0.003113875362937692
12.772,0.0031336607297651844
12.776,0.003136713878716693
12.780000000000001,0.0031242608774814063
12.784,0.003124525323453584
12.788,0.003138805405951191
12.792,0.0031613554352150877
12.796000000000001,0.0031729429769050644
12.8,0.0031880163973192054
12.804,0.0031864778025719885
12.808,0.0031746738959956833
12.812,0.0031483735420354455
12.816,0.003131881729588715
12.82,0.0031352714461411768
12.824,0.003144046244308898
12.828,0.0031534701371356013
12.832,0.0031593360296093653
12.836,0.003154551961567238
12.84,0.003149046677237353
12.844,0.0031381563112922086
12.848,0.00313327608107838
12.852,0.0031379639869488062
12.856,0.0031582542051777286
12.86,0.0032021522365592602
12.864,0.00316611546271429
12.868,0.0031381322707492833
12.872,0.003152388312703964
12.876,0.003152821042476619
12.88,0.0031530614479058717
12.884,0.0031757797609702466
12.888,0.00318154949127231
12.892,0.0031768856259448085
12.896,0.0031626536245330517
12.9,0.00315063335307042
12.904,0.003151619015330356
12.908,0.0031578695564909243
12.912,0.003155753988713501
12.916,0.0031531095289917222
12.92,0.003154912569711117
12.924,0.0031489985961515024
12.928,0.003162677665075977
12.932,0.003199676060637958
12.936,0.0031895069109805717
12.94,0.003172005395730979
12.944,0.003185828707913007
12.948,0.0031790492748080823
12.952,0.003160730381099031
12.956,0.0031398151087540516
12.96,0.003141305622415418
12.964,0.003160393813498077
12.968,0.00316296615159108
12.972,0.0031608025027278063
12.976,0.003169625381981378
12.98,0.0031888578163215896
12.984,0.0031806119100982245
12.988,0.003178616545035428
12.992,0.003181837977787413
12.996,0.003197007560373254
13.0,0.003215254332453529
13.004,0.003186958613430494
13.008000000000001,0.003163230597563258
13.012,0.0031626295839901264
13.016,0.003140392081784258
13.02,0.0031338770946515116
13.024000000000001,0.003147219595975033
13.028,0.0031763326934575275
13.032,0.003168158908862937
13.036,0.0031775106800608654
13.040000000000001,0.003193738046535418
13.044,0.003194531384451952
13.048,0.0031933053167627636
13.052,0.0031918148031013973
13.056000000000001,0.003195997857570393
13.06,0.0032006857634408192
13.064,0.003187439424288999
13.068,0.0031685435575497414
13.072000000000001,0.003171909233559278
13.076,0.003193088951876436
13.08,0.0032047005341093384
13.084,0.0031621487731316213
13.088000000000001,0.0031526527586761425
13.092,0.003139863189839902
13.096,0.0031305594997278253
13.1,0.0031567156104305117
13.104000000000001,0.003175924004227798
13.108,0.003144334730824001
13.112,0.0031513786099011034
13.116,0.0031903002488971057
13.120000000000001,0.0031539509479941064
13.124,0.003159552394495693
13.128,0.003190035802924928
13.132,0.003186309518771512
13.136000000000001,0.0031910455057277886
13.14,0.003201503141900278
13.144,0.003190708938126835
13.148,0.0031814533291006086
13.152000000000001,0.003165322124797756
13.156,0.0031608025027278063
13.16,0.003155369340026697
13.164,0.0031615477595584897
13.168000000000001,0.003168976287322396
13.172,0.003174024801336701
13.176,0.0031769817881165097
13.18,0.003161860286616518
13.184000000000001,0.0031557059076276505
13.188,0.003170899530756417
13.192,0.003176933707030659
13.196,0.0031794339234948866
13.200000000000001,0.0031655865707699337
13.204,0.0031676540574615067
13.208,0.0031739526797079256
13.212,0.003172173679531456
13.216000000000001,0.0031674136520322537
13.22,0.0031884010460060098
13.224,0.0032053496287683205
13.228,0.0032103019806109245
13.232000000000001,0.0032000607093247624
13.236,0.003178953112636381
13.24,0.0031512103261006263
13.244,0.003137627419347853
13.248000000000001,0.003138372676178536
13.252,0.003135920540800159
13.256,0.0031563309617437074
13.26,0.003160033205354198
13.264000000000001,0.0031636392867929876
13.268,0.0031786405855783527
13.272,0.003183400613077555
13.276,0.0031779434098335203
13.280000000000001,0.003177823207118894
13.284,0.0031795541262095127
13.288,0.0031869105323446435
13.292,0.003188978019036216
13.296000000000001,0.0031914061138716677
13.3,0.0031986663578350972
13.304,0.003189891559667376
13.308,0.003165971219456738
13.312000000000001,0.003167966584519535
13.316,0.003184867086195996
13.32,0.003193521681649091
13.324,0.0031717649903017266
13.328,0.003161283313586312
13.332,0.0031436375550791687
13.336,0.0031411373386149412
13.34,0.0031501285016689896
13.344,0.0031538307452794803
13.348,0.003153013366820021
13.352,0.003172197720074381
13.356,0.003186501843114914
13.36,0.00319662291168645
13.364,0.003199387574122855
13.368,0.0031991471686936023
13.372,0.0031918148031013973
13.376,0.0031829198022190496
13.38,0.0031797945316387657
13.384,0.003175082585225413
13.388,0.0031722458011602317
13.392,0.0031864537620290632
13.396,0.003192463897760379
13.4,0.003184867086195996
13.404,0.003173255503963093
13.408,0.003161307354129237
13.412,0.003149094758323203
13.416,0.003157557029432896
13.42,0.0031571483402031667
13.424,0.003168351233206339
13.428,0.003165562530227009
13.432,0.0031477244473764633
13.436,0.0031569079347739137
13.44,0.0031742171256801035
13.444,0.0031723900444177834
13.448,0.0031662837465147664
13.452,0.0031669088006308233
13.456,0.0031695773008955275
13.46,0.003169961949582332
13.464,0.0031653702058836064
13.468,0.0031709235712993424
13.472,0.0031744334905664307
13.476,0.00315931198906644
13.48,0.003153085488448797
13.484,0.003197296046888357
13.488,0.003216456359599792
13.492,0.0031897232758668994
13.496,0.0031845305185950424
13.5,0.0031978970604614886
13.504,0.0031884731676347857
13.508000000000001,0.003175899963684873
13.512,0.0031847468834813697
13.516,0.003200108790410613
13.52,0.003180924437156253
13.524000000000001,0.0031754672339122172
13.528,0.003181405248014758
13.532,0.003184314153708715
13.536,0.0031850834510823234
13.540000000000001,0.0031854680997691277
13.544,0.0031815975723581604
13.548,0.003180780193898701
13.552,0.0031814292885576833
13.556000000000001,0.0031725823687611854
13.56,0.003165682732941635
13.564,0.0031734237877635695
13.568,0.0032073449938311172
13.572000000000001,0.003216288075799315
13.576,0.003189266505551319
13.58,0.0031708514496705665
13.584,0.0031957334115982152
13.588000000000001,0.003234582928965441
13.592,0.0032267457119718053
13.596,0.003186309518771512
13.6,0.003178544423406652
13.604000000000001,0.00318022726141142
13.608,0.0031970556414591044
13.612,0.003208234493919352
13.616,0.0032011425337563995
13.620000000000001,0.0031892905460942445
13.624,0.003181333126385982
13.628,0.003173616112106972
13.632,0.003175827842056097
13.636000000000001,0.003194651587166578
13.64,0.0032056140747404984
13.644,0.0031993635335799296
13.648,0.0032002289931252394
13.652000000000001,0.00320712862894479
13.656,0.003202753250132392
13.66,0.0032022483987309614
13.664,0.003208979750750035
13.668000000000001,0.0031993394930370047
13.672,0.0031990750470648264
13.676,0.0032044841692230107
13.68,0.003194531384451952
13.684000000000001,0.0031668366790020474
13.688,0.003164312421994895
13.692,0.003164769192310475
13.696,0.00315611459685738
13.700000000000001,0.0031371466084893474
13.704,0.0031579657186626255
13.708,0.003177462598975015
13.712,0.003209773088666569
13.716000000000001,0.0032179709138040837
13.72,0.0032119126969869173
13.724,0.0032078498452325476
13.728,0.0031931370329622865
13.732000000000001,0.0031969594792874033
13.736,0.0032136916971633868
13.74,0.0032277794553175914
13.744,0.003227539049888339
13.748000000000001,0.003197945141547339
13.752,0.0031717409497588013
13.756,0.0031767894637731078
13.76,0.0031724862065894846
13.764000000000001,0.003167702138547357
13.768,0.0031438298794225707
13.772,0.0031390698519233686
13.776,0.0031570521780314655
13.780000000000001,0.0031959738170274678
13.784,0.0032133310890195077
13.788,0.003197392209060058
13.792,0.003190588735412209
13.796000000000001,0.0031839775861077614
13.8,0.0032066718586292097
13.804,0.0032135714944487603
13.808,0.0032176824272889806
13.812000000000001,0.003227899658032218
13.816,0.0032263851038279263
13.82,0.0031900598434678527
13.824,0.003176741382687257
13.828,0.0031888337757786647
13.832,0.003194555424994877
13.836,0.003182198585931292
13.84,0.0031514026504440287
13.844,0.00315154689370158
13.848,0.0031652019220831298
13.852,0.003163471002992511
13.856,0.0031780155314622962
13.86,0.0031854680997691277
13.864,0.003184578599680893
13.868,0.0031873913432031485
13.872,0.0031946035060807275
13.876,0.003210133696810448
13.88,0.003224125292792951
13.884,0.0032390063888636895
13.888,0.0032129464403327034
13.892,0.0031999885876959865
13.896,0.0031877519513470276
13.9,0.0031904204516117318
13.904,0.003198858682178499
13.908,0.003176909666487734
13.912,0.0031700821522969583
13.916,0.003177270274631613
13.92,0.0031660193005425886
13.924,0.003152244069446413
13.928,0.0031671251655171506
13.932,0.0031881125594909066
13.936,0.003202849412304093
13.94,0.0032145811972516215
13.944,0.0032023686014455875
13.948,0.003185876788998857
13.952,0.0032006857634408192
13.956,0.003204772655738114
13.96,0.003209797129209494
13.964,0.003202392641988513
13.968,0.003190516613783433
13.972,0.0031987865605497233
13.976,0.0032178026300036067
13.98,0.003222129927730154
13.984,0.0032021041554734096
13.988,0.0031911176273565645
13.992,0.003174265206765954
13.996,0.003160105326982974
14.0,0.003163519084078361
14.004,0.00318611719442811
14.008000000000001,0.003187511545917775
14.012,0.003188328924377234
14.016,0.003189603073152273
14.02,0.003210350061696775
14.024000000000001,0.0032062631693994805
14.028,0.00319753645231761
14.032,0.003192536019389155
14.036,0.003191526316586294
14.040000000000001,0.003193714005992493
14.044,0.003194916033138756
14.048,0.003193810168164194
14.052,0.003193329357305689
14.056000000000001,0.00319022812726833
14.06,0.0031813812074718327
14.064,0.0031620285704169948
14.068,0.003161307354129237
14.072000000000001,0.003215518778425707
14.076,0.0032330924153040745
14.08,0.003201310817556876
14.084,0.003181573531815235
14.088000000000001,0.0031905646948692835
14.092,0.0031890020595791413
14.096,0.0031680146656053853
14.1,0.0031766211799726307
14.104000000000001,0.003185948910627633
14.108,0.003184867086195996
14.112,0.0031860931538851846
14.116,0.003199291411951154
14.120000000000001,0.003202753250132392
14.124,0.0032009021283271465
14.128,0.0032014791013573528
14.132,0.00319941161466578
14.136000000000001,0.0032000607093247624
14.14,0.0032014310202715026
14.144,0.003198209587519517
14.148,0.003194074614136372
14.152000000000001,0.0031877519513470276
14.156,0.003201503141900278
14.16,0.003217273738059251
14.164,0.0031918148031013973
14.168000000000001,0.0031844343564233412
14.172,0.0032009261688700718
14.176,0.0032106385482118783
14.18,0.0032008540472412963
14.184000000000001,0.003191237830071191
14.188,0.003197368168517133
14.192,0.003207946007404249
14.196,0.0032150620081101266
14.200000000000001,0.003213835940420938
14.204,0.0032105664265831024
14.208,0.003203113858276271
14.212,0.0031933533978486138
14.216000000000001,0.003189603073152273
14.22,0.003192608141017931
14.224,0.0031885212487206363
14.228,0.003194459262823176
14.232000000000001,0.003221937603386752
14.236,0.0032341501991927863
14.24,0.003226361063285001
14.244,0.0032151581702818278
14.248000000000001,0.003208306615548128
14.252,0.003190997424641938
14.256,0.00319296874916181
14.26,0.0031982336280624423
14.264000000000001,0.0032023445609026626
14.268,0.00320849893989153
14.272,0.003203137898819196
14.276,0.0032081383317476508
14.280000000000001,0.00322128850872777
14.284,0.0032155668595115574
14.288,0.003208787426406633
14.292,0.0032133070484765824
14.296000000000001,0.0032076334803462204
14.3,0.0032157591838549594
14.304,0.003247011889657802
14.308,0.0032285006716053495
14.312000000000001,0.0031659952599996633
14.316,0.003154191353423359
14.32,0.0031772462340886876
14.324,0.003196118060285019
14.328000000000001,0.0031850113294535475
14.332,0.0031692888143804243
14.336,0.0031878481135187288
14.34,0.003203210020447972
14.344,0.0032039312367357297
14.348,0.0032069363046013876
14.352,0.0032007098039837445
14.356,0.00319388228979297
14.36,0.00318114080204258
14.364,0.003190516613783433
14.368,0.003211431886128412
14.372,0.0032344627262508147
14.376,0.0032569887149717864
14.38,0.0032116482510147395
14.384,0.0031652980842548305
14.388,0.003176645220515556
14.392,0.0031847228429384444
14.396,0.0031650095977397274
14.4,0.003170538922612538
14.404,0.00318890589740744
14.408,0.0031898434785815255
14.412,0.003193377438391539
14.416,0.003196118060285019
14.42,0.0032052053855107687
14.424,0.003209075912921736
14.428,0.0032037148718494024
14.432,0.003198209587519517
14.436,0.0031943150195656244
14.44,0.0031960218981133184
14.444,0.0032020560743875595
14.448,0.003204315885422534
14.452,0.003188352964920159
14.456,0.003190252167811255
14.46,0.0031922956139599024
14.464,0.003185828707913007
14.468,0.0031894828704376464
14.472,0.003232371199016317
14.476,0.003204772655738114
14.48,0.003183929505021911
14.484,0.0031953006818255603
14.488,0.003186237397142736
14.492,0.0031969354387444784
14.496,0.003195829573769916
14.5,0.003197464330688834
14.504,0.0031982576686053676
14.508000000000001,0.0031855161808549783
14.512,0.003189170343379618
14.516,0.0032041956827079075
14.52,0.0032048447773668897
14.524000000000001,0.003201382939185652
14.528,0.0031884010460060098
14.532,0.003174890260882011
14.536,0.003187319221574373
14.540000000000001,0.0031900117623820026
14.544,0.0032009021283271465
14.548,0.003207681561432071
14.552,0.00320804216957595
14.556000000000001,0.003234318482993263
14.56,0.003238333253661782
14.564,0.0032226107385886593
14.568,0.0032055419531117225
14.572000000000001,0.003200108790410613
14.576,0.0032082585344622772
14.58,0.0032028734528470183
14.584,0.0031962382629996456
14.588000000000001,0.0031899877218390773
14.592,0.0031875596270036256
14.596,0.0031943390601085497
14.6,0.003200878087784221
14.604000000000001,0.003197945141547339
14.608,0.003199772222809659
14.612,0.0031934976411061656
14.616,0.003195372803454336
14.620000000000001,0.0031974162496029835
14.624,0.0031950602763963078
14.628,0.003190612775955134
14.632,0.0031990750470648264
14.636000000000001,0.0032187642517206173
14.64,0.00323448676679374
14.644,0.0032223462926164815
14.648,0.0032315057394710074
14.652000000000001,0.003227274603916161
14.656,0.0032041476016220574
14.66,0.0031674857736610296
14.664,0.003166692435744496
14.668000000000001,0.003183112126562452
14.672,0.003196286344085496
14.676,0.00320438800705131
14.68,0.003212249264587871
14.684000000000001,0.003210902994184056
14.688,0.003200180912039389
14.692,0.003209340358893914
14.696,0.003209773088666569
14.700000000000001,0.003203835074564029
14.704,0.0031930408707905858
14.708,0.0031950362358533825
14.712,0.0031988106010926486
14.716000000000001,0.0032105904671260277
14.72,0.0032355685912253767
14.724,0.003250377565667339
14.728,0.003223764684649072
14.732000000000001,0.0031888578163215896
14.736,0.003182943842761975
14.74,0.0031970556414591044
14.744,0.0032013348580998014
14.748000000000001,0.0031801791803255696
14.752,0.003183160207648302
14.756,0.003196815236029852
14.76,0.0031951323980250836
14.764000000000001,0.0031959738170274678
14.768,0.003195180479110934
14.772,0.0031961421008279444
14.776,0.003202945574475794
14.780000000000001,0.00319758453340346
14.784,0.0031849872889106222
14.788,0.003186525883657839
14.792,0.003204796696281039
14.796000000000001,0.0032076575208891457
14.8,0.0032120569402444687
14.804,0.003214821602680874
14.808,0.003238958307777839
14.812000000000001,0.0032604986342388747
14.816,0.0032445837948223504
14.82,0.0032221539682730795
14.824,0.00319388228979297
14.828000000000001,0.0031818139372444877
14.832,0.0031900117623820026
14.836,0.0032121050213303193
14.84,0.0032330443342182243
14.844000000000001,0.0032224184142452574
14.848,0.0032180670759757845
14.852,0.0032168169677436707
14.856,0.0032159755487412866
14.86,0.0032185719273772153
14.864,0.003209340358893914
14.868,0.0031965027089718235
14.872,0.0032078258046896223
14.876,0.003233140496389925
14.88,0.0032404488214392052
14.884,0.003236049402083882
14.888,0.003228476631062424
14.892,0.003240713267411383
14.896,0.0032699465676085033
14.9,0.0032706918244391862
14.904,0.003216095751455913
14.908,0.0031881125594909066
14.912,0.0032052534665966193
14.916,0.003218283440862112
14.92,0.0032106385482118783
14.924,0.003226168738941599
14.928,0.0032245339820226805
14.932,0.0032061189261419288
14.936,0.003205133263881993
14.94,0.003206142966684854
14.944,0.003213355129562433
14.948,0.0032339097937635337
14.952,0.003240593064696757
14.956,0.0032435019703907137
14.96,0.0032391987132070915
14.964,0.0032418431729288703
14.968,0.0032396314429797464
14.972,0.003248622606033795
14.976,0.00327285547330246
14.98,0.0032607630802110525
14.984,0.0032342704019074128
14.988,0.003233020293675299
14.992,0.0032220578061013783
14.996,0.0032086431831490816
15.0,0.0031957334115982152
15.004,0.0032059025612556015
15.008000000000001,0.0032140282647643405
15.012,0.003217562224574354
15.016,0.0032263370227420757
15.02,0.0032359291993692557
15.024000000000001,0.003239799726780223
15.028,0.0032314336178422315
15.032,0.0032341501991927863
15.036,0.003241554686413767
15.040000000000001,0.003233765550505982
15.044,0.003228644914862901
15.048,0.0032232598332476415
15.052,0.003227010157943983
15.056000000000001,0.003245256930024258
15.06,0.0032571329582293377
15.064,0.0032492957412357023
15.068,0.0032187882922635426
15.072000000000001,0.003223380035962268
15.076,0.003225086914509962
15.08,0.0032134753322770595
15.084,0.0032044360881371605
15.088000000000001,0.0032153985757110803
15.092,0.003218812332806468
15.096,0.003208426818262754
15.1,0.003210422183325551
15.104000000000001,0.0032270341984869085
15.108,0.0032484543222333177
15.112,0.0032480215924606632
15.116,0.0032420114567293474
15.120000000000001,0.0032360734426268075
15.124,0.0032417229702142443
15.128,0.0032345108073366653
15.132,0.00322809198237562
15.136000000000001,0.0032284045094336483
15.14,0.0032266976308859547
15.144,0.003248069673546514
15.148,0.0032501371602380864
15.152000000000001,0.0032312172529559043
15.156,0.003219365265293749
15.16,0.0032164082785139415
15.164,0.0032100134940958214
15.168000000000001,0.0032144850350799203
15.172,0.0032206153735258626
15.176,0.0032342944424503376
15.18,0.0032427567135600304
15.184000000000001,0.003226625509257179
15.188,0.0032274909688024883
15.192,0.00322763521206004
15.196,0.00321854788683429
15.200000000000001,0.003224582063108531
15.204,0.0032258802524264955
15.208,0.003221048103298517
15.212,0.0032241012522500256
15.216000000000001,0.0032176103056602047
15.22,0.0032079940884900994
15.224,0.0032344386857078894
15.228,0.0032377322400886505
15.232000000000001,0.003221408711442396
15.236,0.003218932535521094
15.24,0.0032189806166069445
15.244,0.0032201586032102824
15.248000000000001,0.003236602334571163
15.252,0.0032445116731935745
15.256,0.003236385969684836
15.26,0.0032247263063660825
15.264000000000001,0.0032186440490059908
15.268,0.0032254956037396916
15.272,0.003229991185266716
15.276,0.0032251109550528873
15.280000000000001,0.0032185238462913647
15.284,0.003211960778072768
15.288,0.0032103981427826257
15.292,0.003220495170811236
15.296000000000001,0.0032307124015544734
15.3,0.0032410257944694115
15.304,0.0032283564283477977
15.308,0.003223596400848595
15.312000000000001,0.0032429249973605074
15.316,0.003207897926318398
15.32,0.003167726179090282
15.324,0.003192608141017931
15.328000000000001,0.00323037583395352
15.332,0.003235953239912181
15.336,0.0032255677253684675
15.34,0.0032390785104924654
15.344000000000001,0.0032370350643438177
15.348,0.003225183076681663
15.352,0.0032320827125012137
15.356,0.0032208076978692646
15.36,0.0032105904671260277
15.364,0.0032162399947134645
15.368,0.003222298211530631
15.372,0.0032211442654702183
15.376,0.0032148696837667246
15.38,0.0032054698314829466
15.384,0.0032078498452325476
15.388,0.003223788725191997
15.392,0.0032446559164511263
15.396,0.0032374437535735473
15.4,0.0032468436058573254
15.404,0.003231313415127605
15.408,0.003202657087960691
15.412,0.003205157304424918
15.416,0.003196118060285019
15.42,0.003193088951876436
15.424,0.0032179949543470086
15.428,0.003215638981140333
15.432,0.0032162640352563898
15.436,0.003212369467302497
15.44,0.003219100819321571
15.444,0.0032095567237802416
15.448,0.0032105183454972518
15.452,0.0032090518723788108
15.456,0.003205157304424918
15.46,0.0032040754799932815
15.464,0.003216288075799315
15.468,0.003224413779308054
15.472,0.003205950642341452
15.476,0.0032104462238684763
15.48,0.0031918869247301728
15.484,0.0031896511542381235
15.488,0.0032078258046896223
15.492,0.003223307914333492
15.496,0.003228260266176097
15.5,0.0032170573731729237
15.504,0.0032203509275536848
15.508000000000001,0.003210806832012355
15.512,0.0032178026300036067
15.516,0.003223139630533015
15.52,0.003220567292440012
15.524000000000001,0.0032177785894606814
15.528,0.003221216387098994
15.532,0.003231313415127605
15.536,0.0032254234821109157
15.540000000000001,0.003211888656443992
15.544,0.003204219723250833
15.548,0.003207801764146697
15.552,0.0032062872099424054
15.556000000000001,0.00317657309888678
15.56,0.003137050446317646
15.564,0.003135583973199205
15.568,0.0031713803416149222
15.572000000000001,0.0031905646948692835
15.576,0.0031923196545028277
15.58,0.003209700967037793
15.584,0.0032266976308859547
15.588000000000001,0.0032382130509471556
15.592,0.00323357322616258
15.596,0.0032185719273772153
15.6,0.0032120328997015434
15.604000000000001,0.003215638981140333
15.608,0.0032123213862166465
15.612,0.0032078258046896223
15.616,0.003210253899525074
15.620000000000001,0.0032159515081983613
15.624,0.0032239089279066237
15.628,0.0032097250075807182
15.632,0.003199002925436051
15.636000000000001,0.0031960699791991685
15.64,0.003161860286616518
15.644,0.0031551289345974442
15.648,0.00317073124695594
15.652000000000001,0.0032081383317476508
15.656,0.0032150620081101266
15.66,0.003185828707913007
15.664,0.0031777751260330432
15.668000000000001,0.0031822947481029928
15.672,0.003189410748808871
15.676,0.0031894347893517963
15.68,0.0031835448563351065
15.684000000000001,0.003174818139253235
15.688,0.0031620285704169948
15.692,0.0031711158956427444
15.696,0.003199772222809659
15.700000000000001,0.0032021041554734096
15.704,0.0031949400736816813
15.708,0.0031935697627349414
15.712,0.003216191913627614
15.716000000000001,0.003246939768029026
15.72,0.0032158313054837353
15.724,0.0031746258149098327
15.728,0.0031895549920664223
15.732000000000001,0.0031913339922428918
15.736,0.003162389178560874
15.74,0.003157388745632419
15.744,0.0031588071376650096
15.748000000000001,0.003169409017095051
15.752,0.003175948044770723
15.756,0.0031833525319917046
15.76,0.003185395978140352
15.764000000000001,0.0031836890995926583
15.768,0.003173447828306495
15.772,0.0031730872201626162
15.776,0.0031918148031013973
15.780000000000001,0.0031992192903223782
15.784,0.0031848911267389215
15.788,0.003164504746338297
15.792,0.0031734237877635695
15.796000000000001,0.00318063595064115
15.8,0.0031436615956220936
15.804,0.0031370744868605715
15.808,0.0031641922192802686
15.812000000000001,0.0031735199499352707
15.816,0.003161667962273116
15.82,0.003168519517006816
15.824,0.003189963681296152
15.828000000000001,0.0031750585446824876
15.832,0.003165490408598233
15.836,0.003171356301071997
15.84,0.00316976962523893
15.844000000000001,0.0031688080035219193
15.848,0.003172269841703157
15.852,0.0031715486254153993
15.856,0.003169697503610154
15.860000000000001,0.0031673415304034782
15.864,0.003163471002992511
15.868,0.00315748490780412
15.872,0.0031656346518557843
15.876,0.0031746979365386086
15.88,0.0031733035850489435
15.884,0.0031990269659789763
15.888,0.0031826313157039465
15.892,0.003139141973552144
15.896,0.0031457290823136666
15.9,0.003156451164458334
15.904,0.0031519315423883844
15.908,0.003152171947817637
15.912,0.0031601293675258993
15.916,0.003173976720250851
15.92,0.0031932091545910624
15.924,0.0032021522365592602
15.928,0.003194531384451952
15.932,0.003178736747750054
15.936,0.003176549058343855
15.94,0.0031812610047572067
15.944,0.003170442760440837
15.948,0.0031733997472206442
15.952,0.003191694600386771
15.956,0.0031803955452118973
15.96,0.003126977458831961
15.964,0.003122842485448816
15.968,0.003149864055696812
15.972,0.0031716688281300254
15.976,0.0031702744766403603
15.98,0.003173255503963093
15.984,0.0031583263268065045
15.988,0.00316296615159108
15.992,0.0031750585446824876
15.996,0.0031925600599320802
16.0,0.003162749786704753
16.004,0.003155345299483772
16.008,0.0031688320440648446
16.012,0.0031671972871459265
16.016000000000002,0.003167678098004432
16.02,0.0031680146656053853
16.024,0.0031670770844313004
16.028,0.0031620766515028454
16.032,0.0031584465295211306
16.036,0.00315926390798059
16.04,0.003147339798689659
16.044,0.0031515949747874306
16.048000000000002,0.0031669088006308233
16.052,0.0031638316111363895
16.056,0.003161403516300938
16.06,0.0031694811387238267
16.064,0.0031617160433589663
16.068,0.0031204143906133643
16.072,0.0031172410389472293
16.076,0.003140271879069632
16.080000000000002,0.0031671972871459265
16.084,0.003164408584166596
16.088,0.003154431758852612
16.092,0.0031540230696228823
16.096,0.0031490226366944277
16.1,0.003145681001227816
16.104,0.0031419547170744
16.108,0.0031358724597143083
16.112000000000002,0.003134622351482195
16.116,0.003136136905686486
16.12,0.0031549606507969676
16.124,0.003147772528462314
16.128,0.0031389977302945927
16.132,0.003162773827247678
16.136,0.003172894895819214
16.14,0.0031645287868812223
16.144000000000002,0.003167581935832731
16.148,0.003177101990831136
16.152,0.0031783520990632495
16.156,0.0031733757066777194
16.16,0.0031617160433589663
16.164,0.0031510180017572244
16.168,0.003162220894760397
16.172,0.00316753385474688
16.176000000000002,0.0031647932328534
16.18,0.003166403949229393
16.184,0.003167605976375656
16.188,0.0031662116248859905
16.192,0.0031620285704169948
16.196,0.0031596966377532443
16.2,0.003159480272866917
16.204,0.003168711841350218
16.208000000000002,0.003169409017095051
16.212,0.0031592398674376646
16.216,0.003163230597563258
16.22,0.0031558020697993517
16.224,0.003155008731882818
16.228,0.003159816840467871
16.232,0.003162317056932098
16.236,0.00315743682671827
16.240000000000002,0.0031452723119980864
16.244,0.003156667529344661
16.248,0.0031671251655171506
16.252,0.00318022726141142
16.256,0.0032025128447031393
16.26,0.0032106385482118783
16.264,0.0031995798984662573
16.268,0.0031906368164980594
16.272000000000002,0.0031953247223684856
16.276,0.003183520815792181
16.28,0.0031741450040513276
16.284,0.00317529895011174
16.288,0.0031745056121952066
16.292,0.0031770539097452856
16.296,0.003146161812086321
