time,channel3
0.0,-0.006205873831813395
0.004,-0.006239242105393661
0.008,-0.006231284685685399
0.012,-0.0062141678191226105
0.016,-0.006234722483323712
0.02,-0.006240011402767269
0.024,-0.006192290925060621
0.028,-0.006183756532322153
0.032,-0.00619132930334361
0.036000000000000004,-0.006191040816828507
0.04,-0.006185679775756173
0.044,-0.006181640964544729
0.048,-0.006185247045983519
0.052000000000000005,-0.0061877713029906715
0.056,-0.006181929451059833
0.06,-0.006189382019366664
0.064,-0.00620731626438891
0.068,-0.006216163184185408
0.07200000000000001,-0.006224529293123399
0.076,-0.00622416868497952
0.08,-0.006222149279373798
0.084,-0.006226716982529598
0.088,-0.00622238968480305
0.092,-0.006227125671759327
0.096,-0.006205080493896861
0.1,-0.006201907142230726
0.10400000000000001,-0.0062053689804119645
0.108,-0.0062048881695534585
0.112,-0.006194670938810222
0.116,-0.00618950222208129
0.12,-0.006187314532675092
0.124,-0.006189141613937412
0.128,-0.006191978398002593
0.132,-0.006197243276903225
0.136,-0.006201714817887324
0.14,-0.006215369846268874
0.14400000000000002,-0.006201714817887324
0.148,-0.006183371883635348
0.152,-0.006210321332254568
0.156,-0.006236044713184601
0.16,-0.006227726685332459
0.164,-0.00624102110557013
0.168,-0.006222606049689378
0.17200000000000001,-0.006191233141171909
0.176,-0.006185487451412772
0.18,-0.006187795343533597
0.184,-0.006182891072776843
0.188,-0.006181640964544729
0.192,-0.006187122208331689
0.196,-0.006196353776814991
0.2,-0.0061957046821560086
0.20400000000000001,-0.00619214668180307
0.20800000000000002,-0.0061952959929262785
0.212,-0.006198301060791936
0.216,-0.00619031960054075
0.22,-0.006187434735389717
0.224,-0.006199647331195751
0.228,-0.00621914421150814
0.232,-0.006251286417399218
0.23600000000000002,-0.006283765190891248
0.24,-0.006171207368915164
0.244,-0.006214095697493835
0.248,-0.006228880631392873
0.252,-0.006229770131481107
0.256,-0.006234674402237861
0.26,-0.006241574038057412
0.264,-0.006210778102570149
0.268,-0.006196425898443766
0.272,-0.006201161885400043
0.276,-0.006200152182597182
0.28,-0.006206018075070947
0.28400000000000003,-0.006213085994690974
0.28800000000000003,-0.0061979164121051325
0.292,-0.006195151749668728
0.296,-0.006211186791799878
0.3,-0.006192290925060621
0.304,-0.006175991436957291
0.308,-0.006164500057439015
0.312,-0.006171399693258566
0.316,-0.006177914680391312
0.32,-0.006180270653597989
0.324,-0.006209816480853138
0.328,-0.006202964926119438
0.332,-0.006189862830225169
0.336,-0.006194093965780015
0.34,-0.006191882235830891
0.34400000000000003,-0.006184093099923106
0.34800000000000003,-0.006188901208508159
0.352,-0.006204118872179851
0.356,-0.0062200337115963745
0.36,-0.0062208270495129085
0.364,-0.006203349574806242
0.368,-0.006181015910428672
0.372,-0.00617315465289211
0.376,-0.006205969993985096
0.38,-0.006192266884517695
0.384,-0.0061949353847824
0.388,-0.006202315831460456
0.392,-0.006197050952559823
0.396,-0.006188179992220401
0.4,-0.006185896140642501
0.404,-0.0061901513167402725
0.40800000000000003,-0.006186857762359511
0.41200000000000003,-0.00617772235604791
0.41600000000000004,-0.0061786358966790704
0.42,-0.006183900775579704
0.424,-0.006190103235654422
0.428,-0.006192387087232322
0.432,-0.006206090196699722
0.436,-0.006233376212919897
0.44,-0.006232029942516082
0.444,-0.006212605183832469
0.448,-0.006204767966838833
0.452,-0.00621690844101609
0.456,-0.006200248344768883
0.46,-0.006201282088114669
0.464,-0.00617858781559322
0.468,-0.00618072742391357
0.47200000000000003,-0.006191353343886536
0.47600000000000003,-0.0061857038162990985
0.48,-0.0061861846271576044
0.484,-0.006180030248168737
0.488,-0.0061789484237370984
0.492,-0.006183275721463647
0.496,-0.006191906276373817
0.5,-0.006198277020249011
0.504,-0.006196425898443766
0.508,-0.006200104101511331
0.512,-0.006214937116496219
0.516,-0.006213446602834852
0.52,-0.0062069556562450315
0.524,-0.006207099899502583
0.528,-0.006204311196523252
0.532,-0.006207099899502583
0.536,-0.006239266145936586
0.54,-0.006232582875003364
0.544,-0.006181160153686224
0.548,-0.006174188396237896
0.552,-0.006198036614819759
0.556,-0.006212725386547094
0.56,-0.006205633426384142
0.5640000000000001,-0.006216355508528809
0.5680000000000001,-0.006221259779285563
0.5720000000000001,-0.006188059789505774
0.5760000000000001,-0.006171952625745847
0.58,-0.006191617789858713
0.584,-0.006186905843445362
0.588,-0.006181232275315
0.592,-0.006184766235125014
0.596,-0.0061803908563126154
0.6,-0.006184549870238686
0.604,-0.0062034697775208685
0.608,-0.006214456305637713
0.612,-0.006209047183479529
0.616,-0.0061965701417013175
0.62,-0.006181328437486701
0.624,-0.006188204032763326
0.628,-0.0061984693445924135
0.632,-0.006215586211155201
0.636,-0.006234602280609085
0.64,-0.006223880198464417
0.644,-0.006230851955912744
0.648,-0.006216692076129763
0.652,-0.006170269787741079
0.656,-0.0061756308288134125
0.66,-0.006202724520690185
0.664,-0.006198613587849965
0.668,-0.0061909446546568065
0.672,-0.006193012141348379
0.676,-0.006192266884517695
0.68,-0.00618082358608527
0.684,-0.006176039518043142
0.6880000000000001,-0.006178155085820565
0.6920000000000001,-0.006185559573041548
0.6960000000000001,-0.006207412426560611
0.7000000000000001,-0.006249555498308599
0.704,-0.00623731886195964
0.708,-0.006194815182067773
0.712,-0.00618402097829433
0.716,-0.006199358844680649
0.72,-0.0062128215487187955
0.724,-0.006209383751080483
0.728,-0.006191545668229938
0.732,-0.006178227207449341
0.736,-0.006176640531616273
0.74,-0.006164860665582895
0.744,-0.0061717362608595195
0.748,-0.0062184470357633075
0.752,-0.006280471636510488
0.756,-0.006260469904796668
0.76,-0.006207123940045509
0.764,-0.006169332206566993
0.768,-0.006185487451412772
0.772,-0.006179886004911185
0.776,-0.006163778841151258
0.78,-0.006164836625039969
0.784,-0.006174813450353953
0.788,-0.006180991869885747
0.792,-0.006179068626451726
0.796,-0.006184069059380181
0.8,-0.006188925249051084
0.804,-0.006193589114378585
0.808,-0.0061999838987967055
0.812,-0.00620503241281101
0.8160000000000001,-0.006198998236536769
0.8200000000000001,-0.006214384184008938
0.8240000000000001,-0.006234169550836431
0.8280000000000001,-0.006250469038939759
0.8320000000000001,-0.0062393863486512125
0.836,-0.0062097203186814364
0.84,-0.006211018507999401
0.844,-0.0061963297362720654
0.848,-0.006200200263683032
0.852,-0.0062223416037172
0.856,-0.006213903373150432
0.86,-0.006202964926119438
0.864,-0.006185198964897668
0.868,-0.006207700913075715
0.872,-0.006222461806431826
0.876,-0.006198637628392891
0.88,-0.0061949353847824
0.884,-0.006197026912016897
0.888,-0.006201065723228342
0.892,-0.006203902507293523
0.896,-0.006204166953265701
0.9,-0.006192891938633752
0.904,-0.0061859442217283515
0.908,-0.006184357545895284
0.912,-0.006180655302284794
0.916,-0.00617498173415443
0.92,-0.006197195195817374
0.924,-0.006207532629275238
0.928,-0.006213879332607507
0.932,-0.006227510320446132
0.936,-0.0062497718631949264
0.9400000000000001,-0.006236309159156779
0.9440000000000001,-0.006219552900737869
0.9480000000000001,-0.006198517425678264
0.9520000000000001,-0.006183083397120245
0.9560000000000001,-0.006180438937398466
0.96,-0.006186857762359511
0.964,-0.006183660370150452
0.968,-0.006183395924178273
0.972,-0.006185872100099576
0.976,-0.006192459208861098
0.98,-0.006200440669112285
0.984,-0.00622467353638095
0.988,-0.006241069186655981
0.992,-0.006230202861253762
0.996,-0.0062446993086376955
1.0,-0.00621097042691355
1.004,-0.006171495855430267
1.008,-0.006164812584497044
1.012,-0.006176592450530423
1.016,-0.006179357112966829
1.02,-0.00618813191113455
1.024,-0.006195127709125802
1.028,-0.006185775937927874
1.032,-0.006188396357106728
1.036,-0.006189790708596394
1.04,-0.006188011708419924
1.044,-0.0061926034521186495
1.048,-0.006205465142583665
1.052,-0.006214552467809414
1.056,-0.006239530591908764
1.06,-0.006258450499190946
1.064,-0.006219576941280795
1.068,-0.00621137911614328
1.072,-0.0061912571817148345
1.076,-0.006199599250109901
1.08,-0.00621914421150814
1.084,-0.006191377384429461
1.088,-0.0061903676816266
1.092,-0.006182410261918338
1.096,-0.006176592450530423
1.1,-0.006194815182067773
1.104,-0.0061827708700622165
1.108,-0.006180991869885747
1.112,-0.006176255882929469
1.116,-0.006159547705596412
1.12,-0.006151662407516925
1.124,-0.006150676745256989
1.1280000000000001,-0.00615904285419498
1.1320000000000001,-0.006165461679156026
1.1360000000000001,-0.0061740441529803455
1.1400000000000001,-0.006185054721640116
1.1440000000000001,-0.0061926034521186495
1.1480000000000001,-0.006207484548189387
1.1520000000000001,-0.006208157683391295
1.156,-0.006231356807314175
1.16,-0.006258234134304619
1.164,-0.0062186153195637845
1.168,-0.006171832423031221
1.172,-0.006169139882223592
1.176,-0.006171543936516118
1.18,-0.006170774639142509
1.184,-0.006165605922413578
1.188,-0.006148873704537594
1.192,-0.006145532069070983
1.196,-0.006150676745256989
1.2,-0.006157648502705316
1.204,-0.00616721663878957
1.208,-0.0061730104096345585
1.212,-0.00617579911261389
1.216,-0.006177866599305462
1.22,-0.006182290059203711
1.224,-0.006189309897737888
1.228,-0.006202844723404812
1.232,-0.006192074560174294
1.236,-0.0061800062076258115
1.24,-0.006220634725169506
1.244,-0.006221355941457264
1.248,-0.006205633426384142
1.252,-0.00617899650482295
1.256,-0.006169740895796723
1.26,-0.006173058490720409
1.264,-0.006177505991161583
1.268,-0.0061668319901027665
1.272,-0.006171303531086865
1.276,-0.006175823153156815
1.28,-0.006185415329783996
1.284,-0.0061715920176019685
1.288,-0.006160509327313422
1.292,-0.0061591390163666816
1.296,-0.006162889341063023
1.3,-0.0061636586384366315
1.304,-0.00617046211208448
1.308,-0.006200344506940584
1.312,-0.006194815182067773
1.316,-0.006191305262800685
1.32,-0.006183996937751405
1.324,-0.006173947990808644
1.328,-0.006167264719875421
1.332,-0.006142815487720428
1.336,-0.0061493545153961
1.34,-0.006157600421619465
1.344,-0.006157768705419942
1.348,-0.006192507289946948
1.352,-0.006179789842739484
1.356,-0.0061540664618094515
1.36,-0.0061374063655622434
1.364,-0.006142743366091653
1.368,-0.006151349880458896
1.372,-0.0061569994080463335
1.3760000000000001,-0.006162120043689414
1.3800000000000001,-0.006167024314446168
1.3840000000000001,-0.006173779707008167
1.3880000000000001,-0.006179717721110708
1.3920000000000001,-0.0061835161268929
1.3960000000000001,-0.006211859927001785
1.4000000000000001,-0.006194767100981923
1.4040000000000001,-0.006155965664700547
1.408,-0.006163899043865884
1.412,-0.006141733663288791
1.416,-0.006127525702419961
1.42,-0.006144137717581317
1.424,-0.006155989705243473
1.428,-0.006139906582026471
1.432,-0.006141565379488315
1.436,-0.0061508931101433165
1.44,-0.006151782610231552
1.444,-0.006150917150686242
1.448,-0.006149378555939025
1.452,-0.006167408963132973
1.456,-0.006195632560527233
1.46,-0.006207123940045509
1.464,-0.006196546101158392
1.468,-0.006155629097099593
1.472,-0.00613661302764571
1.476,-0.006148897745080519
1.48,-0.006153152921178291
1.484,-0.006152696150862711
1.488,-0.006142118311975596
1.492,-0.006137214041218842
1.496,-0.006130963500058273
1.5,-0.006140579717228378
1.504,-0.006158682246051102
1.508,-0.006158009110849194
1.512,-0.0061612786246870305
1.516,-0.006171399693258566
1.52,-0.006163826922237109
1.524,-0.006158802448765728
1.528,-0.006161206503058255
1.532,-0.006184573910781611
1.536,-0.006158850529851579
1.54,-0.0061434405418364845
1.544,-0.0061335358381512765
1.548,-0.006153225042807067
1.552,-0.006182626626804665
1.556,-0.006172938288005783
1.56,-0.006116106444530461
1.564,-0.006091633171832543
1.568,-0.006099422307740328
1.572,-0.0061154573498714785
1.576,-0.006132237648833312
1.58,-0.0061400267847410974
1.584,-0.006144522366268122
1.588,-0.006150989272315018
1.592,-0.006155244448412789
1.596,-0.006154234745609928
1.6,-0.006154955961897686
1.604,-0.0061936371954644355
1.608,-0.006228231536733891
1.612,-0.006206018075070947
1.616,-0.0061792849913380535
1.62,-0.006134521500411212
1.624,-0.006100287767285637
1.6280000000000001,-0.006104879510984363
1.6320000000000001,-0.006120529904428709
1.6360000000000001,-0.006152984637377815
1.6400000000000001,-0.006178443572335668
1.6440000000000001,-0.006170942922942986
1.6480000000000001,-0.006162168124775265
1.6520000000000001,-0.006123438810122666
1.6560000000000001,-0.006101994645833331
1.6600000000000001,-0.006105167997499466
1.6640000000000001,-0.006112716727977999
1.668,-0.006120145255741905
1.672,-0.006129376824225206
1.676,-0.00612245314786273
1.68,-0.006124376391296751
1.684,-0.006140772041571781
1.688,-0.006139618095511368
1.692,-0.006173178693435036
1.696,-0.0062109944674564755
1.7,-0.0061745970854676265
1.704,-0.006145964798843637
1.708,-0.006126660242874651
1.712,-0.006107403767991515
1.716,-0.006092979442236357
1.72,-0.006115721795843657
1.724,-0.006119520201625848
1.728,-0.0061180777690503325
1.732,-0.006123534972294367
1.736,-0.006129833594540786
1.74,-0.006140146987455724
1.744,-0.006147142785446975
1.748,-0.006146421569159217
1.752,-0.0061425750822911756
1.756,-0.0061343291760678105
1.76,-0.006141925987632193
1.764,-0.006187603019190194
1.768,-0.006191209100628984
1.772,-0.006160317002970019
1.776,-0.006153657772579721
1.78,-0.0061495468397395016
1.784,-0.006143224176950158
1.788,-0.0061168036202752935
1.792,-0.006142599122834101
1.796,-0.006145820555586086
1.8,-0.006114014917295962
1.804,-0.006100119483485161
1.808,-0.006107716295049544
1.812,-0.006108725997852405
1.816,-0.006113510065894532
1.82,-0.006119327877282446
1.824,-0.006124472553468452
1.828,-0.0061242561885821245
1.832,-0.0061309154189724225
1.836,-0.006152624029233935
1.84,-0.0061578648675916425
1.844,-0.006170654436427883
1.848,-0.006177169423560629
1.852,-0.006172072828460474
1.856,-0.006132117446118686
1.86,-0.006110432876400098
1.864,-0.0061224291073198045
1.868,-0.006116130485073386
1.872,-0.006117212309505023
1.8760000000000001,-0.006097691388649709
1.8800000000000001,-0.006099806956427132
1.8840000000000001,-0.006113894714581337
1.8880000000000001,-0.006129953797255412
1.8920000000000001,-0.006138872838680685
1.8960000000000001,-0.00611920767456782
1.9000000000000001,-0.00611651513376019
1.9040000000000001,-0.006119375958368296
1.9080000000000001,-0.006117645039277677
1.9120000000000001,-0.0061415413389453895
1.9160000000000001,-0.006161639232830909
1.92,-0.006160605489485123
1.924,-0.006147888042277659
1.928,-0.006142142352518521
1.932,-0.006150628664171138
1.936,-0.006147311069247452
1.94,-0.006126299634730772
1.944,-0.006120986674744289
1.948,-0.006117645039277677
1.952,-0.0061266121617888
1.956,-0.006120337580085307
1.96,-0.0061115627819175854
1.964,-0.006103629402752249
1.968,-0.0061061055786735515
1.972,-0.006111634903546361
1.976,-0.006118005647421557
1.98,-0.00612062606660041
1.984,-0.006119832728683877
1.988,-0.006128607526851597
1.992,-0.006143584785094036
1.996,-0.006162841259977172
2.0,-0.006198252979706086
2.004,-0.006187699181361896
2.008,-0.006131396229830928
2.012,-0.00612519376975621
2.016,-0.006128920053909626
2.02,-0.006098051996793588
2.024,-0.006082906454750672
2.028,-0.006081031292402501
2.032,-0.006080117751771341
2.036,-0.0060872337524772195
2.04,-0.0060942055099255455
2.044,-0.006099927159141759
2.048,-0.006107740335592469
2.052,-0.006116851701361144
2.056,-0.006121900215375449
2.06,-0.006123030120892936
2.064,-0.006128679648480373
2.068,-0.006149330474853175
2.072,-0.00616036508405587
2.076,-0.006160701651656824
2.08,-0.006157528299990689
2.084,-0.006138969000852386
2.088,-0.006117861404164005
2.092,-0.006098532807652093
2.096,-0.006091248523145738
2.1,-0.006123655175008993
2.104,-0.006137214041218842
2.108,-0.0061117310657180625
2.112,-0.006107548011249067
2.116,-0.006101922524204556
2.12,-0.006092618834092478
2.124,-0.006096321077702969
2.128,-0.006107187403105188
2.132,-0.006115024620098824
2.136,-0.006125386094099612
2.14,-0.006130699054086096
2.144,-0.006127766107849214
2.148,-0.006139930622569396
2.152,-0.006146710055674321
2.156,-0.006141132649715659
2.16,-0.0061540664618094515
2.164,-0.006128871972823776
2.168,-0.006104999713698989
2.172,-0.006102619699949388
2.176,-0.006100840699772918
2.18,-0.006101249389002648
2.184,-0.006100936861944619
2.188,-0.00610514395695654
2.192,-0.006109423173597237
2.196,-0.006117212309505023
2.2,-0.00611834221502251
2.204,-0.006124616796726004
2.208,-0.006127237215904857
2.212,-0.006130939459515348
2.216,-0.00615209513728958
2.22,-0.006164908746668745
2.224,-0.006154955961897686
2.228,-0.006150508461456513
2.232,-0.0061298095539978606
2.236,-0.00610463910555511
2.24,-0.006099181902311075
2.244,-0.006095239253271332
2.248,-0.006115289066071001
2.2520000000000002,-0.0061229099181783105
2.2560000000000002,-0.006110601160200575
2.2600000000000002,-0.006104542943383409
2.2640000000000002,-0.006105985375958925
2.2680000000000002,-0.006103028389179118
2.2720000000000002,-0.006105720929986747
2.2760000000000002,-0.006111923390061465
2.2800000000000002,-0.006114087038924738
2.2840000000000003,-0.006119159593481969
2.2880000000000003,-0.006127549742962886
2.2920000000000003,-0.006133607959780052
2.2960000000000003,-0.0061298816756266365
2.3000000000000003,-0.006131877040689434
2.3040000000000003,-0.006140291230713276
2.308,-0.006167481084761748
2.312,-0.006173755666465242
2.316,-0.006153802015837273
2.32,-0.006135555243756999
2.324,-0.006114856336298347
2.328,-0.006108605795137778
2.332,-0.006092618834092478
2.336,-0.006092811158435881
2.34,-0.006125698621157641
2.344,-0.006144618528439822
2.348,-0.006105264159671167
2.352,-0.006092642874635404
2.356,-0.0060936525774382645
2.36,-0.006101297470088499
2.364,-0.006110937727801529
2.368,-0.006111226214316632
2.372,-0.006113606228066233
2.376,-0.006118606660994688
2.38,-0.006132886743492294
2.384,-0.0061368534330749624
2.388,-0.006127501661877035
2.392,-0.006173875869179868
2.396,-0.006156182029586874
2.4,-0.006131227946030451
2.404,-0.0061202894989994564
2.408,-0.006109831862826967
2.412,-0.00611372643078086
2.416,-0.006110745403458127
2.42,-0.006095383496528883
2.424,-0.006090671550115532
2.428,-0.006094782482955752
2.432,-0.00610007140239931
2.436,-0.00610600941650185
2.44,-0.006113101376664803
2.444,-0.006126227513101996
2.448,-0.0061285354052228215
2.452,-0.00612245314786273
2.456,-0.006123655175008993
2.46,-0.006109447214140163
2.464,-0.006120818390943812
2.468,-0.006190223438369048
2.472,-0.006176352045101171
2.476,-0.006111803187346838
2.48,-0.006095527739786435
2.484,-0.006102836064835715
2.488,-0.006124424472382602
2.492,-0.00610692295713301
2.496,-0.0060936525774382645
2.5,-0.00609641723987467
2.504,-0.006100335848371488
2.508,-0.0061023792945201355
2.512,-0.0061056247678150455
2.516,-0.0061079326599358715
2.52,-0.006107548011249067
2.524,-0.006116346849959714
2.528,-0.006138247784564628
2.532,-0.006157215772932661
2.536,-0.006170173625569378
2.54,-0.0061418538660034175
2.544,-0.006110384795314248
2.548,-0.0060872337524772195
2.552,-0.00609555178032936
2.556,-0.006116827660818219
2.56,-0.006138776676508984
2.564,-0.006149114109966847
2.568,-0.006140459514513752
2.572,-0.006097306739962905
2.576,-0.006080358157200593
2.58,-0.006081968873576587
2.584,-0.006088171333651304
2.588,-0.006096056631730791
2.592,-0.006102547578320612
2.596,-0.006110793484543978
2.6,-0.006093171766579759
2.604,-0.0060981000778794385
2.608,-0.006141036487543958
2.612,-0.006140555676685453
2.616,-0.006143272258036008
2.62,-0.0061400267847410974
2.624,-0.006180631261741868
2.628,-0.006145652271785609
2.632,-0.006096297037160044
2.636,-0.006089878212198999
2.64,-0.006104711227183886
2.644,-0.006096729766932698
2.648,-0.006090310941971653
2.652,-0.00610413425415368
2.656,-0.006106995078761786
2.66,-0.006089758009484372
2.664,-0.006085070103613946
2.668,-0.006086200009131433
2.672,-0.0060827141304072695
2.676,-0.006083267062894551
2.68,-0.0061071393220193376
2.684,-0.0061226695127490575
2.688,-0.006136492824931084
2.692,-0.00615711961076096
2.696,-0.006150027650598007
2.7,-0.00609321984766561
2.704,-0.006099398267197403
2.708,-0.00612514568867036
2.712,-0.006109182768167984
2.716,-0.006118462417737136
2.72,-0.006131396229830928
2.724,-0.006120553944971635
2.728,-0.00607737712987786
2.732,-0.0060647077637562465
2.736,-0.006068097480308709
2.74,-0.0060739874133253985
2.744,-0.00607961290036991
2.748,-0.006085815360444629
2.7520000000000002,-0.006090359023057504
2.7560000000000002,-0.006094734401869901
2.7600000000000002,-0.006097450983220456
2.7640000000000002,-0.006102162929633808
2.7680000000000002,-0.006085478792843675
2.7720000000000002,-0.006078843602996302
2.7760000000000002,-0.006129064297167177
2.7800000000000002,-0.006180847626628195
2.7840000000000003,-0.006156855164788782
2.7880000000000003,-0.006129400864768131
2.7920000000000003,-0.0061202173773706806
2.7960000000000003,-0.006082786252036045
2.8000000000000003,-0.006070693858944637
2.8040000000000003,-0.006070549615687085
2.8080000000000003,-0.0060606689525448025
2.8120000000000003,-0.006062808560865151
2.816,-0.006085598995558302
2.82,-0.006104014051439053
2.824,-0.00610733164636274
2.828,-0.0061061777003023265
2.832,-0.006087642441706949
2.836,-0.0060706457778587864
2.84,-0.006086488495646536
2.844,-0.006154643434839658
2.848,-0.006160317002970019
2.852,-0.006107163362562263
2.856,-0.006068722534424766
2.86,-0.0060858874820734045
2.864,-0.006137791014249048
2.868,-0.006112476322548746
2.872,-0.00609418146938262
2.876,-0.006092138023233973
2.88,-0.006063265331180731
2.884,-0.006052471127407288
2.888,-0.006058168736080575
2.892,-0.006065212615157677
2.896,-0.006071559318489947
2.9,-0.006078146427251469
2.904,-0.0060844690900408145
2.908,-0.006088555982338109
2.912,-0.006091128320431112
2.916,-0.00609641723987467
2.92,-0.006099686753712506
2.924,-0.006086488495646536
2.928,-0.006094782482955752
2.932,-0.006105793051615523
2.936,-0.006104663146098035
2.94,-0.006105817092158448
2.944,-0.006129977837798338
2.948,-0.006124376391296751
2.952,-0.006092041861062272
2.956,-0.006086512536189461
2.96,-0.0060877866849645005
2.964,-0.0060767520757618034
2.968,-0.006081271697831754
2.972,-0.006094421874811873
2.976,-0.006096681685846848
2.98,-0.006092642874635404
2.984,-0.0060753336837292135
2.988,-0.006069467791255449
2.992,-0.006071799723919199
2.996,-0.006078507035395348
3.0,-0.0060874020362776966
3.004,-0.006086873144333341
3.008,-0.006107403767991515
3.012,-0.006116346849959714
3.016,-0.006106394065188654
3.02,-0.006144185798667168
3.024,-0.006129785513454935
3.028,-0.006081223616745904
3.032,-0.006058000452280098
3.036,-0.0060596352091990165
3.04,-0.006049153532483601
3.044,-0.006055452154730021
3.048,-0.0060670877775058476
3.052,-0.006069251426369122
3.056,-0.006048336154024142
3.06,-0.006055812762873899
3.064,-0.006084925860356394
3.068,-0.006126035188758594
3.072,-0.0061416134605741645
3.076,-0.006143729028351588
3.08,-0.0061152169444422255
3.084,-0.0060799254274279384
3.088,-0.0060970663345336525
3.092,-0.00608276221149312
3.096,-0.006069612034513
3.1,-0.006063649979867535
3.104,-0.006061726736433514
3.108,-0.006102499497234762
3.112,-0.0061013455511743486
3.116,-0.006070597696772936
3.12,-0.006069491831798374
3.124,-0.0060800937112284155
3.128,-0.006069443750712523
3.132,-0.0060645394799557694
3.136,-0.0060695399128842245
3.14,-0.006076703994675953
3.144,-0.006083531508866729
3.148,-0.006086656779447013
3.152,-0.006120025053027278
3.156,-0.0061243283102109
3.16,-0.006068025358679933
3.164,-0.0060816082654327076
3.168,-0.006078338751594871
3.172,-0.00606860233171014
3.176,-0.0060605006687443255
3.18,-0.006098460686023317
3.184,-0.006124424472382602
3.188,-0.006101634037689452
3.192,-0.006095744104672763
3.196,-0.006105528605643345
3.2,-0.0060822333195487644
3.204,-0.006084421008954964
3.208,-0.00610778841667832
3.212,-0.006087329914648921
3.216,-0.006039849842371525
3.22,-0.006036003355503482
3.224,-0.006075453886443839
3.228,-0.00609052730685798
3.232,-0.006080598562629847
3.236,-0.0060850220225280955
3.24,-0.006111634903546361
3.244,-0.006111250254859557
3.248,-0.006087113549762593
3.2520000000000002,-0.006062447952721272
3.2560000000000002,-0.006052326884149736
3.2600000000000002,-0.006054226087040832
3.2640000000000002,-0.0060850220225280955
3.2680000000000002,-0.0060718958860909
3.2720000000000002,-0.006062544114892973
3.2760000000000002,-0.006063962506925563
3.2800000000000002,-0.006069083142568645
3.2840000000000003,-0.006077906021822216
3.2880000000000003,-0.006099422307740328
3.2920000000000003,-0.006115529471500254
3.2960000000000003,-0.006097667348106784
3.3000000000000003,-0.006085046063071021
3.3040000000000003,-0.006064323115069443
3.3080000000000003,-0.006054682857356412
3.3120000000000003,-0.006043335721095688
3.3160000000000003,-0.006035474463559127
3.3200000000000003,-0.00604307127512351
3.3240000000000003,-0.006046172505160869
3.3280000000000003,-0.006052134559806334
3.332,-0.006052591330121914
3.336,-0.006059298641598062
3.34,-0.006073097913237163
3.344,-0.0060945420775265
3.348,-0.006106153659759401
3.352,-0.006103196672979594
3.356,-0.006110192470970846
3.36,-0.006092041861062272
3.364,-0.006054658816813487
3.368,-0.006056197411560703
3.372,-0.006101081105202171
3.376,-0.006062471993264197
3.38,-0.006028983516969304
3.384,-0.006023261867753092
3.388,-0.006039248828798393
3.392,-0.006077064602819832
3.396,-0.006119640404340474
3.4,-0.006106201740845252
3.404,-0.006061486331004262
3.408,-0.00604311935620936
3.412,-0.006049081410854825
3.416,-0.00607869935973875
3.42,-0.006091561050203767
3.424,-0.006059226519969286
3.428,-0.006032854044380273
3.432,-0.006032637679493946
3.436,-0.0060374457880789986
3.44,-0.006043359761638613
3.444,-0.006048215951309516
3.448,-0.006051557586776128
3.452,-0.006047711099908085
3.456,-0.0060364841663619875
3.46,-0.0060553559925583195
3.464,-0.006085526873929526
3.468,-0.006138632433251432
3.472,-0.006161398827401657
3.476,-0.006111274295402483
3.48,-0.006053865478896953
3.484,-0.006027420881679162
3.488,-0.006014366866870745
3.492,-0.006011482001719713
3.496,-0.006043720369782492
3.5,-0.006047711099908085
3.504,-0.006049105451397751
3.508,-0.00605266345175069
3.512,-0.006040306612687105
3.516,-0.006037373666450223
3.52,-0.006042975112951808
3.524,-0.0060513893029756505
3.528,-0.0060551155871290665
3.532,-0.006084252725154487
3.536,-0.006107884578850021
3.54,-0.00606545302058693
3.544,-0.0060318924226632625
3.548,-0.006024511975985206
3.552,-0.0060463167484184205
3.556,-0.006089156995911241
3.56,-0.006083026657465298
3.564,-0.006048744843253872
3.568,-0.006014919799358026
3.572,-0.006002178311607636
3.576,-0.0060102318934875994
3.58,-0.00602129054323322
3.584,-0.006016746880620346
3.588,-0.006010856947603656
3.592,-0.006028454625024948
3.596,-0.006044297342812698
3.6,-0.006031844341577412
3.604,-0.006016770921163271
3.608,-0.00606824172356626
3.612,-0.006141757703831716
3.616,-0.00608910891482539
3.62,-0.006035474463559127
3.624,-0.006012828272123527
3.628,-0.006006746014763436
3.632,-0.005998884757226875
3.636,-0.006017011326592523
3.64,-0.006056558019704583
3.644,-0.006038792058482813
3.648,-0.0059934275539828405
3.652,-0.005986431755991588
3.656,-0.005991672594349296
3.66,-0.0059998463789438855
3.664,-0.00600758743376582
3.668,-0.006014414947956595
3.672,-0.006021579029748324
3.676,-0.00602443985435643
3.68,-0.006029223922398557
3.684,-0.006033671422839732
3.688,-0.006036556287990763
3.692,-0.006049297775741153
3.696,-0.006046412910590122
3.7,-0.006026459259962152
3.704,-0.005998668392340548
3.708,-0.005995134432530534
3.712,-0.0060053997443596215
3.716,-0.0060120589747499195
3.72,-0.005987850148024179
3.724,-0.005974531687243583
3.728,-0.005980061012116394
3.732,-0.005982729512381098
3.736,-0.005984580634186343
3.74,-0.006000543554688718
3.744,-0.006009294312313514
3.748,-0.006035955274417632
3.7520000000000002,-0.006019223056541648
3.7560000000000002,-0.005991023499690314
3.7600000000000002,-0.006003861149612404
3.7640000000000002,-0.0060329982876378245
3.7680000000000002,-0.006013309082982033
3.7720000000000002,-0.005981912133921639
3.7760000000000002,-0.00598474891798682
3.7800000000000002,-0.0059894608644001715
3.7840000000000003,-0.005969290848885876
3.7880000000000003,-0.005965035672788104
3.7920000000000003,-0.005973906633127526
3.7960000000000003,-0.0059766232144780815
3.8000000000000003,-0.005984003661156137
3.8040000000000003,-0.005981287079805582
3.8080000000000003,-0.005982849715095724
3.8120000000000003,-0.005984075782784913
3.8160000000000003,-0.005979508079629113
3.8200000000000003,-0.0059747240115869855
3.8240000000000003,-0.006001384973691102
3.8280000000000003,-0.006033671422839732
3.8320000000000003,-0.006048720802710947
3.8360000000000003,-0.0060091981501418125
3.84,-0.005979051309313533
3.844,-0.005975805836018622
3.848,-0.005988475202140236
3.852,-0.005993595837783317
3.856,-0.005996240297505096
3.86,-0.005977680998366793
3.864,-0.005960035239859649
3.868,-0.005962920105010681
3.872,-0.005964530821386674
3.876,-0.005989100256256293
3.88,-0.006023814800240373
3.884,-0.006007106622907315
3.888,-0.005969314889428801
3.892,-0.005965853051247563
3.896,-0.005986744283049617
3.9,-0.005973425822269021
3.904,-0.005953448131098127
3.908,-0.00597104580851942
3.912,-0.0060112656368333855
3.916,-0.006008500974396981
3.92,-0.005992802499866784
3.924,-0.005976262606334202
3.928,-0.005964146172699869
3.932,-0.005969915903001933
3.936,-0.006008212487881877
3.94,-0.006027372800593312
3.944,-0.005994413216242776
3.948,-0.005992489972808755
3.952,-0.006008260568967728
3.956,-0.005996072013704619
3.96,-0.005973810470955825
3.964,-0.00597611836307665
3.968,-0.00599155239163467
3.972,-0.005988956012998741
3.976,-0.005977296349679988
3.98,-0.005970781362547242
3.984,-0.0059961200947904695
3.988,-0.006030738476602849
3.992,-0.00602169923246295
3.996,-0.006012034934206994
4.0,-0.006026579462676778
4.0040000000000004,-0.006021242462147369
4.008,-0.006014823637186324
4.0120000000000005,-0.006023165705581391
4.016,-0.005996047973161694
4.0200000000000005,-0.005958015834253928
4.024,-0.0059665502269923955
4.0280000000000005,-0.005979027268770608
4.032,-0.005985878823504307
4.0360000000000005,-0.005992562094437531
4.04,-0.0060008801222896715
4.0440000000000005,-0.006018309515910487
4.048,-0.006040354693772955
4.0520000000000005,-0.006024151367841326
4.056,-0.006002370635951038
4.0600000000000005,-0.006021530948662473
4.064,-0.006030546152259447
4.0680000000000005,-0.006048841005425573
4.072,-0.006038407409796009
4.0760000000000005,-0.006022252164950231
4.08,-0.006039248828798393
4.0840000000000005,-0.006025064908472487
4.088,-0.0060033322576680485
4.0920000000000005,-0.005985902864047233
4.096,-0.005981263039262657
4.1,-0.00598058990406075
4.104,-0.0059928746214955595
4.108,-0.006001384973691102
4.112,-0.00600854905548283
4.116,-0.00601667475899157
4.12,-0.006019727907943078
4.124,-0.00600936643394229
4.128,-0.006015592934559933
4.132,-0.006051653748947829
4.136,-0.006083916157553533
4.14,-0.006086728901075789
4.144,-0.006093291969294386
4.148,-0.006102451416148911
4.152,-0.006069179304740346
4.156,-0.006094349753183097
4.16,-0.006058024492823023
4.164,-0.006019679826857228
4.168,-0.006011385839548012
4.172,-0.005994437256785701
4.176,-0.005998572230168846
4.18,-0.006009582798828617
4.184,-0.006005111257844518
4.188,-0.006009029866341336
4.192,-0.006015256366958979
4.196,-0.006019679826857228
4.2,-0.006017468096908104
4.204,-0.006015088083158503
4.208,-0.006044008856297595
4.212,-0.006047807262079786
4.216,-0.006037157301563895
4.22,-0.00608824345528008
4.224,-0.0061276699456775125
4.228,-0.006061558452633037
4.232,-0.006032878084923198
4.236,-0.006033863747183134
4.24,-0.006021338624319071
4.244,-0.006020929935089341
4.248,-0.006009582798828617
4.252,-0.006008789460912083
4.256,-0.0060138860560122395
4.26,-0.006016434353562317
4.264,-0.006016362231933541
4.268,-0.006023165705581391
4.272,-0.00602398308404085
4.276,-0.006036003355503482
4.28,-0.006085478792843675
4.284,-0.006152023015660804
4.288,-0.006099710794255431
4.292,-0.0060471822079637295
4.296,-0.006045739775388214
4.3,-0.006056389735904106
4.304,-0.006049369897369929
4.308,-0.006042133693949425
4.312,-0.006047206248506655
4.316,-0.006049826667685509
4.32,-0.006055524276358796
4.324,-0.006039681558571048
4.328,-0.006032950206551974
4.332,-0.006038191044909681
4.336,-0.006046124424075018
4.34,-0.006049658383885032
4.344,-0.006042205815578201
4.348,-0.006068361926280887
4.352,-0.006097979875164812
4.356,-0.006103052429722043
4.36,-0.0060811274545742025
4.364,-0.006085046063071021
4.368,-0.006087137590305518
4.372,-0.006067135858591698
4.376,-0.0060505959650591174
4.38,-0.006045739775388214
4.384,-0.006059466925398539
4.388,-0.006095527739786435
4.392,-0.006087882847136202
4.396,-0.006063361493352432
4.4,-0.006058481263138604
4.404,-0.006063193209551955
4.408,-0.006085430711757825
4.412,-0.006135362919413597
4.416,-0.006120938593658439
4.42,-0.006077545413678337
4.424,-0.0060512450597181
4.428,-0.006040426815401731
4.432,-0.006093364090923162
4.436,-0.00612925662151058
4.44,-0.006112933092864326
4.444,-0.006104663146098035
4.448,-0.006081704427604409
4.452,-0.006063361493352432
4.456,-0.006048191910766591
4.46,-0.006044754113128278
4.464,-0.006052350924692662
4.468,-0.00606545302058693
4.472,-0.006077256927163234
4.476,-0.006068818696596466
4.48,-0.006072064169891377
4.484,-0.006076054900016971
4.488,-0.006063313412266582
4.492,-0.006090190739257027
4.496,-0.006142118311975596
4.5,-0.006144570447353973
4.5040000000000004,-0.006170991004028837
4.508,-0.0061274295402482595
4.5120000000000005,-0.006067183939677549
4.516,-0.006061991182405692
4.5200000000000005,-0.006071102548174367
4.524,-0.006077112683905683
4.5280000000000005,-0.00607966098145576
4.532,-0.006059178438883436
4.5360000000000005,-0.006047158167420804
4.54,-0.006045379167244335
4.5440000000000005,-0.006051485465147352
4.548,-0.006062399871635421
4.5520000000000005,-0.006061822898605215
4.556,-0.006057639844136219
4.5600000000000005,-0.006051148897546398
4.564,-0.0060708140616592635
4.5680000000000005,-0.006117861404164005
4.572,-0.006107644173420768
4.5760000000000005,-0.006116034322901685
4.58,-0.006117212309505023
4.5840000000000005,-0.006093941063953368
4.588,-0.0060543943708413085
4.5920000000000005,-0.00606179885806229
4.596,-0.006077112683905683
4.6000000000000005,-0.006050956573202996
4.604,-0.006027613206022565
4.6080000000000005,-0.006027805530365966
4.612,-0.006035498504102052
4.616,-0.00604860059999632
4.62,-0.006059755411913642
4.624,-0.006055932965588526
4.628,-0.006050860411031295
4.632,-0.006057279235992341
4.636,-0.006070790021116338
4.64,-0.006066438682846865
4.644,-0.006071102548174367
4.648,-0.0060944459153547985
4.652,-0.0061180777690503325
4.656,-0.006146036920472413
4.66,-0.006124712958897705
4.664,-0.006054202046497907
4.668,-0.006037902558394578
4.672,-0.00604083550463146
4.676,-0.006058962073997109
4.68,-0.006078482994852422
4.684,-0.006076030859474045
4.688,-0.006038407409796009
4.692,-0.006016891123877897
4.696,-0.006020545286402537
4.7,-0.006027853611451817
4.704,-0.006033358895781703
4.708,-0.006036916896134642
4.712,-0.00602443985435643
4.716,-0.006004630446986013
4.72,-0.0060288633142546785
4.724,-0.006079252292226031
4.728,-0.006092739036807105
4.732,-0.0061119714711473155
4.736,-0.006157167691846811
4.74,-0.0061317087568889565
4.744,-0.006045643613216513
4.748,-0.006018598002425591
4.752,-0.006032661720036871
4.756,-0.006048239991852442
4.76,-0.006053264465323821
4.764,-0.0060562214521036285
4.768,-0.006059755411913642
4.772,-0.006052278803063886
4.776,-0.006055524276358796
4.78,-0.006063698060953386
4.784,-0.006079108048968479
4.788,-0.006116322809416788
4.792,-0.006116226647245087
4.796,-0.006066005953074211
4.8,-0.006047614937736385
4.804,-0.0060521826408921845
4.808,-0.006061606533718887
4.812,-0.006072641142921584
4.816,-0.006043768450868342
4.82,-0.006032036665920814
4.824,-0.006042446221007453
4.828,-0.006092330347577375
4.832,-0.006114519768697394
4.836,-0.006066919493705371
4.84,-0.0060404508559446565
4.844,-0.0060385516530535605
4.848,-0.006041436518204592
4.852,-0.006045331086158484
4.856,-0.006049297775741153
4.86,-0.006058625506396155
4.864,-0.006085550914472451
4.868,-0.006094638239698201
4.872,-0.006083483427780878
4.876,-0.006061438249918411
4.88,-0.00609600855064494
4.884,-0.0061152169444422255
4.888,-0.006060452587658475
4.892,-0.006044105018469296
4.896,-0.006062159466206168
4.9,-0.0060604766282014
4.904,-0.006046917761991552
4.908,-0.006037614071879475
4.912,-0.006036844774505867
4.916,-0.006040042166714926
4.92,-0.0060484563567387685
4.924,-0.0060562214521036285
4.928,-0.006063313412266582
4.932,-0.006071487196861171
4.936,-0.0060777136974788145
4.94,-0.006077425210963711
4.944,-0.0060793003733118816
4.948,-0.006079228251683106
4.952,-0.006073097913237163
4.956,-0.006114760174126646
4.96,-0.006130410567570992
4.964,-0.006087041428133817
4.968,-0.006081872711404886
4.972,-0.0060609814796028305
4.976,-0.006040426815401731
4.98,-0.006048504437824619
4.984,-0.006102643740492313
4.988,-0.0060850220225280955
4.992,-0.0060342724364128636
4.996,-0.006025714003131469
5.0,-0.006026940070820657
5.0040000000000004,-0.006028190179052771
5.008,-0.006030161503572642
5.0120000000000005,-0.0060372775042785215
5.016,-0.006045018559100456
5.0200000000000005,-0.0060486967621680215
5.024,-0.006048720802710947
5.0280000000000005,-0.006051894154377082
5.032,-0.006073338318666416
5.0360000000000005,-0.0060831949412657755
5.04,-0.006066126155788837
5.0440000000000005,-0.0060604285471155496
5.048,-0.0060745403458126795
5.0520000000000005,-0.006029873017057539
5.056,-0.006036195679846885
5.0600000000000005,-0.006040474896487582
5.064,-0.006027661287108415
5.0680000000000005,-0.006016770921163271
5.072,-0.006008356731139429
5.0760000000000005,-0.006005736311960575
5.08,-0.006010856947603656
5.0840000000000005,-0.006016242029218915
5.088,-0.006021530948662473
5.0920000000000005,-0.00602530531390174
5.096,-0.0060251370301012625
5.1000000000000005,-0.006018838407854843
5.104,-0.006013549488411285
5.1080000000000005,-0.006007154703993166
5.112,-0.006023382070467718
5.1160000000000005,-0.006048408275652918
5.12,-0.006045307045615559
5.124,-0.00604261450480793
5.128,-0.006034512841842116
5.132,-0.006035642747359604
5.136,-0.006042927031865958
5.14,-0.006031291409090131
5.144,-0.006016915164420823
5.148,-0.006017996988852459
5.152,-0.006021242462147369
5.156,-0.006006385406619557
5.16,-0.0059977788922523124
5.164,-0.005997442324651359
5.168,-0.006000423351974092
5.172,-0.006006866217478062
5.176,-0.006013285042439108
5.18,-0.006006938339106838
5.184,-0.006021050137803968
5.188,-0.0060721603320630785
5.192,-0.006045884018645766
5.196,-0.006005039136215742
5.2,-0.005989124296799218
5.204,-0.006005183379473294
5.208,-0.006012804231580602
5.212,-0.0060237907596974475
5.216,-0.006005664190331799
5.22,-0.005986191350562336
5.224,-0.005985277809931176
5.228,-0.005995422919045637
5.232,-0.005999533851885857
5.236,-0.0060038851901553295
5.24,-0.00600713066345024
5.244,-0.006008861582540859
5.248,-0.006019800029571854
5.252,-0.006024247530013027
5.256,-0.006038359328710158
5.26,-0.006060765114716504
5.264,-0.006055836803416825
5.268,-0.005999870419486811
5.272,-0.005990903296975688
5.276,-0.006008789460912083
5.28,-0.006002490838665665
5.284,-0.005993090986381886
5.288,-0.005974339362900181
5.292,-0.005968665794769819
5.296,-0.005972271876208609
5.3,-0.005977296349679988
5.304,-0.005981070714919255
5.308,-0.005972632484352487
5.312,-0.0059438799950138725
5.316,-0.005971190051776972
5.32,-0.006027589165479639
5.324,-0.006057423479249892
5.328,-0.006093051563865133
5.332,-0.006079420576026508
5.336,-0.005997009594878705
5.34,-0.005954169347385885
5.344,-0.005987225093908122
5.348,-0.0059987405139693235
5.352,-0.005969122565085399
5.356,-0.005964747186273001
5.36,-0.005969843781373157
5.364,-0.00597652705230638
5.368,-0.0059833545664971545
5.372,-0.005987465499337375
5.376,-0.005987681864223702
5.38,-0.005985157607216549
5.384,-0.005989388742771396
5.388,-0.00599119178349079
5.392,-0.005998524149082996
5.396,-0.006040979747889012
5.4,-0.006055500235815871
5.404,-0.006044056937383446
5.408,-0.006011890690949442
5.412,-0.005993764121583794
5.416,-0.00601124159629046
5.42,-0.006017083448221299
5.424,-0.005988451161597311
5.428,-0.005967752254138659
5.432,-0.005960900699404959
5.436,-0.00596104494266251
5.44,-0.005973017133039292
5.444,-0.005984845080158521
5.448,-0.00598388345844151
5.452,-0.005980710106775376
5.456,-0.005976334727962978
5.46,-0.005980373539174422
5.464,-0.005985470134274578
5.468,-0.006004654487528938
5.472,-0.0060422779372069765
5.476,-0.006042109653406499
5.48,-0.006016891123877897
5.484,-0.006017299813107627
5.488,-0.006016386272476466
5.492,-0.006009799163714944
5.496,-0.0059841479044136885
5.5,-0.005970733281461391
5.5040000000000004,-0.005959217861400191
5.508,-0.0059555156177897
5.5120000000000005,-0.00596058817234693
5.516,-0.005968545592055193
5.5200000000000005,-0.005977200187508288
5.524,-0.00598155152577776
5.5280000000000005,-0.0059740027952992275
5.532,-0.005967487808166481
5.5360000000000005,-0.00598155152577776
5.54,-0.006005351663273771
5.5440000000000005,-0.006053961641068654
5.548,-0.006095623901958136
5.5520000000000005,-0.006098604929280869
5.556,-0.006023742678611597
5.5600000000000005,-0.0059808303094900025
5.564,-0.005971694903178402
5.5680000000000005,-0.005984195985499539
5.572,-0.006003620744183152
5.5760000000000005,-0.005992898662038484
5.58,-0.0059838353773556605
5.5840000000000005,-0.005988234796710983
5.588,-0.0059948459460154304
5.5920000000000005,-0.005990710972632285
5.596,-0.00598936470222847
5.6000000000000005,-0.0059897012698294245
5.604,-0.005983955580070286
5.6080000000000005,-0.005991167742947865
5.612,-0.006016242029218915
5.6160000000000005,-0.006036027396046408
5.62,-0.006042566423722079
5.6240000000000006,-0.006066727169361969
5.628,-0.006031099084746728
5.632,-0.0060072268256219415
5.636,-0.00602266085417996
5.64,-0.00603896034228329
5.644,-0.00603042594954482
5.648,-0.0060312433280042795
5.652,-0.006045066640186307
5.656,-0.006031603936148159
5.66,-0.005989244499513845
5.664,-0.006004967014586966
5.668,-0.006014871718272175
5.672,-0.00600708258236439
5.676,-0.006020521245859612
5.68,-0.006059995817342895
5.684,-0.006062976844665628
5.688,-0.006012010893664069
5.692,-0.005989244499513845
5.696,-0.006001312852062326
5.7,-0.005997754851709387
5.704,-0.006010856947603656
5.708,-0.00604129227494704
5.712,-0.006045355126701409
5.716,-0.006031555855062308
5.72,-0.006025617840959768
5.724,-0.006030065341400942
5.728,-0.006043239558923987
5.732,-0.006034152233698237
5.736,-0.006044994518557531
5.74,-0.0060601881416862974
5.744,-0.0060414845992904425
5.748,-0.0060543222492125326
5.752,-0.006029824935971689
5.756,-0.005999461730257082
5.76,-0.00602530531390174
5.764,-0.006032589598408095
5.768,-0.0060240311651267005
5.772,-0.00602352631372527
5.776,-0.006025521678788066
5.78,-0.006026459259962152
5.784,-0.006019535583599676
5.788,-0.006008068244624325
5.792,-0.006021771354091725
5.796,-0.006036075477132258
5.8,-0.006044056937383446
5.804,-0.006043047234580584
5.808,-0.006028334422310323
5.812,-0.006031147165832578
5.816,-0.006041556720919218
5.82,-0.006049946870400135
5.824,-0.006063024925751478
5.828,-0.006069587993970075
5.832,-0.006089445482426343
5.836,-0.006094037226125069
5.84,-0.006065044331357201
5.844,-0.006046509072761822
5.848,-0.006033358895781703
5.852,-0.006048528478367544
5.856,-0.006043600167067865
5.86,-0.006032637679493946
5.864,-0.00600621712281908
5.868,-0.005995278675788086
5.872,-0.00599520655415931
5.876,-0.00600027910871654
5.88,-0.0060069864201926886
5.884,-0.006017588299622729
5.888,-0.006036195679846885
5.892,-0.006034873449985995
5.896,-0.006046172505160869
5.9,-0.006047062005249104
5.904,-0.0060314837334335325
5.908,-0.006044369464441474
5.912,-0.006076487629789626
5.916,-0.00607458842689853
5.92,-0.006058673587482005
5.924,-0.0060452108834438585
5.928,-0.0060438646130400436
5.932,-0.006056846506219685
5.936,-0.00604489835638583
5.94,-0.006039200747712543
5.944,-0.006041364396575816
5.948,-0.0060490573703119
5.952,-0.006090647509572607
5.956,-0.006088483860709333
5.96,-0.00604311935620936
5.964,-0.0060330704092666
5.968,-0.006028286341224472
5.972,-0.006055428114187095
5.976,-0.006062471993264197
5.98,-0.006027108354621134
5.984,-0.006018381637539263
5.988,-0.006021579029748324
5.992,-0.006046220586246719
5.996,-0.006053552951838925
6.0,-0.0060572551954494154
6.0040000000000004,-0.006051413343518576
6.008,-0.006045114721272157
6.0120000000000005,-0.006045090680729232
6.016,-0.006051509505690277
6.0200000000000005,-0.006092450550292001
6.024,-0.006105192038042391
6.0280000000000005,-0.006090214779799952
6.032,-0.0060490573703119
6.0360000000000005,-0.006045571491587737
6.04,-0.006081944833033662
6.0440000000000005,-0.0060593948037697635
6.048,-0.0060588418712824825
6.0520000000000005,-0.006054418411384234
6.056,-0.006036436085276137
6.0600000000000005,-0.006019775989028929
6.064,-0.0060123715018079475
6.0680000000000005,-0.006020473164773762
6.072,-0.00603206070646374
6.0760000000000005,-0.006040234491058329
6.08,-0.0060474226133929825
6.0840000000000005,-0.006054706897899337
6.088,-0.006059755411913642
6.0920000000000005,-0.0060601160200575216
6.096,-0.006071583359032872
6.1000000000000005,-0.006076487629789626
6.104,-0.006080189873400116
6.1080000000000005,-0.006073170034865939
6.112,-0.006065332817872303
6.1160000000000005,-0.006058216817166426
6.12,-0.006048913127054348
6.1240000000000006,-0.006068410007366737
6.128,-0.006071294872517769
6.132000000000001,-0.006042253896664051
6.136,-0.006038599734139411
6.140000000000001,-0.006050187275829387
6.144,-0.006038527612510635
6.148,-0.00604033065323003
6.152,-0.00604723028904958
6.156,-0.006055500235815871
6.16,-0.006063385533895357
6.164,-0.006069804358856403
6.168,-0.00606641464230394
6.172,-0.006070453453515385
6.176,-0.006083723833210131
6.18,-0.006072424778035256
6.184,-0.006064275033983592
6.188,-0.006077521373135412
6.192,-0.006055788722330974
6.196,-0.006050067073114762
6.2,-0.006053384668038448
6.204,-0.006056750344047984
6.208,-0.006101994645833331
6.212,-0.006093748739609966
6.216,-0.006060524709287251
6.22,-0.006042061572320649
6.224,-0.006059250560512212
6.228,-0.006061173803946233
6.232,-0.006058337019881052
6.236,-0.006048119789137815
6.24,-0.006040162369429553
6.244,-0.006031603936148159
6.248,-0.006043407842724464
6.252,-0.0060827141304072695
6.256,-0.006089685887855596
6.26,-0.006069203345283271
6.264,-0.006096609564218072
6.268,-0.006115361187699777
6.272,-0.006085863441530479
6.276,-0.006068938899311093
6.28,-0.0060612218850320835
6.284,-0.006048023626966114
6.288,-0.006072977710522537
6.292,-0.006073290237580566
6.296,-0.006053360627495522
6.3,-0.006068169601937484
6.304,-0.006058889952368333
6.308,-0.0060540818437832804
6.312,-0.006058553384767379
6.316,-0.0060663665612180895
6.32,-0.006073049832151313
6.324,-0.006077425210963711
6.328,-0.006078963805710927
6.332,-0.006071727602290424
6.336,-0.006083122819637
6.34,-0.006132598256977191
6.344,-0.006111875308975614
6.348,-0.006104494862297558
6.352,-0.006103461118951772
6.356,-0.006105192038042391
6.36,-0.006095455618157659
6.364,-0.006088411739080557
6.368,-0.006079420576026508
6.372,-0.006071655480661648
6.376,-0.006063529777152909
6.38,-0.006065765547644958
6.384,-0.006072424778035256
6.388,-0.006074780751241932
6.392,-0.006077497332592487
6.396,-0.006082786252036045
6.4,-0.006090262860885803
6.404,-0.006109086605996284
6.408,-0.006127597824048737
6.412,-0.0061037255649239505
6.416,-0.006088724266138585
6.42,-0.006123534972294367
6.424,-0.006147888042277659
6.428,-0.0060940612666679946
6.432,-0.006068722534424766
6.436,-0.006094253591011396
6.44,-0.0061108656061727535
6.444,-0.00608499798198517
6.448,-0.006064852007013798
6.452,-0.006058216817166426
6.456,-0.006064202912354816
6.46,-0.0060718958860909
6.464,-0.006079901386885013
6.468,-0.006087065468676742
6.472,-0.006092811158435881
6.476,-0.006096561483132221
6.48,-0.006098773213081346
6.484,-0.006094518036983574
6.488,-0.006071535277947022
6.492,-0.006081872711404886
6.496,-0.006123054161435861
6.5,-0.006132622297520116
6.5040000000000004,-0.006166062692729158
6.508,-0.006163201868121052
6.5120000000000005,-0.006107716295049544
6.516,-0.006052158600349259
6.5200000000000005,-0.006040282572144179
6.524,-0.006069371629083747
6.5280000000000005,-0.006077617535307113
6.532,-0.006076535710875477
6.5360000000000005,-0.006078314711051946
6.54,-0.006082185238462914
6.5440000000000005,-0.006087426076820622
6.548,-0.0060919937799764215
6.5520000000000005,-0.006096248956074193
6.556,-0.006102211010719658
6.5600000000000005,-0.006108028822107572
6.564,-0.006128174797078943
6.5680000000000005,-0.006146012879929488
6.572,-0.006118774944795164
6.5760000000000005,-0.006070765980573413
6.58,-0.006064443317784069
6.5840000000000005,-0.006074107616040025
6.588,-0.006075838535130644
6.5920000000000005,-0.006076992481191056
6.596,-0.006085286468500273
6.6000000000000005,-0.00609230630703445
6.604,-0.006095888347930315
6.6080000000000005,-0.006083651711581355
6.612,-0.006080670684258623
6.6160000000000005,-0.006086560617275312
6.62,-0.006108028822107572
6.6240000000000006,-0.00611875090425224
6.628,-0.006121371323431093
6.632000000000001,-0.006078843602996302
6.636,-0.006069636075055926
6.640000000000001,-0.006098869375253047
6.644,-0.006089685887855596
6.648000000000001,-0.006082521806063868
6.652,-0.006073915291696623
6.656000000000001,-0.006070381331886609
6.66,-0.006085478792843675
6.664,-0.006119976971941428
6.668,-0.0061125244036345965
6.672,-0.00609189761780472
6.676,-0.006091008117716486
6.68,-0.006086512536189461
6.684,-0.0060861278875026575
6.688,-0.006097450983220456
6.692,-0.00612250122894858
6.696,-0.006103413037865922
6.7,-0.006087690522792799
6.704,-0.006094902685670378
6.708,-0.0061023792945201355
6.712,-0.006101153226830947
6.716,-0.006105696889443821
6.72,-0.006133800284123454
6.724,-0.006150796947971615
6.728,-0.00614666197458847
6.732,-0.006131804919060658
6.736,-0.006126059229301519
6.74,-0.006124184066953349
6.744,-0.006097643307563859
6.748,-0.0060840604008110845
6.752,-0.006088363657994707
6.756,-0.006091873577261795
6.76,-0.00609687401019025
6.764,-0.006101706159318228
6.768,-0.006106874876047159
6.772,-0.006108653876223629
6.776,-0.0061082451869938995
6.78,-0.006110264592599622
6.784,-0.006119135552939044
6.788,-0.006140002744198172
6.792,-0.006158850529851579
6.796,-0.006140098906369873
6.8,-0.0061361562573301305
6.804,-0.00613569948701455
6.808,-0.006100744537601217
6.812,-0.006083267062894551
6.816,-0.006091537009660842
6.82,-0.006111057930516155
6.824,-0.006112235917119493
6.828,-0.006108725997852405
6.832,-0.006112500363091671
6.836,-0.006123126283064637
6.84,-0.006132886743492294
6.844,-0.006150700785799914
6.848,-0.006176448207272872
6.852,-0.0061532731238929175
6.856,-0.0060908879150018596
6.86,-0.006066919493705371
6.864,-0.0060848537387276184
6.868,-0.006101609997146527
6.872,-0.00611057711965765
6.876,-0.006127501661877035
6.88,-0.006143152055321382
6.884,-0.006108461551880227
6.888,-0.006102571618863537
6.892,-0.006125073567041584
6.896,-0.006126251553644922
6.9,-0.0061058651732442985
6.904,-0.006107884578850021
6.908,-0.0061165632148460405
6.912,-0.006116659377017742
6.916,-0.006135074432898493
6.92,-0.006153850096923124
6.924,-0.0061232224452363385
6.928,-0.00610189848366163
6.932,-0.006116491093217265
6.936,-0.006138656473794357
6.94,-0.006153249083349992
6.944,-0.006166471381958887
6.948,-0.006144089636495467
6.952,-0.006126299634730772
6.956,-0.006113966836210112
6.96,-0.006104879510984363
6.964,-0.006138175662935852
6.968,-0.006134809986926316
6.972,-0.006123414769579741
6.976,-0.006109302970882611
6.98,-0.0061072114436481134
6.984,-0.006111202173773707
6.988,-0.006104711227183886
6.992,-0.006096489361503446
6.996,-0.00610230717289136
7.0,-0.006125506296814238
7.0040000000000004,-0.006134617662582913
7.008,-0.006136348581673532
7.0120000000000005,-0.006144089636495467
7.016,-0.006149162191052698
7.0200000000000005,-0.006137839095334899
7.024,-0.00611925575565367
7.0280000000000005,-0.006107956700478796
7.032,-0.006117260390590873
7.0360000000000005,-0.006137286162847618
7.04,-0.00613656494655986
7.0440000000000005,-0.006110048227713294
7.048,-0.006101874443118705
7.0520000000000005,-0.006089517604055119
7.056,-0.0060855749550153765
7.0600000000000005,-0.006091128320431112
7.064,-0.006096176834445417
7.0680000000000005,-0.00610002332131346
7.072,-0.006108341349165601
7.0760000000000005,-0.006123871539895321
7.08,-0.0061290883377101025
7.0840000000000005,-0.006108461551880227
7.088,-0.00610742780853444
7.0920000000000005,-0.006128246918707719
7.096,-0.006170389990455705
7.1000000000000005,-0.006175582747727562
7.104,-0.006125169729213285
7.1080000000000005,-0.00611336582263698
7.112,-0.006113918755124262
7.1160000000000005,-0.00611103388997323
7.12,-0.006093820861238742
7.1240000000000006,-0.006092522671920777
7.128,-0.00609418146938262
7.132000000000001,-0.0060988934157959725
7.136,-0.00610463910555511
7.140000000000001,-0.00611057711965765
7.144,-0.006116298768873863
7.148000000000001,-0.006116659377017742
7.152,-0.006114207241639365
7.156000000000001,-0.006130723094629021
7.16,-0.006173443139407214
7.164000000000001,-0.006169163922766517
7.168,-0.006143704987808663
7.172,-0.00610007140239931
7.176,-0.006084204644068636
7.18,-0.006112115714404867
7.184,-0.006146541771873844
7.188,-0.006103004348636192
7.192,-0.006058072573908874
7.196,-0.006054057803240355
7.2,-0.0060673281829351005
7.204,-0.0060802379544859664
7.208,-0.006091657212375468
7.212,-0.006099734834798356
7.216,-0.006105480524557495
7.22,-0.006109519335768939
7.224,-0.00611240420091997
7.228,-0.006114976539012973
7.232,-0.0061180777690503325
7.236,-0.00612245314786273
7.24,-0.006133151189464473
7.244,-0.006180462977941391
7.248,-0.006178107004734715
7.252,-0.006107475889620291
7.256,-0.006090359023057504
7.26,-0.006105889213787224
7.264,-0.006104374659582932
7.268,-0.006084372927869113
7.272,-0.006067616669450203
7.276,-0.0060703332508007584
7.28,-0.006080526441001071
7.284,-0.006089036793196614
7.288,-0.006095191172185482
7.292,-0.006099350186111552
7.296,-0.006105167997499466
7.3,-0.00611144257920296
7.304,-0.006112716727977999
7.308,-0.006117404633848425
7.312,-0.006154547272667957
7.316,-0.006197459641789553
7.32,-0.0061426472039199514
7.324,-0.006090575387943831
7.328,-0.006094806523498677
7.332,-0.006092907320607582
7.336,-0.00610646618681743
7.34,-0.006147575515219631
7.344,-0.006125362053556687
7.348,-0.006099830996970057
7.352,-0.006085743238815853
7.356,-0.00608819537419423
7.36,-0.006082353522263391
7.364,-0.006072424778035256
7.368,-0.006076848237933505
7.372,-0.0060875462795352475
7.376,-0.006096753807475624
7.38,-0.006106514267903281
7.384,-0.006106273862474028
7.388,-0.0061072114436481134
7.392,-0.006119063431310268
7.396,-0.006131804919060658
7.4,-0.006148392893679089
7.404,-0.006164668341239492
7.408,-0.006128920053909626
7.412,-0.006083699792667206
7.416,-0.0060706457778587864
7.42,-0.006076030859474045
7.424,-0.006078434913766572
7.428,-0.00608636829293191
7.432,-0.0060954796587005845
7.436,-0.006103509200037623
7.44,-0.006111514700831736
7.444,-0.006118702823166389
7.448,-0.006123174364150488
7.452,-0.006125698621157641
7.456,-0.006133607959780052
7.46,-0.00614798420444936
7.464,-0.006136516865474009
7.468,-0.006175726990985114
7.472,-0.006169596652539171
7.476,-0.006131564513631405
7.48,-0.006098508767109168
7.484,-0.00609459015861235
7.488,-0.006093436212551938
7.492,-0.006078627238109974
7.496,-0.006087522238992322
7.5,-0.006098628969823794
7.5040000000000004,-0.006096297037160044
7.508,-0.006099951199684684
7.5120000000000005,-0.00610413425415368
7.516,-0.006110360754771322
7.5200000000000005,-0.006116899782446995
7.524,-0.00612108283691599
7.5280000000000005,-0.00612062606660041
7.532,-0.0061150967417276
7.5360000000000005,-0.006138656473794357
7.54,-0.006197459641789553
7.5440000000000005,-0.006209768399767287
7.548,-0.006159715989396888
7.5520000000000005,-0.006127068932104381
7.556,-0.0061343291760678105
7.5600000000000005,-0.0061272612564477824
7.564,-0.006102547578320612
7.5680000000000005,-0.006103437078408847
7.572,-0.006134184932810259
7.5760000000000005,-0.006126347715816623
7.58,-0.006090743671744308
7.5840000000000005,-0.00608134381946053
7.588,-0.006086801022704565
7.5920000000000005,-0.006092041861062272
7.596,-0.006103749605466875
7.6000000000000005,-0.006118895147509791
7.604,-0.006131348148745078
7.6080000000000005,-0.006137478487191019
7.612,-0.006140820122657631
7.6160000000000005,-0.0061381275818500015
7.62,-0.006134353216610736
7.6240000000000006,-0.006148224609878612
7.628,-0.006169187963309442
7.632000000000001,-0.0061671445171607945
7.636,-0.006178924383194173
7.640000000000001,-0.006181640964544729
7.644,-0.006139017081938237
7.648000000000001,-0.006102715862121089
7.652,-0.006118534539365912
7.656000000000001,-0.0061359158519008776
7.66,-0.006119808688140951
7.664000000000001,-0.006098749172538421
7.668,-0.006097475023763382
7.672000000000001,-0.006120746269315036
7.676,-0.006132117446118686
7.68,-0.006140483555056677
7.684,-0.0061451955014700296
7.688,-0.006148152488249837
7.692,-0.006153393326607544
7.696,-0.006164500057439015
7.7,-0.0061896705058817674
7.704,-0.006187098167788764
7.708,-0.006182722788976366
7.712,-0.006210898305284774
7.716,-0.006195680641613083
7.72,-0.006132189567747462
7.724,-0.006099374226654478
7.728,-0.006095455618157659
7.732,-0.00610235525397721
7.736,-0.006116659377017742
7.74,-0.006131059662229974
7.744,-0.006139209406281638
7.748,-0.0061314683514597035
7.752,-0.006134761905840465
7.756,-0.006139281527910414
7.76,-0.006144017514866691
7.764,-0.006148176528792762
7.768,-0.006151157556115495
7.772,-0.006155244448412789
7.776,-0.006173755666465242
7.78,-0.0061966422633300934
7.784,-0.006209960724110689
7.788,-0.006192459208861098
7.792,-0.006140122946912799
7.796,-0.006119063431310268
7.8,-0.006146974501646499
7.804,-0.006148416934222014
7.808,-0.0061304346081139174
7.812,-0.006122332945148104
7.816,-0.006126299634730772
7.82,-0.006139065163024087
7.824,-0.006148705420737118
7.828,-0.006156398394473202
7.832,-0.006152119177832505
7.836,-0.006149594920825352
7.84,-0.006161783476088461
7.844,-0.006199479047395274
7.848,-0.0062094077916234084
7.852,-0.006169404328195769
7.856,-0.006158393759535999
7.86,-0.006153561610408021
7.864,-0.00614711874490405
7.868,-0.006159836192111514
7.872,-0.00618945414099544
7.876,-0.006208830818593202
7.88,-0.006160966097629002
7.884,-0.006131660675803106
7.888,-0.00613062693245732
7.892,-0.00614168558220294
7.896,-0.006153561610408021
7.9,-0.006161975800431863
7.904,-0.006182121775403234
7.908,-0.00616671178738814
7.912,-0.0061717362608595195
7.916,-0.006197988533733908
7.92,-0.006191665870944564
7.924,-0.0062026764396043346
7.928,-0.006212965791976347
7.932,-0.006211619521572532
7.936,-0.00621594681929908
7.94,-0.006243905970721162
7.944,-0.006281890028543078
7.948,-0.006235708145583647
7.952,-0.006176376085644096
7.956,-0.006173419098864289
7.96,-0.006173707585379391
7.964,-0.006157167691846811
7.968,-0.006173659504293541
7.972,-0.006193012141348379
7.976,-0.006185054721640116
7.98,-0.006169933220140125
7.984,-0.0061719766662887724
7.988,-0.006184069059380181
7.992,-0.006192988100805453
7.996,-0.006201234007028818
8.0,-0.0062054411020407395
8.004,-0.0062059219128992454
8.008000000000001,-0.006220682806255357
8.012,-0.006234530158980309
8.016,-0.006238088159333248
8.02,-0.0062585707019055725
8.024000000000001,-0.006242030808372992
8.028,-0.006234361875179833
8.032,-0.0062292412395367515
8.036,-0.006211643562115458
8.040000000000001,-0.006217220968074119
8.044,-0.006224385049865847
8.048,-0.006199719452824527
8.052,-0.0061872183705033905
8.056000000000001,-0.006208253845562996
8.06,-0.0062248658607243525
8.064,-0.006240732619055027
8.068,-0.006211595481029607
8.072000000000001,-0.006192988100805453
8.076,-0.006190560005970002
8.08,-0.006193925681979539
8.084,-0.006198757831107517
8.088000000000001,-0.006195824884870634
8.092,-0.006208758696964426
8.096,-0.006222894536204481
8.1,-0.00620320533154869
8.104000000000001,-0.006204551601952505
8.108,-0.006235419659068544
8.112,-0.006246382146642465
8.116,-0.0062148890354103686
8.120000000000001,-0.006170269787741079
8.124,-0.0061688033146226375
8.128,-0.006167505125304673
8.132,-0.00615209513728958
8.136000000000001,-0.00614615712318704
8.14,-0.0061386805143372825
8.144,-0.006140892244286407
8.148,-0.006146902380017723
8.152000000000001,-0.006151638366974
8.156,-0.006153874137466049
8.16,-0.0061554127322132664
8.164,-0.006160797813828525
8.168000000000001,-0.00615757638107654
8.172,-0.006153441407693395
8.176,-0.006183155518749021
8.18,-0.006170125544483527
8.184000000000001,-0.006168947557880189
8.188,-0.0061780829641917894
8.192,-0.0061905359654270764
8.196,-0.006203421696435018
8.2,-0.006205945953442171
8.204,-0.006204912210096384
8.208,-0.006149138150509772
8.212,-0.00609600855064494
8.216,-0.00610098494303047
8.22,-0.0061110098494303045
8.224,-0.00611925575565367
8.228,-0.006121924255918374
8.232,-0.006126083269844445
8.236,-0.006134521500411212
8.24,-0.006142022149803895
8.244,-0.006147695717934256
8.248,-0.00615214321837543
8.252,-0.006154571313210882
8.256,-0.006155941624157622
8.26,-0.006174308598952523
8.264,-0.006185655735213248
8.268,-0.006187651100276045
8.272,-0.0061679378550773285
8.276,-0.006145628231242684
8.28,-0.006195199830754578
8.284,-0.006216091062556632
8.288,-0.0061521672589183556
8.292,-0.006113293701008205
8.296,-0.006101561916060676
8.3,-0.006127141053733157
8.304,-0.006129376824225206
8.308,-0.0061265640807029505
8.312,-0.006128487324136971
8.316,-0.006125746702243491
8.32,-0.006126756405046352
8.324,-0.006131804919060658
8.328,-0.006137502527733945
8.332,-0.006141565379488315
8.336,-0.006141324974059062
8.34,-0.006139065163024087
8.344,-0.006144089636495467
8.348,-0.006177193464103554
8.352,-0.0062063546426719
8.356,-0.006173875869179868
8.36,-0.006167000273903243
8.364,-0.0061955363983555315
8.368,-0.006191233141171909
8.372,-0.006143248217493083
8.376,-0.00612747762133411
8.38,-0.006134160892267333
8.384,-0.006124111945324574
8.388,-0.0061215636477744955
8.392,-0.006136324541130607
8.396,-0.006160893976000226
8.4,-0.006168586949736311
8.404,-0.006152840394120263
8.408,-0.006138007379135375
8.412,-0.006122813756006609
8.416,-0.006124304269667975
8.42,-0.006139906582026471
8.424,-0.006151638366974
8.428,-0.006163153787035201
8.432,-0.006169404328195769
8.436,-0.006192507289946948
8.44,-0.006165221273726773
8.444,-0.006123991742609947
8.448,-0.006121154958544766
8.452,-0.006125073567041584
8.456,-0.006127357418619484
8.46,-0.006131901081232359
8.464,-0.0061368534330749624
8.468,-0.006142743366091653
8.472,-0.006149017947795146
8.476,-0.0061549319213547605
8.48,-0.006160677611113899
8.484,-0.006164956827754596
8.488,-0.006169596652539171
8.492,-0.006185030681097191
8.496,-0.006218422995220382
8.5,-0.00622864022596362
8.504,-0.006208446169906397
8.508000000000001,-0.006176039518043142
8.512,-0.006160028516454917
8.516,-0.006163875003322958
8.52,-0.006173178693435036
8.524000000000001,-0.0062234474686917625
8.528,-0.006180751464456495
8.532,-0.0061237032560948436
8.536,-0.006116779579732368
8.540000000000001,-0.006124376391296751
8.544,-0.0061340887706385575
8.548,-0.006145171460927104
8.552,-0.006155917583614697
8.556000000000001,-0.00616584632784283
8.56,-0.0061759433558714405
8.564,-0.006184862397296715
8.568,-0.006182241978117861
8.572000000000001,-0.0061645240979819405
8.576,-0.006177025180303078
8.58,-0.006195055587497026
8.584,-0.0062519114715152745
8.588000000000001,-0.006243930011264088
8.592,-0.006182891072776843
8.596,-0.006200224304225958
8.6,-0.00622279837403278
8.604000000000001,-0.006193733357636137
8.608,-0.006182674707890515
8.612,-0.006171640098687819
8.616,-0.006156879205331707
8.620000000000001,-0.006166543503587663
8.624,-0.006171952625745847
8.628,-0.006177914680391312
8.632,-0.006194286290123418
8.636000000000001,-0.006217942184361877
8.64,-0.006207532629275238
8.644,-0.006201883101687801
8.648,-0.006244098295064564
8.652000000000001,-0.00624417041669334
8.656,-0.006189285857194963
8.66,-0.006178924383194173
8.664,-0.006201234007028818
8.668000000000001,-0.006212605183832469
8.672,-0.006189622424795917
8.676,-0.0061824583430041885
8.68,-0.0062263804149286445
8.684000000000001,-0.006236765929472359
8.688,-0.0061947430604389975
8.692,-0.0061792849913380535
8.696,-0.006177481950618658
8.700000000000001,-0.0061811120726003735
8.704,-0.006181400559115476
8.708,-0.006176953058674302
8.712,-0.006205104534439786
8.716,-0.006228976793564574
8.72,-0.006213855292064582
8.724,-0.006219384616937392
8.728,-0.006263907702434981
8.732,-0.006271191986941336
8.736,-0.006227414158274431
8.74,-0.006178107004734715
8.744,-0.006177578112790359
8.748,-0.006191762033116265
8.752,-0.0061957768037847845
8.756,-0.006184501789152835
8.76,-0.006181088032057448
8.764,-0.0061899109113110196
8.768,-0.006198950155450919
8.772,-0.006205969993985096
8.776,-0.006216427630157585
8.78,-0.006226596779814971
8.784,-0.006221836752315769
8.788,-0.006209527994338035
8.792,-0.006281000528454843
8.796,-0.00631035403136659
8.8,-0.006244987795152799
8.804,-0.006218014305990653
8.808,-0.006260686269682996
8.812,-0.0062585707019055725
8.816,-0.006216018940927856
8.82,-0.006222509887517677
8.824,-0.006236285118613853
8.828,-0.006246959119672671
8.832,-0.006238184321504949
8.836,-0.006210080926825316
8.84,-0.00621503327866792
8.844,-0.006237366943045491
8.848,-0.006253209660833239
8.852,-0.006245228200582051
8.856,-0.006256022404355495
8.86,-0.006269629351651194
8.864,-0.006227894969132936
8.868,-0.006214456305637713
8.872,-0.006223952320093193
8.876,-0.0062420067678300665
8.88,-0.006246694673700493
8.884,-0.006256214728698897
8.888,-0.006267345500073294
8.892,-0.006256479174671075
8.896,-0.006270470770653578
8.9,-0.0062625373914882414
8.904,-0.006278187784932588
8.908,-0.006288477137304601
8.912,-0.006272826743860254
8.916,-0.006282635285373761
8.92,-0.006279726379679804
8.924,-0.006270711176082831
8.928,-0.006259508283079658
8.932,-0.0062406604974262515
8.936,-0.006287371272330038
8.94,-0.006290664826710799
8.944,-0.006267633986588397
8.948,-0.006269028338078062
8.952,-0.006260662229140071
8.956,-0.00626655216215676
8.96,-0.006278860920134495
8.964,-0.006275591406296659
8.968,-0.006283981555777576
8.972,-0.00629487192172272
8.976,-0.006303646719890441
8.98,-0.00631405627497708
8.984,-0.006318648018675805
8.988,-0.006315859315696475
8.992,-0.006321244397311734
8.996,-0.0063598294687067835
9.0,-0.00637456632151997
9.004,-0.0063472081836710185
9.008000000000001,-0.00630076185473941
9.012,-0.006283933474691725
9.016,-0.006318047005102674
9.02,-0.00635538196826561
9.024000000000001,-0.0063102578691948885
9.028,-0.006296602840813339
9.032,-0.006315763153524774
9.036,-0.006313839910090753
9.040000000000001,-0.006301122462883288
9.044,-0.006293357367518428
9.048,-0.006293742016205233
9.052,-0.006302276408943702
9.056000000000001,-0.006311652220684554
9.06,-0.006318768221390432
9.064,-0.006323624411061335
9.068,-0.0063288892899619675
9.072000000000001,-0.006338096817902344
9.076,-0.006356463792697247
9.08,-0.006345837872724278
9.084,-0.006313455261403949
9.088000000000001,-0.006353771251889617
9.092,-0.006429619164818823
9.096,-0.0063587236037322215
9.1,-0.006317926802388048
9.104000000000001,-0.006350213251536676
9.108,-0.006362978779829993
9.112,-0.0063141524371487815
9.116,-0.006324441789520794
9.120000000000001,-0.006314945775065315
9.124,-0.006287635718302216
9.128,-0.006290881191597127
9.132,-0.006303165909031936
9.136000000000001,-0.006314777491264838
9.14,-0.006324249465177392
9.144,-0.006329225857562922
9.148,-0.006321869451427791
9.152000000000001,-0.006338577628760849
9.156,-0.006368988915561309
9.16,-0.0063633153474309465
9.164,-0.006349564156877694
9.168000000000001,-0.006382379497970681
9.172,-0.006395553715493725
9.176,-0.006379326349019172
9.18,-0.006373941267403913
9.184000000000001,-0.006390312877136017
9.188,-0.006387307809270359
9.192,-0.006376128956810112
9.196,-0.0063541318600334965
9.200000000000001,-0.006334971547322059
9.204,-0.006344395440148762
9.208,-0.006342616439972293
9.212,-0.006345789791638428
9.216000000000001,-0.006356632076497724
9.22,-0.00636492606380694
9.224,-0.00637228246994207
9.228,-0.006391755309711533
9.232,-0.006388654079674174
9.236,-0.006373676821431735
9.24,-0.006372162267227444
9.244,-0.0063943997694333125
9.248,-0.006444380058174935
9.252,-0.006416733433810882
9.256,-0.006378653213817265
9.26,-0.006374614402605821
9.264,-0.00638548072800804
9.268,-0.006355141562836357
9.272,-0.006355285806093909
9.276,-0.006361536347254477
9.28,-0.006356608035954799
9.284,-0.006350645981309331
9.288,-0.006359589063277531
9.292,-0.006368411942531103
9.296,-0.006375407740522354
9.3,-0.006382042930369727
9.304,-0.006387884782300566
9.308,-0.006390841769080374
9.312,-0.0063917072286256826
9.316,-0.006414497663318832
9.32,-0.006430172097306104
9.324,-0.006409473189847453
9.328,-0.006409954000705958
9.332,-0.00638963974193411
9.336,-0.006379085943589919
9.34,-0.006371272767139209
9.344,-0.006384374863033477
9.348,-0.006400674351136806
9.352,-0.006415771812093871
9.356,-0.0064383218413577685
9.36,-0.006418488393444426
9.364,-0.006393486228802152
9.368,-0.006366849307240961
9.372,-0.006356872481926976
9.376,-0.006361969077027132
9.38,-0.0063704073075939
9.384,-0.006378773416531891
9.388,-0.006385649011808516
9.392,-0.0063819467681980255
9.396,-0.006373364294373707
9.4,-0.006399664648333945
9.404,-0.006399279999647141
9.408,-0.006410506933193239
9.412,-0.006447000477353788
9.416,-0.006427479556498475
9.42,-0.006433345448972239
9.424,-0.006488230008470616
9.428,-0.006464958762918961
9.432,-0.006393870877488957
9.436,-0.006373724902517586
9.44,-0.0063938468369460315
9.444,-0.0064119974468546045
9.448,-0.006398654945531084
9.452,-0.006396875945354615
9.456,-0.006395842202008828
9.46,-0.006396154729066857
9.464,-0.006398847269874486
9.468,-0.0064011311214523855
9.472,-0.006394231485632835
9.476,-0.006403078405429332
9.48,-0.006423536907458731
9.484,-0.006470440006705921
9.488,-0.006456544572895119
9.492,-0.006402333148598649
9.496,-0.006409352987132826
9.5,-0.006407549946413431
9.504,-0.006391731269168608
9.508000000000001,-0.006390505201479419
9.512,-0.006377835835357806
9.516,-0.006370190942707572
9.52,-0.006371056402252882
9.524000000000001,-0.006377066537984198
9.528,-0.006384471025205178
9.532,-0.00639055328256527
9.536,-0.006393726634231405
9.540000000000001,-0.0063867067956972275
9.544,-0.006398558783359383
9.548,-0.006419353852989735
9.552,-0.00640658832469642
9.556000000000001,-0.0063978135265287
9.56,-0.006403655378459538
9.564,-0.006401395567424564
9.568,-0.006395553715493725
9.572000000000001,-0.006381658281682923
9.576,-0.006357858144186912
9.58,-0.006369469726419814
9.584,-0.006361055536395972
9.588000000000001,-0.006346318683582783
9.592,-0.006347448589100271
9.596,-0.00635167972465512
9.6,-0.0063537231708037665
9.604000000000001,-0.006359468860562905
9.608,-0.006371777618540639
9.612,-0.006375191375636027
9.616,-0.006365743442266398
9.620000000000001,-0.006373436416002483
9.624,-0.006388029025558117
9.628,-0.006377451186671002
9.632,-0.006365671320637622
9.636000000000001,-0.006381730403311699
9.64,-0.006392572688170992
9.644,-0.006353699130260841
9.648,-0.006336702466412678
9.652000000000001,-0.006340140264050991
9.656,-0.0063456936294667265
9.66,-0.006341438453368955
9.664,-0.006341174007396777
9.668000000000001,-0.006345284940236997
9.672,-0.006349251629819665
9.676,-0.006353362562659888
9.68,-0.006357545617128884
9.684000000000001,-0.006367834969500896
9.688,-0.006375864510837935
9.692,-0.006372402672656696
9.696,-0.0063691091182759355
9.700000000000001,-0.006383533444031093
9.704,-0.006411733000882427
9.708,-0.006392163998941262
9.712,-0.006356127225096293
9.716000000000001,-0.0063534106437457384
9.72,-0.00636543091520837
9.724,-0.006371969942884042
9.728,-0.006386490430810901
9.732,-0.0063561031845533675
9.736,-0.006311099288197273
9.74,-0.006308094220331615
9.744,-0.0063173257888149165
9.748,-0.006328865249419042
9.752,-0.006340789358709973
9.756,-0.00635059790022348
9.76,-0.006358074509073239
9.764,-0.0063633153474309465
9.768,-0.006365791523352249
9.772,-0.006367666685700419
9.776,-0.006365839604438099
9.78,-0.00635268942745798
9.784,-0.006376609767668617
9.788,-0.006411180068395146
9.792,-0.006421781947825187
9.796,-0.006396731702097063
9.8,-0.006375119254007251
9.804,-0.006369253361533487
9.808,-0.006387668417414239
9.812,-0.006394592093776714
9.816,-0.006390072471706765
9.82,-0.006361920995941282
9.824,-0.006331004857739391
9.828,-0.006334923466236209
9.832,-0.006345020494264819
9.836,-0.00634963627850647
9.84,-0.006354492468177375
9.844,-0.00636040644173699
9.848,-0.006366080009867352
9.852,-0.006376321281153514
9.856,-0.006385793255066068
9.86,-0.006367955172215523
9.864,-0.006358242792873716
9.868,-0.006400121418649525
9.872,-0.006431518367709919
9.876,-0.006412766744228213
9.88,-0.006390865809623299
9.884,-0.006358050468530314
9.888,-0.006361872914855431
9.892,-0.006376898254183721
9.896,-0.006368195577644775
9.9,-0.00636771476678627
9.904,-0.006376705929840318
9.908,-0.0063534106437457384
9.912,-0.006338745912561326
9.916,-0.006338745912561326
9.92,-0.00634511665643652
9.924,-0.006351559521940493
9.928,-0.006356055103467517
9.932,-0.0063607910904237945
9.936,-0.006368484064159879
9.94,-0.006371705496911863
9.944,-0.006373003686229828
9.948,-0.006380384132907884
9.952,-0.006411973406311679
9.956,-0.006430580786535833
9.96,-0.00638918297161853
9.964,-0.006365238590864968
9.968,-0.006381898687112175
9.972,-0.0063910581339667
9.976,-0.0064052660948355315
9.98,-0.006371729537454789
9.984,-0.006331004857739391
9.988,-0.006344683926663866
9.992,-0.006369710131849067
9.996,-0.006345837872724278
10.0,-0.006327591100644003
10.004,-0.0063379285341018665
10.008000000000001,-0.006350357494794228
10.012,-0.006360334320108214
10.016,-0.0063683157803594015
10.02,-0.0063762491595247385
10.024000000000001,-0.006382860308829186
10.028,-0.006386298106467498
10.032,-0.006387668417414239
10.036,-0.006391659147539832
10.040000000000001,-0.006394039161289433
10.044,-0.006376657848754468
10.048,-0.0063987511077027845
10.052,-0.006414521703861757
10.056000000000001,-0.006398895350960336
10.06,-0.006382307376341905
10.064,-0.006382764146657485
10.068,-0.006368988915561309
10.072000000000001,-0.006360887252595495
10.076,-0.006384471025205178
10.08,-0.006399832932134422
10.084,-0.0063886059985883235
10.088000000000001,-0.0063805283761654355
10.092,-0.006383990214346673
10.096,-0.006359012090247325
10.1,-0.00635105467053906
10.104000000000001,-0.006344707967206791
10.108,-0.00634872273787531
10.112,-0.0063568244008411256
10.116,-0.006358867846989773
10.120000000000001,-0.006345573426752101
10.124,-0.006338241061159895
10.128,-0.006371657415826014
10.132,-0.006410458852107388
10.136000000000001,-0.006404617000176549
10.14,-0.006426205407723436
10.144,-0.006434138786888773
10.148,-0.0063834613224023175
10.152000000000001,-0.00635172780574097
10.156,-0.006349155467647965
10.16,-0.006341630777712357
10.164,-0.006351367197597091
10.168000000000001,-0.006366536780182932
10.172,-0.006363748077203602
10.176,-0.0063599977525072605
10.18,-0.006359228455133652
10.184000000000001,-0.006359348657848278
10.188,-0.006361560387797402
10.192,-0.006365911726066875
10.196,-0.006364132725890406
10.200000000000001,-0.006349275670362591
10.204,-0.006359420779477054
10.208,-0.006407549946413431
10.212,-0.006394568053233789
10.216000000000001,-0.006366007888238576
10.22,-0.006361127658024748
10.224,-0.0063802879707361825
10.228,-0.00639968868887687
10.232000000000001,-0.006391659147539832
10.236,-0.006369950537278319
10.24,-0.006389351255419007
10.244,-0.006393125620658273
10.248,-0.006374325916090717
10.252,-0.006366945469412661
10.256,-0.00636771476678627
10.26,-0.006371176604967508
10.264,-0.006376609767668617
10.268,-0.006384398903576402
10.272,-0.006395601796579576
10.276,-0.006389110849989754
10.28,-0.0063897118635628854
10.284,-0.006396395134496109
10.288,-0.006376201078438888
10.292,-0.006377379065042226
10.296,-0.006381538078968296
10.3,-0.006399352121275916
10.304,-0.006409160662789424
10.308,-0.0064016119323108914
10.312,-0.006381273632996119
10.316,-0.006383052633172588
10.32,-0.006400217580821226
10.324,-0.006383533444031093
10.328,-0.00637091215899533
10.332,-0.006379614835534275
10.336,-0.006387788620128865
10.34,-0.00637781179481488
10.344,-0.006365719401723473
10.348,-0.006364757780006463
10.352,-0.00637233055102792
10.356,-0.006380552416708361
10.36,-0.006416565150010405
10.364,-0.006415387163407067
10.368,-0.0064093049060469755
10.372,-0.006406179635466691
10.376,-0.006392548647628067
10.38,-0.006382379497970681
10.384,-0.006361416144539851
10.388,-0.006359420779477054
10.392,-0.006370479429222675
10.396,-0.006373532578174183
10.4,-0.006377066537984198
10.404,-0.00638141787625367
10.408,-0.00638689912004063
10.412,-0.0064016119323108914
10.416,-0.006404064067689268
10.42,-0.006396154729066857
10.424,-0.0063949527019205935
10.428,-0.006382860308829186
10.432,-0.006367233955927765
10.436,-0.006404015986603418
10.44,-0.006433369489515164
10.444,-0.0064644058304316795
10.448,-0.00642202235325444
10.452,-0.00638233141688483
10.456,-0.006382619903399933
10.46,-0.006374253794461941
10.464,-0.006366873347783885
10.468,-0.006368027293844299
10.472,-0.00637598471355256
10.476,-0.006384206579233001
10.48,-0.0063845671873768795
10.484,-0.006386875079497705
10.488,-0.006390240755507242
10.492,-0.006385649011808516
10.496,-0.006377282902870525
10.5,-0.00639187551242616
10.504,-0.006395890283094678
10.508000000000001,-0.006417815258242519
10.512,-0.006442000044425333
10.516,-0.006434307070689249
10.52,-0.00642618136718051
10.524000000000001,-0.006426085205008809
10.528,-0.006411733000882427
10.532,-0.006395241188435696
10.536,-0.006402212945884023
10.540000000000001,-0.006405506500264784
10.544,-0.006378581092188489
10.548,-0.0063794225111908735
10.552,-0.006387932863386416
10.556000000000001,-0.0063757683486662334
10.56,-0.006372570956457173
10.564,-0.00637867725436019
10.568,-0.006387836701214716
10.572000000000001,-0.006395649877665426
10.576,-0.006404208310946819
10.58,-0.006423921556145536
10.584,-0.00642298397497145
10.588000000000001,-0.006412309973912633
10.592,-0.00641243017662726
10.596,-0.006416156460780675
10.6,-0.006433657976030267
10.604000000000001,-0.006441326909223426
10.608,-0.006419353852989735
10.612,-0.006410795419708341
10.616,-0.006377451186671002
10.620000000000001,-0.006359661184906306
10.624,-0.0063696620507632164
10.628,-0.0063808409032234635
10.632,-0.006388341552616146
10.636000000000001,-0.0063932458233729
10.64,-0.006387452052527911
10.644,-0.006396010485809305
10.648,-0.006410146325049359
10.652000000000001,-0.00646070358682119
10.656,-0.006465103006176512
10.66,-0.006441495193023903
10.664,-0.006453467383400685
10.668000000000001,-0.0064183681907298
10.672,-0.006396371093953183
10.676,-0.006380600497794211
10.68,-0.006382403538513606
10.684000000000001,-0.0063860817415811715
10.688,-0.00638557689017974
10.692,-0.0063901205527926155
10.696,-0.006394688255948415
10.700000000000001,-0.006397741404899924
10.704,-0.006401419607967489
10.708,-0.006401828297197218
10.712,-0.0063989915131320374
10.716000000000001,-0.00640151577013919
10.72,-0.006437792949413412
10.724,-0.006470271722905444
10.728,-0.006454092437516742
10.732000000000001,-0.0064247629751479195
10.736,-0.006412189771198007
10.74,-0.006408078838357787
10.744,-0.006410747338622491
10.748000000000001,-0.006420051028734568
10.752,-0.0064013715268816385
10.756,-0.00638370172783157
10.76,-0.006386105782124096
10.764,-0.006392668850342694
10.768,-0.006393870877488957
10.772,-0.006388822363474651
10.776,-0.006384999917149534
10.78,-0.006382139092541428
10.784,-0.006384374863033477
10.788,-0.0064077903518426835
10.792,-0.006438153557557291
10.796,-0.006425460150892752
10.8,-0.006440581652392743
10.804,-0.006448298666671752
10.808,-0.006420171231449195
10.812,-0.006386274065924573
10.816,-0.00638045625453666
10.82,-0.006389207012161455
10.824,-0.0063888464040175764
10.828,-0.006389062768903904
10.832,-0.006403270729772734
10.836,-0.006400626270050955
10.84,-0.00640146768905334
10.844,-0.0064083432843299645
10.848,-0.006418560515073201
10.852,-0.006433730097659043
10.856,-0.006470055358019117
10.86,-0.006473180628599401
10.864,-0.006425892880665407
10.868,-0.006404400635290222
10.872,-0.006404689121805325
10.876,-0.006403246689229809
10.88,-0.006379855240963528
10.884,-0.006374614402605821
10.888,-0.0063794946328196486
10.892,-0.006378244524587536
10.896,-0.006377883916443656
10.9,-0.006383148795344289
10.904,-0.006391755309711533
10.908,-0.006400337783535852
10.912,-0.006407742270756833
10.916,-0.006413536041601822
10.92,-0.006412670582056512
10.924,-0.0064048574056058015
10.928,-0.006401563851225041
10.932,-0.006436639003352999
10.936,-0.006457866802756008
10.94,-0.006462073897767929
10.944,-0.00645527042412008
10.948,-0.006440581652392743
10.952,-0.006433393530058089
10.956,-0.00640654024361057
10.96,-0.006394688255948415
10.964,-0.00638918297161853
10.968,-0.006366632942354633
10.972,-0.006370840037366554
10.976,-0.006387235687641584
10.98,-0.006399664648333945
10.984,-0.006407573986956357
10.988,-0.006415507366121694
10.992,-0.00644303378777112
10.996,-0.006453275059057283
11.0,-0.0064197625422194645
11.004,-0.006400409905164628
11.008000000000001,-0.006449933423590672
11.012,-0.006452722126570002
11.016,-0.0063958181614659024
11.02,-0.006367354158642391
11.024000000000001,-0.006364902023264014
11.028,-0.006380071605849856
11.032,-0.006396058566895155
11.036,-0.006427167029440446
11.040000000000001,-0.006421854069453963
11.044,-0.006401828297197218
11.048,-0.0063898801473633625
11.052,-0.006378316646216311
11.056000000000001,-0.0063948805802918176
11.06,-0.006401251324167012
11.064,-0.006435028286977007
11.068,-0.006468396560557274
11.072000000000001,-0.006449693018161418
11.076,-0.006420676082850625
11.08,-0.006404376594747296
11.084,-0.0063989193915032615
11.088000000000001,-0.006413536041601822
11.092,-0.006433008881371285
11.096,-0.006436831327696402
11.1,-0.006422046393797365
11.104000000000001,-0.006425700556322005
11.108,-0.0064100982439635095
11.112,-0.006378484930016788
11.116,-0.0063779079569865815
11.120000000000001,-0.006387908822843491
11.124,-0.006395313310064472
11.128,-0.006403222648686884
11.132,-0.006406396000353019
11.136000000000001,-0.006400169499735375
11.14,-0.006416324744581152
11.144,-0.006428128651157457
11.148,-0.006430460583821207
11.152000000000001,-0.006473637398914981
11.156,-0.006484984535175705
11.16,-0.00647217092579654
11.164,-0.006414738068748085
11.168000000000001,-0.006410026122334734
11.172,-0.0064055786218935595
11.176,-0.006393317945001675
11.18,-0.006396443215581959
11.184000000000001,-0.006399808891591497
11.188,-0.006408920257360172
11.192,-0.006395649877665426
11.196,-0.006379302308476247
11.200000000000001,-0.0063933660260875255
11.204,-0.006406347919267168
11.208,-0.006415074636349038
11.212,-0.006421926191082739
11.216000000000001,-0.006433706057116117
11.22,-0.006440557611849818
11.224,-0.006434787881547754
11.228,-0.006444283896003234
11.232000000000001,-0.006485705751463463
11.236,-0.006481330372651065
11.24,-0.006417646974442042
11.244,-0.00639882322933156
11.248000000000001,-0.006428777745816438
11.252,-0.006439499827961106
11.256,-0.006421493461310084
11.26,-0.006400914756566059
11.264,-0.006391971674597861
11.268,-0.00638548072800804
11.272,-0.006381850606026325
11.276,-0.0063978135265287
11.28,-0.006403775581174165
11.284,-0.006411901284682904
11.288,-0.006410987744051744
11.292,-0.006410146325049359
11.296,-0.006418632636701977
11.3,-0.006425171664377649
11.304,-0.006424931258948397
11.308,-0.0064319751380254985
11.312,-0.006488758900414972
11.316,-0.006466593519837879
11.32,-0.006420363555792596
11.324,-0.006425027421120098
11.328,-0.006418296069101024
11.332,-0.006400626270050955
11.336,-0.006393462188259227
11.34,-0.006402212945884023
11.344,-0.0064106511764507905
11.348,-0.006417094041954761
11.352,-0.006407429743698805
11.356,-0.006397308675127269
11.36,-0.006398943432046187
11.364,-0.006404328513661446
11.368,-0.00641105986568052
11.372,-0.006416877677068433
11.376,-0.006420123150363344
11.38,-0.006414906352548562
11.384,-0.006424258123746489
11.388,-0.006435052327519932
11.392,-0.006446832193553311
11.396,-0.006478517629128809
11.4,-0.006464285627717054
11.404,-0.006447409166583517
11.408,-0.006426085205008809
11.412,-0.006410675216993716
11.416,-0.006403054364886407
11.42,-0.006396371093953183
11.424,-0.006413295636172569
11.428,-0.006424378326461116
11.432,-0.006425388029263976
11.436,-0.006407766311299758
11.44,-0.006400217580821226
11.444,-0.006403847702802941
11.448,-0.006410819460251267
11.452,-0.0064175508122703406
11.456,-0.006420916488279878
11.46,-0.006427022786182894
11.464,-0.006432335746169378
11.468,-0.006436590922267149
11.472,-0.0064688533308728535
11.476,-0.006461448843651872
11.48,-0.006448707355901482
11.484,-0.006463468249257595
11.488,-0.006432888678656659
11.492,-0.00642115689370913
11.496,-0.0064307009892504595
11.5,-0.006414161095717879
11.504,-0.006423993677774311
11.508000000000001,-0.006426037123922959
11.512,-0.006412358054998484
11.516,-0.006401083040366536
11.52,-0.006401684053939667
11.524000000000001,-0.006407838432928534
11.528,-0.006411468554910249
11.532,-0.006413223514543793
11.536,-0.00644435601763201
11.540000000000001,-0.006456712856695595
11.544,-0.006436398597923747
11.548,-0.006404929527234577
11.552,-0.0064052660948355315
11.556000000000001,-0.006426806421296567
11.56,-0.006469213939016732
11.564,-0.0064574340729833535
11.568,-0.006437264057469056
11.572000000000001,-0.006432552111055705
11.576,-0.006461857532881602
11.58,-0.00646253066808351
11.584,-0.006415315041778291
11.588000000000001,-0.006413463919973046
11.592,-0.0064343551517750995
11.596,-0.006432263624540602
11.6,-0.006438033354842665
11.604000000000001,-0.0064292825972178695
11.608,-0.006448322707214678
11.612,-0.0064431539904857464
11.616,-0.0064143053389754305
11.620000000000001,-0.006438177598100217
11.624,-0.00644861119372978
11.628,-0.0064362543546661955
11.632,-0.00641024248722106
11.636000000000001,-0.00640877601410262
11.64,-0.006416877677068433
11.644,-0.006425604394150304
11.648,-0.00643344161114394
11.652000000000001,-0.006439764273933284
11.656,-0.006445966734008002
11.66,-0.006450895045307682
11.664,-0.006455847397150286
11.668000000000001,-0.006464189465545353
11.672,-0.006467074330696384
11.676,-0.006473877804344234
11.68,-0.006499024212244059
11.684000000000001,-0.006495538333519896
11.688,-0.006465896344093046
11.692,-0.006468661006529451
11.696,-0.006459717924561253
11.700000000000001,-0.006439547909046957
11.704,-0.006444091571659831
11.708,-0.006454308802403069
11.712,-0.0064242100426606386
11.716000000000001,-0.006429667245904673
11.72,-0.006447168761154265
11.724,-0.006432552111055705
11.728,-0.006415651609379245
11.732000000000001,-0.006416324744581152
11.736,-0.006423945596688461
11.74,-0.006427022786182894
11.744,-0.006433970503088296
11.748000000000001,-0.006447721693641546
11.752,-0.006472194966339465
11.756,-0.006487917481412587
11.76,-0.006542753959825113
11.764000000000001,-0.006535854324005563
11.768,-0.006480368750934055
11.772,-0.006449043923502436
11.776,-0.006415916055351423
11.78,-0.006429090272874467
11.784,-0.006402741837828379
11.788,-0.0063932939044587505
11.792,-0.006394928661377668
11.796,-0.006399135756389589
11.8,-0.006410266527763986
11.804,-0.006420315474706746
11.808,-0.006427744002470652
11.812,-0.006433778178744893
11.816,-0.0064389228549309
11.82,-0.006443009747228195
11.824,-0.006445437842063646
11.828,-0.006446135017808479
11.832,-0.006447817855813247
11.836,-0.006435965868151093
11.84,-0.006436711124981775
11.844,-0.006482027548395898
11.848,-0.006533931080571541
11.852,-0.006485994237978567
11.856,-0.00644074993619322
11.86,-0.006425628434693229
11.864,-0.0064312539217377404
11.868,-0.006431542408252844
11.872,-0.006440076800991313
11.876,-0.006440076800991313
11.88,-0.006420964569365728
11.884,-0.006414521703861757
11.888,-0.006428825826902289
11.892,-0.00643937962524648
11.896,-0.006453996275345041
11.9,-0.0064521211129968704
11.904,-0.006435028286977007
11.908,-0.006446976436810863
11.912,-0.006466112708979374
11.916,-0.006436374557380822
11.92,-0.006410891581880043
11.924,-0.006401756175568442
11.928,-0.006417142123040611
11.932,-0.006439692152304508
11.936,-0.0064473610854976675
11.94,-0.006435989908694017
11.944,-0.006422238718140767
11.948,-0.006420291434163821
11.952,-0.006431590489338695
11.956,-0.006453419302314835
11.96,-0.0064499815046765215
11.964,-0.00645390011317334
11.968,-0.006446736031381611
11.972,-0.006434018584174146
11.976,-0.006416228582409451
11.98,-0.0064338022192878186
11.984,-0.006441038422708323
11.988,-0.006433585854401491
11.992,-0.006434499395032651
11.996,-0.006412622500970661
12.0,-0.006396875945354615
12.004,-0.006414665947119309
12.008000000000001,-0.006420820326108177
12.012,-0.0064247629751479195
12.016,-0.006431494327166993
12.02,-0.006436903449325178
12.024000000000001,-0.006439595990132807
12.028,-0.006452481721140749
12.032,-0.0064570975053824
12.036,-0.006464958762918961
12.040000000000001,-0.006465006844004811
12.044,-0.006493951657686828
12.048,-0.006494288225287782
12.052,-0.006449933423590672
12.056000000000001,-0.006450149788476999
12.06,-0.006437240016926131
12.064,-0.006399376161818841
12.068,-0.006407333581527104
12.072000000000001,-0.006429667245904673
12.076,-0.006447889977442023
12.08,-0.006467242614496861
12.084,-0.006456376289094642
12.088000000000001,-0.006452914450913404
12.092,-0.0064528423292846285
12.096,-0.006452650004941226
12.1,-0.0064547415321757244
12.104000000000001,-0.0064618815734245275
12.108,-0.006481522696994467
12.112,-0.006505034347975375
12.116,-0.00652373789037123
12.120000000000001,-0.006503471712685232
12.124,-0.006451904748110543
12.128,-0.006466040587350598
12.132,-0.006477027115467443
12.136000000000001,-0.006485705751463463
12.14,-0.006497533698582692
12.144,-0.006464598154775082
12.148,-0.006447337044954742
12.152000000000001,-0.0064590928704451964
12.156,-0.006466377154951551
12.16,-0.006446231179980179
12.164,-0.006446736031381611
12.168000000000001,-0.006453731829372863
12.172,-0.006458900546101795
12.176,-0.0064707525337639495
12.18,-0.006476594385694788
12.184000000000001,-0.006484191197259172
12.188,-0.006518376849298896
12.192,-0.006530901972162958
12.196,-0.00650597192914946
12.200000000000001,-0.006509217402444371
12.204,-0.006527776701582674
12.208,-0.0065015965503370625
12.212,-0.006474647101717842
12.216000000000001,-0.006488422332814017
12.22,-0.0064959229822067
12.224,-0.0064984231986709275
12.228,-0.006472651736655045
12.232000000000001,-0.006456280126922941
12.236,-0.006445966734008002
12.24,-0.0064686129254436005
12.244,-0.006500226239390322
12.248000000000001,-0.006497966428355348
12.252,-0.006485080697347406
12.256,-0.006481666940252019
12.26,-0.0064945286307170344
12.264000000000001,-0.006496980766095411
12.268,-0.006486258683950744
12.272,-0.00651561218686249
12.276,-0.006549581474015889
12.280000000000001,-0.006496331671436429
12.284,-0.006457361951354578
12.288,-0.0064705121283346965
12.292,-0.006503423631599382
12.296,-0.006482989170112909
12.3,-0.006488638697700345
12.304,-0.00650272645585455
12.308,-0.00650820769964151
12.312,-0.006493086198141519
12.316,-0.0064725796150262695
12.32,-0.00647445477737444
12.324,-0.00647623377755091
12.328,-0.006480873602335485
12.332,-0.0064854172649483595
12.336,-0.006499240577130386
12.34,-0.00651373702451432
12.344,-0.006542441432767085
12.348,-0.006508832753757566
12.352,-0.0064835180620572645
12.356,-0.0064832776566280115
12.36,-0.00650419292897299
12.364,-0.006558067785668507
12.368,-0.006549509352387113
12.372,-0.00650094745567808
12.376,-0.006472651736655045
12.38,-0.0065063565778362645
12.384,-0.0065067412265230684
12.388,-0.006513688943428469
12.392,-0.00650647678055089
12.396,-0.0064643337088029044
12.4,-0.006454885775433275
12.404,-0.006458756302844243
12.408,-0.006459237113702748
12.412,-0.006473829723258383
12.416,-0.006503111104541354
12.42,-0.0065170546194380065
12.424,-0.006489792643760758
12.428,-0.006510563672848186
12.432,-0.0065218867685659845
12.436,-0.0065133283352845905
12.44,-0.006536166851063591
12.444,-0.006542729919282187
12.448,-0.006528978728728937
12.452,-0.006528930647643086
12.456,-0.0064867875758951
12.46,-0.006456568613438044
12.464,-0.0064546694105469486
12.468,-0.0064587082217583925
12.472,-0.006474286493573963
12.476,-0.0064806572374491575
12.48,-0.006486547170465848
12.484,-0.006492196698053284
12.488,-0.006496692279580309
12.492,-0.0065019090773950905
12.496,-0.0064973173336963655
12.5,-0.006496644198494458
12.504,-0.00651739118703896
12.508000000000001,-0.006561433461678043
12.512,-0.0065535241230556315
12.516,-0.006534988864460253
12.52,-0.006529050850357713
12.524000000000001,-0.006475464480177301
12.528,-0.006459958329990506
12.532,-0.006509722253845801
12.536,-0.006511982064880776
12.540000000000001,-0.006478349345328332
12.544,-0.006461833492338677
12.548,-0.006463828857401473
12.552,-0.006474983669318796
12.556000000000001,-0.0064774117641542475
12.56,-0.006480128345504802
12.564,-0.0064854172649483595
12.568,-0.006492052454795732
12.572000000000001,-0.006505274753404627
12.576,-0.006536839986265498
12.58,-0.006545927311491248
12.584,-0.0065290989314435634
12.588000000000001,-0.006520684741419721
12.592,-0.006494480549631184
12.596,-0.006489359913988103
12.6,-0.006479815818446774
12.604000000000001,-0.006483710386400666
12.608,-0.006497653901297319
12.612,-0.006483974832372844
12.616,-0.006466329073865701
12.620000000000001,-0.006468636965986526
12.624,-0.006485224940604958
12.628,-0.0064799360211614
12.632,-0.006484599886488901
12.636000000000001,-0.006490513860048516
12.64,-0.0064954902524340455
12.644,-0.006500346442104949
12.648,-0.006508544267242463
12.652000000000001,-0.006519554835902234
12.656,-0.0065390036351287715
12.66,-0.0065670108676367045
12.664,-0.006532320364195548
12.668000000000001,-0.006500106036675696
12.672,-0.006508856794300491
12.676,-0.006514482281345003
12.68,-0.006500106036675696
12.684000000000001,-0.0064620258166820784
12.688,-0.006466833925267131
12.692,-0.006458684181215467
12.696,-0.00643486000317653
12.700000000000001,-0.006458347613614514
12.704,-0.006477051156010368
12.708,-0.006466906046895907
12.712,-0.0064713054662512304
12.716000000000001,-0.006476426101894311
12.72,-0.006480056223876026
12.724,-0.006482844926855357
12.728,-0.006485056656804481
12.732000000000001,-0.006485705751463463
12.736,-0.006496812482294935
12.74,-0.006518929781786177
12.744,-0.006538066053954687
12.748000000000001,-0.006564438529543701
12.752,-0.006519338471015906
12.756,-0.006488302130099392
12.76,-0.00647577700723533
12.764000000000001,-0.006467699384812441
12.768,-0.006451952829196393
12.772,-0.0064468802746391616
12.776,-0.006459645802932477
12.780000000000001,-0.00644074993619322
12.784,-0.006418969204302931
12.788,-0.0064297874486193
12.792,-0.006443274193200372
12.796000000000001,-0.006452097072453945
12.8,-0.006457385991897503
12.804,-0.006458996708273495
12.808,-0.00644760149092692
12.812,-0.006463588451972221
12.816,-0.006486979900238502
12.82,-0.0064803447103911295
12.824,-0.006484263318887947
12.828,-0.006519482714273458
12.832,-0.00652703144475199
12.836,-0.00651460248405963
12.84,-0.006476786710038191
12.844,-0.00645527042412008
12.848,-0.006442096206597034
12.852,-0.006438826692759199
12.856,-0.006437961233213889
12.86,-0.006486955859695577
12.864,-0.006474935588232945
12.868,-0.006426277529352212
12.872,-0.006411781081968278
12.876,-0.0064120695684833804
12.88,-0.006420507799050148
12.884,-0.006430027854048552
12.888,-0.0064383939629865435
12.892,-0.006443129949942821
12.896,-0.006445509963692422
12.9,-0.006445750369121674
12.904,-0.0064434905580867
12.908,-0.006447962099070799
12.912,-0.0064537077888299375
12.916,-0.00648130633210814
12.92,-0.006532488647996025
12.924,-0.0065672512730659575
12.928,-0.006509962659275054
12.932,-0.006433153124628836
12.936,-0.006428032488985756
12.94,-0.006443178031028672
12.944,-0.006423609029087507
12.948,-0.006424690853519144
12.952,-0.006418800920502454
12.956,-0.006412382095541409
12.96,-0.0064124782577131105
12.964,-0.006420676082850625
12.968,-0.006424835096776695
12.972,-0.00641521887960659
12.976,-0.006427744002470652
12.98,-0.0064843835216025734
12.984,-0.0065031832261701296
12.988,-0.006457890843298933
12.992,-0.006456039721493688
12.996,-0.006476642466780639
13.0,-0.006467915749698769
13.004,-0.0064276959213848016
13.008000000000001,-0.006409425108761602
13.012,-0.006418320109643949
13.016,-0.006402453351313275
13.02,-0.006402068702626471
13.024000000000001,-0.006408992378988947
13.028,-0.006416925758154284
13.032,-0.006423368623658254
13.036,-0.006428777745816438
13.040000000000001,-0.006432744435399107
13.044,-0.006435581219464288
13.048,-0.006437720827784637
13.052,-0.006439211341446003
13.056000000000001,-0.0064430818688569706
13.06,-0.006460631465192414
13.064,-0.006472411331225792
13.068,-0.006467314736125637
13.072000000000001,-0.006457890843298933
13.076,-0.0064359418276081675
13.08,-0.006439668111761583
13.084,-0.006425363988721051
13.088000000000001,-0.006406900851754449
13.092,-0.006408655811387993
13.096,-0.006415122717434889
13.1,-0.006409929960163032
13.104000000000001,-0.006412334014455559
13.108,-0.006418055663671771
13.112,-0.006424258123746489
13.116,-0.00643024421893488
13.120000000000001,-0.006437264057469056
13.124,-0.006466737763095431
13.128,-0.006511909943252
13.132,-0.006465439573777466
13.136000000000001,-0.006463804816858548
13.14,-0.006484840291918153
13.144,-0.006430099975677328
13.148,-0.006401900418825994
13.152000000000001,-0.00638009564639278
13.156,-0.006384975876606609
13.16,-0.006394327647804537
13.164,-0.00640877601410262
13.168000000000001,-0.006413175433457942
13.172,-0.006413872609202775
13.176,-0.006419113447560483
13.18,-0.006425652475236155
13.184000000000001,-0.006431133719023115
13.188,-0.006436518800638374
13.192,-0.006448418869386379
13.196,-0.006465487654863317
13.200000000000001,-0.0064504623155350275
13.204,-0.006496451874151056
13.208,-0.006482868967398282
13.212,-0.006449837261418971
13.216000000000001,-0.006446447544866507
13.22,-0.0064379131521280384
13.224,-0.006448082301785425
13.228,-0.0064629874383990895
13.232000000000001,-0.006433153124628836
13.236,-0.006416036258066049
13.24,-0.0064168295959825825
13.244,-0.006438802652216274
13.248000000000001,-0.006440317206420565
13.252,-0.006427575718670175
13.256,-0.006412213811740932
13.26,-0.006424907218405471
13.264000000000001,-0.006469694749875238
13.268,-0.006460078532705133
13.272,-0.006449885342504821
13.276,-0.0064606074246494885
13.280000000000001,-0.006483301697170937
13.284,-0.0065000819961327705
13.288,-0.006496644198494458
13.292,-0.006470007276933266
13.296000000000001,-0.006434138786888773
13.3,-0.006420531839593073
13.304,-0.006428056529528681
13.308,-0.006431374124452367
13.312000000000001,-0.0064279363268140545
13.316,-0.006431085637937264
13.32,-0.006431590489338695
13.324,-0.0064357014221789145
13.328,-0.0064426731796272405
13.332,-0.006453683748287012
13.336,-0.0064813784537369155
13.34,-0.0064873164678394555
13.344,-0.006481426534822766
13.348,-0.006481955426767122
13.352,-0.006486018278521491
13.356,-0.006452986572542179
13.36,-0.006448851599159033
13.364,-0.006490393657333889
13.368,-0.006484287359430872
13.372,-0.00643394646254537
13.376,-0.0064247629751479195
13.38,-0.006444043490573981
13.384,-0.006455991640407837
13.388,-0.006461785411252826
13.392,-0.006470007276933266
13.396,-0.006463420168171744
13.4,-0.006461905613967453
13.404,-0.006463708654686848
13.408,-0.006465295330519915
13.412,-0.006465511695406242
13.416,-0.006493302563027846
13.42,-0.006540566270418914
13.424,-0.006534387850887121
13.428,-0.006468204236213871
13.432,-0.006441230747051725
13.436,-0.0064408460983649204
13.44,-0.006450726761507205
13.444,-0.006470247682362519
13.448,-0.006492917914341042
13.452,-0.006512559037910982
13.456,-0.006480416832019905
13.46,-0.0064584678163291396
13.464,-0.006450486356077953
13.468,-0.0064566407350668195
13.472,-0.0064949373199467645
13.476,-0.00651328025419874
13.48,-0.006505611321005581
13.484,-0.006471690114938034
13.488,-0.006439163260360152
13.492,-0.006459140951531047
13.496,-0.00648039279147698
13.5,-0.006460102573248058
13.504,-0.006446856234096236
13.508000000000001,-0.006434451313946801
13.512,-0.006437071733125655
13.516,-0.006444091571659831
13.52,-0.006450173829019924
13.524000000000001,-0.0064568811404960725
13.528,-0.0064620258166820784
13.532,-0.0064648145196614095
13.536,-0.006467483019926113
13.540000000000001,-0.006469262020102583
13.544,-0.006466882006352982
13.548,-0.006493807414429277
13.552,-0.006506140212949937
13.556000000000001,-0.006488638697700345
13.56,-0.006525324566204297
13.564,-0.006470968898650277
13.568,-0.006425580353607379
13.572000000000001,-0.006433177165171762
13.576,-0.006459790046190029
13.58,-0.006457746600041382
13.584,-0.0064618815734245275
13.588000000000001,-0.006478349345328332
13.592,-0.0064690937363021065
13.596,-0.006450654639878429
13.6,-0.00644531763934902
13.604000000000001,-0.00644810634232835
13.608,-0.006451712423767141
13.612,-0.006463780776315623
13.616,-0.006483157453913385
13.620000000000001,-0.006476378020808461
13.624,-0.00646531937106284
13.628,-0.006475248115290973
13.632,-0.006528954688186012
13.636000000000001,-0.0065135687407138435
13.64,-0.006490778306020694
13.644,-0.006495177725376017
13.648,-0.006491956292624032
13.652000000000001,-0.006489504157245655
13.656,-0.006478493588585884
13.66,-0.006460535303020713
13.664,-0.006450582518249653
13.668000000000001,-0.0064457744096646
13.672,-0.006476979034381593
13.676,-0.00648359018368604
13.68,-0.00645897266773057
13.684000000000001,-0.0064518085859388416
13.688,-0.006461545005823573
13.692,-0.006467795546984142
13.696,-0.006462314303197182
13.700000000000001,-0.006448923720787809
13.704,-0.006516237240978547
13.708,-0.00653515714826073
13.712,-0.0065115012540222705
13.716000000000001,-0.006494841157775063
13.72,-0.006500971496221006
13.724,-0.006527704579953898
13.728,-0.00652191080910891
13.732000000000001,-0.006494047819858529
13.736,-0.0064686129254436005
13.74,-0.006462073897767929
13.744,-0.006465391492691616
13.748000000000001,-0.006493855495515127
13.752,-0.006521574241507956
13.756,-0.006511284889135943
13.76,-0.006481330372651065
13.764000000000001,-0.006463708654686848
13.768,-0.0064667858441812805
13.772,-0.006468949493044555
13.776,-0.006498327036499226
13.780000000000001,-0.0065290268098147876
13.784,-0.0065234734443990515
13.788,-0.006521285754992853
13.792,-0.006553548163598557
13.796000000000001,-0.006574054746713806
13.8,-0.0065223675794244896
13.804,-0.0065170546194380065
13.808,-0.006521285754992853
13.812000000000001,-0.006510347307961858
13.816,-0.006510972362077915
13.82,-0.006516044916635145
13.824,-0.006522271417252788
13.828,-0.0065290989314435634
13.832,-0.006534532094144673
13.836,-0.0065394123243585015
13.84,-0.006542369311138309
13.844,-0.006545807108776621
13.848,-0.006539532527073127
13.852,-0.006544821446516686
13.856,-0.006604586236228891
13.86,-0.006604994925458621
13.864,-0.006573622016941152
13.868,-0.006571722814050056
13.872,-0.0065477303522106425
13.876,-0.00654022970281796
13.88,-0.006553956852828287
13.884,-0.006541984662451504
13.888,-0.006537633324182032
13.892,-0.00654256163548171
13.896,-0.006548499649584252
13.9,-0.006554581906944344
13.904,-0.006561770029278997
13.908,-0.006569487043558007
13.912,-0.006574703841372789
13.916,-0.006578838814755934
13.92,-0.006605788263375154
13.924,-0.006636247631261463
13.928,-0.006600258938502344
13.932,-0.006590931207847341
13.936,-0.006592493843137484
13.94,-0.006563236502397438
13.944,-0.006559462137158171
13.948,-0.006585401882974531
13.952,-0.006589657059072302
13.956,-0.0065700159355023624
13.96,-0.006589056045499171
13.964,-0.006607182614864819
13.968,-0.006596845181406956
13.972,-0.0065882627075826376
13.976,-0.006586700072292495
13.98,-0.006597806803123967
13.984,-0.006596099924576273
13.988,-0.0066013407629339806
13.992,-0.0066070383716072675
13.996,-0.006592830410738437
14.0,-0.006582252571851322
14.004,-0.006606245033690734
14.008000000000001,-0.006609730912414897
14.012,-0.006597806803123967
14.016,-0.006603768857769432
14.02,-0.006583839247684389
14.024000000000001,-0.00657525677386007
14.028,-0.00658393540985609
14.032,-0.006595907600232871
14.036,-0.006606461398577061
14.040000000000001,-0.006615741048146213
14.044,-0.006627040103321087
14.048,-0.006641776956134274
14.052,-0.0066350456041152
14.056000000000001,-0.006597061546293284
14.06,-0.00662595827888945
14.064,-0.006681660216847287
14.068,-0.006664351025941097
14.072000000000001,-0.006622231994736034
14.076,-0.006617207521264654
14.08,-0.006600571465560372
14.084,-0.006600234897959419
14.088000000000001,-0.006608408682554008
14.092,-0.006623145535367195
14.096,-0.0066419211993918245
14.1,-0.0066397815910714765
14.104000000000001,-0.006636319752890239
14.108,-0.006639589266728074
14.112,-0.006655047335829021
14.116,-0.006673125824108819
14.120000000000001,-0.00669606050205952
14.124,-0.00670382559742438
14.128,-0.006683463257566682
14.132,-0.006665793458516613
14.136000000000001,-0.006642498172422031
14.14,-0.006623001292109643
14.144,-0.006652354795021391
14.148,-0.0066717555131620785
14.152000000000001,-0.006668990850725674
14.156,-0.006662067174363197
14.16,-0.006636319752890239
14.164,-0.006631728009191513
14.168000000000001,-0.006642690496765433
14.172,-0.006654806930399768
14.176,-0.006665168404400556
14.18,-0.0066736547160531744
14.184000000000001,-0.006682718000735999
14.188,-0.006695074839799584
14.192,-0.006691925528676374
14.196,-0.006705292070542821
14.200000000000001,-0.006700075272728039
14.204,-0.006692093812476851
14.208,-0.006717192139290826
14.212,-0.0067579408595491485
14.216000000000001,-0.006732938694906873
14.22,-0.006693993015367947
14.224,-0.00667103429687432
14.228,-0.006668005188465737
14.232000000000001,-0.0066599756471287
14.236,-0.006660696863416457
14.24,-0.00667007267515731
14.244,-0.006696108583145371
14.248000000000001,-0.006701517705303555
14.252,-0.00668651640651819
14.256,-0.006687862676922005
14.26,-0.006695122920885434
14.264000000000001,-0.006678919594953807
14.268,-0.006711013719759034
14.272,-0.006758589954208131
14.276,-0.006770345779698584
14.280000000000001,-0.006741184601130239
14.284,-0.006680963041102455
14.288,-0.006677260797491964
14.292,-0.006711422408988763
14.296000000000001,-0.00670757592212072
14.3,-0.006718225882636613
14.304,-0.006723274396650917
14.308,-0.006707527841034871
14.312000000000001,-0.0067048112596843155
14.316,-0.006729332613468084
14.32,-0.006706205611173981
14.324,-0.006697190407577007
14.328000000000001,-0.0067024312459347144
14.332,-0.006708345219494329
14.336,-0.0067162305175738155
14.34,-0.00672397157239575
14.344,-0.006728851802609579
14.348,-0.006736833262860766
14.352,-0.006757868737920373
14.356,-0.006761450778816237
14.36,-0.006757339845976017
14.364,-0.006753493359107974
14.368,-0.006746545642202574
14.372,-0.006757964900092074
14.376,-0.006771908414988727
14.38,-0.006753613561822601
14.384,-0.00674036722267078
14.388,-0.0067117108955038664
14.392,-0.006702647610821042
14.396,-0.006720990545073018
14.4,-0.006728683518809102
14.404,-0.006720942463987167
14.408,-0.006716879612232798
14.412,-0.006718562450237566
14.416,-0.006725918856372697
14.42,-0.0067330588976215
14.424,-0.0067383478170650575
14.428,-0.006743204006735961
14.432,-0.006758061062263775
14.436,-0.006774889442311459
14.44,-0.006762989373563453
14.444,-0.006758325508235952
14.448,-0.006767653238890955
14.452,-0.006757484089233569
14.456,-0.00675392608888063
14.46,-0.006779120577866306
14.464,-0.006774432671995879
14.468,-0.006735679316800354
14.472,-0.006710965638673183
14.476,-0.00669469019111278
14.48,-0.006697262529205783
14.484,-0.006706133489545205
14.488,-0.006710508868357603
14.492,-0.006714980409341702
14.496,-0.0067236830858806475
14.5,-0.006731616465045984
14.504,-0.00673808337109288
14.508000000000001,-0.0067441415879100465
14.512,-0.006748805453237548
14.516,-0.006753685683451377
14.52,-0.0067626528059625
14.524000000000001,-0.006762965333020528
14.528,-0.0067660184819720364
14.532,-0.006778976334608754
14.536,-0.006756690751317035
14.540000000000001,-0.0067338281949951085
14.544,-0.0067389007495523385
14.548,-0.0067651530224267275
14.552,-0.006793472781992688
14.556000000000001,-0.006778567645379025
14.56,-0.006738468019779684
14.564,-0.006698993448296402
14.568,-0.006687934798550781
14.572000000000001,-0.006697454853549185
14.576,-0.006704691056969689
14.58,-0.006708345219494329
14.584,-0.006716302639202591
14.588000000000001,-0.006725149558999088
14.592,-0.006732313640790816
14.596,-0.006738179533264581
14.6,-0.0067420741012184735
14.604000000000001,-0.006745343615056311
14.608,-0.006747074534146929
14.612,-0.0067412807633019396
14.616,-0.00673625628983056
14.620000000000001,-0.006778255118320996
14.624,-0.006815902608541958
14.628,-0.00678823194363498
14.632,-0.006770586185127837
14.636000000000001,-0.006740775911900509
14.64,-0.006735198505941848
14.644,-0.006742434709362352
14.648,-0.006722192572219281
14.652000000000001,-0.006717672950149332
14.656,-0.006746233115144545
14.66,-0.006747266858490332
14.664,-0.006742170263390175
14.668000000000001,-0.0067369294250324676
14.672,-0.006735078303227222
14.676,-0.006738419938693833
14.68,-0.00674351653379399
14.684000000000001,-0.006747988074778089
14.688,-0.006751209507530075
14.692,-0.006755055994398117
14.696,-0.0067595275353822155
14.700000000000001,-0.00679010710598315
14.704,-0.006815445838226378
14.708,-0.006791140849328937
14.712,-0.006773326807021317
14.716000000000001,-0.006767941725406058
14.72,-0.0067730864015920645
14.724,-0.006789193565351991
14.728,-0.006791958227788396
14.732000000000001,-0.006781692915959308
14.736,-0.0067646000899394465
14.74,-0.006742963601306709
14.744,-0.006738852668466488
14.748000000000001,-0.006733900316623884
14.752,-0.006738251654893356
14.756,-0.0067468341287176764
14.76,-0.006755416602541996
14.764000000000001,-0.0067626528059625
14.768,-0.006769023549837694
14.772,-0.006775875104571395
14.776,-0.006781452510530056
14.780000000000001,-0.0067944824847955484
14.784,-0.0067925832819044525
14.788,-0.0067854913217415
14.792,-0.006783303632335301
14.796000000000001,-0.0067984491743782165
14.8,-0.006809435702495062
14.804,-0.006827201663716832
14.808,-0.0068114551081007845
14.812000000000001,-0.006775923185657245
14.816,-0.00677356721245057
14.82,-0.00677676460465963
14.824,-0.006756450345887782
14.828000000000001,-0.006740679749728808
14.832,-0.006748180399121491
14.836,-0.00674808423694979
14.84,-0.006749670912782858
14.844000000000001,-0.006763950995280464
14.848,-0.006767364752375851
14.852,-0.006768903347123069
14.856,-0.0067736393340793455
14.86,-0.006779000375151679
14.864,-0.0067773656182327615
14.868,-0.0067798177536111375
14.872,-0.00683203381284481
14.876,-0.006830519258640518
14.88,-0.0067997954447820315
14.884,-0.0067614267382733115
14.888,-0.0067494545478965304
14.892,-0.0067444541149680745
14.896,-0.0067664271712017665
14.9,-0.0067811640240149525
14.904,-0.006763542306050735
14.908,-0.006758638035293981
14.912,-0.006756378224259006
14.916,-0.006759311170495889
14.92,-0.0067646000899394465
14.924,-0.006768759103865517
14.928,-0.006773687415165196
14.932,-0.006787630930061848
14.936,-0.0068099405538964925
14.94,-0.006825542866254988
14.944,-0.006816239176142912
14.948,-0.0067736393340793455
14.952,-0.006761402697730386
14.956,-0.006753709723994302
14.96,-0.006766042522514962
14.964,-0.006773422969193018
14.968,-0.0067439011824807936
14.972,-0.006718201842093687
14.976,-0.006729500897268561
14.98,-0.006730366356813871
14.984,-0.00673402051933851
14.988,-0.006739742168554723
14.992,-0.006745463817770937
14.996,-0.00675173839947443
15.0,-0.006757195602718465
15.004,-0.006760176630041198
15.008000000000001,-0.006776139550543573
15.012,-0.006790876403356759
15.016,-0.006780130280669166
15.02,-0.00679046771412703
15.024000000000001,-0.0067907562006421325
15.028,-0.006781933321388561
15.032,-0.006765826157628635
15.036,-0.006762748968134201
15.040000000000001,-0.006795924917371065
15.044,-0.006822994568704911
15.048,-0.006744045425738345
15.052,-0.006699882948384636
15.056000000000001,-0.006702623570278117
15.06,-0.006707455719406095
15.064,-0.0067191634638106975
15.068,-0.0067367611412319905
15.072000000000001,-0.0067490698992097265
15.076,-0.006756161859372679
15.08,-0.006762917251934678
15.084,-0.006769408198524499
15.088000000000001,-0.006778327239949772
15.092,-0.006785082632511771
15.096,-0.006782101605189038
15.1,-0.006785587483913201
15.104000000000001,-0.006802872634276465
15.108,-0.006846482179142894
15.112,-0.006839101732464837
15.116,-0.006783616159393329
15.120000000000001,-0.006786837592145315
15.124,-0.0067717401311882496
15.128,-0.006754406899739135
15.132,-0.006770273658069808
15.136000000000001,-0.006775081766654861
15.14,-0.0068014542422438744
15.144,-0.0067656338332852325
15.148,-0.006735462951914026
15.152000000000001,-0.006738011249464104
15.156,-0.006744910885283654
15.16,-0.00675443094028206
15.164,-0.0067638067520229125
15.168000000000001,-0.006771836293359951
15.172,-0.006779240780580931
15.176,-0.0067848181865395926
15.18,-0.006785972132600005
15.184000000000001,-0.006787871335491101
15.188,-0.0067869577948599415
15.192,-0.0067792648211238565
15.196,-0.006825446704083288
15.200000000000001,-0.006870907370754961
15.204,-0.006857420626173889
15.208,-0.0068072480130888634
15.212,-0.006785875970428304
15.216000000000001,-0.006789914781639749
15.22,-0.006791838025073769
15.224,-0.006813017743390926
15.228,-0.006804819918253412
15.232000000000001,-0.006752531737390964
15.236,-0.006726976640261408
15.24,-0.006732073235361564
15.244,-0.006745872507000666
15.248000000000001,-0.006759022683980785
15.252,-0.006768230211921161
15.256,-0.006775322172084114
15.26,-0.006783904645908433
15.264000000000001,-0.006788015578748653
15.268,-0.006809483783580913
15.272,-0.006824172555308249
15.276,-0.006810565608012549
15.280000000000001,-0.0068237398255355936
15.284,-0.006875018303595181
15.288,-0.006868767762434613
15.292,-0.006825013974310633
15.296000000000001,-0.0068088346889219305
15.3,-0.006824653366166754
15.304,-0.006785683646084902
15.308,-0.006760994008500657
15.312000000000001,-0.0067653213062272045
15.316,-0.0067580851028067
15.32,-0.006763349981707333
15.324,-0.006771547806844847
15.328000000000001,-0.006779721591439437
15.332,-0.006788496389607158
15.336,-0.00679645380931542
15.34,-0.006802656269390138
15.344000000000001,-0.006807632661775667
15.348,-0.006811719554072962
15.352,-0.006813450473163581
15.356,-0.006816792108630193
15.36,-0.006808257715891724
15.364,-0.006799939688039583
15.368,-0.006830495218097593
15.372,-0.006853694342020473
15.376,-0.006841409624585662
15.38,-0.006808017310462472
15.384,-0.006805324769654842
15.388,-0.006783736362107956
15.392,-0.006769239914724022
15.396,-0.006771403563587295
15.4,-0.006775827023485544
15.404,-0.006779409064381408
15.408,-0.006789866700553898
15.412,-0.006800733025956117
15.416,-0.0068074884185181156
15.42,-0.006814171689451339
15.424,-0.006828403690863095
15.428,-0.006838789205406808
15.432,-0.006842876097704104
15.436,-0.006883985426106304
15.44,-0.006865426126968001
15.444,-0.006807993269919547
15.448,-0.006783616159393329
15.452,-0.006793568944164389
15.456,-0.0067883040652637556
15.46,-0.006763422103336109
15.464,-0.006760801684157255
15.468,-0.006766258887401289
15.472,-0.006780394726641344
15.476,-0.0067913091331294135
15.48,-0.006799122309580124
15.484,-0.006807296094174714
15.488,-0.006814027446193788
15.492,-0.006817825851975979
15.496,-0.006823283055220014
15.5,-0.006839822948752595
15.504,-0.006875306790110285
15.508000000000001,-0.006878143574175466
15.512,-0.006825446704083288
15.516,-0.006799963728582509
15.52,-0.006792078430503022
15.524000000000001,-0.006834630191480738
15.528,-0.006833692610306653
15.532,-0.0067912370115006376
15.536,-0.006801911012559455
15.540000000000001,-0.006809483783580913
15.544,-0.006778543604836099
15.548,-0.006768518698436264
15.552,-0.0067715718473877725
15.556000000000001,-0.006779360983295558
15.56,-0.006787630930061848
15.564,-0.006794867133482352
15.568,-0.006800468579983939
15.572000000000001,-0.006805733458884571
15.576,-0.00681015691878282
15.58,-0.006815061189539574
15.584,-0.006823475379563416
15.588000000000001,-0.006820999203642114
15.592,-0.006813402392077731
15.596,-0.006837683340432246
15.6,-0.006842371246302673
15.604000000000001,-0.00685025654438216
15.608,-0.006814868865196172
15.612,-0.006782534334961693
15.616,-0.006814965027367873
15.620000000000001,-0.006799146350123049
15.624,-0.006786116375857557
15.628,-0.006777774307462491
15.632,-0.0067771252128035085
15.636000000000001,-0.006779168658952156
15.64,-0.006774072063852
15.644,-0.0067743605503671036
15.648,-0.006781212105100803
15.652000000000001,-0.0067878232544052505
15.656,-0.006792078430503022
15.66,-0.006795179660540381
15.664,-0.006800372417812238
15.668000000000001,-0.006815397757140527
15.672,-0.0068332598805339985
15.676,-0.006829990366696162
15.68,-0.006831601083072155
15.684000000000001,-0.006816311297771688
15.688,-0.006806238310286002
15.692,-0.0068165997842867905
15.696,-0.006810469445840848
15.700000000000001,-0.006830543299183443
15.704,-0.006815782405827332
15.708,-0.006786140416400482
15.712,-0.006770682347299538
15.716000000000001,-0.006747988074778089
15.72,-0.006740655709185883
15.724,-0.006745656142114339
15.728,-0.006754358818653284
15.732000000000001,-0.0067657059549140084
15.736,-0.0067763559154299
15.74,-0.006785010510882995
15.744,-0.006792006308874246
15.748000000000001,-0.006797487552661206
15.752,-0.006800252215097611
15.756,-0.006796910579631
15.76,-0.0067941699577375204
15.764000000000001,-0.006800829188127818
15.768,-0.00681741716274625
15.772,-0.006875619317168313
15.776,-0.006845857125026837
15.780000000000001,-0.006802800512647689
15.784,-0.006787630930061848
15.788,-0.00680239182341796
15.792,-0.006770826590557089
15.796000000000001,-0.006756498426973632
15.8,-0.006764239481795567
15.804,-0.006750512331785242
15.808,-0.0067472428179474065
15.812000000000001,-0.006752483656305114
15.816,-0.006759936224611946
15.82,-0.006770321739155659
15.824,-0.006778279158863921
15.828000000000001,-0.006782822821476795
15.832,-0.006787222240832119
15.836,-0.006787967497662802
15.84,-0.006776235712715273
15.844000000000001,-0.006782462213332917
15.848,-0.006844270449193769
15.852,-0.006871460303242242
15.856,-0.006832057853387735
15.860000000000001,-0.006787679011147699
15.864,-0.006789217605894916
15.868,-0.006836817880886937
15.872,-0.0068234994201063414
15.876,-0.006766932022603197
15.88,-0.006737746803491926
15.884,-0.006740655709185883
15.888,-0.0067507286966715695
15.892,-0.006768422536264563
15.896,-0.006771884374445801
15.9,-0.006771235279786819
15.904,-0.006776692483030854
15.908,-0.006783471916135778
15.912,-0.00678960225458172
15.916,-0.0067928236873337055
15.92,-0.006790900443899684
15.924,-0.006799434836638153
15.928,-0.00681198400004514
15.932,-0.006811310864843233
15.936,-0.006828091163805066
15.94,-0.00685573778816912
15.944,-0.006840592246126203
15.948,-0.006841385584042737
15.952,-0.006826865096115878
15.956,-0.006821960825359124
15.96,-0.006800156052925911
15.964,-0.0067888569977510365
15.968,-0.006794867133482352
15.972,-0.006776836726288405
15.976,-0.00676310957627808
15.98,-0.006764095238538016
15.984,-0.006758902481266159
15.988,-0.006764888576454549
15.992,-0.00677274983399111
15.996,-0.006780250483383793
16.0,-0.0067880636598345034
16.004,-0.00679376126850779
16.008,-0.0067981366473201885
16.012,-0.006802151417988707
