time,channel5
0.0,-0.0020405853240392994
0.004,-0.0020147176998517153
0.008,-0.0020755643139955576
0.012,-0.002046787784114017
0.016,-0.001994980414110074
0.02,-0.002012770415874769
0.024,-0.0020228434033604543
0.028,-0.0020098855507237373
0.032,-0.001963246897448726
0.036000000000000004,-0.001947836909433632
0.04,-0.001964929735453495
0.044,-0.0019393986788668646
0.048,-0.0019254551639702117
0.052000000000000005,-0.0019287006372651222
0.056,-0.0019646172083954663
0.06,-0.0019753152499972083
0.064,-0.0019373552327182173
0.068,-0.001908218094692798
0.07200000000000001,-0.0019037465537086987
0.076,-0.001888793336009185
0.08,-0.0018286919786960258
0.084,-0.0017817888794488363
0.088,-0.0017706581080744394
0.092,-0.0018168159504909458
0.096,-0.0017954919889162366
0.1,-0.001768710824097493
0.10400000000000001,-0.0017766201627199048
0.108,-0.0017826302984512207
0.112,-0.0017761874329472501
0.116,-0.0017563299444909824
0.12,-0.0017592869312707897
0.124,-0.0017820533254210144
0.128,-0.0017683982970394647
0.132,-0.0017152927377175574
0.136,-0.0017304623203033985
0.14,-0.0017586859176976582
0.14400000000000002,-0.0017270726037509365
0.148,-0.00167036096299024
0.152,-0.001662692029797081
0.156,-0.0016819725452231421
0.16,-0.0016921176543376033
0.164,-0.0016348530810896254
0.168,-0.0016133367951715147
0.17200000000000001,-0.00164391636577245
0.176,-0.0016536527856571815
0.18,-0.0016196354174179337
0.184,-0.001637016729952899
0.188,-0.0016135050789719916
0.192,-0.0016184574308145958
0.196,-0.0015791271025888643
0.2,-0.0015540528163178146
0.20400000000000001,-0.0015729246425141463
0.20800000000000002,-0.001595498712320969
0.212,-0.001540325666307489
0.216,-0.0014884942557606207
0.22,-0.001491980134484784
0.224,-0.001470680213453
0.228,-0.0014754162004092773
0.232,-0.001427984209217732
0.23600000000000002,-0.0014311094797980163
0.24,-0.0014584435771040412
0.244,-0.0014525536440873517
0.248,-0.0014203633571104237
0.252,-0.0014077901531605107
0.256,-0.0014337539395197954
0.26,-0.0014571694283290022
0.264,-0.0014345713179792546
0.268,-0.0013967795845007398
0.272,-0.0014297391688512762
0.276,-0.0014651028074943392
0.28,-0.0014062275178703687
0.28400000000000003,-0.0013677866897328721
0.28800000000000003,-0.0013686040681923312
0.292,-0.001367498203217769
0.296,-0.0013141041573807586
0.3,-0.0012935975742655087
0.304,-0.001302540656233707
0.308,-0.0013027810616629595
0.312,-0.0012615034494602817
0.316,-0.0012534739081232439
0.32,-0.0012653980174141747
0.324,-0.0012689560177671136
0.328,-0.0012506371240580628
0.332,-0.0012280149731653898
0.336,-0.0012546518947265817
0.34,-0.0012747738291550273
0.34400000000000003,-0.0012821542758330831
0.34800000000000003,-0.0012492908536542477
0.352,-0.001240636258201153
0.356,-0.001239097663453936
0.36,-0.0012452280018998782
0.364,-0.0012039263491542755
0.368,-0.0011780827655096173
0.372,-0.0011855834149022994
0.376,-0.0011937571994968892
0.38,-0.001154907682129663
0.384,-0.0011248329629301582
0.388,-0.0011366368695064626
0.392,-0.0011527680738093145
0.396,-0.001119423840771974
0.4,-0.001088700026913487
0.404,-0.0010731457956408416
0.40800000000000003,-0.0011426229646948533
0.41200000000000003,-0.0011359637343045553
0.41600000000000004,-0.0010865844591360638
0.42,-0.001088603864741786
0.424,-0.0011293285444571827
0.428,-0.0011323336123228406
0.432,-0.00107391509301445
0.436,-0.0010621352269810707
0.44,-0.0010990615009142757
0.444,-0.0010838919183284344
0.448,-0.0010155206142489848
0.452,-0.0010425181439540558
0.456,-0.0010372773055963482
0.46,-0.0010302574670621714
0.464,-9.747959345335881E-4
0.468,-9.641700145606217E-4
0.47200000000000003,-9.894366251750736E-4
0.47600000000000003,-0.0010048225726472424
0.48,-7.057341781140381E-4
0.484,-7.325874645615574E-4
0.488,-7.621573323596317E-4
0.492,-7.186920307507552E-4
0.496,-6.764768373739923E-4
0.5,-6.793857430679491E-4
0.504,-7.208797201569542E-4
0.508,-6.702743772992743E-4
0.512,-6.638074712523784E-4
0.516,-6.773903780051523E-4
0.52,-7.059986240862161E-4
0.524,-6.884490277507736E-4
0.528,-6.261118999455651E-4
0.532,-6.154138583438228E-4
0.536,-6.430604827078758E-4
0.54,-6.233472375091597E-4
0.544,-5.737035163684903E-4
0.548,-5.713715837047398E-4
0.552,-5.709628944750104E-4
0.556,-6.176496288358722E-4
0.56,-5.849544904575137E-4
0.5640000000000001,-5.504563113597605E-4
0.5680000000000001,-5.905559369591001E-4
0.5720000000000001,-6.023838840783298E-4
0.5760000000000001,-5.630775963955238E-4
0.58,-5.416093915632634E-4
0.584,-5.686069212683346E-4
0.588,-5.90171288272296E-4
0.592,-5.431960673963308E-4
0.596,-4.994663198152764E-4
0.6,-5.245406060863263E-4
0.604,-5.433643511968077E-4
0.608,-5.075439422381649E-4
0.612,-4.485003688137176E-4
0.616,-4.332827051420257E-4
0.62,-4.314556238797057E-4
0.624,-4.2131051476524447E-4
0.628,-4.0710255389641366E-4
0.632,-4.1344925722868326E-4
0.636,-4.3462897554584056E-4
0.64,-4.258541773781193E-4
0.644,-3.746718614902331E-4
0.648,-4.364560568081606E-4
0.652,-4.5830891032722516E-4
0.656,-4.51457355593525E-4
0.66,-4.1359350048623484E-4
0.664,-3.9796714758481356E-4
0.668,-4.1318481125650537E-4
0.672,-4.162379602080139E-4
0.676,-3.8383130834475853E-4
0.68,-3.626275494846761E-4
0.684,-3.529151701428696E-4
0.6880000000000001,-3.510159672517737E-4
0.6920000000000001,-3.4981394010551056E-4
0.6960000000000001,-2.947610968066569E-4
0.7000000000000001,-3.006510298233465E-4
0.704,-3.149791934068036E-4
0.708,-2.920925965419527E-4
0.712,-2.6795589144498804E-4
0.716,-2.7875009521843136E-4
0.72,-3.1351272028836254E-4
0.724,-3.101470442788256E-4
0.728,-2.8391881194736305E-4
0.732,-2.4958891665008664E-4
0.736,-2.94039880518899E-4
0.74,-2.9584292123829376E-4
0.744,-2.5531056586629937E-4
0.748,-2.5047841673832137E-4
0.752,-2.580752283027047E-4
0.756,-2.655037560666111E-4
0.76,-2.1364830497681755E-4
0.764,-1.9431970846490562E-4
0.768,-2.183121703043187E-4
0.772,-2.3129406348396103E-4
0.776,-1.7467858489496528E-4
0.78,-1.8136185582818856E-4
0.784,-2.186487379052724E-4
0.788,-2.0761412870257636E-4
0.792,-1.7953477456586852E-4
0.796,-1.578982859331313E-4
0.8,-1.7304382797604735E-4
0.804,-1.6525469206826192E-4
0.808,-1.3251147260405293E-4
0.812,-1.053937401843556E-4
0.8160000000000001,-1.2801589107702864E-4
0.8200000000000001,-1.3392986463664348E-4
0.8240000000000001,-1.1563501147051788E-4
0.8280000000000001,-1.152984438695642E-4
0.8320000000000001,-8.96712251112332E-5
0.836,-1.2383283660803276E-4
0.84,3.4255369614208094E-4
0.844,3.076708683575235E-4
0.848,3.0110780013892647E-4
0.852,3.6459887400454766E-4
0.856,3.4368360165956837E-4
0.86,3.229125725721406E-4
0.864,3.3745710104192504E-4
0.868,3.618342115681424E-4
0.872,3.8226867305461644E-4
0.876,3.739025641166247E-4
0.88,3.558961974656022E-4
0.884,3.9856816115794514E-4
0.888,4.492937067302513E-4
0.892,4.755219390617139E-4
0.896,4.525151394822367E-4
0.9,4.557606127771472E-4
0.904,4.6809341129780744E-4
0.908,4.4847632827079234E-4
0.912,4.3698494875251634E-4
0.916,4.5614526146395143E-4
0.92,5.044907932866565E-4
0.924,4.92759008339128E-4
0.928,4.6311701891227786E-4
0.932,4.842005750577341E-4
0.936,5.245406060863263E-4
0.9400000000000001,5.309353905044464E-4
0.9440000000000001,5.027598741960376E-4
0.9480000000000001,4.894414134154416E-4
0.9520000000000001,5.368734046069866E-4
0.9560000000000001,5.602167717874175E-4
0.96,5.500716626729563E-4
0.964,5.379071479527729E-4
0.968,5.572357444646849E-4
0.972,5.679337860664272E-4
0.976,5.487494328120669E-4
0.98,5.416093915632634E-4
0.984,5.887048151538549E-4
0.988,6.549605514558814E-4
0.992,5.969747619201456E-4
0.996,5.732227055099851E-4
1.0,6.067592628907279E-4
1.004,6.36689738832681E-4
1.008,6.308959679876926E-4
1.012,6.208951021307828E-4
1.016,6.171207368915165E-4
1.02,6.523641728199529E-4
1.024,6.581579436649414E-4
1.028,6.257032107158355E-4
1.032,6.628218089924426E-4
1.036,6.712840801021354E-4
1.04,6.817176757316997E-4
1.044,6.488302130099391E-4
1.048,6.442144287682885E-4
1.052,6.871027573469589E-4
1.056,7.130905842491687E-4
1.06,6.950361365122957E-4
1.064,6.737362154805122E-4
1.068,6.919108659320115E-4
1.072,7.252550989693522E-4
1.076,7.462905740289578E-4
1.08,7.125136112189624E-4
1.084,7.456174388270504E-4
1.088,7.783846988341846E-4
1.092,7.636238054780729E-4
1.096,7.330923159629879E-4
1.1,7.565799264009705E-4
1.104,7.976171331743956E-4
1.108,7.640324947078023E-4
1.112,7.477089660615483E-4
1.116,7.493677635233915E-4
1.12,8.064400124279674E-4
1.124,8.110798372125431E-4
1.1280000000000001,7.472041146601178E-4
1.1320000000000001,7.598734807817316E-4
1.1360000000000001,7.804521855257574E-4
1.1400000000000001,7.867748483151016E-4
1.1440000000000001,7.906453757260689E-4
1.1480000000000001,7.977373358890219E-4
1.1520000000000001,8.420921375861331E-4
1.156,8.622861936433546E-4
1.16,8.350001774231804E-4
1.164,8.28220744318256E-4
1.168,8.811580198396866E-4
1.172,8.869277501417497E-4
1.176,8.967603321981825E-4
1.18,8.920003046989803E-4
1.184,9.132521446449134E-4
1.188,9.114010228396681E-4
1.192,8.905578721234645E-4
1.196,8.707244242101222E-4
1.2,8.901972639795856E-4
1.204,9.121943607562018E-4
1.208,9.157283205662155E-4
1.212,9.425575664708098E-4
1.216,8.996932784350646E-4
1.22,9.053428060225018E-4
1.224,9.42028674526454E-4
1.228,9.23709780817403E-4
1.232,9.147907393921303E-4
1.236,9.593138248897184E-4
1.24,9.783298943436018E-4
1.244,9.438076747029235E-4
1.248,9.421488772410804E-4
1.252,9.906867334071874E-4
1.256,0.0010406429816058852
1.26,9.917685578388245E-4
1.264,9.959756528507455E-4
1.268,0.0010273245208252892
1.272,0.0010430710764413368
1.276,0.0010251849125049407
1.28,0.001012635749097953
1.284,0.0010415324816941199
1.288,0.0010683136465128636
1.292,0.0010510765772354495
1.296,0.0010305699941201998
1.3,0.0010490571716297273
1.304,0.001056581861565335
1.308,0.0010287188723149545
1.312,0.0010360031568213094
1.316,0.0010706936602624647
1.32,0.0011137502726416117
1.324,0.0011040138527568801
1.328,0.0010755738904762932
1.332,0.0010697560790883793
1.336,0.0011143512862147435
1.34,0.0011227895167815107
1.344,0.001109302772200438
1.348,0.0011106009615184022
1.352,0.0011305305716034458
1.356,0.0011395457752004198
1.36,0.001128342882197247
1.364,0.0011280303551392185
1.368,0.0011739958732123223
1.372,0.001183900576897531
1.3760000000000001,0.0011570713309929368
1.3800000000000001,0.0011344491801002637
1.3840000000000001,0.0011530565603244177
1.3880000000000001,0.0011715677783768706
1.3920000000000001,0.0011707744404603371
1.3960000000000001,0.0011394736535716439
1.4000000000000001,0.0011703417106876824
1.4040000000000001,0.0012267408243903507
1.408,0.0012286159867385214
1.412,0.0011993586459984754
1.416,0.0012284717434809698
1.42,0.0012799185053410337
1.424,0.0012806637621717168
1.428,0.0012601331385135417
1.432,0.0012568155435898553
1.436,0.001312685765348168
1.44,0.0012639315442957335
1.444,0.0012276543650215107
1.448,0.0012576569625922396
1.452,0.001302997426549287
1.456,0.0013125655626335417
1.46,0.0012659990309873063
1.464,0.0012388332174817582
1.468,0.0012842217625246557
1.472,0.0013251387665834547
1.476,0.0013013386290874438
1.48,0.0013097768596542112
1.484,0.0013404285518839223
1.488,0.0013260763477575398
1.492,0.0013298987940826568
1.496,0.0013411257276287549
1.5,0.001367498203217769
1.504,0.001390288637910919
1.508,0.0013647095002384385
1.512,0.0013393707679952107
1.516,0.0013563914723862972
1.52,0.0013934619895770535
1.524,0.0014014434498282413
1.528,0.0013727630821184019
1.532,0.001353915296464995
1.536,0.00138353324534892
1.54,0.0013801916098823083
1.544,0.001355838539899016
1.548,0.0013634353514633995
1.552,0.0014004577875683054
1.556,0.0014126223022884888
1.56,0.0013979816116470034
1.564,0.0014042321528075718
1.568,0.0014723630514577688
1.572,0.00151123660936792
1.576,0.0014283448173616111
1.58,0.0014419036835714599
1.584,0.001483229376859988
1.588,0.0015026300950006755
1.592,0.001478757835875889
1.596,0.0014459184542399788
1.6,0.0014791905656485436
1.604,0.0014939514590046556
1.608,0.0014720505243997403
1.612,0.001456231847154917
1.616,0.001493446607603225
1.62,0.0014848160526930556
1.624,0.0014874124313289838
1.6280000000000001,0.0014710648621398047
1.6320000000000001,0.001478685714247113
1.6360000000000001,0.00152078070490925
1.6400000000000001,0.0015342674494903225
1.6440000000000001,0.001533209665601611
1.6480000000000001,0.0015612168981095432
1.6520000000000001,0.0015826129813130275
1.6560000000000001,0.0015432345720014457
1.6600000000000001,0.0015071737576135503
1.6640000000000001,0.0014878211205587135
1.668,0.001503952324861565
1.672,0.0015275120569283236
1.676,0.0015076305279291304
1.68,0.0015165014882685527
1.684,0.001554918275863124
1.688,0.001593575468886948
1.692,0.0016051389700339996
1.696,0.001580184886477576
1.7,0.0016068458485816934
1.704,0.0016658653814632157
1.708,0.0016573069481818214
1.712,0.001597590239555467
1.716,0.0016323528646253979
1.72,0.0016512006502788046
1.724,0.0016440606090300015
1.728,0.0016394929058742014
1.732,0.0016695916656166315
1.736,0.0016935841274560446
1.74,0.001678486666498979
1.744,0.0016366561218090201
1.748,0.001655167339861473
1.752,0.0016971180872660582
1.756,0.0016716351117652788
1.76,0.0016498543798749898
1.764,0.0016493976095594098
1.768,0.0016855065050331557
1.772,0.0016982720333264707
1.776,0.0016572829076388963
1.78,0.0016529075288264983
1.784,0.0017050033853455446
1.788,0.0017349098207445723
1.792,0.0017162783999774933
1.796,0.0017231299547111932
1.8,0.0017070227909512666
1.804,0.0017377225642668285
1.808,0.0017247406710871858
1.812,0.001707046831494192
1.816,0.001722456819509286
1.82,0.0017425306728518811
1.824,0.0017476513084949622
1.828,0.0017340924422851133
1.832,0.0017709706351324679
1.836,0.001801189597589524
1.84,0.0018081373144949251
1.844,0.00176522494537333
1.848,0.0017374340777517254
1.852,0.0017827745417087722
1.856,0.001798617259496521
1.86,0.0017761874329472501
1.864,0.0017549115524583918
1.868,0.001816094734203188
1.872,0.0018436211558526146
1.8760000000000001,0.001829341073355008
1.8800000000000001,0.001837370614692046
1.8840000000000001,0.0018749940643700833
1.8880000000000001,0.001859079224953559
1.8920000000000001,0.001806310233232605
1.8960000000000001,0.0018367696011189144
1.9000000000000001,0.0018775904430060118
1.9040000000000001,0.0018926157823343018
1.9080000000000001,0.0018586464951809043
1.9120000000000001,0.0018205181941014362
1.9160000000000001,0.001846770466975824
1.92,0.0018727823344209592
1.924,0.0018529969675934671
1.928,0.001840568006901106
1.932,0.00187150818564592
1.936,0.0018650412795990243
1.94,0.0018786722674376487
1.944,0.0018882404035219038
1.948,0.0019063188918017019
1.952,0.0019253590017985105
1.956,0.0019238684881371442
1.96,0.0018848506869694418
1.964,0.0018800185378414634
1.968,0.001919445028238896
1.972,0.0019402881789550993
1.976,0.001945913665999611
1.98,0.0019130983249066264
1.984,0.0019499043961252046
1.988,0.001969882087296099
1.992,0.001948846612236493
1.996,0.0019499043961252046
2.0,0.001986205615942353
2.004,0.002025343619824682
2.008,0.001999980847038529
2.012,0.0019681030871196293
2.016,0.0019988509415210416
2.02,0.0020394554185218117
2.024,0.0020185641867197577
2.028,0.0019813975073573
2.032,0.0019924801976458468
2.036,0.002045153027195099
2.04,0.0020413546214129077
2.044,0.002006135226027396
2.048,0.0020165688216569606
2.052,0.0020395034996076623
2.056,0.0020527738793024077
2.06,0.0020522209468151267
2.064,0.002093186031959776
2.068,0.0021357377929374925
2.072,0.002090998342553577
2.076,0.0020764778546267177
2.08,0.0020727996515591523
2.084,0.0021051101412507068
2.088,0.002130400792408084
2.092,0.0021081152091163647
2.096,0.002099412532577419
2.1,0.002119991237321445
2.104,0.002126289859567864
2.108,0.002102056992299198
2.112,0.0020862623555973
2.116,0.0020795790846640763
2.12,0.0021156879801378227
2.124,0.0021193902237483134
2.128,0.002116144750453403
2.132,0.0021304248329510095
2.136,0.0021498976727204726
2.14,0.0021609803630090194
2.144,0.002131867265526525
2.148,0.0021559078084517885
2.152,0.002214951381876236
2.156,0.0022348088703325036
2.16,0.0021685771745734023
2.164,0.002174851756276896
2.168,0.00220346000235796
2.172,0.0022071382054255255
2.176,0.0021751642833349244
2.18,0.002185141108648909
2.184,0.002224086788187836
2.188,0.002233390478299913
2.192,0.002189684771261784
2.196,0.0021900934604915136
2.2,0.0022490168312013343
2.204,0.0022442087226162816
2.208,0.0022155283549064424
2.212,0.0022174756388833885
2.216,0.0022686819953142002
2.22,0.0023025791608388218
2.224,0.002260243764747433
2.228,0.002240049708690211
2.232,0.002261638116237098
2.236,0.00228964534874503
2.24,0.002298035498225947
2.244,0.0022809667127490097
2.248,0.002283058239983508
2.2520000000000002,0.0023009444039199037
2.2560000000000002,0.0023282304201400783
2.2600000000000002,0.0023119309320367492
2.2640000000000002,0.0023165226757354746
2.2680000000000002,0.002343351921640069
2.2720000000000002,0.002338447650883315
2.2760000000000002,0.0023074834315955756
2.2800000000000002,0.002316835202793503
2.2840000000000003,0.002354146125413512
2.2880000000000003,0.0023703254108022147
2.2920000000000003,0.0023621756667505504
2.2960000000000003,0.0023025551202958965
2.3000000000000003,0.002356381895905562
2.3040000000000003,0.002376720195220335
2.308,0.002346381030048652
2.312,0.0023268601091933384
2.316,0.0023674886267370334
2.32,0.0023893895613419486
2.324,0.0023866008583626184
2.328,0.00235715119327917
2.332,0.002378378992682178
2.336,0.002420113375200435
2.34,0.0023820571957497436
2.344,0.002393500494182169
2.348,0.0024289602949969327
2.352,0.002448529296938097
2.356,0.0024455963507012146
2.36,0.002424584916184534
2.364,0.0024431922964086882
2.368,0.002479998367627267
2.372,0.002479878164912641
2.376,0.002433840525210761
2.38,0.0024426634044643326
2.384,0.002440692079944461
2.388,0.002469300326025525
2.392,0.0024758393537011964
2.396,0.002474685407640784
2.4,0.0025220933582894033
2.404,0.002547840779762361
2.408,0.0025153139251844793
2.412,0.0024925715715771795
2.416,0.0025209153716860655
2.42,0.0025329356431486975
2.424,0.0025300748185405914
2.428,0.002492042679632824
2.432,0.0024802387730565195
2.436,0.0025499803880827095
2.44,0.0025426961035763546
2.444,0.0025178862632774823
2.448,0.0025333683729213525
2.452,0.0025707273766272117
2.456,0.002556711740101783
2.46,0.0025269255074173817
2.464,0.0025255071153847913
2.468,0.0025525767667186378
2.472,0.002534666562239317
2.476,0.0024711754883736956
2.48,0.0024932206662361617
2.484,0.0025505573611129158
2.488,0.0025577695239904948
2.492,0.0025374312246757218
2.496,0.0025454126849269094
2.5,0.0026113318536279823
2.504,0.0026353723965532455
2.508,0.0026140965160643876
2.512,0.002609504772365662
2.516,0.0026494841952503755
2.52,0.0026309008555691466
2.524,0.0026290497337639013
2.528,0.0026097211372519895
2.532,0.002654460587635905
2.536,0.002676145157354493
2.54,0.0026480177221319345
2.544,0.0026170775433871202
2.548,0.002629025693220976
2.552,0.002657105047357684
2.556,0.0026452530596955287
2.56,0.002640348788938775
2.564,0.0026018839202583536
2.568,0.0026238569764920443
2.572,0.0026748950491223794
2.576,0.002661384263998381
2.58,0.0026390986807066615
2.584,0.0026865787529840573
2.588,0.002703070565430788
2.592,0.002665326913038124
2.596,0.0026710004811684868
2.6,0.002704464916920453
2.604,0.0027351166091501644
2.608,0.0026873480503576655
2.612,0.0026479215599602333
2.616,0.0027043206736629016
2.62,0.002722182797056373
2.624,0.0027109077824244237
2.628,0.002703455214117592
2.632,0.00273518873077894
2.636,0.0027556712733512647
2.64,0.002752762367657308
2.644,0.002735717622723296
2.648,0.0027590850304466522
2.652,0.00278903954693153
2.656,0.0027327606359434887
2.66,0.0026817706443990046
2.664,0.0027044168358346028
2.668,0.002739131379818683
2.672,0.0027282890949593894
2.676,0.002722735729543654
2.68,0.0027268947434697243
2.684,0.0027453338398934018
2.688,0.002759325435875905
2.692,0.0027351166091501644
2.696,0.002740742096194676
2.7,0.00275934947641883
2.704,0.002791563803938683
2.708,0.002769206099018188
2.712,0.0027496130565340987
2.716,0.002794713115061893
2.72,0.002839067916759004
2.724,0.0028249801586048
2.728,0.0027995693047327963
2.732,0.0028152196981771427
2.736,0.002828105429185084
2.74,0.0028299325104474042
2.744,0.0027650470850921175
2.748,0.002805290953949009
2.7520000000000002,0.002832552929626258
2.7560000000000002,0.002805411156663635
2.7600000000000002,0.0027765384646103934
2.7640000000000002,0.0027953862502638005
2.7680000000000002,0.0028500304043329243
2.7720000000000002,0.00286289209479794
2.7760000000000002,0.0028254128883774547
2.7800000000000002,0.002834380010888578
2.7840000000000003,0.0029070786126945748
2.7880000000000003,0.00289289469236867
2.7920000000000003,0.0028339713216588482
2.7960000000000003,0.0028633007840276697
2.8000000000000003,0.002894024597886157
2.8040000000000003,0.0029026551527963265
2.8080000000000003,0.0028767875286087427
2.8120000000000003,0.0028676040412112915
2.816,0.002899217355158014
2.82,0.0029223443574521173
2.824,0.0028685656629283025
2.828,0.0028615939054799757
2.832,0.002895418949375822
2.836,0.0028873413269529333
2.84,0.002905636180119059
2.844,0.0028973662333527687
2.848,0.002929243993271668
2.852,0.0029641268210562253
2.856,0.002969752308100737
2.86,0.002958092644781984
2.864,0.0029825418769369775
2.868,0.0030273534489496687
2.872,0.0030199489617286873
2.876,0.0029778058899807007
2.88,0.002960088009844781
2.884,0.003007087271263671
2.888,0.0030148042855426805
2.892,0.0029758826465466795
2.896,0.0029535730227120346
2.9,0.003010789514874162
2.904,0.0030113905284472934
2.908,0.0029822533904218743
2.912,0.002981964903906771
2.916,0.0030223530160212136
2.92,0.0030799060757842945
2.924,0.003011366487904368
2.928,0.0029774452818368217
2.932,0.0030288920436968856
2.936,0.0030458406264591968
2.94,0.0030316086250474403
2.944,0.0030189392589258265
2.948,0.003037883206750934
2.952,0.003050047721471118
2.956,0.0030402632205005354
2.96,0.0030077363659226533
2.964,0.003041513328732649
2.968,0.003051081464816904
2.972,0.0030418979774194535
2.976,0.003009539406642048
2.98,0.003035431071372557
2.984,0.0030791608189536116
2.988,0.003086613387260443
2.992,0.0030829111436499524
2.996,0.0030954362665140153
3.0,0.0031322182971896687
3.004,0.0031480129338915665
3.008,0.0031302229321268716
3.012,0.0031220731880752073
3.016,0.0031242608774814063
3.02,0.0031706591253271646
3.024,0.003145801203942442
3.028,0.003118010336320838
3.032,0.0031237079449941254
3.036,0.00312870837792258
3.04,0.0031241887558526305
3.044,0.0031300306077834696
3.048,0.0031658750572850372
3.052,0.003214965845938426
3.056,0.0031932812762198383
3.06,0.003123611782822424
3.064,0.0031541432723375088
3.068,0.0031940505735934465
3.072,0.0031759720853136485
3.076,0.0031477244473764633
3.08,0.003151330528815253
3.084,0.003203594669134776
3.088,0.003205926601798527
3.092,0.003175563396083918
3.096,0.0032170333326299984
3.1,0.003283697758161754
3.104,0.003207417115459893
3.108,0.0031926562221037814
3.112,0.003207946007404249
3.116,0.003251122822498022
3.12,0.0032434058082190125
3.124,0.003199195249779453
3.128,0.003179097355893933
3.132,0.0032074411560028184
3.136,0.0032229953872754636
3.14,0.003206888223515537
3.144,0.0032004213174686414
3.148,0.0032053977098541707
3.152,0.003207320953288192
3.156,0.0032094846021514657
3.16,0.0031905646948692835
3.164,0.0032312412934988296
3.168,0.003263816229162561
3.172,0.003243790456905817
3.176,0.0032148456432237993
3.18,0.0032594648908930886
3.184,0.003304637071049659
3.188,0.0033104548824375722
3.192,0.0032335491856196547
3.196,0.0032522527280155096
3.2,0.0033155033964518774
3.204,0.0033331010738731712
3.208,0.003310527004066348
3.212,0.003302665746529787
3.216,0.0033319230872698334
3.22,0.003328413168002745
3.224,0.003294347718677646
3.228,0.0032956939890814605
3.232,0.003347501359085404
3.236,0.0033588484953461285
3.24,0.003289058799234088
3.244,0.0032900925425798744
3.248,0.0033444241695909705
3.2520000000000002,0.0033810859975519974
3.2560000000000002,0.003371902510154546
3.2600000000000002,0.0033437029533032125
3.2640000000000002,0.003356636765397004
3.2680000000000002,0.0033831775247864953
3.2720000000000002,0.003380340740721314
3.2760000000000002,0.0033566608059399294
3.2800000000000002,0.0033907743363508786
3.2840000000000003,0.003364401860761864
3.2880000000000003,0.0033596177927197367
3.2920000000000003,0.0033431500208159315
3.2960000000000003,0.0033683445098016073
3.3000000000000003,0.003420680771749906
3.3040000000000003,0.0034167862037960133
3.3080000000000003,0.003385052687134666
3.3120000000000003,0.003389259782146587
3.3160000000000003,0.003410655865350071
3.3200000000000003,0.003411449203266605
3.3240000000000003,0.003424118569388219
3.3280000000000003,0.003394837188105248
3.332,0.003430248907834161
3.336,0.0034591456404303275
3.34,0.0034327491242983886
3.344,0.0034257292857642115
3.348,0.003470685101034454
3.352,0.0034761182637355645
3.356,0.0034511160990932897
3.36,0.003428109299513813
3.364,0.0034607803973492456
3.368,0.003513405145812648
3.372,0.0034821283994668803
3.376,0.003438663097858003
3.38,0.003459265843144954
3.384,0.0034817677913230012
3.388,0.0034681848845702266
3.392,0.0034358503543357477
3.396,0.0034599870594327117
3.4,0.0035171073894231385
3.404,0.003498235563226807
3.408,0.00348253708869661
3.412,0.003481647588608375
3.416,0.0035078998614827624
3.42,0.003502827306925532
3.424,0.0034920811842379393
3.428,0.003510496240118691
3.432,0.0035429028919819463
3.436,0.003561582393834876
3.44,0.0035354984047609654
3.444,0.0035187661868849814
3.448,0.003563265231839644
3.452,0.003573602665297508
3.456,0.003547061905908017
3.46,0.0035382630671973708
3.464,0.0035287670527418915
3.468,0.0035690590026846328
3.472,0.003554009622813418
3.476,0.003528093917539984
3.48,0.003541676824292758
3.484,0.003593989045698131
3.488,0.003567183840336462
3.492,0.0035327818234104106
3.496,0.0035523027442657244
3.5,0.0036055765873881083
3.504,0.003628270859909558
3.508,0.0035441049191282095
3.512,0.003531171107034418
3.516,0.0036226934539508966
3.52,0.0036433202397807727
3.524,0.003609951966200506
3.528,0.003596080572932629
3.532,0.003626828427334042
3.536,0.003652984538036728
3.54,0.0036331751306663113
3.544,0.0036099038851146554
3.548,0.003636324441789521
3.552,0.0036234146702386547
3.556,0.003590839734574922
3.56,0.0035728093273809745
3.564,0.003572568921951722
3.568,0.0035856710178459902
3.572,0.0035757422736178565
3.576,0.0035750210573300984
3.58,0.0036074036686504283
3.584,0.003647286929363441
3.588,0.0036538019164961875
3.592,0.0036523835244635966
3.596,0.0036551241463570767
3.6,0.0036786357973379847
3.604,0.0036849825006702542
3.608,0.003671543837175032
3.612,0.003684766135783927
3.616,0.003707027678532721
3.62,0.0037058737324723082
3.624,0.0036943342718681817
3.628,0.0036811600543451375
3.632,0.003735395519184532
3.636,0.0037448674930970855
3.64,0.0037322702486042476
3.644,0.003664620160812556
3.648,0.0037000559210843944
3.652,0.003690367582285513
3.656,0.003674885472641644
3.66,0.0036713034317457796
3.664,0.003694358312411107
3.668,0.0037309720592862833
3.672,0.003744482844410281
3.676,0.003725370612784697
3.68,0.003781962050830768
3.684,0.0038235041090056232
3.688,0.0037390977627950223
3.692,0.0037268611264460634
3.696,0.003749723682767989
3.7,0.003782539023860974
3.704,0.0037683551035350687
3.708,0.0037185430985939225
3.712,0.003731380748516013
3.716,0.0037645086166670258
3.72,0.0037498438854826153
3.724,0.0037137830710947195
3.728,0.0037382082627067876
3.732,0.0037590033323371404
3.736,0.0037516228856590847
3.74,0.0037492188313665584
3.744,0.0037505170206845223
3.748,0.003782683267118526
3.7520000000000002,0.003799607809337911
3.7560000000000002,0.0037657587248991395
3.7600000000000002,0.003769172481994528
3.7640000000000002,0.00382504270375284
3.7680000000000002,0.0038483620303903453
3.7720000000000002,0.0038448280705803317
3.7760000000000002,0.0038063151208140595
3.7800000000000002,0.0038312932449134085
3.7840000000000003,0.003859372599050116
3.7880000000000003,0.003828312217590676
3.7920000000000003,0.0037885972406781405
3.7960000000000003,0.0038056900666980026
3.8000000000000003,0.0038456214084968653
3.8040000000000003,0.003821821271000855
3.8080000000000003,0.003795016065639186
3.8120000000000003,0.0038146571892091257
3.8160000000000003,0.003873845005891125
3.8200000000000003,0.003865983748354564
3.8240000000000003,0.003803141769147925
3.8280000000000003,0.003852136395629612
3.8320000000000003,0.0038976211028442106
3.8360000000000003,0.003890216615623229
3.84,0.003854251963407035
3.844,0.003861392004655838
3.848,0.0039047611440930136
3.852,0.00390853550933228
3.856,0.0038985106029324453
3.86,0.0039013714275405514
3.864,0.0039555347707511705
3.868,0.003921469321426073
3.872,0.003895385332352161
3.876,0.0038934620889181397
3.88,0.003914906253207476
3.884,0.003945053094035756
3.888,0.003907381563271867
3.892,0.0038693975054499515
3.896,0.003884807493465045
3.9,0.003923801254089823
3.904,0.0038986308056470713
3.908,0.0038894953993354716
3.912,0.0038731718706892177
3.916,0.00392163760522655
3.92,0.00394046135033703
3.924,0.003932335646828292
3.928,0.003940293066536554
3.932,0.003958852365674857
3.936,0.003959789946848942
3.94,0.003943634702003165
3.944,0.003937696687900625
3.948,0.003973420934687567
3.952,0.003995201666577856
3.956,0.003964886541949098
3.96,0.003925844700238471
3.964,0.003952914351572317
3.968,0.003964477852719369
3.972,0.00394228843159935
3.976,0.003947000378012702
3.98,0.003995009342234453
3.984,0.003967146352984073
3.988,0.003957289730384715
3.992,0.003937552444643074
3.996,0.003976017313323496
4.0,0.00402299253419946
4.0040000000000004,0.003968805150445917
4.008,0.003943971269604119
4.0120000000000005,0.00397366134011682
4.016,0.004008039316499946
4.0200000000000005,0.0040122223709689415
4.024,0.004005130410805989
4.0280000000000005,0.003963155622858479
4.032,0.004027175588668456
4.0360000000000005,0.004045807009435535
4.04,0.004001307964480873
4.0440000000000005,0.00399152346351029
4.048,0.0040106597356788
4.0520000000000005,0.004002822518685164
4.056,0.003989960828220148
4.0600000000000005,0.004023136777457012
4.064,0.004067227133181946
4.0680000000000005,0.00408222843196731
4.072,0.004033786737972903
4.0760000000000005,0.004040734454878305
4.08,0.004076410620579396
4.0840000000000005,0.004095979622520561
4.088,0.004084608445716911
4.0920000000000005,0.004075569201577012
4.096,0.00404167203605239
4.1,0.004076410620579396
4.104,0.004058332132299597
4.108,0.004008159519214572
4.112,0.004048259144813912
4.116,0.00405994284867559
4.12,0.004048090861013435
4.124,0.004047489847440303
4.128,0.004078958918129474
4.132,0.004130718207047567
4.136,0.00415521552028841
4.14,0.0040841516754013315
4.144,0.004082276513053161
4.148,0.004130429720532463
4.152,0.004130189315103211
4.156,0.004126390909321019
4.16,0.004115764989348053
4.164,0.00413059800433294
4.168,0.0041497102359585245
4.172,0.004100643487848062
4.176,0.004088214527155701
4.18,0.0041295883015300796
4.184,0.004123506044169988
4.188,0.004126631314750272
4.192,0.004117279543552344
4.196,0.004136007126491125
4.2,0.004165168305059469
4.204,0.004184569023200157
4.208,0.0041245878686016245
4.212,0.004146969614065045
4.216,0.004195074740458497
4.22,0.004175553819603183
4.224,0.00416983217038697
4.228,0.004179063738870272
4.232,0.004192261996936241
4.236,0.004202334984421926
4.24,0.004190723402189024
4.244,0.004205676619888538
4.248,0.004255128016685806
4.252,0.004197911524523678
4.256,0.00419084360490365
4.26,0.004208946133726374
4.264,0.0042203653916158745
4.268,0.0042320250549346275
4.272,0.004194065037655636
4.276,0.004151344992877442
4.28,0.004192550483451344
4.284,0.004211157863675499
4.288,0.004199402038185044
4.292,0.004223947432511739
4.296,0.004235078203886136
4.3,0.004258926422467998
4.304,0.004256065597859891
4.308,0.004230798987245439
4.312,0.004261426638932225
4.316,0.004301886872675443
4.32,0.0042703216398145725
4.324,0.004260104409071336
4.328,0.004272918018450501
4.332,0.004293376520479899
4.336,0.004315349576713591
4.34,0.004265681815029997
4.344,0.004231520203533197
4.348,0.004291381155417103
4.352,0.0043128974413352145
4.356,0.00427149962641791
4.36,0.004281404330103118
4.364,0.004279961897527603
4.368,0.004309002873381321
4.372,0.004287414465834434
4.376,0.00429159752030343
4.38,0.004339269916924228
4.384,0.0043392939574671534
4.388,0.004275177829485476
4.392,0.004285875871087218
4.396,0.004330374916041881
4.4,0.004368551298207199
4.404,0.004375835582713554
4.408,0.004332923213591958
4.412,0.004334245443452848
4.416,0.0043741046636229354
4.42,0.004365834716856645
4.424,0.0043185229283797255
4.428,0.004347203296089565
4.432,0.004333452105536314
4.436,0.004340495984613417
4.44,0.004302463845705649
4.444,0.00430977217075493
4.448,0.004370835149785099
4.452,0.004378095393748529
4.456,0.004325879334514856
4.46,0.0043430202416205686
4.464,0.004395308422483018
4.468,0.004401342598757259
4.472,0.0043871827189742784
4.476,0.004348669769208006
4.48,0.004369416757752509
4.484,0.004423628182048978
4.488,0.004404732315309721
4.492,0.004379946515553774
4.496,0.0044427644542174875
4.5,0.0044241330334504085
4.5040000000000004,0.004400717544641202
4.508,0.004368262811692097
4.5120000000000005,0.004385259475540257
4.516,0.004458222523318432
4.5200000000000005,0.004434662791251674
4.524,0.004388120300148364
4.5280000000000005,0.004416271775913847
4.532,0.004434037737135617
4.5360000000000005,0.0044174016814313355
4.54,0.004408650923806539
4.5440000000000005,0.004394899733253288
4.548,0.004432282777502073
4.5520000000000005,0.004457092617800945
4.556,0.004437307250973453
4.5600000000000005,0.0044430048596467405
4.564,0.004501639743841458
4.5680000000000005,0.0044557703879400555
4.572,0.004437667859117332
4.5760000000000005,0.004452861482246099
4.58,0.004504716933335892
4.5840000000000005,0.004527194840971014
4.588,0.004473440186990124
4.5920000000000005,0.0044583908071189095
4.596,0.004506592095684063
4.6000000000000005,0.004514188907248446
4.604,0.00449680759471348
4.6080000000000005,0.004488104918174534
4.612,0.004474233524906658
4.616,0.004508827866176113
4.62,0.004487576026230179
4.624,0.004456659888028291
4.628,0.004517242056199955
4.632,0.004546018586081495
4.636,0.0045080345282595795
4.64,0.0044921677699289045
4.644,0.00450325046021745
4.648,0.004541138355867666
4.652,0.004543446247988492
4.656,0.004470627443467869
4.66,0.004469761983922559
4.664,0.004517530542715058
4.668,0.004522675218901064
4.672,0.004521761678269905
4.676,0.004529695057435242
4.68,0.004545922423909794
4.684,0.004554024086875608
4.688,0.0045269784760846865
4.692,0.004518396002260367
4.696,0.00456782335851471
4.7,0.004569458115433627
4.704,0.00453594559859581
4.708,0.004555346316736497
4.712,0.004605182362220569
4.716,0.004650474745091765
4.72,0.00462903058080243
4.724,0.004557630168314398
4.728,0.004594532401704677
4.732,0.004656917610595736
4.736,0.004654850123904164
4.74,0.004642805811898606
4.744,0.004633021310928024
4.748,0.004629198864602907
4.752,0.004651748893866804
4.756,0.004617971931056809
4.76,0.004609413497775415
4.764,0.004658912975658533
4.768,0.004634151216445511
4.772,0.004587127914483696
4.776,0.004587704887513902
4.78,0.004621457809780972
4.784,0.004642541365926428
4.788,0.00463501667599082
4.792,0.0045716938859256765
4.796,0.004624198431674452
4.8,0.004658696610772206
4.804,0.004652109502010683
4.808,0.004659273583802412
4.812,0.004674635490731656
4.816,0.004644248244474122
4.82,0.004659441867602889
4.824,0.004648455339486043
4.828,0.00466679827373802
4.832,0.004726563063450225
4.836,0.004662398854382696
4.84,0.0046446328931609255
4.844,0.0046729526527268875
4.848,0.004690983059920835
4.852,0.004678746423571876
4.856,0.004665548165505906
4.86,0.004627227540083035
4.864,0.004674034477158524
4.868,0.004708484575170427
4.872,0.0046846844376744155
4.876,0.0046996616959168545
4.88,0.004709374075258662
4.884,0.004705647791105246
4.888,0.00469470934407425
4.892,0.00468100623460685
4.896,0.004728967117742751
4.9,0.004782986217695818
4.904,0.004753175944468492
4.908,0.004711297318692682
4.912,0.00471790846799713
4.916,0.004735241699446245
4.92,0.004692930343897781
4.924,0.004705263142418441
4.928,0.004695815209048813
4.932,0.004729471969144181
4.936,0.004721490508892994
4.94,0.004696464303707794
4.944,0.004743968416528115
4.948,0.00473343865872685
4.952,0.0047324049153810634
4.956,0.004728221860912068
4.96,0.004734881091302366
4.964,0.004781447622948602
4.968,0.0047905349481743515
4.972,0.0047474783357952036
4.976,0.004767672391852426
4.98,0.004800583895117111
4.984,0.004814623572185465
4.988,0.004791280205005034
4.992,0.004760820837118726
4.996,0.004770701500261009
5.0,0.004779211852456553
5.0040000000000004,0.004751348863206172
5.008,0.00473024126651779
5.0120000000000005,0.004779884987658459
5.016,0.004767768554024127
5.0200000000000005,0.004756565661020954
5.024,0.004715937143477259
5.0280000000000005,0.004773826770841294
5.032,0.004844121318354763
5.0360000000000005,0.004834577222813433
5.04,0.004777360730651307
5.0440000000000005,0.004806401706505025
5.048,0.004849121751283218
5.0520000000000005,0.004873210375294332
5.056,0.004847438913278449
5.0600000000000005,0.004817508437336497
5.064,0.004827220816678303
5.0680000000000005,0.004846765778076542
5.072,0.004808805760797551
5.0760000000000005,0.0048161381263897565
5.08,0.004873979672667941
5.0840000000000005,0.004833086709152067
5.088,0.0048366687500479314
5.0920000000000005,0.004860589090258569
5.096,0.004863281631066199
5.1000000000000005,0.0048902791607712695
5.104,0.004868546509966831
5.1080000000000005,0.004803252395381816
5.112,0.00484022675040087
5.1160000000000005,0.004885543173814993
5.12,0.0048814803220606235
5.124,0.0048751336187283535
5.128,0.004839866142256992
5.132,0.004885591254900843
5.136,0.004898741431880962
5.14,0.004855973306016919
5.144,0.00486611841513138
5.148,0.004888812687652828
5.152,0.004842174034377817
5.156,0.004837558250136166
5.16,0.004855324211357937
5.164,0.004901578215946144
5.168,0.004936388922101925
5.172,0.004898476985908784
5.176,0.0048361158175606505
5.18,0.004882369822148858
5.184,0.004906121878559019
5.188,0.004888283795708472
5.192,0.004886769241504181
5.196,0.0048892454174254835
5.2,0.004914800514555039
5.204,0.004902900445807034
5.208,0.004910833824972371
5.212,0.004951606585773617
5.216,0.00497468550698187
5.22,0.004937470746533563
5.224,0.004942615422719569
5.228,0.004998581806649582
5.232,0.00499834140122033
5.236,0.004985575872927014
5.24,0.004920089433998597
5.244,0.004940499854942146
5.248,0.00498523930532606
5.252,0.004942086530775213
5.256,0.004881985173462054
5.26,0.00492814301587856
5.264,0.004934153151609876
5.268,0.004937398624904787
5.272,0.004930306664741834
5.276,0.004957256113361054
5.28,0.00500016848248265
5.284,0.005005457401926208
5.288,0.004941148949601128
5.292,0.004962569073347537
5.296,0.005013559064892021
5.3,0.005041133567627298
5.304,0.005039402648536679
5.308,0.00496600687098585
5.312,0.005012164713402357
5.316,0.005045076216667042
5.32,0.005007308523731453
5.324,0.004993076522319696
5.328,0.005031300985570866
5.332,0.004998245239048629
5.336,0.005003654361206813
5.34,0.0049950959279254185
5.344,0.0050426721623745155
5.348,0.0050980134921884725
5.352,0.005031781796429371
5.356,0.004990287819340366
5.36,0.005011203091685346
5.364,0.005055053041981027
5.368,0.005065703002496919
5.372,0.005028728647477863
5.376,0.004985215264783135
5.38,0.005017285349045437
5.384,0.005027550660874525
5.388,0.005028271877162283
5.392,0.0050429846894325435
5.396,0.0050723381923442916
5.4,0.00504986028470917
5.404,0.005031445228828418
5.408,0.0050168285787298575
5.412,0.005071689097685309
5.416,0.005111235790797367
5.42,0.005042960648889618
5.424,0.005006394983100293
5.428,0.005069645651536662
5.432,0.005088373234475442
5.436,0.005093229424146345
5.44,0.005082627544716304
5.444,0.0050729632464603484
5.448,0.005123905156918981
5.452,0.005107076776871297
5.456,0.005068780191991353
5.46,0.005136117752725015
5.464,0.005153426943631205
5.468,0.005111043466453965
5.472,0.005080632179653507
5.476,0.005086738477556524
5.48,0.005119746142992911
5.484,0.005126934265327564
5.488,0.005061832475085951
5.492,0.005065053907837937
5.496,0.005109913560936478
5.5,0.0051110915475398155
5.5040000000000004,0.005104961209093873
5.508,0.005098975113905483
5.5120000000000005,0.0050708236381399995
5.516,0.005112966709887986
5.5200000000000005,0.005107076776871297
5.524,0.0050887338426193205
5.5280000000000005,0.005154196241004814
5.532,0.005159485160448372
5.5360000000000005,0.005107269101214699
5.54,0.005109697196050151
5.5440000000000005,0.005143690523746473
5.548,0.005166961769298128
5.5520000000000005,0.005200666610479349
5.556,0.0051273429545572935
5.5600000000000005,0.005134338752548546
5.564,0.005168404201873644
5.5680000000000005,0.0051441472940620524
5.572,0.0051240253596336076
5.5760000000000005,0.00512609284632518
5.58,0.005151263294767932
5.5840000000000005,0.005158956268504016
5.588,0.005124458089406262
5.5920000000000005,0.0051328963199730295
5.596,0.005200233880706694
5.6000000000000005,0.005164293269033424
5.604,0.005144099212976202
5.6080000000000005,0.005123712832575579
5.612,0.005159533241534222
5.6160000000000005,0.0051714333102822274
5.62,0.005152705727343447
5.6240000000000006,0.005108110520217083
5.628,0.005180160027364098
5.632,0.005216533368810022
5.636,0.005202734097170921
5.64,0.005207446043584273
5.644,0.005209850097876799
5.648,0.005184535406176496
5.652,0.005217951760842613
5.656,0.005200522367221797
5.66,0.005212614760313205
5.664,0.005245045452719385
5.668,0.005190930190594616
5.672,0.0051987193265024025
5.676,0.005215307301120834
5.68,0.005249252547731306
5.684,0.005260383319105702
5.688,0.005204128448660587
5.692,0.00517710687841259
5.696,0.005220019247534185
5.7,0.0052104511114499305
5.704,0.005200594488850573
5.708,0.005202830259342622
5.712,0.005212542638684429
5.716,0.005225236045348968
5.72,0.005209008678874415
5.724,0.005208335543672508
5.728,0.005256921480924465
5.732,0.005254733791518266
5.736,0.005214081233431645
5.74,0.005225909180550875
5.744,0.005262114238196321
5.748,0.0052810101049355785
5.752,0.0052722112662249325
5.756,0.005247665871898238
5.76,0.005268677306414918
5.764,0.005307478742696294
5.768,0.005295554633405364
5.772,0.005260407359648628
5.776,0.005291972592509499
5.78,0.005274567239431608
5.784,0.005237544803326702
5.788,0.00522776030235612
5.792,0.005252762466998394
5.796,0.0053078874319260234
5.8,0.005285890335149407
5.804,0.0052410547225937906
5.808,0.0052600948325906
5.812,0.005284327699859264
5.816,0.005296516255122374
5.82,0.005304377512658935
5.824,0.0052615853462519655
5.828,0.005284832551260696
5.832,0.005330197055760668
5.836,0.005310531891647803
5.84,0.005295746957748766
5.844,0.005332336664081017
5.848,0.005313272513541282
5.852,0.005306853688580237
5.856,0.005275793307120797
5.86,0.005323297419941118
5.864,0.005383903628655707
5.868,0.005369166775842521
5.872,0.0053001223365611635
5.876,0.005330894231505501
5.88,0.0053633970455404575
5.884,0.00536176228862154
5.888,0.005343779962513443
5.892,0.00530937794558739
5.896,0.005326014001291672
5.9,0.005350727679418844
5.904,0.005325725514776569
5.908,0.005341399948763841
5.912,0.005390226291445052
5.916,0.005349862219873535
5.92,0.00532211943333778
5.924,0.005330942312591351
5.928,0.0053670512080650976
5.932,0.00541246379365092
5.936,0.005367628181095304
5.94,0.005332024137022988
5.944,0.005376931871207381
5.948,0.005392005291621521
5.952,0.005378278141611195
5.956,0.005377484803694662
5.96,0.005384336358428362
5.964,0.0054304701603019425
5.968,0.005428282470895743
5.972,0.005388976183212938
5.976,0.005417103618435496
5.98,0.005451577756990325
5.984,0.005409434685242337
5.988,0.005376763587406904
5.992,0.005397053805635826
5.996,0.005421767483762997
6.0,0.005423378200138989
6.0040000000000004,0.0053617382480786145
6.008,0.005329572001644611
6.0120000000000005,0.005379528249843309
6.016,0.005390683061760632
6.0200000000000005,0.005374287411485602
6.024,0.005380898560790049
6.0280000000000005,0.005375200952116762
6.032,0.005415444820973653
6.0360000000000005,0.005388279007468105
6.04,0.005377869452381466
6.0440000000000005,0.005441913458734369
6.048,0.005442081742534846
6.0520000000000005,0.005410324185330571
6.056,0.00541424279382739
6.0600000000000005,0.005449943000071406
6.064,0.005484176733196981
6.0680000000000005,0.005492110112362319
6.072,0.005428378633067444
6.0760000000000005,0.0054272968086358075
6.08,0.005475978908059466
6.0840000000000005,0.0054623479202208424
6.088,0.005460857406559476
6.0920000000000005,0.005485042192742291
6.096,0.005473262326708912
6.1000000000000005,0.005469199474954542
6.104,0.005444605999541998
6.1080000000000005,0.005457900419779668
6.112,0.005514756303797917
6.1160000000000005,0.005478214678551516
6.12,0.005427753578951387
6.1240000000000006,0.005439797890956944
6.128,0.0054790560975539
6.132000000000001,0.0054744883943981006
6.136,0.005495716193801108
6.140000000000001,0.005430013389986362
6.144,0.005451746040790801
6.148,0.005513914884795533
6.152,0.005492783247564226
6.156,0.005501509964646097
6.16,0.005523747466851966
6.164,0.005495644072172333
6.168,0.005481003381530847
6.172,0.005471266961646115
6.176,0.005489056963410809
6.18,0.005549783374840026
6.184,0.00550956354652606
6.188,0.005486725030747059
6.192,0.005508313438293947
6.196,0.005526247683316193
6.2,0.005525742831914763
6.204,0.005510813654758174
6.208,0.005482878543879017
6.212,0.005525790913000613
6.216,0.00552088664224386
6.22,0.005490234950014149
6.224,0.0054920139501906185
6.228,0.00550631807323115
6.232,0.005509803951955313
6.236,0.005510188600642117
6.24,0.005511270425073754
6.244,0.005552307631847178
6.248,0.005585651864884519
6.252,0.005513265790136551
6.256,0.005485667246858348
6.26,0.005554615523968003
6.264,0.005582694878104711
6.268,0.00556884752537976
6.272,0.005551201766872616
6.276,0.005533916616509352
6.28,0.005584690243167508
6.284,0.0055842094323090025
6.288,0.005554302996909975
6.292,0.0056139475839075545
6.296,0.005614163948793882
6.3,0.005594811311739045
6.304,0.005585195094568939
6.308,0.005605028542482282
6.312,0.005635584072540291
6.316,0.005634285883222327
6.32,0.005564279822223959
6.324,0.005581925580731103
6.328,0.005625463003968756
6.332,0.005642219262387665
6.336,0.005638156410633296
6.34,0.00560442752890915
6.344,0.005592527460161145
6.348,0.005603634190992616
6.352,0.005585098932397238
6.356,0.005573487350164335
6.36,0.005613538894677825
6.364,0.0055974557714608235
6.368,0.0055844498377382555
6.372,0.005579305161552249
6.376,0.005612673435132515
6.38,0.005667293548658714
6.384,0.00567097175172628
6.388,0.00560945200238053
6.392,0.005653277912133286
6.396,0.005684097888163473
6.4,0.005653566398648389
6.404,0.00562772281500373
6.408,0.005635656194169067
6.412,0.005671140035526757
6.416,0.005670947711183354
6.42,0.005640897032526775
6.424,0.00566686081888606
6.428,0.005722538716300969
6.432,0.005680251401295432
6.436,0.005651474871413892
6.44,0.005655465601539485
6.444,0.005683689198933744
6.448,0.005695132497366169
6.452,0.005674024900677788
6.456,0.005635776396883694
6.46,0.00568056392835346
6.464,0.005714148566820052
6.468,0.0057037870928192645
6.472,0.005695661389310525
6.476,0.005695781592025152
6.48,0.005707849944573634
6.484,0.005699267470749315
6.488,0.005683208388075239
6.492,0.005687824172316889
6.496,0.005739030528747701
6.5,0.005654696304165876
6.5040000000000004,0.005614332232594358
6.508,0.005666452129656331
6.5120000000000005,0.0057083788365179895
6.516,0.005731986649670598
6.5200000000000005,0.00568376132056252
6.524,0.005671524684213561
6.5280000000000005,0.005720831837753276
6.532,0.005747276434971067
6.5360000000000005,0.005725688027424179
6.54,0.005738309312459943
6.5440000000000005,0.005747781286372497
6.548,0.005745593596966298
6.5520000000000005,0.005712225323386032
6.556,0.005690011861723089
6.5600000000000005,0.005738333353002868
6.564,0.00577684630276914
6.5680000000000005,0.005720519310695248
6.572,0.005712850377502089
6.5760000000000005,0.005750545948808902
6.58,0.005780380262579154
6.5840000000000005,0.00576533088270794
6.588,0.005722442554129269
6.5920000000000005,0.005746987948455963
6.596,0.0057887944526029975
6.6000000000000005,0.0057687205992604015
6.604,0.005743622272446427
6.6080000000000005,0.005790309006807289
6.612,0.005790597493322392
6.6160000000000005,0.005771845869840686
6.62,0.005746194610539429
6.6240000000000006,0.005742372164214313
6.628,0.005803098575643529
6.632000000000001,0.0057936266017309754
6.636,0.0057391507314623275
6.640000000000001,0.005741963474984583
6.644,0.005766028058452772
6.648000000000001,0.005779923492263574
6.652,0.005785452817136385
6.656000000000001,0.005767302207227811
6.66,0.005792400534041787
6.664,0.005812450346841456
6.668,0.005803603427044959
6.672,0.005784851803563253
6.676,0.005823388793872451
6.68,0.005807906684228582
6.684,0.005803290899986931
6.688,0.005789563749976605
6.692,0.00579405933150363
6.696,0.0058378612007134595
6.7,0.005811681049467848
6.704,0.00578136592483909
6.708,0.005828725794401859
6.712,0.005852237445382767
6.716,0.005842428903869259
6.72,0.00584019313337721
6.724,0.00581968655026196
6.728,0.005884187326930443
6.732,0.0058942362738732025
6.736,0.005850506526292148
6.74,0.005867527230683235
6.744,0.005915271748932808
6.748,0.005852141283211066
6.752,0.005841948093010754
6.756,0.005863079730242061
6.76,0.005899573274402612
6.764,0.005917579641053634
6.768,0.005841202836180071
6.772,0.0057972807642556155
6.776,0.005849424701860511
6.78,0.00587942729943124
6.784,0.0058544251347889655
6.788,0.0058394478765465265
6.792,0.005833005011042556
6.796,0.005883225705213432
6.8,0.005882071759153018
6.804,0.005857213837768297
6.808,0.005888442503028214
6.812,0.00589724134173886
6.816,0.0058709169472356965
6.82,0.005862647000469406
6.824,0.0058712054337508
6.828,0.0059197673304598325
6.832,0.005921570371179227
6.836,0.005856107972793735
6.84,0.0058730565555560445
6.844,0.0059307057774908275
6.848,0.005936956318651397
6.852,0.005933903169699889
6.856,0.0059499862929168895
6.86,0.005919094195257925
6.864,0.005931595277579062
6.868,0.005916545897707847
6.872,0.005903900572129158
6.876,0.005959265942486041
6.88,0.005944456968044079
6.884,0.005909502018630745
6.888,0.0058926495980401354
6.892,0.0059427741300393105
6.896,0.00598159960686361
6.9,0.005991720675435146
6.904,0.005926642925736458
6.908,0.005959746753344547
6.912,0.005977152106422437
6.916,0.00596460294301545
6.92,0.005963208591525784
6.924,0.005951981657979687
6.928,0.005936259142906564
6.932,0.005963977888899393
6.936,0.00593409549404329
6.94,0.005944817576187957
6.944,0.006014799596643399
6.948,0.005963881726727692
6.952,0.00594500990053136
6.956,0.005959434226286518
6.96,0.006015641015645784
6.964,0.006023454192096494
6.968,0.006008308650053578
6.972,0.005948615981970149
6.976,0.005999509811342931
6.98,0.00602677178702018
6.984,0.006003981352327031
6.988,0.00600854905548283
6.992,0.006014871718272175
6.996,0.006016698799534495
7.0,0.006013669691125912
7.0040000000000004,0.0059874895398803
7.008,0.006024103286755476
7.0120000000000005,0.006057086911648938
7.016,0.005979171512028159
7.0200000000000005,0.005949241036086206
7.024,0.005981238998719732
7.0280000000000005,0.006020905894546416
7.032,0.006027468962765013
7.0360000000000005,0.006005135298387443
7.04,0.006000495473602868
7.0440000000000005,0.006050139194743537
7.048,0.006034007990440685
7.0520000000000005,0.006019078813284096
7.056,0.006035835071703005
7.0600000000000005,0.0060316520172340096
7.064,0.006021891556806352
7.0680000000000005,0.006000038703287288
7.072,0.006016987286049598
7.0760000000000005,0.006067207980220474
7.08,0.0060826420087784945
7.0840000000000005,0.0060285988682825
7.088,0.006016602637362794
7.0920000000000005,0.0060505238434303416
7.096,0.006077930062365141
7.1000000000000005,0.006076728035218878
7.104,0.0060518701138341565
7.1080000000000005,0.0060479034242514875
7.112,0.006117741201449378
7.1160000000000005,0.006115024620098824
7.12,0.006080742805887399
7.1240000000000006,0.006094229550468471
7.128,0.006082209279005839
7.132000000000001,0.00608956568514097
7.136,0.006049778586599658
7.140000000000001,0.006047374532307132
7.144,0.006106129619216477
7.148000000000001,0.006090334982514579
7.152,0.00602494470575786
7.156000000000001,0.006058409141509828
7.16,0.006106562348989131
7.164000000000001,0.0061074518490773656
7.168,0.006098220280594065
7.172,0.0060588418712824825
7.176,0.0060761991432745225
7.18,0.006114591890326169
7.184,0.006110937727801529
7.188,0.006077857940736365
7.192,0.006131444310916778
7.196,0.006112043592776091
7.2,0.006082113116834138
7.204,0.006088171333651304
7.208,0.006108533673509003
7.212,0.006136084135701355
7.216,0.006161326705772881
7.22,0.006078074305622693
7.224,0.006116707458103592
7.228,0.00615711961076096
7.232,0.00614615712318704
7.236,0.006153681813122647
7.24,0.00613889687922361
7.244,0.006164187530380987
7.248,0.006170414030998631
7.252,0.006094806523498677
7.256,0.006100119483485161
7.26,0.006172024747374623
7.264,0.006128559445765747
7.268,0.0061183902961083605
7.272,0.006126203472559071
7.276,0.0061713516121727156
7.28,0.0061857038162990985
7.284,0.006136925554703738
7.288,0.006113125417207728
7.292,0.006151542204802299
7.296,0.00616168731391676
7.3,0.006133439675979575
7.304,0.006138223744021703
7.308,0.006142310636318997
7.312,0.006166255017072559
7.316,0.006155100205155238
7.32,0.0061328146218635185
7.324,0.006162096003146489
7.328,0.006245564768183005
7.332,0.0061885646409072055
7.336,0.006162480651833294
7.34,0.006188781005793532
7.344,0.006249675701023225
7.348,0.006261816175200483
7.352,0.006189333938280813
7.356,0.006168659071365086
7.36,0.006210345372797493
7.364,0.006224192725522445
7.368,0.006182578545718815
7.372,0.006183155518749021
7.376,0.006191425465515312
7.38,0.006220851090055834
7.384,0.006195560438898457
7.388,0.006181857329431057
7.392,0.006228616185420695
7.396,0.006211042548542326
7.4,0.0061482726909644625
7.404,0.006156133948501024
7.408,0.006240155646024821
7.412,0.006261094958912725
7.416,0.006266768527043088
7.42,0.006224457171494623
7.424,0.0062369342132728356
7.428,0.0062785483930764665
7.432,0.0062585707019055725
7.436,0.006239458470279988
7.44,0.006239674835166316
7.444,0.006235611983411946
7.448,0.006247608214331653
7.452,0.006195945087585261
7.456,0.006211138710714027
7.46,0.00628710682635786
7.464,0.006276721311814146
7.468,0.006249627619937375
7.472,0.006245564768183005
7.476,0.00628751551558759
7.48,0.006289078150877732
7.484,0.006295641219096329
7.488,0.006243401119319732
7.492,0.006275567365753734
7.496,0.006286626015499355
7.5,0.006278572433619392
7.5040000000000004,0.006282827609717163
7.508,0.006332663655201234
7.5120000000000005,0.006295304651495375
7.516,0.006271432392370589
7.5200000000000005,0.006253858755492221
7.524,0.006283813271977099
7.5280000000000005,0.006323359965089157
7.532,0.006270398649024803
7.5360000000000005,0.006232246307402409
7.54,0.006267970554189351
7.5440000000000005,0.00631487365343654
7.548,0.006328144033131285
7.5520000000000005,0.006323095519116979
7.556,0.006285856718125747
7.5600000000000005,0.00633780833138724
7.564,0.006323768654318887
7.5680000000000005,0.006289078150877732
7.572,0.006307300882415081
7.5760000000000005,0.0063192971133347875
7.58,0.006314681329093137
7.5840000000000005,0.006297251935472321
7.588,0.006309777058336383
7.5920000000000005,0.006351968211170222
7.596,0.006359156333504876
7.6000000000000005,0.006308550990647195
7.604,0.006294270908149589
7.6080000000000005,0.006319441356592339
7.612,0.006349299710905516
7.6160000000000005,0.006321797329799015
7.62,0.006310738680053394
7.6240000000000006,0.006285856718125747
7.628,0.006323095519116979
7.632000000000001,0.006316989221213962
7.636,0.0062992473005351185
7.640000000000001,0.006365863644981025
7.644,0.006384663349548581
7.648000000000001,0.006358915928075624
7.652,0.006330427884709185
7.656000000000001,0.006340188345136841
7.66,0.006398847269874486
7.664000000000001,0.006407429743698805
7.668,0.006314440923663884
7.672000000000001,0.006321436721655136
7.676,0.006360598766080392
7.68,0.006358795725360997
7.684,0.006350405575880078
7.688,0.006342616439972293
7.692,0.006358026427987389
7.696,0.006383581525116944
7.7,0.006356728238669424
7.704,0.006340765318167048
7.708,0.006386610633525527
7.712,0.006367474361357017
7.716,0.0063634836312314235
7.72,0.0063410057235963
7.724,0.006381177470824418
7.728,0.006404352554204371
7.732,0.006427984407899905
7.736,0.006359733306535082
7.74,0.006365671320637622
7.744,0.006402669716199603
7.748,0.0063932939044587505
7.752,0.006382139092541428
7.756,0.006392548647628067
7.76,0.0064154112039499925
7.764,0.006413824528116925
7.768,0.006378100281329984
7.772,0.00637502309183555
7.776,0.006435677381635989
7.78,0.00641425725788958
7.784,0.00639964060779102
7.788,0.006385721133437292
7.792,0.006410386730478612
7.796,0.006419522136790212
7.8,0.006392139958398337
7.804,0.006369565888591515
7.808,0.00641983466384824
7.812,0.0064325280705127795
7.816,0.0063941593640040595
7.82,0.006399304040190066
7.824,0.006427984407899905
7.828,0.0064533952617719095
7.832,0.006418464352901501
7.836,0.006402669716199603
7.84,0.006424426407546966
7.844,0.006482123710567599
7.848,0.006438466084615319
7.852,0.006425219745463499
7.856,0.006449813220876045
7.86,0.006457794681127232
7.864,0.0064610882355079936
7.868,0.006419930826019942
7.872,0.006436518800638374
7.876,0.006492364981853761
7.88,0.006479719656275073
7.884,0.006462795114055687
7.888,0.006481859264595421
7.892,0.006452818288741703
7.896,0.0064525298022266
7.9,0.006424931258948397
7.904,0.0064245946913474425
7.908,0.006469262020102583
7.912,0.006501500388165361
7.916,0.006431398164995292
7.92,0.00644074993619322
7.924,0.00647394992597301
7.928,0.006499793509617668
7.932,0.006501740793594613
7.936,0.006454020315887966
7.94,0.006452000910282244
7.944,0.00650455353711687
7.948,0.0064829651295699835
7.952,0.006450077666848223
7.956,0.006480152386047727
7.96,0.006454909815976201
7.964,0.006434523435575577
7.968,0.00643937962524648
7.972,0.0064648866412901854
7.976,0.006522463741596191
7.98,0.006517968160069166
7.984,0.006453924153716265
7.988,0.00649044173841974
7.992,0.006524411025573137
7.996,0.006523545566027827
8.0,0.006523810012000006
8.004,0.006487797278697961
8.008000000000001,0.00650368807757156
8.012,0.006534147445457868
8.016,0.0065203000927329165
8.02,0.006519410592644682
8.024000000000001,0.006547009135922884
8.028,0.0065164776464078
8.032,0.006494769036146287
8.036,0.006484095035087471
8.040000000000001,0.00652931529632989
8.044,0.006563500948369616
8.048,0.006511357010764719
8.052,0.0064552223430342295
8.056000000000001,0.006500514725905425
8.06,0.006549100663157384
8.064,0.006527464174524645
8.068,0.006521622322593806
8.072000000000001,0.006510323267418933
8.076,0.006525324566204297
8.08,0.00653561391857631
8.084,0.006513448537999217
8.088000000000001,0.006540974959648643
8.092,0.006593287181054017
8.096,0.006551456636364059
8.1,0.006536815945722573
8.104000000000001,0.006531358742478538
8.108,0.006564150043028598
8.112,0.0065931669783393905
8.116,0.006551216230934806
8.120000000000001,0.00654342709502702
8.124,0.0065832622746541825
8.128,0.006595114262316337
8.132,0.006564847218773431
8.136000000000001,0.00654205678408028
8.14,0.006522391619967415
8.144,0.006549196825329085
8.148,0.006530517323476153
8.152000000000001,0.006530613485647855
8.156,0.0065739826250850305
8.16,0.006605956547175631
8.164,0.0065678763271820135
8.168000000000001,0.0065625633671955305
8.172,0.00658393540985609
8.176,0.006614322656113622
8.18,0.006635766820402958
8.184000000000001,0.006577276179465792
8.188,0.006555687771918906
8.192,0.006598215492353696
8.196,0.006581891963707442
8.2,0.006579247503985664
8.204,0.006576482841549258
8.208,0.0065786705309554576
8.212,0.006607543223008698
8.216,0.006583502680083435
8.22,0.006592902532367213
8.224,0.006624347562513458
8.228,0.006623313819167671
8.232,0.006595595073174842
8.236,0.006588166545410936
8.24,0.006615380440002334
8.244,0.006631199117247157
8.248,0.006633651252625534
8.252,0.006579992760816346
8.256,0.006602134100850514
8.26,0.00662641504920503
8.264,0.0066053795741454245
8.268,0.006585449964060381
8.272,0.006603456330711403
8.276,0.006598287613982472
8.28,0.006598263573439547
8.284,0.0065779493146676995
8.288,0.006572323827623188
8.292,0.006637233293521398
8.296,0.006648580429782125
8.3,0.006589969586130331
8.304,0.00660540361468835
8.308,0.006641127861475291
8.312,0.0066578841198942015
8.316,0.006642546253507881
8.32,0.006587517450751954
8.324,0.006630213454987222
8.328,0.006647787091865591
8.332,0.006612856182995182
8.336,0.006599802168186763
8.34,0.0066296364819570155
8.344,0.006632136698421243
8.348,0.006626992022235236
8.352,0.006609009696127139
8.356,0.0066386757260969145
8.36,0.006681804460104838
8.364,0.0066395411856422235
8.368,0.006615140034573082
8.372,0.006642305848078629
8.376,0.006669760148099281
8.38,0.006657379268492771
8.384,0.0066281219277527234
8.388,0.006614755385886277
8.392,0.006665817499059539
8.396,0.006647354362092937
8.4,0.006624155238170055
8.404,0.006643459794139042
8.408,0.006669447621041253
8.412,0.006639180577498345
8.416,0.006624491805771009
8.42,0.006655215619629498
8.424,0.006709210679039639
8.428,0.006735030222141372
8.432,0.006655407943972899
8.436,0.006651753781448259
8.44,0.006693920893739171
8.444,0.0067021908405054615
8.448,0.006688583893209763
8.452,0.006658388971295632
8.456,0.006649998821814715
8.46,0.006690747542073036
8.464,0.006676996351519786
8.468,0.006656898457634266
8.472,0.0066957720155444165
8.476,0.006687814595836154
8.48,0.006681203446531707
8.484,0.006665745377430763
8.488,0.006693199677451413
8.492,0.006745680182657264
8.496,0.006754046291595255
8.5,0.006655648349402152
8.504,0.006684665284712945
8.508000000000001,0.0067499353587550355
8.512,0.006736424573631036
8.516,0.006715869909429937
8.52,0.006693704528852844
8.524000000000001,0.006704354489368736
8.528,0.0067160622337733384
8.532,0.006688896420267792
8.536,0.006691228352931542
8.540000000000001,0.006775129847740711
8.544,0.006726351586145351
8.548,0.00668692509574792
8.552,0.006690362893386232
8.556000000000001,0.006735607195171578
8.56,0.006775802982942619
8.564,0.006767004144231973
8.568,0.006711542611703389
8.572000000000001,0.0067504882912423165
8.576,0.006782894943105571
8.58,0.006764527968310671
8.584,0.006763277860078557
8.588000000000001,0.006753204872592872
8.592,0.006766355049572991
8.596,0.006771932455531652
8.6,0.0067650809007979516
8.604000000000001,0.006775754901856768
8.608,0.006814916946282022
8.612,0.006754623264625462
8.616,0.006736592857431513
8.620000000000001,0.006736833262860766
8.624,0.006769480320153275
8.628,0.006791333173672339
8.632,0.006753541440193825
8.636000000000001,0.006721471355931523
8.64,0.006778134915606369
8.644,0.006777822388548341
8.648,0.006775274090998263
8.652000000000001,0.006786308700200959
8.656,0.0067728459961628115
8.66,0.006758950562352009
8.664,0.006775490455884591
8.668000000000001,0.006782534334961693
8.672,0.006798040485148487
8.676,0.0068449916654815274
8.68,0.006793977633394118
8.684000000000001,0.006746112912429919
8.688,0.006760849765243105
8.692,0.006795972998456915
8.696,0.006799530998809854
8.700000000000001,0.006747651507177136
8.704,0.0067413528849307154
8.708,0.00678046684827012
8.712,0.006800660904327341
8.716,0.006785274956855172
8.72,0.006809579945752614
8.724,0.006801574444958501
8.728,0.006825566906797914
8.732,0.00679873766089332
8.736,0.006783015145820198
8.74,0.006842275084130972
8.744,0.006850352706553861
8.748,0.006796117241714466
8.752,0.006778856131894127
8.756,0.006790251349240702
8.76,0.006819580811609523
8.764,0.006839943151467221
8.768,0.0067981366473201885
8.772,0.006778038753434668
8.776,0.006839630624409193
8.78,0.0068234994201063414
8.784,0.006794001673937043
8.788,0.006825951555484718
8.792,0.006815277554425901
8.796,0.0068117676351588125
8.8,0.0067835440377645535
8.804,0.006786092335314632
8.808,0.006842972259875804
8.812,0.006829990366696162
8.816,0.006781115942929102
8.82,0.0067936891468790145
8.824,0.00682700933937343
8.828,0.006830519258640518
8.832,0.0068428520571611785
8.836,0.006809483783580913
8.84,0.006855833950340821
8.844,0.0068779752903749885
8.848,0.006854367477222381
8.852,0.006832779069675493
8.856,0.006869104330035567
8.86,0.006842731854446552
8.864,0.006845376314168332
8.868,0.006830110569410789
8.872,0.006845496516882958
8.876,0.00688309592601807
8.88,0.006846121570999015
8.884,0.0068053488101977675
8.888,0.006837394853917144
8.892,0.006861315194127781
8.896,0.006845496516882958
8.9,0.006837491016088844
8.904,0.006814364013794741
8.908,0.006857733153231917
8.912,0.006889514750979115
8.916,0.006891053345726332
8.92,0.0068765568983423985
8.924,0.006896943278743022
8.928,0.00688675008854271
8.932,0.006828499853034796
8.936,0.006866531991942563
8.94,0.006924998592336804
8.944,0.006922594538044277
8.948,0.006864752991766094
8.952,0.006866604113571339
8.956,0.006885932710083251
8.96,0.006898025103174658
8.964,0.006887447264287543
8.968,0.006868767762434613
8.972,0.006858358207347974
8.976,0.006883168047646846
8.98,0.00684655430077167
8.984,0.0068234994201063414
8.988,0.006875234668481509
8.992,0.006884249872078483
8.996,0.006855160815138914
9.0,0.006846097530456089
9.004,0.006863118234847176
9.008000000000001,0.006906319090483874
9.012,0.006938653620718353
9.016,0.006877013668657978
9.02,0.0068676618974600505
9.024000000000001,0.006934807133850311
9.028,0.006926296781654768
9.032,0.006912930239788321
9.036,0.006922474335329651
9.040000000000001,0.006897880859917107
9.044,0.006923147470531558
9.048,0.006911319523412329
9.052,0.006892423656673072
9.056000000000001,0.006945048405136475
9.06,0.006931104890239821
9.064,0.006904876657908359
9.068,0.006894443062278794
9.072000000000001,0.006927450727715181
9.076,0.006935287944708816
9.08,0.006930383673952063
9.084,0.006888432926547478
9.088000000000001,0.006920647254067331
9.092,0.006937235228685763
9.096,0.006930383673952063
9.1,0.00693334066073187
9.104000000000001,0.006941730810212787
9.108,0.006953534716789093
9.112,0.006950938338153165
9.116,0.006919373105292292
9.120000000000001,0.006923604240847138
9.124,0.006984426814448057
9.128,0.006959953541750138
9.132,0.006889178183378162
9.136000000000001,0.00691050214495287
9.14,0.0069429328373590525
9.144,0.0069421394994425185
9.148,0.006917978753802627
9.152000000000001,0.006876100128026818
9.156,0.006928171944002939
9.16,0.006950794094895614
9.164,0.00692557556536701
9.168000000000001,0.006937571796286716
9.172,0.00695776585234394
9.176,0.006975820300080812
9.18,0.006965170339564921
9.184000000000001,0.0069322828768431585
9.188,0.006967021461370166
9.192,0.007014717898533888
9.196,0.0069600497039218395
9.200000000000001,0.006952308649099905
9.204,0.0069978654779432785
9.208,0.007028252724200812
9.212,0.0070213290478383355
9.216000000000001,0.006975075043250129
9.22,0.006947091851285123
9.224,0.007003346721730239
9.228,0.007004933397563307
9.232,0.006977551219171431
9.236,0.007000101248435329
9.24,0.007001399437753292
9.244,0.007016208412195255
9.248,0.006983489233273971
9.252,0.006952669257243783
9.256,0.00698933108520481
9.26,0.00703308487332879
9.264,0.006981806395269203
9.268,0.006965170339564921
9.272,0.006994018991075237
9.276,0.007017891250200023
9.28,0.007006952803169028
9.284,0.006984354692819281
9.288,0.006998226086087158
9.292,0.007035176400563287
9.296,0.007034479224818454
9.3,0.007010534844064892
9.304,0.007060803619321619
9.308,0.007044095441988561
9.312,0.007024430277875695
9.316,0.007013828398445654
9.32,0.0070246706833049476
9.324,0.007056091672908268
9.328,0.00706633294419443
9.332,0.00700577481656569
9.336,0.007012650411842316
9.34,0.007075708755935282
9.344,0.0070979222175982255
9.348,0.007071742066352614
9.352,0.007034238819389202
9.356,0.007055682983678538
9.36,0.007061885443753256
9.364,0.007036258224994924
9.368,0.007059120781316851
9.372,0.007111985935209505
9.376,0.00705537045662051
9.38,0.007031522238038647
9.384,0.007032555981384434
9.388,0.007073761471958336
9.392,0.007088041554455942
9.396,0.007063544241215099
9.4,0.007011135857638024
9.404,0.0070488554694877635
9.408,0.00708049282397741
9.412,0.007061885443753256
9.416,0.007061524835609377
9.42,0.007039623901004461
9.424,0.007087897311198391
9.428,0.00710383619115784
9.432,0.00705537045662051
9.436,0.0070627989843844155
9.44,0.007122828220068799
9.444,0.007070540039206351
9.448,0.007060467051720665
9.452,0.0070755645126777305
9.456,0.007103764069529064
9.46,0.007126650666393915
9.464,0.00708917145997343
9.468,0.007041138455208753
9.472,0.007091719757523507
9.476,0.007108572178114117
9.48,0.0070944363388740625
9.484,0.0071023697180393995
9.488,0.007085036486590284
9.492,0.007082440107954356
9.496,0.0071051343804758044
9.5,0.0070755645126777305
9.504,0.007124535098616492
9.508000000000001,0.007162447034809633
9.512,0.007110783908063242
9.516,0.00707186226906724
9.52,0.0070973692851109445
9.524000000000001,0.007118789408857354
9.528,0.00712439085535894
9.532,0.007058736132630046
9.536,0.007068857201201582
9.540000000000001,0.007126915112366093
9.544,0.007114558273302507
9.548,0.007088426203142747
9.552,0.007101672542294567
9.556000000000001,0.007090661973634796
9.56,0.007089988838432888
9.564,0.007083161324242114
9.568,0.007085541337991715
9.572000000000001,0.00714206065440901
9.576,0.007152205763523471
9.58,0.007112707151497262
9.584,0.007108836624086295
9.588000000000001,0.007142156816580711
9.592,0.007161942183408203
9.596,0.007168865859770678
9.6,0.007117779706054493
9.604000000000001,0.007141796208436832
9.608,0.007153119304154631
9.612,0.007141050951606148
9.616,0.007132684842668156
9.620000000000001,0.007182833415210256
9.624,0.007165788670276244
9.628,0.00714073842454812
9.632,0.007107370150967854
9.636000000000001,0.007125015909474997
9.64,0.0071777608606530255
9.644,0.007138839221657024
9.648,0.007095590284934475
9.652000000000001,0.007109533799831128
9.656,0.007137108302566405
9.66,0.007165980994619647
9.664,0.007151893236465442
9.668000000000001,0.007113212002898693
9.672,0.007171197792434429
9.676,0.0072013927143485595
9.68,0.007169587076058436
9.684000000000001,0.007175765495590229
9.688,0.007201128268376381
9.692,0.007169779400401839
9.696,0.007145234006075144
9.700000000000001,0.007123044584955125
9.704,0.007134319599587074
9.708,0.007194108429842205
9.712,0.007167399386652238
9.716000000000001,0.007119967395460692
9.72,0.007146315830506782
9.724,0.007191752456635529
9.728,0.007192497713466212
9.732,0.0071702361707174185
9.736,0.007128020977340655
9.74,0.007173361441297703
9.744,0.007153792439356538
9.748,0.00713078563977706
9.752,0.007175044279302471
9.756,0.007208148106910559
9.76,0.0071715103194924575
9.764,0.0071707891032046995
9.768,0.007174058617042536
9.772,0.007215360269788138
9.776,0.007229015298169687
9.78,0.007157326399166552
9.784,0.0071723757790377665
9.788,0.0072032919172396554
9.792,0.0071784820769407835
9.796,0.007174707711701517
9.8,0.007167880197510743
9.804,0.007161725818521875
9.808,0.007192545794552063
9.812,0.007193723781155401
9.816,0.0071710295086339524
9.82,0.007208268309625185
9.824,0.00721052812066016
9.828,0.007185574037103736
9.832,0.007166798373079106
9.836,0.007187304956194355
9.84,0.0072181970538533185
9.844,0.007262792260979684
9.848,0.007173072954782599
9.852,0.00718357867204094
9.856,0.007247815002737245
9.86,0.007253704935753934
9.864,0.007248560259567928
9.868,0.007239424853256328
9.872,0.007253224124895429
9.876,0.007268441788567121
9.88,0.007238150704481289
9.884,0.007211273377490843
9.888,0.007263104788037713
9.892,0.007238150704481289
9.896,0.007209422255685598
9.9,0.007196007632733301
9.904,0.007233751285125964
9.908,0.007249738246171266
9.912,0.007235987055618013
9.916,0.0071737220494415815
9.92,0.0072112252964049925
9.924,0.007240122029001161
9.928,0.007223293648953475
9.932,0.007205407485017078
9.936,0.007213172580381938
9.94,0.007252526949150596
9.944,0.007251901895034539
9.948,0.007216033404990045
9.952,0.007235794731274611
9.956,0.0072941651694971524
9.96,0.007258705368682389
9.964,0.0072368284746203975
9.968,0.007241564461576677
9.972,0.00728428450635487
9.976,0.007304093913725287
9.98,0.0072876742229073315
9.984,0.007236708271905771
9.988,0.007286472195761068
9.992,0.007274235559412109
9.996,0.0072491372325981344
10.0,0.007276062640674429
10.004,0.007277288708363618
10.008000000000001,0.007264210653012275
10.012,0.0072550992872436
10.016,0.007241660623748377
10.02,0.007270749680687946
10.024000000000001,0.007315224685099683
10.028,0.007256421517104489
10.032,0.007235674528559985
10.036,0.007253055841094953
10.040000000000001,0.007295559520986818
10.044,0.007305175738156923
10.048,0.0072673840046784096
10.052,0.00725428190878414
10.056000000000001,0.007295511439900967
10.06,0.007293684358638647
10.064,0.007251781692319914
10.068,0.00728245742509255
10.072000000000001,0.0073061373598739335
10.076,0.00732036936128569
10.08,0.0072917130341187755
10.084,0.007281543884461389
10.088000000000001,0.007327966172850073
10.092,0.007362151824889798
10.096,0.007292314047691907
10.1,0.007273442221495576
10.104000000000001,0.007319335617939903
10.108,0.007348905485737978
10.112,0.0073266679835321084
10.116,0.0072962086156458
10.120000000000001,0.0073212829019168495
10.124,0.0073499151885408395
10.128,0.00730575271118713
10.132,0.007303829467753108
10.136000000000001,0.007337438146762627
10.14,0.007308397170908908
10.144,0.007312844671350082
10.148,0.007288732006796043
10.152000000000001,0.007270437153629918
10.156,0.007329023956738784
10.16,0.007338519971194265
10.164,0.00728803483105121
10.168000000000001,0.007308445251994759
10.172,0.007356478256759436
10.176,0.007358016851506653
10.18,0.007368570649850844
10.184000000000001,0.0073231099831791695
10.188,0.007363906784523342
10.192,0.007404463180438262
10.196,0.007367056095646552
10.200000000000001,0.0073592669597387665
10.204,0.0074159545599565375
10.208,0.007374099974723654
10.212,0.0073427030256632605
10.216000000000001,0.007335226416813502
10.22,0.007360805554485983
10.224,0.007398092436563066
10.228,0.007351213377858803
10.232000000000001,0.007310055968370752
10.236,0.007335683187129082
10.24,0.007364844365697428
10.244,0.007360949797743535
10.248,0.007349506499311109
10.252,0.007325826564529724
10.256,0.007361454649144965
10.26,0.00737284986649154
10.264,0.007336404403416841
10.268,0.00735772836499155
10.272,0.007408694315993108
10.276,0.007352896215863572
10.28,0.007336332281788065
10.284,0.007360108378741151
10.288,0.007398669409593273
10.292,0.007418863465650494
10.296,0.007354891580926368
10.3,0.00735138166165928
10.304,0.007393837260465295
10.308,0.007408814518707734
10.312,0.007391409165629844
10.316,0.007365565581985186
10.32,0.007356189770244333
10.324,0.007406410464415208
10.328,0.00739705869321728
10.332,0.007375253920784066
10.336,0.007410785843227605
10.34,0.007447471711731558
10.344,0.0073520547968611875
10.348,0.00732270129394944
10.352,0.0073701332851409855
10.356,0.007401818720716482
10.36,0.007414968897696601
10.364,0.0073664070009875696
10.368,0.007380783245656877
10.372,0.007402371653203763
10.376,0.007384773975782471
10.38,0.0073701332851409855
10.384,0.0073797975833969414
10.388,0.007386312570529688
10.392,0.007418743262935868
10.396,0.0074066749103873855
10.4,0.007402756301890568
10.404,0.007461607550971613
10.408,0.007458410158762553
10.412,0.007422036817316629
10.416,0.007416315168100416
10.42,0.007442687643689431
10.424,0.007471704579000224
10.428,0.007464420294493869
10.432,0.007406434504958133
10.436,0.007445043616896106
10.44,0.007467930213760957
10.444,0.0074338647644358585
10.448,0.007411050289199784
10.452,0.007445716752098014
10.456,0.00742355137152092
10.46,0.00741076180268468
10.464,0.007400424369226818
10.468,0.007415858397784836
10.472,0.007466367578470815
10.476,0.007439538332566222
10.48,0.007422565709260985
10.484,0.007435499521354777
10.488,0.007475599146954117
10.492,0.007468411024619463
10.496,0.007451991333801508
10.5,0.007400063761082938
10.504,0.007439490251480371
10.508000000000001,0.007478459971562223
10.512,0.007455284888182269
10.516,0.007429176858565432
10.52,0.007437759332389752
10.524000000000001,0.007464420294493869
10.528,0.007461054618484332
10.532,0.007457785104646496
10.536,0.007461126740113108
10.540000000000001,0.007501611014399251
10.544,0.007444779170923929
10.548,0.007436557305243489
10.552,0.007469372646336473
10.556000000000001,0.007509808839536766
10.56,0.007503221730775244
10.564,0.0074848547559803425
10.568,0.007468242740818986
10.572000000000001,0.007534859085264892
10.576,0.0075505094787092384
10.58,0.007515506448210053
10.584,0.007525555395152814
10.588000000000001,0.007525964084382543
10.592,0.007506395082441378
10.596,0.007492571770259352
10.6,0.007482907472003396
10.604000000000001,0.0075333926121464515
10.608,0.007564525115234667
10.612,0.007486080823669531
10.616,0.007479325431107532
10.620000000000001,0.007507332663615464
10.624,0.00752476205723628
10.628,0.0075253630708094115
10.632,0.007499038676306248
10.636000000000001,0.007506611447327706
10.64,0.007541806802170294
10.644,0.00750872701510513
10.648,0.007478916741877803
10.652000000000001,0.007524930341036757
10.656,0.0075352196934087715
10.66,0.0075164921104699895
10.664,0.007506875893299884
10.668000000000001,0.007522718611087632
10.672,0.007568900494047065
10.676,0.007593662253260087
10.68,0.007514448664321342
10.684000000000001,0.0075355322204667995
10.688,0.00757202576462735
10.692,0.007558659222760903
10.696,0.007548946843419097
10.700000000000001,0.007546566829669496
10.704,0.00753695061249939
10.708,0.007557625479415117
10.712,0.007530772192967596
10.716000000000001,0.007522550327287156
10.72,0.0075651020882648735
10.724,0.007534041706805434
10.728,0.0075332483688889
10.732000000000001,0.00753969123439287
10.736,0.007560846912167102
10.74,0.007596763483297445
10.744,0.007564981885550247
10.748000000000001,0.007501875460371429
10.752,0.007552673127572513
10.756,0.007575391440636886
10.76,0.00755476465480701
10.764,0.007537551626072522
10.768,0.007533080085088423
10.772,0.007582218954827661
10.776,0.007588878185217959
10.78,0.007552528884314961
10.784,0.007579935103249761
10.788,0.007630011554163084
10.792,0.007586570293097133
10.796,0.007559692966106689
10.8,0.0075463985458690186
10.804,0.007581425616911127
10.808,0.007611043565795052
10.812,0.007572194048427826
10.816,0.00752476205723628
10.82,0.007593397807287908
10.824,0.00761587571492303
10.828,0.007593349726202058
10.832,0.00759861460510269
10.836,0.007589503239334016
10.84,0.0076145775256050655
10.844,0.00758673857689761
10.848,0.007555606073809395
10.852,0.007611115687423828
10.856,0.007649340150674997
10.86,0.007584623009120188
10.864,0.007571184345624965
10.868,0.007585224022693319
10.872,0.00763866614961618
10.876,0.007654124218717124
10.88,0.007592556388285524
10.884,0.007583156536001746
10.888,0.007637584325184544
10.892,0.007642392433769596
10.896,0.00760998578190634
10.9,0.007641551014767212
10.904,0.007622054134454822
10.908,0.007622438783141627
10.912,0.0076016437135112734
10.916,0.007588108887844351
10.92,0.007640300906535098
10.924,0.007666889747010439
10.928,0.007575583764980289
10.932,0.0075689966562187665
10.936,0.007611668619911109
10.94,0.007613111052486624
10.944,0.007606692227525579
10.948,0.007569741913049449
10.952,0.007614072674203635
10.956,0.00764917186687452
10.96,0.007618712498988211
10.964,0.007604384335404754
10.968,0.007647537109955602
10.972,0.007649147826331595
10.976,0.0076512874346519434
10.98,0.007611836903711585
10.984,0.007633737838316501
10.988,0.0076816506403665505
10.992,0.007657537975812512
10.996,0.0075857769551806
11.0,0.007598542483473914
11.004,0.007651095110308541
11.008000000000001,0.007660038192276739
11.012,0.007645325380006478
11.016,0.007609553052133685
11.02,0.007630348121764038
11.024000000000001,0.0076613604221376285
11.028,0.007643065568971504
11.032,0.007650638339992961
11.036,0.007684679748775134
11.040000000000001,0.007667274395697243
11.044,0.007638497865815703
11.048,0.007620082809934951
11.052,0.00764460416371872
11.056000000000001,0.007695425871462726
11.06,0.007671721896138417
11.064,0.0076250351617775545
11.068,0.0076877569382695675
11.072000000000001,0.007717519130411044
11.076,0.007690353316905496
11.08,0.007678212842728238
11.084,0.0076642933683745106
11.088000000000001,0.007682395897197234
11.092,0.007675977072236189
11.096,0.007667058030810916
11.1,0.007709056859301351
11.104000000000001,0.0077547579314022775
11.108,0.007727736361154281
11.112,0.007695618195806129
11.116,0.007698647304214712
11.120000000000001,0.007713672643543001
11.124,0.00772352926614236
11.128,0.007672154625911072
11.132,0.007672443112426175
11.136000000000001,0.007704585318317252
11.14,0.00769434404703109
11.144,0.007688526235643176
11.148,0.00767424615314557
11.152000000000001,0.007667947530899151
11.156,0.007716870035752062
11.16,0.0077055950211201134
11.164,0.007691002411564478
11.168000000000001,0.00772352926614236
11.172,0.0077473053630954455
11.176,0.0076929977766272755
11.18,0.007664341449460361
11.184000000000001,0.007696820222952392
11.188,0.007723481185056509
11.192,0.007732352145395932
11.196,0.007670447747363378
11.200000000000001,0.007693911317258435
11.204,0.007742809781568422
11.208,0.007723360982341883
11.212,0.007709225143101828
11.216000000000001,0.007739275821758408
11.22,0.007730116374903883
11.224,0.007744228173601013
11.228,0.0077253323068617544
11.232000000000001,0.0077310539560779675
11.236,0.007788414691497646
11.24,0.007766706081236133
11.244,0.007740958659763176
11.248000000000001,0.007732905077883213
11.252,0.007772163284480168
11.256,0.0077890878266995535
11.26,0.007760143013017536
11.264,0.007706869169895152
11.268,0.0077494449714157945
11.272,0.007780337069074757
11.276,0.0077497574984738225
11.28,0.00771855287375683
11.284,0.007722543603882423
11.288,0.007729659604588302
11.292,0.007734107105029476
11.296,0.007713167792141571
11.3,0.007741487551707532
11.304,0.00780615661217649
11.308,0.007749252647072392
11.312,0.007716148819464304
11.316,0.007743002105911824
11.32,0.007790650461989695
11.324,0.007812743720938013
11.328,0.007774927946916573
11.332,0.0077294672802449
11.336,0.007785890434490493
11.34,0.007780721717761562
11.344,0.00774718516038082
11.348,0.007750959525620086
11.352,0.007770240041046147
11.356,0.007772451770995272
11.36,0.007748555471327559
11.364,0.007738674808185277
11.368,0.00778555386688954
11.372,0.00782437934371384
11.376,0.007749396890329944
11.38,0.007732760834625662
11.384,0.007764782837802112
11.388,0.007814306356228155
11.392,0.00781981164055804
11.396,0.0077944007866860366
11.4,0.007782476677395106
11.404,0.007816974856492858
11.408,0.00779697312477904
11.412,0.007769398622043763
11.416,0.007793294921711475
11.42,0.007797790503238498
11.424,0.007761248877992098
11.428,0.007758820783156647
11.432,0.007769086094985734
11.436,0.00781296008582434
11.44,0.007827360371036573
11.444,0.007743963727628834
11.448,0.007761152715820397
11.452,0.0078053392337170315
11.456,0.007816926775407008
11.46,0.007794064219085083
11.464,0.007744781106088294
11.468,0.007774615419858545
11.472,0.007824211059913364
11.476,0.007821037708247228
11.48,0.007792044813479361
11.484,0.007845559062030999
11.488,0.007844934007914943
11.492,0.007825461168145477
11.496,0.007799208895271089
11.5,0.0078115897748775994
11.504,0.007868325456181224
11.508000000000001,0.00785438194128457
11.512,0.007797141408579516
11.516,0.00781716718083626
11.52,0.0078388998316407
11.524000000000001,0.00783926043978458
11.528,0.007830702006503187
11.532,0.007811301288362497
11.536,0.007814570802200332
11.540000000000001,0.007852074049163745
11.544,0.007833057979709863
11.548,0.007815051613058838
11.552,0.007859839144528605
11.556000000000001,0.007824138938284587
11.56,0.007815099694144689
11.564,0.00779194865130766
11.568,0.00782341772199683
11.572000000000001,0.007879985119499977
11.576,0.007842650156337042
11.58,0.007813801504826724
11.584,0.007861810469048477
11.588000000000001,0.007886091417402992
11.592,0.007872484470107294
11.596,0.007875225092000773
11.6,0.007852266373507147
11.604000000000001,0.00788351907930999
11.608,0.007872821037708247
11.612,0.007851881724820342
11.616,0.007887750214864837
11.620000000000001,0.0079528039240206
11.624,0.007938812328038097
11.628,0.007923378299480076
11.632,0.007900034932299646
11.636000000000001,0.00792809024589343
11.64,0.007937634341434758
11.644,0.007880129362757527
11.648,0.007825413087059627
11.652000000000001,0.007881860281848146
11.656,0.007876499240775813
11.66,0.007825990060089832
11.664,0.007838731547840224
11.668000000000001,0.007873830740511109
11.672,0.007943452152822671
11.676,0.00793727373329088
11.68,0.007910083879242405
11.684000000000001,0.007938620003694694
11.688,0.007952010586104065
11.692,0.007909530946755124
11.696,0.007872051740334639
11.700000000000001,0.00787798975443718
11.704,0.007910396406300434
11.708,0.007917752812435565
11.712,0.007840438426387918
11.716000000000001,0.007832793533737684
11.72,0.007889937904271034
11.724,0.007895058539914115
11.728,0.007882677660307605
11.732000000000001,0.007907848108750356
11.736,0.007898808864610456
11.74,0.007916262298774198
11.744,0.00789503449937119
11.748000000000001,0.00787899945724004
11.752,0.007938355557722517
11.756,0.007953789586280536
11.76,0.007900443621529375
11.764000000000001,0.007915252595971338
11.768,0.007958549613779738
11.772,0.007961410438387844
11.776,0.007946337017973704
11.78,0.00789813572940855
11.784,0.00793996627409851
11.788,0.007951241288730457
11.792,0.007920421312700269
11.796,0.007901068675645431
11.8,0.007932321381448275
11.804,0.007923089812964973
11.808,0.007921382934417279
11.812,0.007902414946049246
11.816,0.007926792056575463
11.82,0.008004971902168421
11.824,0.007987927157234408
11.828,0.007891933269333832
11.832,0.007911285906388668
11.836,0.00795787647857783
11.84,0.007951577856331412
11.844,0.007922584961563542
11.848,0.007879311984298068
11.852,0.00794782753163507
11.856,0.00794782753163507
11.86,0.00793965374704048
11.864,0.007953020288906926
11.868,0.007970065033840939
11.872,0.007949318045296435
11.876,0.007922464758848917
11.88,0.007895779756201874
11.884,0.007934412908682773
11.888,0.007974993345140617
11.892,0.007893231458651796
11.896,0.007871667091647834
11.9,0.007908377000694711
11.904,0.007950904721129503
11.908,0.007946385099059554
11.912,0.007945928328743974
11.916,0.007928979745981663
11.92,0.007968502398550795
11.924,0.007954847370169247
11.928,0.007916021893344945
11.932,0.007957996681292457
11.936,0.00800218319918909
11.94,0.00795600131622966
11.944,0.007951625937417262
11.948,0.007949510369639838
11.952,0.007967781182263038
11.956,0.007981508332273363
11.96,0.007904770919255922
11.964,0.007905107486856876
11.968,0.007943331950108046
11.972,0.007942490531105661
11.976,0.007946216815259078
11.98,0.007958092843464158
11.984,0.007945207112456215
11.988,0.007978695588751108
11.992,0.007972781615191493
11.996,0.007963069235849687
12.0,0.008026536269172383
12.004,0.00801990107932501
12.008000000000001,0.007993793049708172
12.012,0.007958597694865588
12.016,0.007981820859331391
12.02,0.008019011579236774
12.024000000000001,0.008020381890183514
12.028,0.007947707328920443
12.032,0.007959078505724092
12.036,0.00799304779287749
12.040000000000001,0.007985066332626302
12.044,0.007974200007224083
12.048,0.007980570751099278
12.052,0.00797468081808259
12.056000000000001,0.00798670108954522
12.06,0.007967348452490383
12.064,0.007950832599500728
12.068,0.00800263996950467
12.072000000000001,0.007969896750040461
12.076,0.007946264896344927
12.08,0.007939365260525378
12.084,0.0079846816839395
12.088000000000001,0.008013890943593694
12.092,0.00798811948157781
12.096,0.007942274166219334
12.1,0.007993672846993547
12.104000000000001,0.00802944517486634
12.108,0.008018699052178746
12.112,0.007990739900756664
12.116,0.007984297035252694
12.120000000000001,0.007999682982724863
12.124,0.007992759306362387
12.128,0.007963886614309145
12.132,0.007981820859331391
12.136000000000001,0.00804045574352611
12.14,0.007997807820376693
12.144,0.007965160763084185
12.148,0.007976075169572255
12.152000000000001,0.008020429971269364
12.156,0.008035815918741534
12.16,0.008007928888948228
12.164,0.007955376262113602
12.168000000000001,0.008028507593692254
12.172,0.008042547270760607
12.176,0.008005212307597672
12.18,0.0080123763893894
12.184000000000001,0.0080237956472789
12.188,0.008050120041782067
12.192,0.008022545539046789
12.196,0.00799675003648798
12.200000000000001,0.008031921350787641
12.204,0.008059808380580947
12.208,0.0079781186157209
12.212,0.007961145992415666
12.216000000000001,0.007992254454960957
12.22,0.00801725661960323
12.224,0.008024084133794004
12.228,0.007987590589633456
12.232000000000001,0.007998841563722478
12.236,0.00805471178548079
12.24,0.008039422000180324
12.244,0.00800857798360721
12.248000000000001,0.0080303587154975
12.252,0.008032738729247101
12.256,0.008021055025385422
12.26,0.00803136841830036
12.264000000000001,0.00803954220289495
12.268,0.00806512134056743
12.272,0.00805425501516521
12.276,0.007989898481754281
12.280000000000001,0.008004394929138214
12.284,0.008056322501856785
12.288,0.008065385786539607
12.292,0.008057981299318628
12.296,0.007999634901639012
12.3,0.008013001443505459
12.304,0.008045768703512594
12.308,0.008014419835538049
12.312,0.00800437088859529
12.316,0.008056538866743112
12.32,0.008064953056766954
12.324,0.008070915111412419
12.328,0.008038748864978417
12.332,0.00806269324573198
12.336,0.008099691641293958
12.34,0.008080411125867897
12.344,0.00802456494465251
12.348,0.0080280748639196
12.352,0.008070698746526092
12.356,0.008073174922447393
12.36,0.008043917581707348
12.364,0.007992110211703405
12.368,0.008020117444211336
12.372,0.008060818083383808
12.376,0.008041032716556316
12.38,0.008051394190557105
12.384,0.00811810669717471
12.388,0.008078752328406054
12.392,0.008066780138029273
12.396,0.008057284123573795
12.4,0.00810618258788378
12.404,0.00814476765927883
12.408,0.008077983031032446
12.412,0.00803908543257937
12.416,0.00807836767971925
12.42,0.008095628789539589
12.424,0.008095652830082515
12.428,0.008096013438226394
12.432,0.008077934949946595
12.436,0.008112505250673124
12.44,0.008097888600574563
12.444,0.008062621124103202
12.448,0.00808334407210478
12.452,0.008104283384992684
12.456,0.008057067758687466
12.46,0.008055505123397325
12.464,0.008072742192674738
12.468,0.00810668743928521
12.472,0.008137940145088054
12.476,0.008080387085324972
12.48,0.008047427500974437
12.484,0.008108226034032428
12.488,0.008115053548223202
12.492,0.008086781869743093
12.496,0.008093873829906045
12.5,0.00808562792368268
12.504,0.00811522183202368
12.508000000000001,0.008111062818097607
12.512,0.008106206628426706
12.516,0.008157172579428265
12.52,0.008160105525665148
12.524000000000001,0.008124573603221608
12.528,0.008105389249967246
12.532,0.008122409954358333
12.536,0.00817541935150854
12.540000000000001,0.008174529851420306
12.544,0.008096325965284422
12.548,0.008102600546987916
12.552,0.008116952751114298
12.556000000000001,0.008102937114588869
12.56,0.008076805044429107
12.564,0.008086902072457719
12.568,0.008075675138911621
12.572000000000001,0.008091806343214472
12.576,0.008074304827964882
12.58,0.008060649799583331
12.584,0.008127314225115088
12.588000000000001,0.008117217197086475
12.592,0.008072790273760589
12.596,0.008069448638293978
12.6,0.008120823278525265
12.604000000000001,0.008167029202027623
12.608,0.00817049104020886
12.612,0.008122361873272482
12.616,0.00814979213275021
12.620000000000001,0.008186646285054638
12.624,0.00817587612182412
12.628,0.008160538255437803
12.632,0.00816400009361904
12.636000000000001,0.0081740490405618
12.64,0.008167894661572932
12.644,0.00813705064499982
12.648,0.008147003429770878
12.652000000000001,0.008177342594942561
12.656,0.008133588806818581
12.66,0.008101254276584102
12.664,0.008111279182983936
12.668000000000001,0.008139070050605542
12.672,0.008142700172587256
12.676,0.008125943914168349
12.68,0.008089546532179498
12.684000000000001,0.008142195321185826
12.688,0.008143229064531613
12.692,0.00809983588455151
12.696,0.008139671064178674
12.700000000000001,0.008143830078104744
12.704,0.008147315956828908
12.708,0.008136401550340839
12.712,0.00812120792721207
12.716000000000001,0.008176068446167523
12.72,0.008217730707057003
12.724,0.0081558743901103
12.728,0.008144431091677876
12.732000000000001,0.008171332459211245
12.736,0.008171789229526825
12.74,0.008169505377948926
12.744,0.008167918702115858
12.748000000000001,0.008157773593001396
12.752,0.008199892624206458
12.756,0.0082037391110745
12.76,0.008155609944138123
12.764000000000001,0.008183665257731905
12.768,0.008194844110192152
12.772,0.008169240931976747
12.776,0.008135512050252603
12.780000000000001,0.008142964618559435
12.784,0.008175467432594391
12.788,0.008201383137867824
12.792,0.008121808940785201
12.796000000000001,0.008118924075634169
12.8,0.008162245133985497
12.804,0.008166139701939388
12.808,0.008152460633014913
12.812,0.00813618518545451
12.816,0.008141666429241471
12.82,0.008178809068061002
12.824,0.008170082350979132
12.828,0.008157196619971191
12.832,0.008195397042679435
12.836,0.008208667422374178
12.84,0.008194170974990245
12.844,0.008167029202027623
12.848,0.008183280609045102
12.852,0.008222442653470356
12.856,0.008210470463093573
12.86,0.008142796334758957
12.864,0.008160129566208072
12.868,0.008186357798539535
12.872,0.008165947377595987
12.876,0.008143565632132567
12.88,0.008123395616618269
12.884,0.00816130755281141
12.888,0.008187559825685798
12.892,0.008179193716747806
12.896,0.008174746216306632
12.9,0.008238573857773207
12.904,0.008208282773687375
12.908,0.008168447594060213
12.912,0.008164264539591218
12.916,0.008203594867816948
12.92,0.008272038293525174
12.924,0.00823612172239483
12.928,0.00821460543647672
12.932,0.008223981248217573
12.936,0.008243237723100708
12.94,0.008231097248923451
12.944,0.008188232960887705
12.948,0.008201527381125376
12.952,0.008221481031753344
12.956,0.008206816300568935
12.96,0.008180251500636518
12.964,0.008218451923344762
12.968,0.008288770511401157
12.972,0.00823246755987019
12.976,0.008198450191630942
12.98,0.008191502474725542
12.984,0.008226529545767651
12.988,0.008255354156735041
12.992,0.008209244395404386
12.996,0.008160009363493446
13.0,0.00820547003016512
13.004,0.008205397908536343
13.008000000000001,0.008169673661749402
13.012,0.00819328147490201
13.016,0.008179337960005358
13.02,0.008206864381654784
13.024000000000001,0.008199099286289924
13.028,0.008184266271305037
13.032,0.00823693910085429
13.036,0.008263503900786706
13.040000000000001,0.008202224556870209
13.044,0.008215038166249375
13.048,0.00826352794132963
13.052,0.008300261890919433
13.056000000000001,0.008313436108442478
13.06,0.00825246929158401
13.064,0.00824744481811263
13.068,0.008291607295466338
13.072000000000001,0.008299131985401945
13.076,0.008257229319083213
13.08,0.008281486226894803
13.084,0.00827850519957207
13.088000000000001,0.008277231050797031
13.092,0.008243261763643634
13.096,0.008245641777393235
13.1,0.008284755740732638
13.104000000000001,0.008299853201689704
13.108,0.008205758516680222
13.112,0.008198474232173868
13.116,0.008251940399639654
13.120000000000001,0.008271942131353472
13.124,0.008270427577149181
13.128,0.008228548951373373
13.132,0.00828201511883916
13.136000000000001,0.008309661743203212
13.14,0.00827763974002676
13.144,0.008259152562517233
13.148,0.00830043017471991
13.152000000000001,0.008273624969358242
13.156,0.008268600495886862
13.16,0.008217754747599929
13.164,0.008256724467681782
13.168000000000001,0.008315599757305751
13.172,0.008291366890037085
13.176,0.008257181237997362
13.18,0.008267398468740599
13.184000000000001,0.008306344148279524
13.188,0.008289034957373336
13.192,0.008271004550179388
13.196,0.008239631641661919
13.200000000000001,0.008276822361567302
13.204,0.008272230617868576
13.208,0.00823602556022313
13.212,0.008265643509107055
13.216000000000001,0.008336563110736581
13.22,0.008291222646779534
13.224,0.00827718296971118
13.228,0.008256219616280352
13.232000000000001,0.008274706793789879
13.236,0.00831769128454025
13.24,0.008253262629500544
13.244,0.008240833668808182
13.248000000000001,0.008294251755188118
13.252,0.00831961452797427
13.256,0.008300718661235013
13.26,0.00828179875395283
13.264000000000001,0.008265691590192905
13.268,0.008306632634794628
13.272,0.008279274496945679
13.276,0.00825064221032169
13.280000000000001,0.008297665512283505
13.284,0.008300670580149163
13.288,0.008269610198689723
13.292,0.008277255091339957
13.296000000000001,0.008292616998269199
13.3,0.008308435675514023
13.304,0.008333437840156298
13.308,0.008277375294054583
13.312000000000001,0.008285068267790668
13.316,0.008336995840509237
13.32,0.008331081866949622
13.324,0.008311993675866962
13.328,0.008328437407227843
13.332,0.008311777310980635
13.336,0.008324206271672997
13.34,0.008293290133471107
13.344,0.008262902887213574
13.348,0.008313556311157103
13.352,0.008302185134353454
13.356,0.008276750239938525
13.36,0.00827941874020323
13.364,0.008315719960020378
13.368,0.008354353112501278
13.372,0.008345169625103826
13.376,0.008278072469799416
13.38,0.008297809755541057
13.384,0.00834016919217537
13.388,0.008337765137882844
13.392,0.0083017524045808
13.396,0.008315671878934528
13.4,0.00831677774390909
13.404,0.008347405395595876
13.408,0.008338846962314482
13.412,0.008342116476152317
13.416,0.008399885900801726
13.42,0.008377239709366126
13.424,0.008339351813715912
13.428,0.008327980636912263
13.432,0.00835149228789317
13.436,0.008357670707424963
13.44,0.008345626395419406
13.444,0.008284563416389236
13.448,0.008341082732806532
13.452,0.00837058047897583
13.456,0.008360435369861368
13.46,0.008361685478093482
13.464,0.00838483652093051
13.468,0.008367936019254051
13.472,0.008361396991578379
13.476,0.008337092002680938
13.48,0.008368032181425752
13.484,0.008414815077958314
13.488,0.008360507491490143
13.492,0.008340818286834353
13.496,0.008353535734041817
13.5,0.00839702507619362
13.504,0.008396736589678516
13.508000000000001,0.008348968030886018
13.512,0.008320528068605431
13.516,0.008385365412874867
13.52,0.00840255440106643
13.524000000000001,0.008367936019254051
13.528,0.008384644196587108
13.532,0.008389067656485357
13.536,0.00838123043949172
13.540000000000001,0.00838195165577948
13.544,0.008370291992460727
13.548,0.008420296321745275
13.552,0.00845265489252268
13.556000000000001,0.008390534129603798
13.56,0.008379571642029878
13.564,0.008390486048517947
13.568,0.008412723550723816
13.572000000000001,0.008420464605545753
13.576,0.008391856359464687
13.58,0.008367815816539424
13.584,0.00839712123836532
13.588000000000001,0.00839721740053702
13.592,0.008386735723821606
13.596,0.008419623186543369
13.6,0.00840625664467692
13.604000000000001,0.008410752226203945
13.608,0.00838428358844323
13.612,0.008383995101928126
13.616,0.008436740053106156
13.620000000000001,0.008449241135427292
13.624,0.0083884426023693
13.628,0.008374931817245301
13.632,0.008424623619471824
13.636000000000001,0.008443038675352574
13.64,0.008447606378508376
13.644,0.00841616134836213
13.648,0.008419382781114116
13.652000000000001,0.008426643025077545
13.656,0.008392265048694416
13.66,0.008391615954035436
13.664,0.008447390013622047
13.668000000000001,0.008419743389257994
13.672,0.008397914576281853
13.676,0.00837976396637328
13.68,0.00842839798471109
13.684000000000001,0.008482489206292932
13.688,0.008483522949638719
13.692,0.008422988862552905
13.696,0.008454770460300104
13.700000000000001,0.008476695435447943
13.704,0.008453376108810438
13.708,0.00841488719958709
13.712,0.008384932683102211
13.716000000000001,0.00842113774074766
13.72,0.00841690660519281
13.724,0.008374258682043395
13.728,0.008398635792569612
13.732000000000001,0.008449313257056069
13.736,0.00841757974039472
13.74,0.008416930645735737
13.744,0.008420392483916976
13.748000000000001,0.008459145839112501
13.752,0.008507443289849355
13.756,0.008476935840877196
13.76,0.008435033174558463
13.764000000000001,0.008471358434918535
13.768,0.008500255167514702
13.772,0.008482873854979736
13.776,0.008474555827127596
13.780000000000001,0.008441187553547329
13.784,0.008461646055576729
13.788,0.008454866622471805
13.792,0.008428542227968641
13.796000000000001,0.0084407788643176
13.8,0.008470492975373226
13.804,0.008408372212454343
13.808,0.00837336918195516
13.812000000000001,0.00839671254913559
13.816,0.008433542660897096
13.82,0.008457390879478957
13.824,0.00842940768751395
13.828,0.008403035211924936
13.832,0.008465300218101369
13.836,0.008487609841936012
13.84,0.008480614043944762
13.844,0.008495398977843798
13.848,0.008499077180911363
13.852,0.00850960693871263
13.856,0.008489629247541736
13.86,0.008480854449374013
13.864,0.008527853710792904
13.868,0.008480037070914555
13.872,0.00839844346822621
13.876,0.008401111968490914
13.88,0.008432869525695188
13.884,0.008450491243659406
13.888,0.008457006230792152
13.892,0.008390053318745292
13.896,0.008440490377802498
13.9,0.008485470233615665
13.904,0.008477128165220598
13.908,0.008451621149176894
13.912,0.00846900246171186
13.916,0.008462126866435235
13.92,0.008478618678881965
13.924,0.008458689068796921
13.928,0.008456501379390722
13.932,0.008520040534342193
13.936,0.008521507007460636
13.94,0.008441355837347807
13.944,0.008442197256350191
13.948,0.008500591735115656
13.952,0.00850376508678179
13.956,0.008498596370052859
13.96,0.008452029838406623
13.964,0.00847914757082632
13.968,0.00849696161313394
13.972,0.008450202757144303
13.976,0.008432124268864506
13.98,0.008464242434212657
13.984,0.008471502678176087
13.988,0.008466069515474977
13.992,0.008445731216160204
13.996,0.008479796665485302
14.0,0.008549081510195912
14.004,0.00852239650754887
14.008000000000001,0.00849239390997814
14.012,0.008491696734233308
14.016,0.008515905560959047
14.02,0.008525065007813575
14.024000000000001,0.008508525114280992
14.028,0.008473882691925687
14.032,0.008519126993711034
14.036,0.008515160304128364
14.040000000000001,0.008495615342730125
14.044,0.008512179276805632
14.048,0.00855016333462755
14.052,0.00848508558492886
14.056000000000001,0.008476214624589438
14.06,0.008468665894110905
14.064,0.008509126127854124
14.068,0.008557832267820708
14.072000000000001,0.008516939304304834
14.076,0.00849325936952345
14.08,0.008529969278570328
14.084,0.008562856741292087
14.088000000000001,0.008549538280511491
14.092,0.008511866749747604
14.096,0.008478835043768292
14.1,0.008534416779011502
14.104000000000001,0.0085092944116546
14.108,0.008460756555488494
14.112,0.008507226924963028
14.116,0.008536171738645047
14.120000000000001,0.008517227790819938
14.124,0.008508140465594187
14.128,0.008514775655441561
14.132,0.00855117303743041
14.136000000000001,0.008558625605737242
14.14,0.008492417950521065
14.144,0.008489557125912959
14.148,0.008538575792937573
14.152000000000001,0.008544225320525008
14.156,0.0085228051967786
14.16,0.008531724238203873
14.164,0.00854559563147175
14.168000000000001,0.00857547802632785
14.172,0.008560596930257113
14.176,0.00854391279346698
14.18,0.008612596624604457
14.184000000000001,0.008595648041842147
14.188,0.00855889005170942
14.192,0.008559178538224523
14.196,0.00856309714672134
14.200000000000001,0.00857538186415615
14.204,0.008573194174749952
14.208,0.008501625478461441
14.212,0.00851422272295428
14.216000000000001,0.008551846172632318
14.22,0.008539152765967778
14.224,0.008524391872611666
14.228,0.008523526413066357
14.232000000000001,0.008540354793114041
14.236,0.008536460225160148
14.24,0.008515208385214214
14.244,0.008519271236968586
14.248000000000001,0.008578242688764257
14.252,0.00854747079381992
14.256,0.008528983616310392
14.26,0.008536388103531373
14.264000000000001,0.00857862733745106
14.268,0.008580286134912903
14.272,0.008546845739703863
14.276,0.008512780290378764
14.280000000000001,0.008559082376052822
14.284,0.008578050364420855
14.288,0.008567688890420066
14.292,0.008581752608031346
14.296000000000001,0.008576728134559964
14.3,0.008578699459079837
14.304,0.008574588526239617
14.308,0.00853706123873328
14.312000000000001,0.008563265430521818
14.316,0.00860634608344389
14.32,0.008566679187617205
14.324,0.008544297442153785
14.328000000000001,0.008560236322113234
14.332,0.008603629502093334
14.336,0.008604062231865989
14.34,0.008546509172102909
14.344,0.008532685859920883
14.348,0.008593676717322276
14.352,0.00859096013597172
14.356,0.008566847471417682
14.36,0.008588700324936745
14.364,0.008592210244203834
14.368,0.0085936045956935
14.372,0.008596441379758681
14.376,0.0085844691893819
14.38,0.00859853290699318
14.384,0.00860680285375947
14.388,0.00853157999494632
14.392,0.00853833538750832
14.396,0.008576415607501936
14.4,0.008601033123457407
14.404,0.008609038624251518
14.408,0.008556894686646622
14.412,0.008546677455903385
14.416,0.008608653975564715
14.42,0.008617188368303184
14.424,0.00858999851425471
14.428,0.008599470488167263
14.432,0.008601658177573463
14.436,0.008611514800172821
14.44,0.008559659349083029
14.444,0.00856715999847571
14.448,0.008635699586355636
14.452,0.00863771899196136
14.456,0.00858538273001306
14.46,0.008585671216528163
14.464,0.008632574315775353
14.468,0.0086369977756736
14.472,0.00861903949010843
14.476,0.008566607065988429
14.48,0.008617188368303184
14.484,0.008639882640824633
14.488,0.008588916689823074
14.492,0.008587906987020213
14.496,0.00862000111182544
14.5,0.008599326244909713
14.504,0.008598797352965357
14.508000000000001,0.008575718431757104
14.512,0.00861000024596853
14.516,0.008675582847068649
14.52,0.008633175329348484
14.524000000000001,0.00857908410776664
14.528,0.008615673814098892
14.532,0.008642286695117159
14.536,0.008644810952124311
14.540000000000001,0.00862553043669825
14.544,0.008594758541753912
14.548,0.008608461651221313
14.552,0.008620842530827824
14.556000000000001,0.008600528272055976
14.56,0.008607067299731647
14.564,0.008656855264129869
14.568,0.008624400531180763
14.572000000000001,0.008598989677308759
14.576,0.008602018785717341
14.58,0.008624496693352465
14.584,0.008664644400037653
14.588000000000001,0.00861096186768554
14.592,0.008588820527651373
14.596,0.008629328842480442
14.6,0.0086528885745472
14.604000000000001,0.008653609790834958
14.608,0.008657095669559122
14.612,0.008636589086443871
14.616,0.00868363642894861
14.620000000000001,0.008675005874038442
14.624,0.008659908413081377
14.628,0.00866841876527692
14.632,0.008674140414493133
14.636000000000001,0.008631756937315894
14.64,0.008628150855877105
14.644,0.008636180397214142
14.648,0.00867156807640013
14.652000000000001,0.008671640198028905
14.656,0.008601562015401762
14.66,0.008593724798408127
14.664,0.00865476373689537
14.668000000000001,0.008661422967285668
14.672,0.008644546506152134
14.676,0.008658514061591712
14.68,0.008651133614913657
14.684000000000001,0.008659860331995527
14.688,0.008658562142677562
14.692,0.00864430610072288
14.696,0.008673563441462926
14.700000000000001,0.00867221717105911
14.704,0.008642238614031308
14.708,0.008633896545636241
14.712,0.008661182561856415
14.716000000000001,0.008690103334995508
14.72,0.008691593848656873
14.724,0.008621155057885852
14.728,0.008647888141618746
14.732000000000001,0.008686569375185494
14.736,0.008680463077282477
14.74,0.008657432237160074
14.744,0.00868075156379758
14.748000000000001,0.008697363578958938
14.752,0.008685535631839707
14.756,0.008652143317716517
14.76,0.008672169089973262
14.764000000000001,0.008707797174588501
14.768,0.008674981833495517
14.772,0.008604735367067897
14.776,0.008635699586355636
14.780000000000001,0.008695752862582944
14.784,0.008703782403919983
14.788,0.008692651632545585
14.792,0.008620746368656123
14.796000000000001,0.008664283791893775
14.8,0.008671688279114756
14.804,0.008623919720322257
14.808,0.008638608492049593
14.812000000000001,0.008659018912993142
14.816,0.008651686547400938
14.82,0.008636757370244347
14.824,0.008621395463315105
14.828000000000001,0.008671399792599652
14.832,0.0087280633522745
14.836,0.00867983802316642
14.84,0.008641998208602055
14.844000000000001,0.008667841792246713
14.848,0.00871409579683492
14.852,0.008721380081341277
14.856,0.008693060321775315
14.86,0.008648248749762624
14.864,0.008722822513916793
14.868,0.008718158648589292
14.872,0.008685223104781679
14.876,0.008705705647354003
14.88,0.008733977325834115
14.884,0.008710537796481982
14.888,0.008686112604869914
14.892,0.00867531840109647
14.896,0.008713711148148116
14.9,0.008773572100032023
14.904,0.0086872425103874
14.908,0.008635675545812712
14.912,0.008691497686485172
14.916,0.008720586743424743
14.92,0.008704143012063861
14.924,0.00866837068419107
14.928,0.008653417466491556
14.932,0.008697051051900908
14.936,0.008670005441109987
14.94,0.00866014881851063
14.944,0.00870130622799868
14.948,0.008686978064415223
14.952,0.008671832522372308
14.956,0.008668635130163247
14.96,0.008683275820804732
14.964,0.00872171664894223
14.968,0.00873349651497561
14.972,0.008670317968168017
14.976,0.008696954889729207
14.98,0.008738040177588485
14.984,0.008729914474079746
14.988,0.008717629756644935
14.992,0.00870207552537229
14.996,0.008702772701117122
15.0,0.008713951553577369
15.004,0.008716884499814254
15.008000000000001,0.00870628262038421
15.012,0.008768860153618671
15.016,0.008744483043092456
15.02,0.008687891605046382
15.024000000000001,0.008690367780967686
15.028,0.008713879431948592
15.032,0.008761912436713272
15.036,0.00874994024633649
15.040000000000001,0.008686665537357195
15.044,0.008705946052783256
15.048,0.008723423527489924
15.052,0.008743930110605175
15.056000000000001,0.00874130969142632
15.06,0.008717413391758608
15.064,0.008739530691249851
15.068,0.008757777463330126
15.072000000000001,0.00872618818992633
15.076,0.008716884499814254
15.08,0.008770014099679084
15.084,0.008744747489064633
15.088000000000001,0.008726861325128238
15.092,0.008712797607516956
15.096,0.008732967623031255
15.1,0.008763282747660011
15.104000000000001,0.008738352704646513
15.108,0.008688877267306319
15.112,0.008741934745542378
15.116,0.008765542558694986
15.120000000000001,0.008732438731086898
15.124,0.008732102163485944
15.128,0.008723663932919177
15.132,0.008730106798423148
15.136000000000001,0.00873303974466003
15.14,0.008679573577194242
15.144,0.008714720850950979
15.148,0.008753666530489906
15.152000000000001,0.008706931715043192
15.156,0.008719889567679912
15.16,0.008756936044327741
15.164,0.008795328791379387
15.168000000000001,0.008795136467035985
15.172,0.008724288987035233
15.176,0.008717389351215684
15.18,0.008767249437242679
15.184000000000001,0.008774822208264137
15.188,0.00874181454282775
15.192,0.008746502448698177
15.196,0.00875739281464332
15.200000000000001,0.008779245668162386
15.204,0.008781144871053482
15.208,0.008763210626031234
15.212,0.008812878387714829
15.216000000000001,0.008822085915655207
15.22,0.008760109395993877
15.224,0.008758546760703733
15.228,0.008788284912302284
15.232000000000001,0.00880744522501372
15.236,0.008816748915125797
15.24,0.008739122002020122
15.244,0.008757513017357948
15.248000000000001,0.008770062180764935
15.252,0.008755229165780047
15.256,0.008732823379773703
15.26,0.008774990492064615
15.264000000000001,0.008760109395993877
15.268,0.008742247272600406
15.272,0.00872989043353682
15.276,0.00873816038030311
15.280000000000001,0.008804031467918333
15.284,0.008800064778335663
15.288,0.008734938947551125
15.292,0.008739410488535224
15.296000000000001,0.008782611344171923
15.3,0.008785712574209282
15.304,0.008768331261674317
15.308,0.008709648296393747
15.312000000000001,0.008771696937683853
15.316,0.008810426252336452
15.32,0.008782106492770492
15.324,0.008765999329010565
15.328000000000001,0.008802276508284787
15.332,0.008790496642251408
15.336,0.008777538789614693
15.34,0.008751406719454931
15.344000000000001,0.008778957181647283
15.348,0.008854492567518461
15.352,0.008804416116605136
15.356,0.008746502448698177
15.36,0.00878064001965205
15.364,0.008822302280541533
15.368,0.00880987331984917
15.372,0.008794415250748228
15.376,0.008759604544592445
15.38,0.008807974116958075
15.384,0.00881557092852246
15.388,0.00877866869513218
15.392,0.008783092155030427
15.396,0.008811796563283193
15.4,0.008790256236822155
15.404,0.008775663627266521
15.408,0.008792900696543935
15.412,0.008822710969771263
15.416,0.008850405675221166
15.42,0.008792564128942982
15.424,0.008765254072179882
15.428,0.008815643050151235
15.432,0.008834923565577297
15.436,0.008799487805305458
15.44,0.008800160940507364
15.444,0.008787155006784798
15.448,0.008813455360745036
15.452,0.008795689399523266
15.456,0.00878054385748035
15.46,0.008816099820466815
15.464,0.008812133130884145
15.468,0.008794896061606732
15.472,0.008757753422787201
15.476,0.008750685503167172
15.48,0.008796242332010547
15.484,0.008822951375200516
15.488,0.008773043208087668
15.492,0.008766095491182267
15.496,0.008809440590076517
15.5,0.008831317484138507
15.504,0.00882713442966951
15.508000000000001,0.008807829873700523
15.512,0.008811411914596388
15.516,0.008844539782747402
15.52,0.008829634646133738
15.524000000000001,0.008814897793320552
15.528,0.008884326881288712
15.532,0.008870864177250566
15.536,0.008847520810070134
15.540000000000001,0.008818960645074921
15.544,0.008824586132119434
15.548,0.008845285039578085
15.552,0.008834010024946137
15.556000000000001,0.008754027138633784
15.56,0.00879840598087382
15.564,0.008826725740439781
15.568,0.008819585699190979
15.572000000000001,0.008809224225190189
15.576,0.008807685630442971
15.58,0.008839250863303843
15.584,0.008857617838098745
15.588000000000001,0.008823696632031199
15.592,0.008840260566106704
15.596,0.00890423245083083
15.6,0.008859084311217185
15.604000000000001,0.008825379470035966
15.608,0.008821340658824523
15.612,0.008855502270321322
15.616,0.008860045932934197
15.620000000000001,0.008867498501241028
15.624,0.008789535020534398
15.628,0.008828961510931831
15.632,0.008855694594664724
15.636000000000001,0.00881516223929273
15.64,0.00881917700996125
15.644,0.00881987418570608
15.648,0.008807228860127391
15.652000000000001,0.008824033199632151
15.656,0.008797564561871436
15.66,0.008818047104443762
15.664,0.008882547881112243
15.668000000000001,0.00883713529552642
15.672,0.008834082146574912
15.676,0.008857714000270446
15.68,0.008910338748733848
15.684000000000001,0.008914305438316516
15.688,0.00886677728495327
15.692,0.008826653618811006
15.696,0.008875215515520037
15.700000000000001,0.008892332382082825
15.704,0.008870623771821313
15.708,0.008864637676632921
15.712,0.008865695460521633
15.716000000000001,0.008858194811128952
15.72,0.008824874618634536
15.724,0.00881622002318144
15.728,0.008849155566989052
15.732000000000001,0.00888865417901526
15.736,0.008818311550415939
15.74,0.00878698672298432
15.744,0.008834635079062193
15.748000000000001,0.008858074608414325
15.752,0.00887358075860112
15.756,0.008856800459639286
15.76,0.008856920662353912
15.764000000000001,0.008903799721058175
15.768,0.00889149096308044
15.772,0.008863363527857883
15.776,0.008916060397950062
15.780000000000001,0.00890464114006056
15.784,0.008886899219381716
15.788,0.008859493000446915
15.792,0.008874326015431803
15.796000000000001,0.00890880015398663
15.8,0.008917310506182174
15.804,0.008851078810423072
15.808,0.00885704086506854
15.812000000000001,0.008912093708367392
15.816,0.008917550911611427
15.82,0.00890235728848266
15.824,0.00886357989274421
15.828000000000001,0.008885841435493005
15.832,0.008907189437610638
15.836,0.008885601030063752
15.84,0.008888726300644035
15.844000000000001,0.008953130915140817
15.848,0.008896515436551821
15.852,0.008865094446948501
15.856,0.008855430148692545
15.860000000000001,0.008887307908611445
15.864,0.008919546276674224
15.868,0.008893750774115415
15.872,0.008845669688264888
15.876,0.00886317120351448
15.88,0.008885817394950079
15.884,0.008885721232778377
15.888,0.008864397271203668
15.892,0.008822807131942964
15.896,0.008852905891685393
15.9,0.008856367729866631
15.904,0.008859156432845962
15.908,0.008883701827172656
15.912,0.008909064599958808
15.916,0.008863892419802238
15.92,0.008860021892391271
15.924,0.008877763813070115
15.928,0.008918488492785513
15.932,0.00892687864226643
15.936,0.008876802191353105
15.94,0.008845333120663936
15.944,0.008897501098811756
15.948,0.008926397831407924
15.952,0.008910026221675818
15.956,0.008900001315275984
15.96,0.008892380463168675
15.964,0.008931566548136856
15.968,0.008916637370980267
15.972,0.00889185157122432
15.976,0.008930364520990592
15.98,0.0089423607519103
15.984,0.008897477058268832
15.988,0.00887865331315835
15.992,0.008883100813599524
15.996,0.008902237085768034
16.0,0.008934619697088364
16.004,0.008878941799673454
16.008,0.008880720799849922
16.012,0.008902669815540689
16.016000000000002,0.008909617532446089
16.02,0.008898679085415095
16.024,0.008924450547430978
16.028,0.008906444180779955
16.032,0.008905001748204439
16.036,0.008899039693558973
16.04,0.008895337449948483
16.044,0.008950101806732233
16.048000000000002,0.008944452279144796
16.052,0.008887620435669473
16.056,0.008878989880759304
16.06,0.008913151492256103
16.064,0.008939427805673417
16.068,0.00893752860278232
16.072,0.00887307590719969
16.076,0.008894496030946098
16.080000000000002,0.008940701954448457
16.084,0.008934162926772784
16.088,0.008909930059504119
16.092,0.008924763074489006
16.096,0.008925508331319689
16.1,0.00893555727826245
16.104,0.008922599425625732
16.108,0.008935725562062926
16.112000000000002,0.00899118709459151
16.116,0.00896808413284033
16.12,0.008925171763718735
16.124,0.008928633601899974
16.128,0.008963444308055755
16.132,0.008973324971198038
16.136,0.008952025050166255
16.14,0.008893462287600313
16.144000000000002,0.008923080236484238
16.148,0.008943971468286292
16.152,0.008906804788923833
16.156,0.008902309207396809
16.16,0.008934980305232243
16.164,0.008934066764601083
16.168,0.008928849966786301
16.172,0.008895674017549437
16.176000000000002,0.00891418523560189
16.18,0.008943971468286292
16.184,0.008888726300644035
16.188,0.008878629272615426
16.192,0.008912622600311748
16.196,0.008951015347363393
16.2,0.008944860968374527
16.204,0.008921685884994573
16.208000000000002,0.00889540957157726
16.212,0.008934980305232243
16.216,0.008932071399538286
16.22,0.008907357721411114
16.224,0.008920700222734636
16.228,0.008930076034475489
16.232,0.00893017219664719
16.236,0.0089151468573189
16.240000000000002,0.008911468654251334
16.244,0.008954260820658304
16.248,0.009009001136899128
16.252,0.008951207671706795
16.256,0.008918055763012857
16.26,0.008963660672942082
16.264,0.008971113241248914
16.268,0.008968060092297406
16.272000000000002,0.00894337045471316
16.276,0.008921541641737021
16.28,0.00897250759273858
16.284,0.008945389860318882
16.288,0.008918632736043064
16.292,0.008964814619002495
16.296,0.00898224401262331
16.3,0.008943634900685338
16.304000000000002,0.008919041425272793
16.308,0.00893829790015593
16.312,0.008978397525755268
16.316,0.009009121339613756
16.32,0.008942144387023971
16.324,0.008956905280380083
16.328,0.0090065009204349
16.332,0.009015155515887998
16.336000000000002,0.008980705417876093
16.34,0.00896488674063127
16.344,0.008986547269806933
16.348,0.009003399690397542
16.352,0.008980104404302962
16.356,0.008951231712249721
16.36,0.008997894406067656
16.364,0.008985369283203594
16.368000000000002,0.008927191169324458
16.372,0.008941831859965943
16.376,0.008987172323922989
16.38,0.009017872097238554
16.384,0.008995610554489757
16.388,0.008937576683868171
16.392,0.008982388255880863
16.396,0.009034892801629639
16.4,0.009030565503903092
16.404,0.009012559137252069
16.408,0.008986451107635232
16.412,0.009014073691456362
16.416,0.009019987665015976
16.42,0.008969189997814892
16.424,0.008965343510946851
16.428,0.009019843421758425
16.432,0.00896178551059391
16.436,0.00893149442650808
16.44,0.008960944091591528
16.444,0.009014915110458746
16.448,0.009038162315467476
16.452,0.009001091798276717
16.456,0.008955078199117764
16.46,0.008995418230146355
16.464,0.009022584043651905
16.468,0.009003976663427749
16.472,0.009031118436390373
16.476,0.009055375344201963
16.48,0.009037969991124073
16.484,0.009032753193309291
16.488,0.00900544313654619
16.492,0.009035229369230593
16.496,0.009085906833717048
16.5,0.00901174175879261
16.504,0.0090107801370756
16.508,0.00902407455731327
16.512,0.009038378680353802
