0.0,-0.010934456300869342
0.004,-0.010932701341235798
0.008,-0.010938182585022757
0.012,-0.01093710076059112
0.016,-0.010936499747017988
0.02,-0.010937581571449626
0.024,-0.010935369841500502
0.028,-0.010938110463393982
0.032,-0.010936980557876494
0.036000000000000004,-0.01093522559824295
0.04,-0.010935586206386828
0.044,-0.010937701774164251
0.048,-0.010939120166196843
0.052000000000000005,-0.010940057747370929
0.056,-0.01094029815280018
0.06,-0.010939697139227048
0.064,-0.010939072085110992
0.068,-0.01094152422048937
0.07200000000000001,-0.010943759990981418
0.076,-0.010943351301751688
0.08,-0.010943399382837539
0.084,-0.010939745220312899
0.088,-0.01094258200437808
0.092,-0.010943639788266792
0.096,-0.010945418788443262
0.1,-0.010943663828809718
0.10400000000000001,-0.010941259774517192
0.108,-0.01094294261252196
0.112,-0.010945322626271561
0.116,-0.010945875558758842
0.12,-0.01094618808581687
0.124,-0.010946043842559318
0.128,-0.01094248584220638
0.132,-0.010946043842559318
0.136,-0.010947245869705581
0.14,-0.010946428491246123
0.14400000000000002,-0.01094852001848062
0.148,-0.010950587505172193
0.152,-0.010946765058847075
0.156,-0.010950274978114165
0.16,-0.010947991126536265
0.164,-0.010949169113139602
0.168,-0.010952847316207168
0.17200000000000001,-0.01095541965430017
0.176,-0.010955563897557722
0.18,-0.010954722478555338
0.184,-0.010955227329956768
0.188,-0.010954289748782684
0.192,-0.010954289748782684
0.196,-0.01095390510009588
0.2,-0.010955587938100649
0.20400000000000001,-0.010955491775928947
0.20800000000000002,-0.010953640654123702
0.212,-0.010953929140638804
0.216,-0.010958376641079978
0.22,-0.01096167019546074
0.224,-0.010963665560523536
0.228,-0.01096034796559985
0.232,-0.010960179681799373
0.23600000000000002,-0.010957487140991744
0.24,-0.010968641952909065
0.244,-0.010970036304398731
0.248,-0.010966454263502868
0.252,-0.010966598506760418
0.256,-0.010969843980055329
0.26,-0.010968834277252468
0.264,-0.01096578112830096
0.268,-0.010970565196343087
0.272,-0.0109694352908256
0.276,-0.010970156507113357
0.28,-0.010972151872176154
0.28400000000000003,-0.010973618345294596
0.28800000000000003,-0.010972873088463913
0.292,-0.010974195318324801
0.296,-0.010975998359044196
0.3,-0.010974724210269158
0.304,-0.010975517548185692
0.308,-0.010976238764473449
0.312,-0.010979147670167406
0.316,-0.010978041805192844
0.32,-0.010979315953967882
0.324,-0.010977921602478218
0.328,-0.010973834710180923
0.332,-0.010972007628918602
0.336,-0.010975733913072019
0.34,-0.010978594737680125
0.34400000000000003,-0.0109805660622
0.34800000000000003,-0.010981287278487756
0.352,-0.010979604440482987
0.356,-0.010979484237768362
0.36,-0.010979051507995705
0.364,-0.010980181413513194
0.368,-0.010976767656417804
0.372,-0.01098157576500286
0.376,-0.010981022832515579
0.38,-0.01098248930563402
0.384,-0.010979580399940063
0.388,-0.010980085251341493
0.392,-0.010981744048803336
0.396,-0.010979267872882031
0.4,-0.010978378372793798
0.404,-0.010978450494422573
0.40800000000000003,-0.010982681629977422
0.41200000000000003,-0.01098527800861335
0.41600000000000004,-0.010984075981467088
0.42,-0.01098436446798219
0.424,-0.010985975184358183
0.428,-0.010984532751782667
0.432,-0.010984075981467088
0.436,-0.01098715317096152
0.44,-0.010988787927880439
0.444,-0.010990542887513983
0.448,-0.010988739846794588
0.452,-0.01098619154924451
0.456,-0.010986912765532268
0.46,-0.010987970549420979
0.464,-0.010989677427968672
0.468,-0.010989172576567242
0.47200000000000003,-0.010987874387249278
0.47600000000000003,-0.010989172576567242
0.48,-0.010992802698548958
0.484,-0.010995807766414616
0.488,-0.010995639482614138
0.492,-0.010999341726224628
0.496,-0.011001986185946408
0.5,-0.011002418915719063
0.504,-0.011003765186122878
0.508,-0.011003500740150699
0.512,-0.01099979849654021
0.516,-0.011001409212916202
0.52,-0.011003332456350223
0.524,-0.011004005591552131
0.528,-0.011006193280958329
0.532,-0.011005255699784243
0.536,-0.011005928834986151
0.54,-0.011004149834809681
0.544,-0.011003452659064848
0.548,-0.011003572861779476
0.552,-0.011004702767296962
0.556,-0.011002010226489334
0.56,-0.011003572861779476
0.5640000000000001,-0.011004486402410635
0.5680000000000001,-0.011005351861955944
0.5720000000000001,-0.011007467429733369
0.5760000000000001,-0.011005904794443225
0.58,-0.011004005591552131
0.584,-0.011005448024127645
0.588,-0.011008597335250855
0.592,-0.011010087848912222
0.596,-0.011011337957144336
0.6,-0.01101095330845753
0.604,-0.011007948240591873
0.608,-0.011006145199872478
0.612,-0.011011914930174541
0.616,-0.011012756349176926
0.62,-0.011008909862308883
0.624,-0.011009751281311268
0.628,-0.011012804430262776
0.632,-0.011015665254870882
0.636,-0.01101451130881047
0.64,-0.0110103522948844
0.644,-0.011009270470452763
0.648,-0.011010712903028278
0.652,-0.011013381403292983
0.656,-0.011013693930351011
0.66,-0.01101318907894958
0.664,-0.0110126361464623
0.668,-0.011011987051803318
0.672,-0.011013934335780264
0.676,-0.01101455938989632
0.68,-0.011010736943571204
0.684,-0.011012828470805702
0.6880000000000001,-0.01101314099786373
0.6920000000000001,-0.01101314099786373
0.6960000000000001,-0.011014439187181695
0.7000000000000001,-0.011016146065729388
0.704,-0.011016362430615715
0.708,-0.011014895957497274
0.712,-0.011016314349529864
0.716,-0.011016410511701566
0.72,-0.011017059606360548
0.724,-0.011018045268620484
0.728,-0.011020281039112532
0.732,-0.011020088714769132
0.736,-0.01101903093088042
0.74,-0.01101679516038837
0.744,-0.01101674707930252
0.748,-0.011016025863014763
0.752,-0.011016314349529864
0.756,-0.01101907901196627
0.76,-0.011020184876940833
0.764,-0.011019776187711102
0.768,-0.01102095417431444
0.772,-0.01102456025575323
0.776,-0.011024680458467856
0.78,-0.011021843674402676
0.784,-0.011023694796207921
0.788,-0.011024440053038605
0.792,-0.011025954607242896
0.796,-0.011025209350412212
0.8,-0.011027805729048141
0.804,-0.011026098850500448
0.808,-0.011024728539553707
0.812,-0.011026459458644326
0.8160000000000001,-0.011026339255929699
0.8200000000000001,-0.011026820066788205
0.8240000000000001,-0.011025882485614119
0.8280000000000001,-0.011025329553126838
0.8320000000000001,-0.011026243093758
0.836,-0.011028695229136375
0.84,-0.011028310580449572
0.844,-0.011026170972129223
0.848,-0.011024920863897109
0.852,-0.011024079444894724
0.856,-0.011026820066788205
0.86,-0.011028190377734944
0.864,-0.011031291607772303
0.868,-0.011033383135006802
0.872,-0.011032036864602987
0.876,-0.011031556053744482
0.88,-0.01102953664813876
0.884,-0.01102593056669997
0.888,-0.011025041066611736
0.892,-0.01102456025575323
0.896,-0.0110264354181014
0.9,-0.011027372999275486
0.904,-0.011025401674755615
0.908,-0.011029248161623657
0.912,-0.011032902324148296
0.916,-0.011034945770296943
0.92,-0.011032661918719044
0.924,-0.011031532013201556
0.928,-0.011036027594728581
0.932,-0.011037277702960695
0.936,-0.01103638820287246
0.9400000000000001,-0.011034777486496467
0.9440000000000001,-0.011035763148756404
0.9480000000000001,-0.011033960108037009
0.9520000000000001,-0.011032469594375642
0.9560000000000001,-0.011038143162506004
0.96,-0.011039489432909819
0.964,-0.011041388635800915
0.968,-0.011040763581684857
0.972,-0.011039224986937641
0.976,-0.011039489432909819
0.98,-0.011038143162506004
0.984,-0.011037758513819199
0.988,-0.011039946203225398
0.992,-0.011037614270561649
0.996,-0.01103542658115545
1.0,-0.011042085811545747
1.004,-0.011039200946394715
1.008,-0.011038431649021107
1.012,-0.011038984581508388
1.016,-0.011038022959791378
1.02,-0.011038792257164986
1.024,-0.011038864378793763
1.028,-0.011039032662594239
1.032,-0.01103821528413478
1.036,-0.01103835952739233
1.04,-0.011036075675814432
1.044,-0.011042710865661803
1.048,-0.011046509271443995
1.052,-0.011047494933703932
1.056,-0.011044922595610927
1.06,-0.011043552284664188
1.064,-0.01104095590602826
1.068,-0.011040619338427307
1.072,-0.01104191752774527
1.076,-0.011043071473805684
1.08,-0.011043071473805684
1.084,-0.011040907824942409
1.088,-0.011044177338780246
1.092,-0.01104547552809821
1.096,-0.01104424946040902
1.1,-0.011042710865661803
1.104,-0.011044369663123646
1.108,-0.011049658582567205
1.112,-0.011048672920307269
1.116,-0.011047927663476585
1.12,-0.011046292906557668
1.124,-0.01104415329823732
1.1280000000000001,-0.011042398338603775
1.1320000000000001,-0.011043960973893917
1.1360000000000001,-0.01105050000156959
1.1400000000000001,-0.011050019190711084
1.1440000000000001,-0.011047951704019511
1.1480000000000001,-0.011045643811898686
1.1520000000000001,-0.011043263798149084
1.156,-0.011044898555068003
1.16,-0.011045956338956714
1.164,-0.011046268866014742
1.168,-0.011047326649903454
1.172,-0.011047927663476585
1.176,-0.011048961406822372
1.18,-0.011050908690799319
1.184,-0.011051293339486123
1.188,-0.011053144461291369
1.192,-0.01105319254237722
1.196,-0.011053937799207901
1.2,-0.01105292809640504
1.204,-0.01105369739377865
1.208,-0.011051101015142721
1.212,-0.011052038596316807
1.216,-0.011054009920836678
1.22,-0.011054082042465453
1.224,-0.011054130123551303
1.228,-0.011052351123374835
1.232,-0.011050980812428094
1.236,-0.011050524042112514
1.24,-0.011052230920660207
1.244,-0.01105288001531919
1.248,-0.01105247132608946
1.252,-0.011051798190887554
1.256,-0.011054346488437632
1.26,-0.01105562063721267
1.264,-0.011052783853147488
1.268,-0.011057712164447168
1.272,-0.011060476826883573
1.276,-0.011055500434498045
1.28,-0.011054683056038584
1.284,-0.01105566871829852
1.288,-0.011055235988525865
1.292,-0.011058745907792954
1.296,-0.011057231353588663
1.3,-0.011055909123727774
1.304,-0.011056870745444784
1.308,-0.01105968348896704
1.312,-0.011059539245709488
1.316,-0.011056389934586278
1.32,-0.011058024691505196
1.324,-0.011060909556656229
1.328,-0.011061438448600584
1.332,-0.011060789353941601
1.336,-0.011062063502716641
1.34,-0.011064467557009168
1.344,-0.011066222516642712
1.348,-0.011062520273032221
1.352,-0.011062592394660996
1.356,-0.01106151057022936
1.36,-0.011067713030304079
1.364,-0.011065789786870056
1.368,-0.01106480412461012
1.372,-0.011065405138183252
1.3760000000000001,-0.011065885949041758
1.3800000000000001,-0.011065044530039373
1.3840000000000001,-0.011065477259812028
1.3880000000000001,-0.011067424543788975
1.3920000000000001,-0.011065164732754
1.3960000000000001,-0.011063505935292157
1.4000000000000001,-0.01106292896226195
1.4040000000000001,-0.011066462922071965
1.408,-0.011064996448953522
1.412,-0.011064275232665765
1.416,-0.01106800151681918
1.42,-0.011068049597905031
1.424,-0.011068193841162583
1.428,-0.011069443949394697
1.432,-0.011071439314457494
1.436,-0.011071415273914567
1.44,-0.011070549814369259
1.444,-0.011064780084067196
1.448,-0.011070093044053679
1.452,-0.011072521138889131
1.456,-0.011069492030480547
1.46,-0.011069323746680071
1.464,-0.011070453652197557
1.468,-0.01107247305780328
1.472,-0.011072449017260354
1.476,-0.011070069003510754
1.48,-0.011070044962967828
1.484,-0.011072328814545729
1.488,-0.011070910422513137
1.492,-0.01107242497671743
1.496,-0.011072857706490084
1.5,-0.011070285368397081
1.504,-0.011069371827765922
1.508,-0.011075406004040162
1.512,-0.011076968639330304
1.516,-0.011073578922777843
1.52,-0.011074780949924106
1.524,-0.011077978342133164
1.528,-0.011076343585214248
1.532,-0.011074780949924106
1.536,-0.011077377328560033
1.54,-0.011077112882587855
1.544,-0.011075357922954311
1.548,-0.011075333882411387
1.552,-0.011076968639330304
1.556,-0.011076704193358126
1.56,-0.011077016720416154
1.564,-0.0110788678422214
1.568,-0.011080117950453513
1.572,-0.011078699558420923
1.576,-0.01108110361271345
1.58,-0.011080310274796916
1.584,-0.011085430910439996
1.588,-0.011084156761664958
1.592,-0.011081969072258759
1.596,-0.011080670882940794
1.6,-0.011081536342486105
1.604,-0.011082425842574338
1.608,-0.011081872910087057
1.612,-0.011080262193711065
1.616,-0.011077401369102959
1.62,-0.011078218747562417
1.624,-0.01107968522068086
1.6280000000000001,-0.011083315342662573
1.6320000000000001,-0.01108069492348372
1.6360000000000001,-0.011079781382852559
1.6400000000000001,-0.011080863207284197
1.6440000000000001,-0.011084589491437612
1.6480000000000001,-0.011086849302472588
1.6520000000000001,-0.01108617616727068
1.6560000000000001,-0.011088363856676879
1.6600000000000001,-0.011086152126727755
1.6640000000000001,-0.01108531070772537
1.668,-0.011084469288722986
1.672,-0.01108201715334461
1.676,-0.011079661180137933
1.68,-0.011082377761488488
1.684,-0.011084373126551285
1.688,-0.011085382829354146
1.692,-0.011085286667182444
1.696,-0.011085382829354146
1.7,-0.011086584856500409
1.704,-0.011085503032068773
1.708,-0.01108886870807831
1.712,-0.01108749839713157
1.716,-0.01108672909975796
1.72,-0.011087354153874018
1.724,-0.011086104045641905
1.728,-0.01108622424835653
1.732,-0.011091441046171312
1.736,-0.011093123884176081
1.74,-0.011092210343544922
1.744,-0.011089253356765114
1.748,-0.011090239019025049
1.752,-0.011090094775767497
1.756,-0.011088243653962252
1.76,-0.011089662045994843
1.764,-0.011093003681461454
1.768,-0.011090190937939198
1.772,-0.011088195572876401
1.776,-0.01108769072147497
1.78,-0.011090527505540152
1.784,-0.01109297964091853
1.788,-0.011094373992408195
1.792,-0.01109307580309023
1.796,-0.011092955600375605
1.8,-0.011093244086890707
1.804,-0.011087834964732523
1.808,-0.011092835397660978
1.812,-0.011094734600552074
1.816,-0.01109521541141058
1.82,-0.011093244086890707
1.824,-0.011095840465526636
1.828,-0.011095816424983711
1.832,-0.011094373992408195
1.836,-0.011094806722180849
1.84,-0.011095047127610102
1.844,-0.01109343641123411
1.848,-0.011092474789517099
1.852,-0.011096609762900243
1.856,-0.011097980073846984
1.86,-0.011099230182079098
1.864,-0.011096609762900243
1.868,-0.011095119249238878
1.872,-0.0110948548032667
1.8760000000000001,-0.01109398934372139
1.8800000000000001,-0.01109394126263554
1.8840000000000001,-0.01109855704687719
1.8880000000000001,-0.01110216312831598
1.8920000000000001,-0.011099855236195154
1.8960000000000001,-0.011097114614301675
1.9000000000000001,-0.011099662911851752
1.9040000000000001,-0.011100696655197539
1.9080000000000001,-0.011102018885058428
1.9120000000000001,-0.011103461317633944
1.9160000000000001,-0.011102692020260336
1.92,-0.011103870006863673
1.924,-0.011104975871838237
1.928,-0.011103100709490065
1.932,-0.0110994225064225
1.936,-0.01109759542516018
1.94,-0.01110124958768482
1.944,-0.011103268993290541
1.948,-0.011102812222974962
1.952,-0.011102427574288158
1.956,-0.011103341114919318
1.96,-0.011102451614831083
1.964,-0.011100312006510734
1.968,-0.011098244519819162
1.972,-0.011100023519995632
1.976,-0.011101033222798493
1.98,-0.0111017063580004
1.984,-0.011101874641800877
1.988,-0.011107908818075118
1.992,-0.011110048426395467
1.996,-0.011108341547847773
2.0,-0.011107355885587837
2.004,-0.011108918520877979
2.008,-0.011108293466761923
2.012,-0.011108966601963829
2.016,-0.011108413669476548
2.02,-0.01110545668269674
2.024,-0.01110257181754571
2.028,-0.011102091006687204
2.032,-0.01110759629101709
2.036,-0.01111038499399642
2.04,-0.01111079368322615
2.044,-0.011110264791281793
2.048,-0.011109086804678456
2.052,-0.01110718760178736
2.056,-0.011107668412645865
2.06,-0.011109447412822335
2.064,-0.011110096507481317
2.068,-0.011110937926483702
2.072,-0.011106995277443958
2.076,-0.0111085579127341
2.08,-0.01111170722385731
2.084,-0.011111635102228533
2.088,-0.011113005413175274
2.092,-0.011113798751091808
2.096,-0.011116178764841408
2.1,-0.01111810200827543
2.104,-0.011115433508010725
2.108,-0.011114159359235687
2.112,-0.011115625832354127
2.116,-0.011113317940233302
2.12,-0.011114688251180041
2.124,-0.011117308670358896
2.128,-0.0111177894812174
2.132,-0.011117044224386717
2.136,-0.011114664210637117
2.14,-0.01111317369697575
2.144,-0.011112548642859694
2.148,-0.011113101575346975
2.152,-0.01111637108918481
2.156,-0.011117933724474952
2.16,-0.011116972102757942
2.164,-0.011114736332265892
2.168,-0.011118799184020263
2.172,-0.011116996143300868
2.176,-0.011117212508187195
2.18,-0.011116058562126782
2.184,-0.011115746035068754
2.188,-0.011118582819133934
2.192,-0.011121058995055237
2.196,-0.011121972535686397
2.2,-0.011119255954335843
2.204,-0.01111829433261883
2.208,-0.011115096940409772
2.212,-0.011117525035245223
2.216,-0.011121515765370817
2.22,-0.011123390927718987
2.224,-0.011122116778943949
2.228,-0.011118895346191962
2.232,-0.011118991508363664
2.236,-0.01112221294111565
2.24,-0.011121323441027415
2.244,-0.01112089071125476
2.248,-0.011122862035774632
2.2520000000000002,-0.011119832927366048
2.2560000000000002,-0.011118703021848562
2.2600000000000002,-0.011120602224739658
2.2640000000000002,-0.011121419603199116
2.2680000000000002,-0.011120361819310405
2.2720000000000002,-0.01112134748157034
2.2760000000000002,-0.011124977603552055
2.2800000000000002,-0.01112541033332471
2.2840000000000003,-0.011126299833412944
2.2880000000000003,-0.011127069130786553
2.2920000000000003,-0.01112545841441056
2.2960000000000003,-0.011123463049347764
2.3000000000000003,-0.011122982238489258
2.3040000000000003,-0.011127405698387506
2.308,-0.011124929522466204
2.312,-0.01112312648174681
2.316,-0.011124376589978923
2.32,-0.01112545841441056
2.324,-0.011124424671064774
2.328,-0.011125530536039336
2.332,-0.01112504972518083
2.336,-0.0111245448737794
2.34,-0.011124328508893073
2.344,-0.011124713157579878
2.348,-0.011126227711784169
2.352,-0.011127862468703086
2.356,-0.011127910549788936
2.36,-0.011126997009157777
2.364,-0.011128583684990844
2.368,-0.011130338644624389
2.372,-0.011132502293487662
2.376,-0.011134113009863654
2.38,-0.011130915617654594
2.384,-0.011129953995937584
2.388,-0.011130218441909763
2.392,-0.011130506928424865
2.396,-0.011130627131139492
2.4,-0.011130050158109285
2.404,-0.011130266522995612
2.408,-0.01113043480679609
2.412,-0.011133343712490047
2.416,-0.011135266955924067
2.42,-0.011133560077376373
2.424,-0.011134281293664132
2.428,-0.011132646536745214
2.432,-0.011127549941645058
2.436,-0.011132021482629158
2.44,-0.011135579482982097
2.444,-0.01113262249620229
2.448,-0.011132790780002766
2.452,-0.011134185131492431
2.456,-0.011134281293664132
2.46,-0.011133752401719776
2.464,-0.011134786145065563
2.468,-0.011134353415292907
2.472,-0.011132742698916915
2.476,-0.011131949361000381
2.48,-0.011134906347780188
2.484,-0.011137671010216593
2.488,-0.011136613226327882
2.492,-0.011134305334207057
2.496,-0.011132718658373989
2.5,-0.011133872604434401
2.504,-0.01113505059103774
2.508,-0.011136396861441555
2.512,-0.011134497658550459
2.516,-0.011134786145065563
2.52,-0.0111359641316689
2.524,-0.01113555544243917
2.528,-0.011141229010569532
2.532,-0.01113870475356238
2.536,-0.011136637266870808
2.54,-0.011136324739812778
2.544,-0.01113920960496381
2.548,-0.011139642334736466
2.552,-0.011137911415645846
2.556,-0.011139041321163334
2.56,-0.011139930821251568
2.564,-0.011138969199534558
2.568,-0.01113723828044394
2.572,-0.01113779121293122
2.576,-0.01113819990216095
2.58,-0.011138848996819932
2.584,-0.0111382479832468
2.588,-0.011139714456365241
2.592,-0.011142935889117226
2.596,-0.011140507794281775
2.6,-0.011136036253297676
2.604,-0.011138007577817547
2.608,-0.011141373253827084
2.612,-0.01114108476731198
2.616,-0.011141253051112458
2.62,-0.01113966637527939
2.624,-0.01113697383447176
2.628,-0.011140435672653
2.632,-0.0111428156864026
2.636,-0.011142142551200693
2.64,-0.011144017713548863
2.644,-0.01114286376748845
2.648,-0.0111428156864026
2.652,-0.011144522564950294
2.656,-0.011144017713548863
2.66,-0.011146541970556015
2.664,-0.011146541970556015
2.668,-0.011148176727474934
2.672,-0.011147287227386699
2.676,-0.011145243781238053
2.68,-0.01114546014612438
2.684,-0.011145412065038529
2.688,-0.011147046821957447
2.692,-0.011148417132904187
2.696,-0.011149739362765075
2.7,-0.011149859565479703
2.704,-0.011146229443497987
2.708,-0.01114865753833344
2.712,-0.011150364416881133
2.716,-0.011149306632992422
2.72,-0.011149090268106093
2.724,-0.011148080565303232
2.728,-0.011148921984305617
2.732,-0.011151830889999574
2.736,-0.011152335741401004
2.74,-0.011149306632992422
2.744,-0.011148729659962215
2.748,-0.011150388457424058
2.7520000000000002,-0.011153105038774612
2.7560000000000002,-0.011150869268282564
2.7600000000000002,-0.011147695916616428
2.7640000000000002,-0.011146493889470165
2.7680000000000002,-0.011148128646389083
2.7720000000000002,-0.011149282592449496
2.7760000000000002,-0.011148417132904187
2.7800000000000002,-0.011150412497966984
2.7840000000000003,-0.011152335741401004
2.7880000000000003,-0.011153946457776997
2.7920000000000003,-0.011148489254532962
2.7960000000000003,-0.011149138349191944
2.8000000000000003,-0.011152936754974136
2.8040000000000003,-0.011152191498143452
2.8080000000000003,-0.01115199917380005
2.8120000000000003,-0.01115377817397652
2.816,-0.011154307065920875
2.82,-0.011152696349544883
2.824,-0.011151422200769845
2.828,-0.011151782808913723
2.832,-0.011152984836059986
2.836,-0.011152744430630733
2.84,-0.011157191931071907
2.844,-0.011158129512245993
2.848,-0.011157576579758712
2.852,-0.011155436971438363
2.856,-0.011157119809443132
2.86,-0.01115428302537795
2.864,-0.011154475349721353
2.868,-0.011155028282208634
2.872,-0.011155797579582242
2.876,-0.011158009309531366
2.88,-0.011155749498496391
2.884,-0.011153465646918492
2.888,-0.011158634363647424
2.892,-0.011159115174505928
2.896,-0.011160605688167295
2.9,-0.011159427701563958
2.904,-0.011156278390440748
2.908,-0.011156062025554421
2.912,-0.011153561809090193
2.916,-0.011157816985187965
2.92,-0.011159956593508312
2.924,-0.011160148917851715
2.928,-0.01115743233650116
2.932,-0.011157865066273816
2.936,-0.011158466079846947
2.94,-0.011157768904102115
2.944,-0.011161206701740426
2.948,-0.011163129945174448
2.952,-0.011162793377573494
2.956,-0.01116245680997254
2.96,-0.011164043485805608
2.964,-0.011164404093949486
2.968,-0.011165582080552825
2.972,-0.011160822053053623
2.976,-0.01115976426916491
2.98,-0.011159547904278583
2.984,-0.011163081864088598
2.988,-0.011166447540098134
2.992,-0.011166543702269835
2.996,-0.011166086931954256
3.0,-0.01116469258046459
3.004,-0.011164572377749963
3.008,-0.011160557607081444
3.012,-0.011160317201652191
3.016,-0.011158994971791302
3.02,-0.011161831755856484
3.024,-0.011165029148065544
3.028,-0.011167216837471742
3.032,-0.011169789175564746
3.036,-0.01117103928379686
3.04,-0.011168923716019435
3.044,-0.01116752936452977
3.048,-0.011165245512951871
3.052,-0.011164428134492413
3.056,-0.011166543702269835
3.06,-0.011167409161815144
3.064,-0.011166423499555208
3.068,-0.011165485918381124
3.072,-0.011169572810678418
3.076,-0.011168539067332632
3.08,-0.01116926028362039
3.084,-0.011169428567420866
3.088,-0.0111656542021816
3.092,-0.01116469258046459
3.096,-0.01116615905358303
3.1,-0.011168707351133109
3.104,-0.011169284324163316
3.108,-0.011170414229680802
3.112,-0.011173106770488432
3.116,-0.011173010608316731
3.12,-0.011172024946056795
3.124,-0.011170846959453458
3.128,-0.011171976864970944
3.132,-0.011172337473114823
3.136,-0.011169572810678418
3.14,-0.011168947756562362
3.144,-0.011170895040539308
3.148,-0.01116981321610767
3.152,-0.011163947323633907
3.156,-0.011171015243253934
3.16,-0.011172938486687954
3.164,-0.011172241310943123
3.168,-0.01117382798677619
3.172,-0.011173587581346936
3.176,-0.011173779905690339
3.18,-0.011175438703152182
3.184,-0.011177626392558383
3.188,-0.011177265784414504
3.192,-0.011176640730298448
3.196,-0.011172794243430404
3.2,-0.011172625959629926
3.204,-0.01117510213555123
3.208,-0.011178828419704646
3.212,-0.011179910244136284
3.216,-0.01117647244649797
3.22,-0.011174140513834217
3.224,-0.01117346737863231
3.228,-0.011172024946056795
3.232,-0.011174501121978098
3.236,-0.011176448405955046
3.24,-0.011176953257356476
3.244,-0.011178467811560767
3.248,-0.011176256081611642
3.2520000000000002,-0.011173852027319115
3.2560000000000002,-0.011174669405778574
3.2600000000000002,-0.011177506189843757
3.2640000000000002,-0.01117921306839145
3.2680000000000002,-0.011180463176623565
3.2720000000000002,-0.011178828419704646
3.2760000000000002,-0.011177578311472532
3.2800000000000002,-0.011177770635815935
3.2840000000000003,-0.01117483768957905
3.2880000000000003,-0.01117245767582945
3.2920000000000003,-0.011179261149477301
3.2960000000000003,-0.011180823784767443
3.3000000000000003,-0.01118108823073962
3.3040000000000003,-0.011180775703681593
3.3080000000000003,-0.011178924581876347
3.3120000000000003,-0.011180150649565537
3.3160000000000003,-0.011181160352368397
3.3200000000000003,-0.011178588014275393
3.3240000000000003,-0.011178852460247572
3.3280000000000003,-0.011179934284679208
3.332,-0.011178828419704646
3.336,-0.011181713284855678
3.34,-0.011182410460600511
3.344,-0.011181064190196696
3.348,-0.0111813526767118
3.352,-0.011180823784767443
3.356,-0.011181881568656155
3.36,-0.011183516325575073
3.364,-0.011185776136610048
3.368,-0.01118789170438747
3.372,-0.011186833920498759
3.376,-0.01118053529825234
3.38,-0.011180174690108461
3.384,-0.01118368460937555
3.388,-0.011182698947115615
3.392,-0.011182674906572689
3.396,-0.011183516325575073
3.4,-0.011183179757974119
3.404,-0.011183059555259493
3.408,-0.011183612487746774
3.412,-0.011182554703858063
3.416,-0.011183660568832625
3.42,-0.011184790474350111
3.424,-0.011185319366294468
3.428,-0.01118637715018318
3.432,-0.011187362812443116
3.436,-0.011185992501496374
3.44,-0.011185992501496374
3.444,-0.011187050285385086
3.448,-0.011184574109463784
3.452,-0.011182458541686362
3.456,-0.011182410460600511
3.46,-0.011185776136610048
3.464,-0.011187122407013863
3.468,-0.011187771501672845
3.472,-0.011188276353074275
3.476,-0.011188564839589379
3.48,-0.011186713717784133
3.484,-0.011185679974438346
3.488,-0.011186136744753926
3.492,-0.011185679974438346
3.496,-0.011187819582758695
3.5,-0.011190007272164893
3.504,-0.011188324434160126
3.508,-0.011187771501672845
3.512,-0.011184261582405756
3.516,-0.011190968893881905
3.52,-0.011191810312884288
3.524,-0.011193541231974908
3.528,-0.011194911542921647
3.532,-0.011195079826722125
3.536,-0.011195248110522601
3.54,-0.01119332486708858
3.544,-0.01119003131270782
3.548,-0.01119099293442483
3.552,-0.0111927719346013
3.556,-0.011192579610257897
3.56,-0.01119565679975233
3.564,-0.011194334569891442
3.568,-0.011191930515598915
3.572,-0.01119332486708858
3.576,-0.011193204664373953
3.58,-0.0111927719346013
3.584,-0.011189646664021015
3.588,-0.01118967070456394
3.592,-0.011190680407366801
3.596,-0.011188228271988425
3.6,-0.011187627258415293
3.604,-0.011191113137139457
3.608,-0.011193565272517834
3.612,-0.011193589313060758
3.616,-0.011192291123742794
3.62,-0.011193469110346133
3.624,-0.011196762664726892
3.628,-0.011195007705093348
3.632,-0.011195897205181583
3.636,-0.01119693094852737
3.64,-0.011196498218754715
3.644,-0.011195704880838181
3.648,-0.011195752961924032
3.652,-0.011198493583817512
3.656,-0.01119611357006791
3.66,-0.011192291123742794
3.664,-0.011193613353603683
3.668,-0.011196089529524986
3.672,-0.011198229137845335
3.676,-0.011198974394676018
3.68,-0.011197748326986829
3.684,-0.01119738771884295
3.688,-0.011196305894411313
3.692,-0.011195825083552808
3.696,-0.01119957540824915
3.7,-0.011199431164991598
3.704,-0.011199695610963775
3.708,-0.011201378448968544
3.712,-0.011202099665256302
3.716,-0.011198469543274586
3.72,-0.01119830125947411
3.724,-0.011200296624536907
3.728,-0.011203662300546443
3.732,-0.011201739057112423
3.736,-0.01119510386726505
3.74,-0.011201210165168066
3.744,-0.011204119070862023
3.748,-0.011201594813854871
3.7520000000000002,-0.01120099380028174
3.7560000000000002,-0.01120149865168317
3.7600000000000002,-0.011200777435395413
3.7640000000000002,-0.011199743692049626
3.7680000000000002,-0.011202844922086985
3.7720000000000002,-0.01120250835448603
3.7760000000000002,-0.011200464908337383
3.7800000000000002,-0.011196089529524986
3.7840000000000003,-0.011199623489334998
3.7880000000000003,-0.011203518057288891
3.7920000000000003,-0.01120378250326107
3.7960000000000003,-0.011200825516481262
3.8000000000000003,-0.011198685908160914
3.8040000000000003,-0.011199335002819897
3.8080000000000003,-0.011200825516481262
3.8120000000000003,-0.011199190759562345
3.8160000000000003,-0.011200512989423234
3.8200000000000003,-0.011202027543627525
3.8240000000000003,-0.011201859259827049
3.8280000000000003,-0.011204840287149782
3.8320000000000003,-0.011204912408778557
3.8360000000000003,-0.011203469976203041
3.84,-0.01120291704371576
3.844,-0.011205080692579033
3.848,-0.011205946152124344
3.852,-0.011208494449674422
3.856,-0.011210369612022592
3.86,-0.011210513855280144
3.864,-0.011209071422704628
3.868,-0.011204984530407334
3.872,-0.01120154673276902
3.876,-0.011207556868500336
3.88,-0.011208903138904151
3.884,-0.011208782936189524
3.888,-0.011208470409131496
3.892,-0.011209888801164086
3.896,-0.011211715882426407
3.9,-0.011209528193020207
3.904,-0.01120753282795741
3.908,-0.011207749192843739
3.912,-0.011209383949762656
3.916,-0.011209239706505104
3.92,-0.011210585976908919
3.924,-0.01120972051736361
3.928,-0.011208518490217347
3.932,-0.011207989598272992
3.936,-0.011207364544156934
3.94,-0.011210249409307966
3.944,-0.011211932247312734
3.948,-0.01121296599065852
3.952,-0.011213951652918457
3.956,-0.011213759328575055
3.96,-0.011210778301252321
3.964,-0.0112112350715679
3.968,-0.011211403355368379
3.972,-0.011208638692931972
3.976,-0.011208422328045645
3.98,-0.01121200436894151
3.984,-0.01121438438269111
3.988,-0.011211715882426407
3.992,-0.011212533260885865
3.996,-0.011213398720431176
4.0,-0.011208831017275375
4.0040000000000004,-0.011209023341618777
4.008,-0.011213951652918457
4.0120000000000005,-0.011217125004584591
4.016,-0.011216403788296834
4.0200000000000005,-0.01121529792332227
4.024,-0.011214216098890634
4.0280000000000005,-0.011215514288208599
4.032,-0.011215081558435943
4.0360000000000005,-0.011215634490923224
4.04,-0.011217629855986021
4.0440000000000005,-0.011217413491099695
4.048,-0.011213398720431176
4.0520000000000005,-0.011218014504672826
4.056,-0.01121753369381432
4.0600000000000005,-0.011218014504672826
4.064,-0.011219985829192697
4.0680000000000005,-0.011217822180329424
4.072,-0.011216740355897786
4.0760000000000005,-0.01121556236929445
4.08,-0.011214119936718933
4.0840000000000005,-0.01121520176115057
4.088,-0.011214576707034513
4.0920000000000005,-0.011214408423234037
4.096,-0.011218375112816705
4.1,-0.0112202743157078
4.104,-0.011217413491099695
4.108,-0.011218735720960583
4.112,-0.011218134707387452
4.116,-0.011218591477703032
4.12,-0.011220442599508277
4.124,-0.01121926461290494
4.128,-0.011220081991364398
4.132,-0.011219937748106847
4.136,-0.011214312261062336
4.14,-0.011214216098890634
4.144,-0.011219408856162492
4.148,-0.01122113977525311
4.152,-0.011221428261768213
4.156,-0.011221356140139437
4.16,-0.011220707045480454
4.164,-0.011220514721137054
4.168,-0.011221067653624335
4.172,-0.011218687639874733
4.176,-0.011217966423586976
4.18,-0.011220514721137054
4.184,-0.011222221599684747
4.188,-0.011223808275517813
4.192,-0.011222389883485223
4.196,-0.011220707045480454
4.2,-0.011223615951174413
4.204,-0.011221548464482839
4.208,-0.011220418558965353
4.212,-0.011222029275341345
4.216,-0.011223183221401757
4.22,-0.01122676526229762
4.224,-0.011227294154241977
4.228,-0.011225418991893808
4.232,-0.011226188289267415
4.236,-0.011229073154418446
4.24,-0.011229505884191101
4.244,-0.011230275181564709
4.248,-0.011228760627360418
4.252,-0.011228928911160896
4.256,-0.011228424059759465
4.26,-0.011225995964924013
4.264,-0.011224457370176796
4.268,-0.011224000599861216
4.272,-0.011222726451086178
4.276,-0.011224000599861216
4.28,-0.011223808275517813
4.284,-0.011225539194608433
4.288,-0.01122794324890096
4.292,-0.01122652485686837
4.296,-0.011224553532348497
4.3,-0.011223087059230056
4.304,-0.01122433716746217
4.308,-0.01122707778935565
4.312,-0.011227197992070276
4.316,-0.011230563668079813
4.32,-0.01123251095205676
4.324,-0.011231525289796823
4.328,-0.011230996397852468
4.332,-0.011228231735416063
4.336,-0.011227318194784902
4.34,-0.011222630288914476
4.344,-0.011229650127448653
4.348,-0.011230996397852468
4.352,-0.011230034776135458
4.356,-0.011231525289796823
4.36,-0.01123087619513784
4.364,-0.011229217397675998
4.368,-0.011229073154418446
4.372,-0.011229169316590147
4.376,-0.011230587708622739
4.38,-0.011231308924910496
4.384,-0.011229265478761848
4.388,-0.01123022710047886
4.392,-0.01122981841124913
4.396,-0.011231116600567094
4.4,-0.011234313992776154
4.404,-0.011231717614140225
4.408,-0.01123068387079444
4.412,-0.011235900668609222
4.416,-0.011237415222813513
4.42,-0.011234193790061528
4.424,-0.01123032326265056
4.428,-0.011228063451615585
4.432,-0.011230804073509066
4.436,-0.011234602479291258
4.44,-0.011234001465718126
4.444,-0.01123251095205676
4.448,-0.011233304289973293
4.452,-0.011229049113875521
4.456,-0.011232462870970909
4.46,-0.011234554398205407
4.464,-0.011230203059935934
4.468,-0.011230587708622739
4.472,-0.011232534992599685
4.476,-0.011233280249430367
4.48,-0.011235636222637044
4.484,-0.01123621319566725
4.488,-0.01123575642535167
4.492,-0.011235419857750716
4.496,-0.011232919641286488
4.5,-0.011235636222637044
4.5040000000000004,-0.011238521087788075
4.508,-0.0112408289799089
4.5120000000000005,-0.011240059682535292
4.516,-0.011235612182094118
4.5200000000000005,-0.011232318627713357
4.524,-0.01123428995223323
4.5280000000000005,-0.011236525722725278
4.532,-0.011236645925439905
4.5360000000000005,-0.011237006533583784
4.54,-0.011238424925616374
4.5440000000000005,-0.011238473006702224
4.548,-0.011236886330869156
4.5520000000000005,-0.011236910371412083
4.556,-0.011238160479644196
4.5600000000000005,-0.011237535425528139
4.564,-0.011234410154947855
4.5680000000000005,-0.011237078655212559
4.572,-0.011236645925439905
4.5760000000000005,-0.01123671804706868
4.58,-0.011240444331222097
4.5840000000000005,-0.011242006966512239
4.588,-0.011237535425528139
4.5920000000000005,-0.011239602912219713
4.596,-0.011239626952762637
4.6000000000000005,-0.011239795236563115
4.604,-0.011242006966512239
4.6080000000000005,-0.011240901101537677
4.612,-0.011243281115287277
4.616,-0.011243665763974082
4.62,-0.01124123766913863
4.624,-0.01124032412850747
4.628,-0.01124174252054006
4.632,-0.011240612615022573
4.636,-0.011241357871853257
4.64,-0.01124352152071653
4.644,-0.01124306475040095
4.648,-0.01124205504759809
4.652,-0.011244146574832586
4.656,-0.011246983358897768
4.66,-0.011247295885955796
4.664,-0.011247752656271376
4.668,-0.01124453122351939
4.672,-0.011241189588052779
4.676,-0.011239049979732432
4.68,-0.011240252006878695
4.684,-0.011242223331398566
4.688,-0.011241117466424004
4.692,-0.01123981927710604
4.696,-0.01124159827728251
4.7,-0.011239699074391414
4.704,-0.011245613047951028
4.708,-0.011247271845412871
4.712,-0.011246646791296814
4.716,-0.011249339332104443
4.72,-0.011246935277811917
4.724,-0.011246021737180758
4.728,-0.011245853453380281
4.732,-0.011248714277988387
4.736,-0.011248930642874714
4.74,-0.011247656494099676
4.744,-0.011247055480526544
4.748,-0.011247512250842124
4.752,-0.011247368007584573
4.756,-0.011247319926498722
4.76,-0.011248329629301583
4.764,-0.011248618115816686
4.768,-0.011248882561788864
4.772,-0.011252031872912073
4.776,-0.011251142372823838
4.78,-0.011250108629478051
4.784,-0.011251430859338942
4.788,-0.011250060548392202
4.792,-0.011250637521422408
4.796,-0.011250733683594109
4.8,-0.011251046210652137
4.804,-0.011250349034907304
4.808,-0.01124859407527376
4.812,-0.011241982925969313
4.816,-0.011247031439983618
4.82,-0.01124900276450349
4.824,-0.011251527021510643
4.828,-0.011251430859338942
4.832,-0.011249147007761041
4.836,-0.011251214494452615
4.84,-0.011250901967394585
4.844,-0.011249435494276145
4.848,-0.011251527021510643
4.852,-0.011249675899705398
4.856,-0.011248257507672808
4.86,-0.011250228832192679
4.864,-0.011251190453909689
4.868,-0.011252536724313504
4.872,-0.011249603778076621
4.876,-0.01124712760215532
4.88,-0.011247271845412871
4.884,-0.011249219129389818
4.888,-0.011251959751283297
4.892,-0.011253546427116365
4.896,-0.011255926440865966
4.9,-0.011256190886838144
4.904,-0.011256166846295218
4.908,-0.011256094724666443
4.912,-0.011254700373176777
4.916,-0.011255205224578207
4.92,-0.011254363805575823
4.924,-0.011250349034907304
4.928,-0.011255710075979638
4.932,-0.011257440995070258
4.936,-0.01125676785986835
4.94,-0.011255060981320656
4.944,-0.011253257940601261
4.948,-0.011256046643580592
4.952,-0.01125631108955277
4.956,-0.01125676785986835
4.96,-0.011256118765209367
4.964,-0.011256455332810321
4.968,-0.011254868656977255
4.972,-0.011257200589641005
4.976,-0.011256839981497126
4.98,-0.011255686035436713
4.984,-0.011257344832898556
4.988,-0.011257849684299987
4.992,-0.011255830278694265
4.996,-0.011257489076156108
5.0,-0.011259724846648157
5.0040000000000004,-0.011263451130801573
5.008,-0.011264196387632257
5.0120000000000005,-0.011259604643933531
5.016,-0.011257753522128286
5.0200000000000005,-0.011258859387102848
5.024,-0.011260902833251495
5.0280000000000005,-0.011260373941307139
5.032,-0.011257873724842913
5.0360000000000005,-0.011257561197784883
5.04,-0.011261840414425581
5.0440000000000005,-0.011263138603743545
5.048,-0.01126027777913544
5.0520000000000005,-0.01126051818456469
5.056,-0.011260686468365168
5.0600000000000005,-0.011258787265474073
5.064,-0.011263763657859601
5.0680000000000005,-0.011264220428175181
5.072,-0.01126316264428647
5.0760000000000005,-0.011261840414425581
5.08,-0.011260205657506663
5.0840000000000005,-0.011260614346736392
5.088,-0.01126229718474116
5.0920000000000005,-0.011263234765915247
5.096,-0.011259484441218905
5.1000000000000005,-0.011255998562494741
5.104,-0.01125539754892161
5.1080000000000005,-0.011258618981673595
5.112,-0.011259195954703802
5.1160000000000005,-0.011262417387455786
5.12,-0.011263739617316677
5.124,-0.011262225063112384
5.128,-0.011262321225284085
5.132,-0.011261359603567075
5.136,-0.011260734549451019
5.14,-0.01126179233333973
5.144,-0.01125996525207741
5.148,-0.011260446062935916
5.152,-0.01126083071162272
5.156,-0.011259941211534485
5.16,-0.011260181616963738
5.164,-0.011262489509084563
5.168,-0.011262321225284085
5.172,-0.011261551927910477
5.176,-0.011267345698755466
5.18,-0.011266552360838933
5.184,-0.01126580710400825
5.188,-0.011264821441748313
5.192,-0.011261888495511432
5.196,-0.011263980022745928
5.2,-0.011266744685182335
5.204,-0.011269244901646562
5.208,-0.011266576401381857
5.212,-0.011265951347265801
5.216,-0.011265542658036072
5.22,-0.01126316264428647
5.224,-0.011261143238680748
5.228,-0.011263571333516199
5.232,-0.011265734982379472
5.236,-0.011267417820384242
5.24,-0.011270374807164049
5.244,-0.011269172780017786
5.248,-0.01126773034744227
5.252,-0.011265614779664847
5.256,-0.011266432158124305
5.26,-0.011265927306722875
5.264,-0.011270735415307927
5.268,-0.011270254604449423
5.272,-0.011268379442101252
5.276,-0.011266937009525736
5.28,-0.011265542658036072
5.284,-0.011264004063288854
5.288,-0.011270495009878676
5.292,-0.011269821874676768
5.296,-0.01126996611793432
5.3,-0.011271192185623507
5.304,-0.011272322091140995
5.308,-0.011271096023451808
5.312,-0.011268980455674383
5.316,-0.01126955742870459
5.32,-0.011272875023628276
5.324,-0.011273451996658483
5.328,-0.011272971185799978
5.332,-0.011275158875206179
5.336,-0.011275447361721282
5.34,-0.011273355834486782
5.344,-0.011271793199196639
5.348,-0.011272562496570248
5.352,-0.011273355834486782
5.356,-0.011276024334751488
5.36,-0.011271672996482013
5.364,-0.011271288347795208
5.368,-0.01127458190217597
5.372,-0.011275783929322235
5.376,-0.011275038672491551
5.38,-0.011273788564259436
5.384,-0.011271456631595686
5.388,-0.011269292982732413
5.392,-0.011269749753047993
5.396,-0.011268475604272953
5.4,-0.011271793199196639
5.404,-0.011271817239739565
5.408,-0.011273019266885828
5.412,-0.01127220188842637
5.416,-0.011268114996129074
5.42,-0.011268355401558327
5.424,-0.011274365537289643
5.428,-0.011273980888602838
5.432,-0.011270326726078198
5.436,-0.011270158442277722
5.44,-0.01127234613168392
5.444,-0.011274894429234001
5.448,-0.011269389144904112
5.452,-0.011268211158300775
5.456,-0.011269701671962142
5.46,-0.011271047942365957
5.464,-0.011274149172403315
5.468,-0.011280664159536064
5.472,-0.01128210659211158
5.476,-0.011278308186329388
5.48,-0.011274918469776926
5.484,-0.011273307753400932
5.488,-0.01127672151049632
5.492,-0.011279726578361978
5.496,-0.011278236064700612
5.5,-0.011277562929498705
5.5040000000000004,-0.011279702537819054
5.508,-0.011277514848412854
5.5120000000000005,-0.011276913834839723
5.516,-0.011277995659271359
5.5200000000000005,-0.011280087186505857
5.524,-0.011281673862338925
5.5280000000000005,-0.011279702537819054
5.532,-0.011277755253842107
5.5360000000000005,-0.011283236497629067
5.54,-0.011279750618904905
5.5440000000000005,-0.011277827375470883
5.548,-0.011277418686241153
5.5520000000000005,-0.011274149172403315
5.556,-0.01127845242958694
5.5600000000000005,-0.011282635484055935
5.564,-0.011282827808399338
5.5680000000000005,-0.011281842146139401
5.572,-0.01127763505112748
5.5760000000000005,-0.011275543523892984
5.58,-0.011278428389044014
5.5840000000000005,-0.011279438091846875
5.588,-0.011281938308311102
5.5920000000000005,-0.011279774659447829
5.596,-0.011276360902352442
5.6000000000000005,-0.011279462132389801
5.604,-0.011281096889308718
5.6080000000000005,-0.011282322956997907
5.612,-0.011282371038083758
5.6160000000000005,-0.011281770024510626
5.62,-0.011281048808222867
5.6240000000000006,-0.011282322956997907
5.628,-0.01128225083536913
5.632,-0.011281361335280897
5.636,-0.011282178713740355
5.64,-0.011282491240798383
5.644,-0.011279438091846875
5.648,-0.011283332659800768
5.652,-0.011282154673197431
5.656,-0.011283092254371515
5.66,-0.011284125997717302
5.664,-0.01128225083536913
5.668,-0.011283260538171993
5.672,-0.011284558727489957
5.676,-0.01128398175445975
5.68,-0.011282683565141786
5.684,-0.011281433456909672
5.688,-0.011279510213475652
5.692,-0.011283164376000292
5.696,-0.01128302013274274
5.7,-0.01128297205165689
5.704,-0.011284702970747507
5.708,-0.011283909632830975
5.712,-0.011284871254547985
5.716,-0.011286049241151322
5.72,-0.011285376105949416
5.724,-0.01128667429526738
5.728,-0.011286794497982006
5.732,-0.011284414484232405
5.736,-0.011285496308664041
5.74,-0.011287804200784866
5.744,-0.011289390876617934
5.748,-0.011289294714446233
5.752,-0.01128910239010283
5.756,-0.01129032845779202
5.76,-0.011288333092729223
5.764,-0.011286337727666426
5.768,-0.011285929038436697
5.772,-0.011288164808928747
5.776,-0.011287323389926362
5.78,-0.011288525417072625
5.784,-0.011290496741592496
5.788,-0.011287876322413643
5.792,-0.011287563795355615
5.796,-0.0112885013765297
5.8,-0.011286530052009828
5.804,-0.011290809268650524
5.808,-0.011292107457968489
5.812,-0.011291578566024134
5.816,-0.011291867052539236
5.82,-0.01129037653887787
5.824,-0.011292732512084546
5.828,-0.011292179579597265
5.832,-0.011289246633360383
5.836,-0.011287852281870717
5.84,-0.011289943809105215
5.844,-0.011286842579067856
5.848,-0.011288934106302355
5.852,-0.011291650687652909
5.856,-0.011292948876970873
5.86,-0.011291025633536853
5.864,-0.011290304417249094
5.868,-0.011289222592817458
5.872,-0.011288765822501878
5.876,-0.011288188849471671
5.88,-0.01129129007950903
5.884,-0.011290592903764197
5.888,-0.011288982187388205
5.892,-0.011289943809105215
5.896,-0.011296747282753065
5.9,-0.011297853147727627
5.904,-0.011298983053245115
5.908,-0.01129814163424273
5.912,-0.011295497174520951
5.916,-0.011295473133978025
5.92,-0.011293646052715706
5.924,-0.011292371903940668
5.928,-0.011291602606567058
5.932,-0.01129179493091046
5.936,-0.011291434322766582
5.94,-0.011291915133625086
5.944,-0.011293501809458154
5.948,-0.011298261836957356
5.952,-0.011298285877500282
5.956,-0.011296338593523336
5.96,-0.011295473133978025
5.964,-0.011296939607096467
5.968,-0.011294415350089314
5.972,-0.011292612309369919
5.976,-0.011294150904117136
5.98,-0.011296242431351635
5.984,-0.011297516580126673
5.988,-0.011296218390808709
5.992,-0.011296002025922382
5.996,-0.011293549890544005
6.0,-0.011292059376882638
6.0040000000000004,-0.011294799998776119
6.008,-0.011302300648168801
6.0120000000000005,-0.011299439823560695
6.016,-0.011300209120934303
6.0200000000000005,-0.011299175377588516
6.024,-0.011297853147727627
6.0280000000000005,-0.011300617810164032
6.032,-0.0112999206344192
6.0360000000000005,-0.011299896593876275
6.04,-0.01129590586375068
6.0440000000000005,-0.01129448747171809
6.048,-0.011296795363838916
6.0520000000000005,-0.01129951194518947
6.056,-0.011304031567259419
6.0600000000000005,-0.011301339026451791
6.064,-0.011299584066818247
6.0680000000000005,-0.011297877188270551
6.072,-0.011296074147551157
6.0760000000000005,-0.011295641417778503
6.08,-0.011295256769091698
6.0840000000000005,-0.011295617377235577
6.088,-0.011299800431704574
6.0920000000000005,-0.011299391742474844
6.096,-0.011299367701931918
6.1000000000000005,-0.011298790728901713
6.104,-0.011297564661212523
6.1080000000000005,-0.011297155971982794
6.112,-0.01130169963459567
6.1160000000000005,-0.01130453641866085
6.12,-0.011303045904999484
6.1240000000000006,-0.011302517013055128
6.128,-0.011302132364368323
6.132000000000001,-0.011302805499570232
6.136,-0.011299199418131442
6.140000000000001,-0.011301074580479612
6.144,-0.011300401445277705
6.148,-0.011300593769621108
6.152,-0.011302877621199007
6.156,-0.011301675594052743
6.16,-0.011302565094140979
6.164,-0.011306555824266573
6.168,-0.01130484894571888
6.172,-0.01130407964834527
6.176,-0.0113022044859971
6.18,-0.011301074580479612
6.184,-0.01130097841830791
6.188,-0.011301964080567847
6.192,-0.011303190148257036
6.196,-0.011305473999834935
6.2,-0.011304656621375477
6.204,-0.011306676026981198
6.208,-0.011308719473129846
6.212,-0.011304800864633029
6.216,-0.011303334391514586
6.22,-0.011305714405264188
6.224,-0.011304728743004252
6.228,-0.011302348729254652
6.232,-0.011301266904823014
6.236,-0.011302348729254652
6.24,-0.011303887324001867
6.244,-0.011304752783547178
6.248,-0.011303142067171186
6.252,-0.011305281675491533
6.256,-0.011309536851589305
6.26,-0.011305522080920786
6.264,-0.011305978851236366
6.268,-0.01130773381086991
6.272,-0.011305690364721262
6.276,-0.011307373202726031
6.28,-0.011309945540819034
6.284,-0.011305233594405682
6.288,-0.011303454594229214
6.292,-0.011303454594229214
6.296,-0.011304800864633029
6.3,-0.011306796229695826
6.304,-0.011306796229695826
6.308,-0.011305209553862758
6.312,-0.011304776824090102
6.316,-0.011305233594405682
6.32,-0.011305305716034459
6.324,-0.011304824905175953
6.328,-0.01130626733775147
6.332,-0.011303767121287242
6.336,-0.01130321418879996
6.34,-0.011306651986438274
6.344,-0.011307084716210928
6.348,-0.011307397243268957
6.352,-0.011309176243445426
6.356,-0.011307349162183107
6.36,-0.011306123094493917
6.364,-0.011307204918925555
6.368,-0.011307805932498687
6.372,-0.011308142500099639
6.376,-0.011309657054303932
6.38,-0.011309128162359575
6.384,-0.01130900795964495
6.388,-0.011311051405793596
6.392,-0.011309729175932707
6.396,-0.011310234027334137
6.4,-0.011311628378823803
6.404,-0.011309584932675155
6.408,-0.011307926135213312
6.412,-0.011310642716563866
6.416,-0.01130859927041522
6.42,-0.0113113398923087
6.424,-0.011313383338457347
6.428,-0.011313022730313468
6.432,-0.011313936270944628
6.436,-0.011310907162536046
6.44,-0.011313191014113945
6.444,-0.011313767987144152
6.448,-0.011313647784429524
6.452,-0.011310450392220464
6.456,-0.011309248365074201
6.46,-0.011313046770856393
6.464,-0.011314248798002656
6.468,-0.011310738878735568
6.472,-0.011310498473306315
6.476,-0.011310137865162436
6.48,-0.011310859081450195
6.484,-0.011312782324884215
6.488,-0.011312133230225233
6.492,-0.011311556257195028
6.496,-0.011309536851589305
6.5,-0.01131239767619741
6.5040000000000004,-0.01131458536560361
6.508,-0.011313551622257823
6.5120000000000005,-0.011310642716563866
6.516,-0.011311964946424757
6.5200000000000005,-0.011316893257724435
6.524,-0.01131686921718151
6.5280000000000005,-0.011313840108772927
6.532,-0.011312974649227618
6.5360000000000005,-0.011314417081803134
6.54,-0.011314825771032863
6.5440000000000005,-0.01131509021700504
6.548,-0.011311700500452578
6.5520000000000005,-0.011312421716740337
6.556,-0.011314849811575788
6.5600000000000005,-0.011314921933204564
6.564,-0.011313455460086122
6.5680000000000005,-0.011314104554745104
6.572,-0.011314777689947013
6.5760000000000005,-0.01131266212216959
6.58,-0.01131321505465687
6.5840000000000005,-0.01131549890623477
6.588,-0.01131626820360838
6.5920000000000005,-0.011316724973923959
6.596,-0.011317590433469268
6.6000000000000005,-0.011318528014643354
6.604,-0.011320210852648121
6.6080000000000005,-0.011319417514731589
6.612,-0.01131960983907499
6.6160000000000005,-0.01132016277156227
6.62,-0.01132143692033731
6.6240000000000006,-0.01131965792016084
6.628,-0.011318383771385802
6.632000000000001,-0.011315883554921575
6.636,-0.011322638947483574
6.640000000000001,-0.011318984784958934
6.644,-0.011317422149668792
6.648000000000001,-0.011317951041613147
6.652,-0.01131778275781267
6.656000000000001,-0.011322711069112349
6.66,-0.011322158136625068
6.664,-0.01131864821735798
6.668,-0.011318071244327774
6.672,-0.011318768420072607
6.676,-0.011318503974100428
6.68,-0.011319850244504243
6.684,-0.011319730041789617
6.688,-0.011319537717446215
6.692,-0.011315138298090891
6.696,-0.011315859514378648
6.7,-0.01131970600124669
6.704,-0.011319489636360364
6.708,-0.011320715704049552
6.712,-0.01132042721753445
6.716,-0.011321292677079759
6.72,-0.011320715704049552
6.724,-0.011318912663330157
6.728,-0.011320451258077374
6.732,-0.011323840974629837
6.736,-0.011322783190741125
6.74,-0.01132134075816561
6.744,-0.011321316717622683
6.748,-0.011325115123404875
6.752,-0.011322542785311872
6.756,-0.011322903393455751
6.76,-0.011320499339163225
6.764,-0.011318576095729204
6.768,-0.01132001852830472
6.772,-0.011323985217887389
6.776,-0.011324369866574192
6.78,-0.01132463431254637
6.784,-0.01132427370440249
6.788,-0.01132362460974351
6.792,-0.01132403329897324
6.796,-0.011322542785311872
6.8,-0.011320595501334926
6.804,-0.011319633879617916
6.808,-0.011323937136801538
6.812,-0.011325355528834128
6.816,-0.011325523812634604
6.82,-0.011327543218240328
6.824,-0.011327711502040804
6.828,-0.01132545169100583
6.832,-0.01132646139380869
6.836,-0.011328288475071011
6.84,-0.011328625042671963
6.844,-0.011329490502217274
6.848,-0.011327014326295971
6.852,-0.011325836339692634
6.856,-0.01132696624521012
6.86,-0.011328048069641758
6.864,-0.011326389272179915
6.868,-0.011323889055715687
6.872,-0.011323985217887389
6.876,-0.011322206217710918
6.88,-0.011321220555450984
6.884,-0.011328408677785637
6.888,-0.011329803029275302
6.892,-0.011331005056421565
6.896,-0.011331702232166398
6.9,-0.011329250096788021
6.904,-0.011329322218416796
6.908,-0.011329322218416796
6.912,-0.01133062040773476
6.916,-0.011330380002305507
6.92,-0.011327519177697401
6.924,-0.011327975948012981
6.928,-0.011330380002305507
6.932,-0.011331221421307892
6.936,-0.01132965878601775
6.94,-0.01133107717805034
6.944,-0.01132824039398516
6.948,-0.011329298177873872
6.952,-0.011330139596876256
6.956,-0.011331365664565444
6.96,-0.01133138970510837
6.964,-0.01133134162402252
6.968,-0.011328673123757814
6.972,-0.011327615339869103
6.976,-0.011328576961586113
6.98,-0.011327999988555907
6.984,-0.01132773554258373
6.988,-0.011332471529540006
6.992,-0.011332471529540006
6.996,-0.011330428083391358
7.0,-0.011329538583303125
7.0040000000000004,-0.011330764650992312
7.008,-0.011330380002305507
7.0120000000000005,-0.01132499492069025
7.016,-0.011328721204843665
7.0200000000000005,-0.011334154367544775
7.024,-0.01133239940791123
7.0280000000000005,-0.011330211718505031
7.032,-0.011329923231989928
7.0360000000000005,-0.011329923231989928
7.04,-0.011332543651168783
7.0440000000000005,-0.011331630110537621
7.048,-0.01133285617822681
7.0520000000000005,-0.011330380002305507
7.056,-0.011330043434704555
7.0600000000000005,-0.011333481232342867
7.064,-0.011335909327178319
7.0680000000000005,-0.01133331294854239
7.072,-0.011331702232166398
7.0760000000000005,-0.011333649516143345
7.08,-0.011333336989085315
7.0840000000000005,-0.01133504386763301
7.088,-0.011335332354148112
7.0920000000000005,-0.011334611137860355
7.096,-0.011334611137860355
7.1000000000000005,-0.01133473134057498
7.104,-0.0113364622596656
7.1080000000000005,-0.011336606502923152
7.112,-0.011333409110714092
7.1160000000000005,-0.011331317583479593
7.12,-0.01133280809714096
7.1240000000000006,-0.011334563056774504
7.128,-0.011335356394691038
7.132000000000001,-0.011334370732431102
7.136,-0.011335741043377841
7.140000000000001,-0.011336125692064646
7.144,-0.011333649516143345
7.148000000000001,-0.011329442421131423
7.152,-0.011337976813869891
7.156000000000001,-0.011337976813869891
7.16,-0.011337784489526489
7.164000000000001,-0.011334611137860355
7.168,-0.01133372163777212
7.172,-0.011334058205373074
7.176,-0.011337111354324582
7.18,-0.011336366097493899
7.184,-0.011337063273238732
7.188,-0.011337159435410433
7.192,-0.011335332354148112
7.196,-0.011336846908352405
7.2,-0.011336774786723628
7.204,-0.011336943070524104
7.208,-0.011339395205902481
7.212,-0.011340693395220446
7.216,-0.01133783257061234
7.22,-0.01133468325948913
7.224,-0.011333841840486747
7.228,-0.011334923664918383
7.232,-0.011337736408440638
7.236,-0.011338625908528873
7.24,-0.01134057319250582
7.244,-0.01134006834110439
7.248,-0.011338770151786425
7.252,-0.011338770151786425
7.256,-0.011337135394867507
7.26,-0.01133326486745654
7.264,-0.011338866313958126
7.268,-0.01133934712481663
7.272,-0.01134194350345256
7.276,-0.011344612003717265
7.28,-0.011341679057480382
7.284,-0.01134011642219024
7.288,-0.01134148673313698
7.292,-0.011339539449160033
7.296,-0.011338313381470845
7.3,-0.011338673989614724
7.304,-0.01133956348970296
7.308,-0.011338962476129828
7.312,-0.011340092381647314
7.316,-0.011341703098023306
7.32,-0.01134011642219024
7.324,-0.011337135394867507
7.328,-0.011336894989438254
7.332,-0.011340861679020924
7.336,-0.011343458057656852
7.34,-0.011339779854589286
7.344,-0.011339635611331734
7.348,-0.011337447921925536
7.352,-0.011340597233048744
7.356,-0.011345717868691827
7.36,-0.01134518897674747
7.364,-0.011341751179109157
7.368,-0.011341414611508204
7.372,-0.011339130759930304
7.376,-0.011341054003364326
7.38,-0.011342231989967663
7.384,-0.011343145530598822
7.388,-0.01134290512516957
7.392,-0.011340741476306296
7.396,-0.011336077610978795
7.4,-0.011340020260018539
7.404,-0.011340380868162418
7.408,-0.011342376233225215
7.412,-0.011341775219652083
7.416,-0.011339371165359557
7.42,-0.01134285704408372
7.424,-0.011344780287517741
7.428,-0.011346222720093257
7.432,-0.011348097882441427
7.436,-0.011346078476835705
7.44,-0.011345309179462096
7.444,-0.011347568990497072
7.448,-0.01134564574706305
7.452,-0.011346487166065435
7.456,-0.011344924530775293
7.46,-0.011342352192682289
7.464,-0.011341895422366709
7.468,-0.011344299476659235
7.472,-0.011345164936204546
7.476,-0.01135052597727688
7.48,-0.011354396504687846
7.484,-0.011349420112302317
7.488,-0.011349516274474017
7.492,-0.01134970859881742
7.496,-0.011347184341810267
7.5,-0.01134523705783332
7.5040000000000004,-0.011344419679373862
7.508,-0.01134381866580073
7.5120000000000005,-0.011346270801179108
7.516,-0.011347040098552716
7.5200000000000005,-0.011346751612037612
7.524,-0.011346799693123463
7.5280000000000005,-0.011346799693123463
7.532,-0.011348121922984353
7.5360000000000005,-0.011349973044789598
7.54,-0.011351511639536814
7.5440000000000005,-0.011348987382529662
7.548,-0.011349468193388168
7.5520000000000005,-0.011346992017466865
7.556,-0.011346366963350809
7.5600000000000005,-0.011345838071406452
7.564,-0.011346679490408837
7.5680000000000005,-0.011347713233754622
7.572,-0.011346992017466865
7.5760000000000005,-0.011345886152492303
7.58,-0.011350357693476401
7.5840000000000005,-0.011352833869397705
7.588,-0.011352761747768928
7.5920000000000005,-0.011350958707049533
7.596,-0.01135030961239055
7.6000000000000005,-0.011348434450042381
7.604,-0.011347280503981969
7.6080000000000005,-0.011348987382529662
7.612,-0.011350285571847626
7.6160000000000005,-0.011352232855824573
7.62,-0.011349973044789598
7.6240000000000006,-0.011352785788311854
7.628,-0.011353627207314239
7.632000000000001,-0.011348963341986736
7.636,-0.011348458490585306
7.640000000000001,-0.011346342922807883
7.644,-0.011349107585244288
7.648000000000001,-0.011354757112831725
7.652,-0.011354612869574173
7.656000000000001,-0.011352857909940629
7.66,-0.011353651247857163
7.664000000000001,-0.011351223153021712
7.668,-0.011349636477188644
7.672000000000001,-0.011347761314840473
7.676,-0.011349444152845242
7.68,-0.01135098274759246
7.684,-0.011349107585244288
7.688,-0.011348554652757007
7.692,-0.011349997085332523
7.696,-0.011351151031392935
7.7,-0.011351223153021712
7.704,-0.011352521342339675
7.708,-0.011347641112125847
7.712,-0.011351752044966067
7.716,-0.011357738140154458
7.72,-0.011357810261783233
7.724,-0.011356031261606765
7.728,-0.011355935099435064
7.732,-0.011353723369485938
7.736,-0.011355406207490707
7.74,-0.01135427630197322
7.744,-0.011352761747768928
7.748,-0.01135391569382934
7.752,-0.011351054869221234
7.756,-0.011348771017643335
7.76,-0.01134980476098912
7.764,-0.011351631842251441
7.768,-0.01135199245039532
7.772,-0.011354083977629818
7.776,-0.011355478329119484
7.78,-0.011355478329119484
7.784,-0.011356367829207717
7.788,-0.01135391569382934
7.792,-0.011352641545054302
7.796,-0.011355766815634586
7.8,-0.011357497734725205
7.804,-0.011358771883500244
7.808,-0.011358050667212486
7.812,-0.011355959139977988
7.816,-0.011355406207490707
7.82,-0.011352689626140153
7.824,-0.011353074274826958
7.828,-0.011356848640066223
7.832,-0.011359565221416778
7.836,-0.011359997951189433
7.84,-0.011361560586479575
7.844,-0.01135797854558371
7.848,-0.011358098748298337
7.852,-0.011358002586126636
7.856,-0.01135802662666956
7.86,-0.011358868045671945
7.864,-0.011359685424131405
7.868,-0.011360478762047937
7.872,-0.011359324815987525
7.876,-0.011356872680609148
7.88,-0.011356223585950165
7.884,-0.011360070072818208
7.888,-0.011359324815987525
7.892,-0.011359084410558273
7.896,-0.011358627640242692
7.9,-0.011357858342869084
7.904,-0.011356247626493092
7.908,-0.011358459356442216
7.912,-0.011360647045848415
7.916,-0.011361776951365902
7.92,-0.011361560586479575
7.924,-0.011360358559333312
7.928,-0.011359420978159226
7.932,-0.011358603599699767
7.936,-0.01135783430232616
7.94,-0.011361272099964471
7.944,-0.01135980562684603
7.948,-0.011361776951365902
7.952,-0.01136432524891598
7.956,-0.011362738573082912
7.96,-0.01136290685688339
7.964,-0.011363075140683866
7.968,-0.011362426046024884
7.972,-0.011361536545936649
7.976,-0.011358411275356365
7.98,-0.011355959139977988
7.984,-0.011361103816163995
7.988,-0.011362305843310258
7.992,-0.011361608667565425
7.996,-0.011360286437704536
8.0,-0.011357690059068608
8.004,-0.011358194910470038
8.008000000000001,-0.011358651680785618
8.012,-0.011360887451277668
8.016,-0.011359541180873853
8.02,-0.011357810261783233
8.024000000000001,-0.011359853707931881
8.028,-0.011363027059598015
8.032,-0.011363531910999446
8.036,-0.011362762613625838
8.040000000000001,-0.011364084843486727
8.044,-0.01136213755950978
8.048,-0.011360094113361134
8.052,-0.011364757978688635
8.056000000000001,-0.01136382039751455
8.06,-0.011362930897426314
8.064,-0.011362714532539987
8.068,-0.01136300301905509
8.072000000000001,-0.011364205046201354
8.076,-0.011363243424484344
8.08,-0.011362017356795154
8.084,-0.011363531910999446
8.088000000000001,-0.011366344654521701
8.092,-0.011367210114067012
8.096,-0.011367186073524086
8.1,-0.011364036762400876
8.104000000000001,-0.011362882816340463
8.108,-0.011363628073171147
8.112,-0.01136523878954714
8.116,-0.011366633141036805
8.120000000000001,-0.011367546681667964
8.124,-0.011366585059950954
8.128,-0.011369902654874642
8.132,-0.011370383465733146
8.136000000000001,-0.011366897587008984
8.14,-0.011366344654521701
8.144,-0.011367402438410414
8.148,-0.011367594762753815
8.152000000000001,-0.011366464857236329
8.156,-0.011366176370721225
8.16,-0.011368147695241096
8.164,-0.011369109316958108
8.168000000000001,-0.011370623871162399
8.172,-0.011369830533245865
8.176,-0.011366945668094833
8.18,-0.01136249816765366
8.184000000000001,-0.011366873546466058
8.188,-0.011369493965644911
8.192,-0.011367835168183068
8.196,-0.011365575357148093
8.2,-0.011366777384294357
8.204,-0.011366488897779253
8.208,-0.011367739006011367
8.212,-0.011367594762753815
8.216,-0.01136894103315763
8.22,-0.011368508303384976
8.224,-0.011369157398043958
8.228,-0.011370792154962875
8.232,-0.0113729077227403
8.236,-0.011369421844016136
8.24,-0.011368123654698171
8.244,-0.011367330316781638
8.248,-0.011371369127993082
8.252,-0.01137346065522758
8.256,-0.011372715398396897
8.26,-0.011371056600935054
8.264,-0.011368412141213275
8.268,-0.011370119019760969
8.272,-0.01137382126337146
8.276,-0.011375456020290376
8.28,-0.011372426911881794
8.284,-0.011373701060656832
8.288,-0.011375119452689424
8.292,-0.011370143060303893
8.296,-0.01136925356021566
8.3,-0.011371873979394513
8.304,-0.01136898911424348
8.308,-0.011368243857412797
8.312,-0.011366873546466058
8.316,-0.011366176370721225
8.32,-0.011367402438410414
8.324,-0.011368844870985929
8.328,-0.01137067195224825
8.332,-0.01137067195224825
8.336,-0.011370311344104371
8.34,-0.011369878614331716
8.344,-0.011370407506276072
8.348,-0.011370455587361923
8.352,-0.011371152763106754
8.356,-0.01137432611477289
8.36,-0.011377307142095621
8.364,-0.011374734804002619
8.368,-0.011371801857765736
8.372,-0.011370912357677503
8.376,-0.011373893385000234
8.38,-0.011375648344633778
8.384,-0.011374133790429487
8.388,-0.011374278033687039
8.392,-0.011372619236225196
8.396,-0.011371922060480363
8.4,-0.011374205912058262
8.404,-0.01137067195224825
8.408,-0.011368243857412797
8.412,-0.011371465290164784
8.416,-0.011372835601111523
8.42,-0.011373580857942206
8.424,-0.011375912790605958
8.428,-0.011372955803826149
8.432,-0.01137487904726017
8.436,-0.0113774754258961
8.44,-0.011375215614861125
8.444,-0.011373797222828533
8.448,-0.011372378830795943
8.452,-0.011373989547171936
8.456,-0.011378677453042363
8.46,-0.011378364925984333
8.464,-0.011379254426072568
8.468,-0.011378076439469231
8.472,-0.011375167533775274
8.476,-0.011374734804002619
8.48,-0.011374614601287993
8.484,-0.011374061668800712
8.488,-0.011374638641830918
8.492,-0.011373989547171936
8.496,-0.011372763479482748
8.5,-0.011376417642007388
8.504,-0.011375047331060647
8.508000000000001,-0.011371753776679885
8.512,-0.011372859641654449
8.516,-0.01137254711459642
8.52,-0.011372859641654449
8.524000000000001,-0.011374109749886563
8.528,-0.011375359858118675
8.532,-0.011374518439116292
8.536,-0.011375047331060647
8.540000000000001,-0.011373340452512953
8.544,-0.011377235020466846
8.548,-0.011376561885264938
8.552,-0.01137483096617432
8.556000000000001,-0.01137711481775222
8.56,-0.011380504534304682
8.564,-0.011381754642536795
8.568,-0.011381898885794347
8.572000000000001,-0.011382692223710881
8.576,-0.011381898885794347
8.58,-0.011379278466615494
8.584,-0.011376008952777657
8.588000000000001,-0.01137793219621168
8.592,-0.011379038061186241
8.596,-0.011377235020466846
8.6,-0.011378076439469231
8.604000000000001,-0.011379182304443793
8.608,-0.011378581290870661
8.612,-0.01137944675041597
8.616,-0.011377763912411201
8.620000000000001,-0.011375528141919153
8.624,-0.011374133790429487
8.628,-0.01137853320978481
8.632,-0.011379206344986717
8.636000000000001,-0.011380600696476383
8.64,-0.01137843704761311
8.644,-0.011377283101552697
8.648,-0.011379134223357942
8.652000000000001,-0.011377956236754604
8.656,-0.011379615034216447
8.66,-0.011379230385529644
8.664,-0.011379879480188626
8.668000000000001,-0.011382523939910405
8.672,-0.01138040837213298
8.676,-0.011379615034216447
8.68,-0.01138209121013775
8.684000000000001,-0.01138112958842074
8.688,-0.011380456453218831
8.692,-0.011378725534128213
8.696,-0.01137725906100977
8.700000000000001,-0.011380336250504205
8.704,-0.011383942331942995
8.708,-0.011380167966703728
8.712,-0.011380889182991486
8.716,-0.011383317277826937
8.72,-0.011381730601993871
8.724,-0.011383750007599593
8.728,-0.011387187805237906
8.732,-0.011387139724152055
8.736,-0.011384567386059051
8.74,-0.011384399102258575
8.744,-0.01138497607528878
8.748,-0.011386394467321372
8.752,-0.011386875278179876
8.756,-0.011386418507864296
8.76,-0.011384302940086874
8.764,-0.011379687155845223
8.768,-0.011381081507334889
8.772,-0.011382716264253806
8.776,-0.011382451818281628
8.78,-0.011384158696829322
8.784,-0.011381826764165572
8.788,-0.011379302507158419
8.792,-0.011383173034569385
8.796,-0.011384302940086874
8.8,-0.011387187805237906
8.804,-0.011386130021349194
8.808,-0.011384711629316603
8.812,-0.011388197508040767
8.816,-0.011390120751474787
8.82,-0.011387909021525663
8.824,-0.011384182737372248
8.828,-0.011384230818458099
8.832,-0.011385264561803884
8.836,-0.011385577088861912
8.84,-0.01138533668343266
8.844,-0.011387692656639336
8.848,-0.011386394467321372
8.852,-0.011381874845251423
8.856,-0.011381730601993871
8.86,-0.011384086575200547
8.864,-0.011384639507687828
8.868,-0.011384807791488304
8.872,-0.011385889615919942
8.876,-0.011385192440175109
8.88,-0.011388101345869065
8.884,-0.011387259926866681
8.888,-0.011380937264077337
8.892,-0.011382572020996254
8.896,-0.011383533642713266
8.9,-0.01138487991311708
8.904,-0.011391394900249827
8.908,-0.011391226616449349
8.912,-0.011390625602876217
8.916,-0.011388654278356346
8.92,-0.011388053264783215
8.924,-0.011389183170300701
8.928,-0.011390168832560638
8.932,-0.011388149426954916
8.936,-0.01138579345374824
8.94,-0.011383750007599593
8.944,-0.011385480926690212
8.948,-0.011389183170300701
8.952,-0.01139177954893663
8.956,-0.011391178535363498
8.96,-0.011390577521790367
8.964,-0.011393149859883371
8.968,-0.01139031307581819
8.972,-0.011387860940439812
8.976,-0.011388606197270496
8.98,-0.011389663981159207
8.984,-0.011388461954012944
8.988,-0.01138858215672757
8.992,-0.011390914089391321
8.996,-0.011389736102787984
9.0,-0.011390914089391321
9.004,-0.011391683386764929
9.008000000000001,-0.011391995913822959
9.012,-0.011391346819163976
9.016,-0.011394351887029634
9.02,-0.011390433278532815
9.024000000000001,-0.011388221548583691
9.028,-0.011388341751298318
9.032,-0.0113867069943794
9.036,-0.01138766861609641
9.040000000000001,-0.011391034292105947
9.044,-0.011390962170477172
9.048,-0.011390216913646488
9.052,-0.011391082373191797
9.056000000000001,-0.011390577521790367
9.06,-0.01138935145410118
9.064,-0.011390120751474787
9.068,-0.011391178535363498
9.072000000000001,-0.011390144792017713
9.076,-0.011390264994732339
9.08,-0.011391298738078126
9.084,-0.011392861373368268
9.088000000000001,-0.011393750873456503
9.092,-0.011392765211196566
9.096,-0.011392765211196566
9.1,-0.011393318143683847
9.104000000000001,-0.011391611265136154
9.108,-0.01139223631925221
9.112,-0.011394544211373037
9.116,-0.011395121184403242
9.120000000000001,-0.011394303805943784
9.124,-0.011389760143330908
9.128,-0.011392500765224389
9.132,-0.011395674116890523
9.136000000000001,-0.011394856738431065
9.14,-0.011395409670918346
9.144,-0.011398607063127406
9.148,-0.011395866441233925
9.152000000000001,-0.011396924225122637
9.156,-0.011396491495349981
9.16,-0.011394952900602766
9.164,-0.011396419373721206
9.168000000000001,-0.011398318576612302
9.172,-0.01139863110367033
9.176,-0.011399616765930267
9.18,-0.011401588090450138
9.184000000000001,-0.011398919590185434
9.188,-0.011393726832913577
9.192,-0.011389976508217235
9.196,-0.01139543371146127
9.200000000000001,-0.01139766948195332
9.204,-0.011398294536069376
9.208,-0.011397236752180665
9.212,-0.011397861806296723
9.216000000000001,-0.01139858302258448
9.22,-0.011399664847016117
9.224,-0.011396635738607533
9.228,-0.011394544211373037
9.232,-0.011395000981688616
9.236,-0.011395626035804672
9.24,-0.011398150292811826
9.244,-0.011398847468556657
9.248,-0.011397885846839647
9.252,-0.0113981262522689
9.256,-0.011398366657698153
9.26,-0.011394399968115485
9.264,-0.011395505833090047
9.268,-0.011395794319605149
9.272,-0.011398246454983526
9.276,-0.011398246454983526
9.28,-0.011395722197976374
9.284,-0.011394279765400857
9.288,-0.011396948265665563
9.292,-0.011396227049377804
9.296,-0.011395073103317391
9.3,-0.011396876144036786
9.304,-0.011395193306032017
9.308,-0.011397765644125021
9.312,-0.011401251522849183
9.316,-0.01140000141461707
9.32,-0.011397597360324543
9.324,-0.011395601995261748
9.328,-0.01139548179254712
9.332,-0.011398102211725976
9.336,-0.01139913595507176
9.34,-0.011400458184932651
9.344,-0.01140077071199068
9.348,-0.011397525238695768
9.352,-0.011398847468556657
9.356,-0.0114003139416751
9.36,-0.011398823428013733
9.364,-0.011399304238872239
9.368,-0.011399736968644892
9.372,-0.01139675594132216
9.376,-0.011401612130993064
9.38,-0.011403174766283206
9.384,-0.01140178041479354
9.388,-0.011402092941851568
9.392,-0.011402116982394494
9.396,-0.011403871942028038
9.4,-0.011404641239401646
9.404,-0.011401419806649661
9.408,-0.011398222414440601
9.412,-0.011401251522849183
9.416,-0.011401419806649661
9.42,-0.01140355941497001
9.424,-0.011404184469086066
9.428,-0.011403775779856337
9.432,-0.011402381428366672
9.436,-0.011404160428543142
9.44,-0.011403631536598785
9.444,-0.011406828928807846
9.448,-0.011407862672153631
9.452,-0.011404304671800692
9.456,-0.011401419806649661
9.46,-0.011402717995967626
9.464,-0.01140355941497001
9.468,-0.011398462819869854
9.472,-0.011399328279415163
9.476,-0.01140182849587939
9.48,-0.011403487293341234
9.484,-0.011399280198329313
9.488,-0.011404136388000216
9.492,-0.011404641239401646
9.496,-0.011403775779856337
9.5,-0.01140223718510912
9.504,-0.011401419806649661
9.508000000000001,-0.011402116982394494
9.512,-0.011405338415146479
9.516,-0.011405963469262537
9.52,-0.011406300036863489
9.524000000000001,-0.011404641239401646
9.528,-0.011402934360853953
9.532,-0.011406828928807846
9.536,-0.01140767034781023
9.540000000000001,-0.01140639619903519
9.544,-0.011406324077406415
9.548,-0.011406780847721995
9.552,-0.011404569117772871
9.556000000000001,-0.011406973172065397
9.56,-0.011406468320663967
9.564,-0.011407429942380977
9.568,-0.0114118293617363
9.572000000000001,-0.01140767034781023
9.576,-0.01140401618528559
9.58,-0.011406780847721995
9.584,-0.011411156226534392
9.588000000000001,-0.011406372158492266
9.592,-0.011404304671800692
9.596,-0.01140589134763376
9.6,-0.011407141455865874
9.604000000000001,-0.011406444280121041
9.608,-0.011405674982747433
9.612,-0.011407694388353155
9.616,-0.011407213577494649
9.620000000000001,-0.011408247320840436
9.624,-0.011413055429425488
9.628,-0.011411564915764122
9.632,-0.011408295401926286
9.636000000000001,-0.01140680488826492
9.64,-0.011407093374780023
9.644,-0.011408607928984314
9.648,-0.011410483091332486
9.652000000000001,-0.011410699456218813
9.656,-0.011412430375309432
9.66,-0.011410194604817382
9.664,-0.01140538649623233
9.668000000000001,-0.011408463685726762
9.672,-0.011408030955954109
9.676,-0.01141096390219099
9.68,-0.011410122483188607
9.684000000000001,-0.011410699456218813
9.688,-0.011409281064186223
9.692,-0.011410098442645681
9.696,-0.011408391564097987
9.700000000000001,-0.011409569550701326
9.704,-0.0114118293617363
9.708,-0.01141101198327684
9.712,-0.011412935226710863
9.716000000000001,-0.011411372591420721
9.72,-0.011411757240107524
9.724,-0.011411228348163169
9.728,-0.011410074402102757
9.732,-0.011405626901661583
9.736,-0.011413103510511339
9.74,-0.011413896848427873
9.744,-0.011410218645360307
9.748,-0.011411156226534392
9.752,-0.011409353185814998
9.756,-0.011407405901838051
9.76,-0.011409064699299894
9.764,-0.01141005036155983
9.768,-0.011409713793958876
9.772,-0.011410819658933438
9.776,-0.011409232983100372
9.78,-0.011413416037569367
9.784,-0.01141274290236746
9.788,-0.011411492794135347
9.792,-0.011411925523908002
9.796,-0.011411588956307048
9.8,-0.011410338848074934
9.804,-0.011409617631787175
9.808,-0.011408944496585268
9.812,-0.011408367523555063
9.816,-0.011406756807179069
9.82,-0.011410290766989083
9.824,-0.011412430375309432
9.828,-0.011410675415675888
9.832,-0.011411901483365076
9.836,-0.011408295401926286
9.84,-0.01140853580735554
9.844,-0.011409833996673504
9.848,-0.011416252821634549
9.852,-0.011413896848427873
9.856,-0.011413632402455695
9.86,-0.011412574618566984
9.864,-0.011411685118478749
9.868,-0.011413127551054265
9.872,-0.011412574618566984
9.876,-0.01141466614580148
9.88,-0.011416421105435025
9.884,-0.011416421105435025
9.888,-0.011413872807884947
9.892,-0.011413752605170321
9.896,-0.011415219078288762
9.9,-0.011415459483718015
9.904,-0.011414137253857126
9.908,-0.011415603726975566
9.912,-0.011414041091685425
9.916,-0.011414065132228349
9.92,-0.01141685383520768
9.924,-0.011418031821811017
9.928,-0.01141781545692469
9.932,-0.011416637470321353
9.936,-0.011415747970233118
9.94,-0.011414257456571751
9.944,-0.011414497862001004
9.948,-0.0114163009027204
9.952,-0.01141512291611706
9.956,-0.01141370452408447
9.96,-0.011416709591950128
9.964,-0.011415507564803865
9.968,-0.011414257456571751
9.972,-0.011413512199741068
9.976,-0.011409617631787175
9.98,-0.011411204307620243
9.984,-0.011419882943616263
9.988,-0.011419426173300683
9.992,-0.011419450213843609
9.996,-0.01141908960569973
10.0,-0.011416829794664754
10.004,-0.0114185847542983
10.008000000000001,-0.011420652240989872
10.012,-0.01142187830867906
10.016,-0.011419666578729936
10.02,-0.011420243551760143
10.024000000000001,-0.011420171430131366
10.028,-0.011419858903073338
10.032,-0.011418704957012926
10.036,-0.011417623132581288
10.040000000000001,-0.011418344348869047
10.044,-0.011418031821811017
10.048,-0.011418849200270477
10.052,-0.01141822414615442
10.056000000000001,-0.0114163009027204
10.06,-0.01142000314633089
10.064,-0.011417406767694961
10.068,-0.011414545943086855
10.072000000000001,-0.011415195037745837
10.076,-0.011417142321722784
10.08,-0.011416949997379381
10.084,-0.011418031821811017
10.088000000000001,-0.011419281930043131
10.092,-0.01141735868660911
10.096,-0.011425219944145672
10.1,-0.011425195903602747
10.104000000000001,-0.011421661943792733
10.108,-0.011422070633022462
10.112,-0.011420988808590826
10.116,-0.01142233507899464
10.120000000000001,-0.011422791849310221
10.124,-0.011421253254563004
10.128,-0.011422984173653622
10.132,-0.011423993876456484
10.136000000000001,-0.011422166795194163
10.14,-0.011421758105964434
10.144,-0.011418103943439794
10.148,-0.01141562776751849
10.152000000000001,-0.011420123349045515
10.156,-0.011418753038098776
10.16,-0.011419810821987487
10.164,-0.011420195470674292
10.168000000000001,-0.011421517700535181
10.172,-0.011423801552113082
10.176,-0.01142512378197397
10.18,-0.011425243984688596
10.184000000000001,-0.011426061363148056
10.188,-0.011422599524966819
10.192,-0.011421589822163958
10.196,-0.011420676281532796
10.200000000000001,-0.011421301335648854
10.204,-0.0114209647680479
10.208,-0.011420387795017695
10.212,-0.011421109011305452
10.216000000000001,-0.011422936092567771
10.22,-0.011422912052024847
10.224,-0.011422767808767295
10.228,-0.011425243984688596
10.232000000000001,-0.011424979538716419
10.236,-0.011425965200976355
10.24,-0.011426782579435813
10.244,-0.0114278163227816
10.248,-0.011424546808943765
10.252,-0.011426325809120234
10.256,-0.011428874106670312
10.26,-0.011427215309208469
10.264,-0.011424883376544718
10.268,-0.011424402565686213
10.272,-0.011426157525319757
10.276,-0.011427840363324525
10.28,-0.011425556511746626
10.284,-0.011427167228122618
10.288,-0.011428393295811806
10.292,-0.011425195903602747
10.296,-0.01142512378197397
10.3,-0.011427888444410375
10.304,-0.011426518133463636
10.308,-0.011423825592656006
10.312,-0.011421181132934227
10.316,-0.01142101284913375
10.32,-0.011423969835913558
10.324,-0.011425364187403224
10.328,-0.011428176930925479
10.332,-0.011426133484776831
10.336,-0.0114209647680479
10.34,-0.011421109011305452
10.344,-0.01142598924151928
10.348,-0.011426518133463636
10.352,-0.011426782579435813
10.356,-0.011425003579259345
10.36,-0.011423777511570156
10.364,-0.011427071065950917
10.368,-0.011427840363324525
10.372,-0.011427888444410375
10.376,-0.011428657741783985
10.38,-0.011425219944145672
10.384,-0.011424859336001793
10.388,-0.011425844998261728
10.392,-0.011426734498349963
10.396,-0.011426614295635337
10.4,-0.011426686417264112
10.404,-0.011426205606405608
10.408,-0.011426878741607515
10.412,-0.011428609660698134
10.416,-0.011429979971644874
10.42,-0.011429258755357117
10.424,-0.011426614295635337
10.428,-0.011423969835913558
10.432,-0.011423729430484305
10.436,-0.011424931457630568
10.44,-0.011426878741607515
10.444,-0.011426782579435813
10.448,-0.011425436309031999
10.452,-0.011425628633375401
10.456,-0.011429475120243443
10.46,-0.011425700755004178
10.464,-0.01142603732260513
10.468,-0.011429378958071742
10.472,-0.011428489457983507
10.476,-0.011429451079700517
10.48,-0.011429931890559023
10.484,-0.011429979971644874
10.488,-0.011427912484953302
10.492,-0.011429571282415145
10.496,-0.01143288887733883
10.5,-0.011434451512628972
10.504,-0.011432456147566175
10.508000000000001,-0.011430845431190183
10.512,-0.011431783012364269
10.516,-0.011430605025760932
10.52,-0.011430605025760932
10.524000000000001,-0.01143192725562182
10.528,-0.011434451512628972
10.532,-0.01143361009362659
10.536,-0.011435509296517684
10.540000000000001,-0.011434499593714823
10.544,-0.011435509296517684
10.548,-0.011434908282944552
10.552,-0.011432768674624205
10.556000000000001,-0.011431494525849165
10.56,-0.01142877794449861
10.564,-0.011429306836442967
10.568,-0.01143603818846204
10.572000000000001,-0.011435004445116253
10.576,-0.011434691918058225
10.58,-0.011435413134345984
10.584,-0.011435413134345984
10.588000000000001,-0.011437696985923883
10.592,-0.011438201837325314
10.596,-0.011435316972174283
10.6,-0.011434908282944552
10.604000000000001,-0.011434427472086048
10.608,-0.011432504228652026
10.612,-0.011434331309914347
10.616,-0.0114369517290932
10.620000000000001,-0.01143361009362659
10.624,-0.011433225444939785
10.628,-0.011434187066656795
10.632,-0.0114369517290932
10.636000000000001,-0.011438706688726744
10.64,-0.011435220810002582
10.644,-0.011432985039510532
10.648,-0.011433898580141691
10.652000000000001,-0.011433946661227542
10.656,-0.011432768674624205
10.66,-0.011432215742136924
10.664,-0.011433081201682233
10.668000000000001,-0.011433393728740261
10.672,-0.011435629499232311
10.676,-0.0114392355806711
10.68,-0.011437793148095584
10.684000000000001,-0.01143745658049463
10.688,-0.01143776910755266
10.692,-0.011436302634434218
10.696,-0.01143284079625298
10.700000000000001,-0.011434980404573329
10.704,-0.011437745067009734
10.708,-0.011436831526378574
10.712,-0.011437144053436602
10.716000000000001,-0.011435605458689385
10.72,-0.011433057161139307
10.724,-0.011433922620684617
10.728,-0.011433105242225157
10.732000000000001,-0.011433946661227542
10.736,-0.011435220810002582
10.74,-0.011435869904661564
10.744,-0.01143406686394217
10.748000000000001,-0.011435509296517684
10.752,-0.011434595755886524
10.756,-0.011433465850369038
10.76,-0.011433009080053458
10.764,-0.011432720593538354
10.768,-0.011435773742489863
10.772,-0.011433898580141691
10.776,-0.01143233594485155
10.78,-0.011432936958424681
10.784,-0.011435942026290339
10.788,-0.0114392355806711
10.792,-0.011437745067009734
10.796,-0.011438418202211642
10.8,-0.011438442242754567
10.804,-0.011438297999497015
10.808,-0.011437095972350752
10.812,-0.011436014147919116
10.816,-0.01143791335081021
10.82,-0.011437745067009734
10.824,-0.01143649495877762
10.828,-0.01143772102646681
10.832,-0.01143822587786824
10.836,-0.011438418202211642
10.84,-0.011438874972527222
10.844,-0.011440221242931037
10.848,-0.011440894378132943
10.852,-0.011440822256504168
10.856,-0.011439836594244232
10.86,-0.011438899013070146
10.864,-0.01143690364800735
10.868,-0.01143654303986347
10.872,-0.011436711323663947
10.876,-0.01143781718863851
10.88,-0.011442192567450908
10.884,-0.011440942459218794
10.888,-0.011440726094332467
10.892,-0.011438610526555043
10.896,-0.01143781718863851
10.9,-0.011440461648360288
10.904,-0.011443274391882544
10.908,-0.011442817621566964
10.912,-0.011438947094155997
10.916,-0.011438899013070146
10.92,-0.011438249918411164
10.924,-0.011437696985923883
10.928,-0.011440870337590017
10.932,-0.011440509729446139
10.936,-0.011440269324016886
10.94,-0.011439956796958858
10.944,-0.011437624864295108
10.948,-0.011444548540657584
10.952,-0.011445918851604323
10.956,-0.011442192567450908
10.96,-0.01144115882410512
10.964,-0.011443875405455675
10.968,-0.01144014912130226
10.972,-0.011440365486188587
10.976,-0.011443106108082067
10.98,-0.011445654405632145
10.984,-0.011443538837854723
10.988,-0.01143974043207253
10.992,-0.011442240648536758
10.996,-0.011442312770165533
11.0,-0.011442192567450908
11.004,-0.011443635000026424
11.008000000000001,-0.011439932756415933
11.012,-0.011440125080759336
11.016,-0.011442240648536758
11.02,-0.011442553175594786
11.024000000000001,-0.011440125080759336
11.028,-0.011437600823752182
11.032,-0.011440509729446139
11.036,-0.011443586918940573
11.040000000000001,-0.011442817621566964
11.044,-0.011442985905367442
11.048,-0.011441471351163149
11.052,-0.011443130148624994
11.056000000000001,-0.011445005310973163
11.06,-0.011445245716402416
11.064,-0.011443322472968394
11.068,-0.011443442675683022
11.072000000000001,-0.01144471682445806
11.076,-0.011443562878397647
11.08,-0.011437552742666331
11.084,-0.011443274391882544
11.088000000000001,-0.01144430813522833
11.092,-0.011442000243107505
11.096,-0.011442360851251384
11.1,-0.011442000243107505
11.104000000000001,-0.011443827324369826
11.108,-0.011445918851604323
11.112,-0.01144430813522833
11.116,-0.01144526975694534
11.120000000000001,-0.011444428337942958
11.124,-0.011441639634963627
11.128,-0.011442264689079683
11.132,-0.011443466716225946
11.136000000000001,-0.011445365919117042
11.14,-0.011447265122008138
11.144,-0.011447072797664735
11.148,-0.01144700067603596
11.152000000000001,-0.011447721892323718
11.156,-0.01144654390572038
11.16,-0.01144572652726092
11.164,-0.011446303500291128
11.168000000000001,-0.011445510162374594
11.172,-0.01144567844617507
11.176,-0.011445558243460444
11.18,-0.011447361284179839
11.184000000000001,-0.011448996041098758
11.188,-0.011448274824810999
11.192,-0.011443082067539143
11.196,-0.011447337243636915
11.200000000000001,-0.011448683514040728
11.204,-0.011448082500467596
11.208,-0.011449476851957262
11.212,-0.011447842095038345
11.216000000000001,-0.011448202703182224
11.22,-0.011448178662639297
11.224,-0.011448443108611477
11.228,-0.01145060675747475
11.232000000000001,-0.011450005743901618
11.236,-0.011448731595126578
11.24,-0.011449909581729917
11.244,-0.011448635432954879
11.248000000000001,-0.01144882775729828
11.252,-0.011449524933043112
11.256,-0.011449428770871411
11.26,-0.011446471784091604
11.264,-0.011447433405808616
11.268,-0.011445870770518472
11.272,-0.011448683514040728
11.276,-0.011450077865530393
11.28,-0.011447553608523241
11.284,-0.011447385324722765
11.288,-0.01144892391946998
11.292,-0.011449548973586039
11.296,-0.011449524933043112
11.3,-0.011447625730152016
11.304,-0.011445798648889697
11.308,-0.011450125946616244
11.312,-0.011450871203446927
11.316,-0.01145019806824502
11.32,-0.011447048757121811
11.324,-0.011445125513687789
11.328,-0.011445462081288743
11.332,-0.01144841906806855
11.336,-0.011450174027702095
11.34,-0.011450534635845973
11.344,-0.011453010811767276
11.348,-0.01145060675747475
11.352,-0.011452409798194145
11.356,-0.011450342311502573
11.36,-0.011450053824987469
11.364,-0.011450438473674274
11.368,-0.01144959705467189
11.372,-0.011452169392764892
11.376,-0.011454357082171091
11.38,-0.011451688581906386
11.384,-0.0114483709869827
11.388,-0.011450726960189376
11.392,-0.011452818487423874
11.396,-0.011453227176653603
11.4,-0.011454861933572522
11.404,-0.011454573447057418
11.408,-0.011453563744254557
11.412,-0.011450919284532778
11.416,-0.011446736230063783
11.42,-0.011449789379015292
11.424,-0.011450919284532778
11.428,-0.011451279892676657
11.432,-0.011449885541186991
11.436,-0.01144892391946998
11.44,-0.011450895243989853
11.444,-0.011458299731210833
11.448,-0.011455486987688578
11.452,-0.011453058892853127
11.456,-0.011455607190403205
11.46,-0.011456232244519261
11.464,-0.011457818920352329
11.468,-0.011456809217549468
11.472,-0.011457386190579674
11.476,-0.011454910014658372
11.48,-0.011452578081994621
11.484,-0.011451207771047881
11.488,-0.011453659906426258
11.492,-0.011450799081818152
11.496,-0.01145010190607332
11.5,-0.011451808784621013
11.504,-0.011454236879456464
11.508000000000001,-0.011455511028231504
11.512,-0.0114528425279668
11.516,-0.011450967365618629
11.52,-0.011456160122890486
11.524000000000001,-0.011459020947498592
11.528,-0.01145375606859796
11.532,-0.011451640500820537
11.536,-0.011452337676565368
11.540000000000001,-0.011453972433484286
11.544,-0.011455775474203681
11.548,-0.01145156837919176
11.552,-0.011446111175947725
11.556000000000001,-0.011453323338825304
11.56,-0.01145430900108524
11.564,-0.011453323338825304
11.568,-0.011451688581906386
11.572000000000001,-0.011448803716755355
11.576,-0.011447890176124196
11.58,-0.011448707554583654
11.584,-0.011449621095214814
11.588000000000001,-0.011450366352045497
11.592,-0.011455486987688578
11.596,-0.01145745831220845
11.6,-0.01146055954224581
11.604000000000001,-0.011456809217549468
11.608,-0.011454861933572522
11.612,-0.011454333041628165
11.616,-0.01145334737936823
11.620000000000001,-0.01145279444688095
11.624,-0.011454741730857894
11.628,-0.011457025582435795
11.632,-0.011458900744783965
11.636000000000001,-0.011456737095920691
11.64,-0.011451664541363461
11.644,-0.01145421283891354
11.648,-0.011456809217549468
11.652000000000001,-0.011453683946969183
11.656,-0.011451400095391284
11.66,-0.011453371419911155
11.664,-0.01145161646027761
11.668000000000001,-0.011456568812120215
11.672,-0.011456713055377767
11.676,-0.01146075186658921
11.68,-0.011460823988217987
11.684000000000001,-0.011459501758357096
11.688,-0.011459309434013696
11.692,-0.011460535501702883
11.696,-0.011461857731563774
11.700000000000001,-0.011461425001791118
11.704,-0.011457650636551853
11.708,-0.011456616893206066
11.712,-0.011462194299164726
11.716000000000001,-0.011460848028760911
11.72,-0.011458900744783965
11.724,-0.011459886407043901
11.728,-0.011460992272018463
11.732000000000001,-0.011461232677447716
11.736,-0.011461256717990642
11.74,-0.011459261352927845
11.744,-0.011457506393294301
11.748000000000001,-0.011457049622978721
11.752,-0.011457746798723552
11.756,-0.011461905812649623
11.76,-0.01146156924504867
11.764000000000001,-0.011457314068950899
11.768,-0.01145668901483484
11.772,-0.011456544771577289
11.776,-0.011454092636198912
11.78,-0.011459694082700499
11.784,-0.011458299731210833
11.788,-0.01145841993392546
11.792,-0.011459477717814172
11.796,-0.011459982569215602
11.8,-0.011459429636728321
11.804,-0.011459573879985873
11.808,-0.011461256717990642
11.812,-0.011461785609934997
11.816,-0.011461545204505744
11.82,-0.011462362582965204
11.824,-0.011463516529025617
11.828,-0.011461136515276015
11.832,-0.011456785177006542
11.836,-0.011456977501349944
11.84,-0.011458540136640086
11.844,-0.011457674677094777
11.848,-0.011461785609934997
11.852,-0.011461713488306222
11.856,-0.011459549839442947
11.86,-0.011459429636728321
11.864,-0.011458347812296684
11.868,-0.011460102771930228
11.872,-0.011461208636904792
11.876,-0.01146055954224581
11.88,-0.011459405596185397
11.884,-0.011459718123243425
11.888,-0.011458131447410357
11.892,-0.011464958961601131
11.896,-0.011464237745313374
11.9,-0.011461449042334043
11.904,-0.011464646434543103
11.908,-0.01146394925879827
11.912,-0.011464814718343581
11.916,-0.011464526231828477
11.92,-0.011462771272194933
11.924,-0.011459982569215602
11.928,-0.011460030650301453
11.932,-0.011464550272371402
11.936,-0.01146467047508603
11.94,-0.01146079994767506
11.944,-0.011462675110023232
11.948,-0.011466233110376171
11.952,-0.011463468447939766
11.956,-0.011461449042334043
11.96,-0.011461857731563774
11.964,-0.011460271055730706
11.968,-0.01146075186658921
11.972,-0.011461136515276015
11.976,-0.011461953893735473
11.98,-0.011463925218255346
11.984,-0.011464093502055822
11.988,-0.011465535934631338
11.992,-0.011465415731916713
11.996,-0.01146527148865916
12.0,-0.011462867434366635
12.004,-0.011461040353104314
12.008000000000001,-0.011462819353280784
12.012,-0.011461473082876969
12.016,-0.011460511461159959
12.02,-0.011462506826222754
12.024000000000001,-0.011459934488129752
12.028,-0.011463829056083645
12.032,-0.011462458745136905
12.036,-0.011461328839619417
12.040000000000001,-0.011460920150389688
12.044,-0.01145882862315519
12.048,-0.011463107839795886
12.052,-0.011466665840148826
12.056000000000001,-0.01146563209680304
12.06,-0.011463372285768065
12.064,-0.011463348245225139
12.068,-0.01146390117771242
12.072000000000001,-0.011465656137345964
12.076,-0.01146810827272434
12.08,-0.011466810083406376
12.084,-0.011466209069833245
12.088000000000001,-0.0114642617858563
12.092,-0.011464141583141673
12.096,-0.011467771705123388
12.1,-0.011466882205035153
12.104000000000001,-0.011465968664403994
12.108,-0.011464117542598748
12.112,-0.0114644541101997
12.116,-0.011467266853721958
12.120000000000001,-0.011469310299870604
12.124,-0.011467843826752163
12.128,-0.011466930286121004
12.132,-0.011464502191285551
12.136000000000001,-0.011461785609934997
12.14,-0.011467579380779986
12.144,-0.011469598786385708
12.148,-0.011471041218961224
12.152000000000001,-0.011471377786562178
12.156,-0.011470175759415915
12.16,-0.011470921016246596
12.164,-0.011468805448469174
12.168000000000001,-0.011468925651183801
12.172,-0.011469959394529586
12.176,-0.01146760342132291
12.18,-0.011466665840148826
12.184000000000001,-0.011471353746019252
12.188,-0.011471473948733879
12.192,-0.011468156353810191
12.196,-0.011467627461865837
12.200000000000001,-0.011467531299694135
12.204,-0.011464478150742627
12.208,-0.011466281191462022
12.212,-0.011468468880868221
12.216000000000001,-0.011470512327016867
12.22,-0.011472002840678236
12.224,-0.01146979111072911
12.228,-0.011472651935337218
12.232000000000001,-0.011473926084112258
12.236,-0.011471017178418298
12.24,-0.011468853529555024
12.244,-0.011467675542951687
12.248000000000001,-0.011464189664227523
12.252,-0.011470031516158363
12.256,-0.011473974165198108
12.26,-0.011475152151801445
12.264000000000001,-0.011473853962483481
12.268,-0.01146832463761067
12.272,-0.011470680610817345
12.276,-0.011473204867824499
12.280000000000001,-0.011473517394882529
12.284,-0.011471762435248984
12.288,-0.011469478583671082
12.292,-0.011466834123949303
12.296,-0.011467435137522434
12.3,-0.011467218772636107
12.304,-0.011470175759415915
12.308,-0.011473853962483481
12.312,-0.011471473948733879
12.316,-0.011470680610817345
12.32,-0.01147452709768539
12.324,-0.011473541435425453
12.328,-0.011471425867648028
12.332,-0.011468589083582847
12.336,-0.01146856504303992
12.34,-0.011472435570450891
12.344,-0.011471377786562178
12.348,-0.011471329705476327
12.352,-0.011473950124655182
12.356,-0.01147193071904946
12.36,-0.011469767070186184
12.364,-0.011468156353810191
12.368,-0.011470368083759315
12.372,-0.011474454976056613
12.376,-0.011477075395235467
12.38,-0.011475200232887296
12.384,-0.011474094367912734
12.388,-0.011475200232887296
12.392,-0.011470896975703672
12.396,-0.011468228475438968
12.4,-0.011469310299870604
12.404,-0.011468084232181416
12.408,-0.011470824854074897
12.412,-0.011472074962307012
12.416,-0.011471858597420684
12.42,-0.011472315367736265
12.424,-0.01147229132719334
12.428,-0.011472748097508919
12.432,-0.01147431073279906
12.436,-0.011474334773341987
12.44,-0.011473517394882529
12.444,-0.011470945056789522
12.448,-0.011473156786738648
12.452,-0.01147512811125852
12.456,-0.011475681043745802
12.46,-0.01147741196283642
12.464,-0.011477748530437374
12.468,-0.011475729124831652
12.472,-0.011475969530260905
12.476,-0.011478926517040713
12.48,-0.011477844692609075
12.484,-0.011479311165727516
12.488,-0.011476209935690157
12.492,-0.011473661638140079
12.496,-0.01147375780031178
12.5,-0.01147736388175057
12.504,-0.011474719422028792
12.508000000000001,-0.011476065692432605
12.512,-0.011477387922293495
12.516,-0.011476378219490635
12.52,-0.01147649842220526
12.524000000000001,-0.01147553680048825
12.528,-0.011475753165374577
12.532,-0.011478061057495402
12.536,-0.011476570543834037
12.540000000000001,-0.011475296395058997
12.544,-0.011475849327546278
12.548,-0.011476931151977916
12.552,-0.01147863803052561
12.556000000000001,-0.011479431368442143
12.56,-0.011476738827634513
12.564,-0.011477580246636898
12.568,-0.011480080463101125
12.572000000000001,-0.011480705517217181
12.576,-0.011478926517040713
12.58,-0.01147791681423785
12.584,-0.011477051354692541
12.588000000000001,-0.011477604287179822
12.592,-0.011480344909073303
12.596,-0.011477484084465197
12.6,-0.011475392557230698
12.604000000000001,-0.011476306097861858
12.608,-0.011472627894794293
12.612,-0.011476113773518455
12.616,-0.011475224273430222
12.620000000000001,-0.011476089732975531
12.624,-0.011479335206270442
12.628,-0.011480585314502556
12.632,-0.011480465111787928
12.636000000000001,-0.011477844692609075
12.64,-0.011478613989982683
12.644,-0.011479263084641665
12.648,-0.011480368949616227
12.652000000000001,-0.011481811382191743
12.656,-0.011483277855310184
12.66,-0.011483494220196512
12.664,-0.011482700882279978
12.668000000000001,-0.011482412395764875
12.672,-0.011479816017128946
12.676,-0.0114800564225582
12.68,-0.011481426733504939
12.684000000000001,-0.011480417030702078
12.688,-0.011478253381838804
12.692,-0.0114777725709803
12.696,-0.011477748530437374
12.700000000000001,-0.011476137814061382
12.704,-0.01147741196283642
12.708,-0.011478662071068534
12.712,-0.01148106612536106
12.716000000000001,-0.011483109571509708
12.72,-0.011483518260739437
12.724,-0.011481042084818135
12.728,-0.011482268152507323
12.732000000000001,-0.011482724922822903
12.736,-0.011481210368618612
12.74,-0.011479287125184591
12.744,-0.011481210368618612
12.748000000000001,-0.011483374017481885
12.752,-0.011482748963365829
12.756,-0.011483061490423857
12.76,-0.011480585314502556
12.764000000000001,-0.011481042084818135
12.768,-0.01148325381476726
12.772,-0.011481619057848341
12.776,-0.01148229219305025
12.780000000000001,-0.011482628760651202
12.784,-0.011480465111787928
12.788,-0.011478710152154384
12.792,-0.011480681476674257
12.796000000000001,-0.01148137865241909
12.8,-0.011482941287709231
12.804,-0.01148289320662338
12.808,-0.011483662503996989
12.812,-0.011485393423087608
12.816,-0.011484552004085224
12.82,-0.011483662503996989
12.824,-0.011483061490423857
12.828,-0.011482532598479502
12.832,-0.011481258449704462
12.836,-0.011481667138934191
12.84,-0.011484840490600327
12.844,-0.011485273220372981
12.848,-0.011483590382368214
12.852,-0.011481042084818135
12.856,-0.011479743895500171
12.86,-0.011484431801370596
12.864,-0.01148558574743101
12.868,-0.011482220071421472
12.872,-0.011480633395588406
12.876,-0.011481715220020042
12.88,-0.011486355044804619
12.884,-0.011486090598832441
12.888,-0.01148421543648427
12.892,-0.011485778071774411
12.896,-0.011485898274489039
12.9,-0.011485153017658355
12.904,-0.01148558574743101
12.908,-0.011484936652772029
12.912,-0.011484527963542298
12.916,-0.011484503922999373
12.92,-0.011485297260915907
12.924,-0.011487388788150405
12.928,-0.01148695605837775
12.932,-0.011486066558289515
12.936,-0.011486162720461216
12.94,-0.0114869079772919
12.944,-0.011485056855486654
12.948,-0.011483013409338006
12.952,-0.011481498855133715
12.956,-0.01148202774707807
12.96,-0.011483878868883315
12.964,-0.011483686544539915
12.968,-0.011484936652772029
12.972,-0.011489672639728304
12.976,-0.011486186761004142
12.98,-0.011486090598832441
12.984,-0.01148594635557489
12.988,-0.011482773003908753
12.992,-0.011486932017834824
12.996,-0.011489913045157557
13.0,-0.011486643531319722
13.004,-0.011486691612405573
13.008000000000001,-0.01148371058508284
13.012,-0.011480224706358675
13.016,-0.01148421543648427
13.02,-0.011487845558465985
13.024000000000001,-0.011485874233946113
13.028,-0.011483902909426242
13.032,-0.011484816450057401
13.036,-0.011488350409867416
13.040000000000001,-0.011489239909955649
13.044,-0.011488903342354697
13.048,-0.01148984092352878
13.052,-0.0114869079772919
13.056000000000001,-0.011485273220372981
13.06,-0.011485393423087608
13.064,-0.011486186761004142
13.068,-0.011489215869412725
13.072000000000001,-0.011488999504526398
13.076,-0.011486571409690945
13.08,-0.011488037882809386
13.084,-0.011489432234299051
13.088000000000001,-0.011487941720637686
13.092,-0.011488037882809386
13.096,-0.011490706383074091
13.1,-0.011485754031231487
13.104000000000001,-0.011485874233946113
13.108,-0.011485369382544682
13.112,-0.011484143314855495
13.116,-0.011486859896206049
13.120000000000001,-0.01148421543648427
13.124,-0.011482748963365829
13.128,-0.011488494653124967
13.132,-0.011491595883162327
13.136000000000001,-0.011490393856016063
13.14,-0.011489624558642454
13.144,-0.011487629193579657
13.148,-0.011487989801723537
13.152000000000001,-0.011487340707064555
13.156,-0.011487557071950882
13.16,-0.011488590815296669
13.164,-0.011488855261268846
13.168000000000001,-0.011484936652772029
13.172,-0.011485080896029579
13.176,-0.0114869079772919
13.18,-0.011488590815296669
13.184000000000001,-0.01148984092352878
13.188,-0.0114892879910415
13.192,-0.011489792842442932
13.196,-0.011490874666874568
13.200000000000001,-0.011489985166786332
13.204,-0.011490273653301436
13.208,-0.011488206166609864
13.212,-0.011486547369148021
13.216000000000001,-0.011490417896558988
13.22,-0.011491355477733074
13.224,-0.01148887930181177
13.228,-0.0114893841532132
13.232000000000001,-0.011490177491129735
13.236,-0.011489480315384902
13.24,-0.0114891918288698
13.244,-0.011488542734210818
13.248000000000001,-0.011488662936925444
13.252,-0.011488614855839593
13.256,-0.011488711018011294
13.26,-0.011489408193756127
13.264000000000001,-0.011485513625802234
13.268,-0.011485393423087608
13.272,-0.011486980098920675
13.276,-0.011486980098920675
13.280000000000001,-0.011486739693491423
13.284,-0.011487268585435778
13.288,-0.011489119707241023
13.292,-0.011488638896382517
13.296000000000001,-0.011486691612405573
13.3,-0.011486114639375366
13.304,-0.011489360112670276
13.308,-0.01149202861293498
13.312000000000001,-0.011492677707593962
13.316,-0.011492389221078859
13.32,-0.01149111507230382
13.324,-0.011489167788326874
13.328,-0.011491932450763279
13.332,-0.011495033680800638
13.336,-0.01149659631609078
13.34,-0.011494624991570909
13.344,-0.011491211234475522
13.348,-0.011488085963895237
13.352,-0.0114891918288698
13.356,-0.011490225572215585
13.36,-0.011493567207682198
13.364,-0.011495009640257714
13.368,-0.011496163586318126
13.372,-0.011493543167139271
13.376,-0.011490129410043884
13.38,-0.011490682342531165
13.384,-0.01149512984297234
13.388,-0.011496283789032752
13.392,-0.011495394288944517
13.396,-0.011495899140345947
13.4,-0.01149248538325056
13.404,-0.01149467307265676
13.408,-0.011495538532202068
13.412,-0.011491259315561372
13.416,-0.011486595450233872
13.42,-0.011487941720637686
13.424,-0.011490706383074091
13.428,-0.011491307396647223
13.432,-0.01149380761311145
13.436,-0.011493471045510496
13.44,-0.01149426438342703
13.444,-0.0114983272351814
13.448,-0.011497173289120987
13.452,-0.011494288423969955
13.456,-0.01149426438342703
13.46,-0.011488927382897621
13.464,-0.01149705308640636
13.468,-0.011502726654536723
13.472,-0.011498519559524802
13.476,-0.011495009640257714
13.48,-0.01149243730216471
13.484,-0.011490441937101912
13.488,-0.011493543167139271
13.492,-0.011495274086229891
13.496,-0.011497581978350716
13.5,-0.01149791854595167
13.504,-0.01149344700496757
13.508000000000001,-0.011494072059083628
13.512,-0.011496355910661529
13.516,-0.01150056300567345
13.52,-0.011501740992276787
13.524000000000001,-0.011498615721696503
13.528,-0.011497606018893642
13.532,-0.011499889870471541
13.536,-0.011498759964954055
13.540000000000001,-0.011499961992100318
13.544,-0.011500010073186169
13.548,-0.011498134910837997
13.552,-0.01149664439717663
13.556000000000001,-0.011497533897264866
13.56,-0.011498158951380923
13.564,-0.0114984233973531
13.568,-0.011497029045863435
13.572000000000001,-0.01149299023465199
13.576,-0.01149710116749221
13.58,-0.011502221803135293
13.584,-0.01150152462739046
13.588000000000001,-0.011501404424675832
13.592,-0.011497846424322894
13.596,-0.011496307829575678
13.6,-0.01149695692423466
13.604000000000001,-0.011497485816179015
13.608,-0.011498735924411129
13.612,-0.011499000370383306
13.616,-0.011498495518981876
13.620000000000001,-0.01149787046486582
13.624,-0.011497894505408744
13.628,-0.011499096532555007
13.632,-0.011500827451645627
13.636000000000001,-0.011501332303047057
13.64,-0.011501380384132908
13.644,-0.011500899573274402
13.648,-0.011499817748842766
13.652000000000001,-0.01149787046486582
13.656,-0.011498591681153577
13.66,-0.011498158951380923
13.664,-0.011497966627037521
13.668000000000001,-0.01149690884314881
13.672,-0.01149791854595167
13.676,-0.011499769667756916
13.68,-0.011500010073186169
13.684000000000001,-0.011496716518805407
13.688,-0.011499577343413513
13.692,-0.011497942586494595
13.696,-0.011493999937454853
13.700000000000001,-0.011496235707946901
13.704,-0.011498952289297456
13.708,-0.011497125208035136
13.712,-0.011500731289473926
13.716000000000001,-0.011502366046392844
13.72,-0.011500827451645627
13.724,-0.011498759964954055
13.728,-0.01149746177563609
13.732000000000001,-0.01149928885689841
13.736,-0.011500587046216374
13.74,-0.01149924077581256
13.744,-0.011500538965130523
13.748000000000001,-0.011500490884044673
13.752,-0.011499000370383306
13.756,-0.011501740992276787
13.76,-0.011500106235357868
13.764000000000001,-0.011501452505761683
13.768,-0.011504048884397612
13.772,-0.011502366046392844
13.776,-0.011501452505761683
13.780000000000001,-0.011502221803135293
13.784,-0.011498687843325278
13.788,-0.011499048451469157
13.792,-0.011499769667756916
13.796000000000001,-0.01149837531626725
13.8,-0.01149984178938569
13.804,-0.011499913911014467
13.808,-0.011500683208388075
13.812000000000001,-0.011500803411102701
13.816,-0.011498663802782354
13.82,-0.011498976329840382
13.824,-0.011507654965836401
13.828,-0.01150806365506613
13.832,-0.011503015141051827
13.836,-0.011500899573274402
13.84,-0.01150157270847631
13.844,-0.01150152462739046
13.848,-0.011502293924764068
13.852,-0.01150421716819809
13.856,-0.011503712316796658
13.86,-0.011499360978527186
13.864,-0.011498928248754531
13.868,-0.01150207755987774
13.872,-0.011505274952086801
13.876,-0.011506885668462793
13.88,-0.01150431333036979
13.884,-0.011503015141051827
13.888,-0.011502846857251349
13.892,-0.011502918978880125
13.896,-0.01150106785707488
13.9,-0.011501452505761683
13.904,-0.011498158951380923
13.908,-0.011497197329663911
13.912,-0.011501164019246581
13.916,-0.011504433533084417
13.92,-0.011507847290179804
13.924,-0.011504457573627341
13.928,-0.011504553735799042
13.932,-0.011501740992276787
13.936,-0.011508255979409533
13.94,-0.011507895371265654
13.944,-0.011509626290356274
13.948,-0.011510347506644031
13.952,-0.011507871330722728
13.956,-0.011505395154801427
13.96,-0.011505924046745783
13.964,-0.011505082627743399
13.968,-0.01150385656005421
13.972,-0.011504457573627341
13.976,-0.0115028949383372
13.98,-0.011504024843854687
13.984,-0.01150349595191033
13.988,-0.01150349595191033
13.992,-0.011503544032996181
13.996,-0.011504385451998566
14.0,-0.011504072924940538
14.004,-0.011505154749372174
14.008000000000001,-0.011503544032996181
14.012,-0.011505058587200473
14.016,-0.011506380817061363
14.02,-0.011505106668286323
14.024000000000001,-0.011504265249283939
14.028,-0.011504577776341968
14.032,-0.01150486626285707
14.036,-0.011503183424852303
14.040000000000001,-0.011505731722402381
14.044,-0.011508352141581234
14.048,-0.011509530128184573
14.052,-0.011510972560760087
14.056000000000001,-0.011509433966012872
14.06,-0.01150664526303354
14.064,-0.011503760397882508
14.068,-0.011502293924764068
14.072000000000001,-0.011508736790268039
14.076,-0.011507342438778373
14.08,-0.011504121006026389
14.084,-0.011506068290003333
14.088000000000001,-0.01150801557398028
14.092,-0.011506933749548644
14.096,-0.011503255546481078
14.1,-0.011502750695079647
14.104000000000001,-0.011504241208741014
14.108,-0.011509313763298244
14.112,-0.011508905074068515
14.116,-0.011508352141581234
14.120000000000001,-0.011505443235887277
14.124,-0.011509674371442123
14.128,-0.01150979457415675
14.132,-0.011507390519864224
14.136000000000001,-0.011509097398411917
14.14,-0.011505996168374558
14.144,-0.011504986465571698
14.148,-0.011505106668286323
14.152000000000001,-0.011506501019775989
14.156,-0.011507222236063748
14.16,-0.011509433966012872
14.164,-0.011507751128008102
14.168000000000001,-0.011505972127831634
14.172,-0.011508111736151981
14.176,-0.011508159817237832
14.18,-0.011505298992629726
14.184000000000001,-0.011510179222843555
14.188,-0.0115121265068205
14.192,-0.011512270750078052
14.196,-0.011513040047451661
14.200000000000001,-0.011510852358045462
14.204,-0.01151121296618934
14.208,-0.011510732155330836
14.212,-0.011510227303929406
14.216000000000001,-0.011511020641845938
14.22,-0.011510371547186956
14.224,-0.011510227303929406
14.228,-0.011509530128184573
14.232000000000001,-0.011509433966012872
14.236,-0.011511862060848322
14.24,-0.011511188925646416
14.244,-0.011508712749725113
14.248000000000001,-0.011507630925293477
14.252,-0.011507246276606672
14.256,-0.011506909709005718
14.26,-0.011506308695432586
14.264000000000001,-0.011506476979233064
14.268,-0.011507775168551029
14.272,-0.01151243903387853
14.276,-0.011510924479674237
14.280000000000001,-0.01150842426321001
14.284,-0.011507871330722728
14.288,-0.011507174154977897
14.292,-0.011505587479144829
14.296000000000001,-0.011513160250166287
14.3,-0.011511910141934173
14.304,-0.011508953155154366
14.308,-0.011510107101214778
14.312000000000001,-0.011509554168727497
14.316,-0.011509986898500153
14.32,-0.011510780236416687
14.324,-0.011507534763121776
14.328000000000001,-0.011508304060495383
14.332,-0.011510419628272806
14.336,-0.011507943452351505
14.34,-0.011508304060495383
14.344,-0.011511092763474715
14.348,-0.011510900439131312
14.352,-0.011511501452704444
14.356,-0.011511044682388864
14.36,-0.011514386317855476
14.364,-0.011515997034231468
14.368,-0.011515107534143233
14.372,-0.011514578642198877
14.376,-0.011513761263739418
14.38,-0.011513761263739418
14.384,-0.01151563642608759
14.388,-0.011512631358221932
14.392,-0.011509313763298244
14.396,-0.011509458006555796
14.4,-0.011510876398588386
14.404,-0.01150710203334912
14.408,-0.011511068722931788
14.412,-0.011513785304282344
14.416,-0.011511597614876145
14.42,-0.011511092763474715
14.424,-0.011510828317502537
14.428,-0.011512366912249753
14.432,-0.011513064087994586
14.436,-0.01151070811478791
14.44,-0.011511044682388864
14.444,-0.01151344873668139
14.448,-0.011514242074597924
14.452,-0.011515924912602692
14.456,-0.011516742291062152
14.46,-0.011516622088347524
14.464,-0.011518328966895218
14.468,-0.011518737656124947
14.472,-0.011516117236946094
14.476,-0.011513520858310165
14.48,-0.011514530561113026
14.484,-0.01151654996671875
14.488,-0.011517247142463582
14.492,-0.011517030777577254
14.496,-0.011516405723461198
14.5,-0.011514121871883297
14.504,-0.011514746925999355
14.508000000000001,-0.011514770966542279
14.512,-0.011513929547539895
14.516,-0.011511357209446892
14.52,-0.011512583277136081
14.524000000000001,-0.011512751560936558
14.528,-0.011513160250166287
14.532,-0.011514578642198877
14.536,-0.011514939250342757
14.540000000000001,-0.011517848156036714
14.544,-0.011519194426440529
14.548,-0.011517463507349909
14.552,-0.011516309561289496
14.556000000000001,-0.011513665101567717
14.56,-0.011508760830810963
14.564,-0.01151121296618934
14.568,-0.011518569372324471
14.572000000000001,-0.011519170385897603
14.576,-0.011517631791150385
14.58,-0.011517078858663104
14.584,-0.011515660466630514
14.588000000000001,-0.011515972993688542
14.592,-0.011514795007085205
14.596,-0.011516477845089973
14.6,-0.01151618935857487
14.604000000000001,-0.011518881899382499
14.608,-0.011521574440190129
14.612,-0.011519170385897603
14.616,-0.01151705481812018
14.620000000000001,-0.011514049750254522
14.624,-0.011513544898853091
14.628,-0.011514266115140849
14.632,-0.011517896237122564
14.636000000000001,-0.011517992399294266
14.64,-0.011517271183006507
14.644,-0.011517463507349909
14.648,-0.011513112169080436
14.652000000000001,-0.011511477412161518
14.656,-0.011515972993688542
14.66,-0.011516309561289496
14.664,-0.01151760775060746
14.668000000000001,-0.01151938675078393
14.672,-0.011515420061201261
14.676,-0.011517872196579638
14.68,-0.011521406156389653
14.684000000000001,-0.011519819480556585
14.688,-0.011519771399470734
14.692,-0.01151943483186978
14.696,-0.011519314629155154
14.700000000000001,-0.011518353007438144
14.704,-0.011518232804723517
14.708,-0.011518857858839575
14.712,-0.011518401088523995
14.716000000000001,-0.01151705481812018
14.72,-0.011517126939748955
14.724,-0.011518569372324471
14.728,-0.01152121383204625
14.732000000000001,-0.01151938675078393
14.736,-0.011518761696667873
14.74,-0.011518040480380116
14.744,-0.011517030777577254
14.748000000000001,-0.011519146345354678
14.752,-0.01151892998046835
14.756,-0.011516766331605076
14.76,-0.011515997034231468
14.764000000000001,-0.011515516223372962
14.768,-0.011516117236946094
14.772,-0.01151618935857487
14.776,-0.011517679872236236
14.780000000000001,-0.011517439466806985
14.784,-0.011517271183006507
14.788,-0.011516117236946094
14.792,-0.011517463507349909
14.796000000000001,-0.011520564737387268
14.8,-0.011522055251048635
14.804,-0.01151989160218536
14.808,-0.011513833385368195
14.812000000000001,-0.011517848156036714
14.816,-0.01151989160218536
14.82,-0.011519458872412706
14.824,-0.01151892998046835
14.828000000000001,-0.011516742291062152
14.832,-0.011513785304282344
14.836,-0.01151751158843576
14.84,-0.011521093629331623
14.844000000000001,-0.011521237872589175
14.848,-0.01152121383204625
14.852,-0.011521550399647204
14.856,-0.011520612818473119
14.86,-0.011521574440190129
14.864,-0.011522295656477886
14.868,-0.011521406156389653
14.872,-0.011518881899382499
14.876,-0.011517896237122564
14.88,-0.011518280885809367
14.884,-0.011520925345531147
14.888,-0.011521358075303802
14.892,-0.011520877264445296
14.896,-0.011518881899382499
14.9,-0.011515035412514458
14.904,-0.011515179655772008
14.908,-0.011519314629155154
14.912,-0.011522800507879318
14.916,-0.011523305359280749
14.92,-0.011519410791326855
14.924,-0.011520324331958015
14.928,-0.011520973426616997
14.932,-0.011519819480556585
14.936,-0.011520348372500941
14.94,-0.011521742723990605
14.944,-0.011521454237475503
14.948,-0.011520877264445296
14.952,-0.011517439466806985
14.956,-0.011516405723461198
14.96,-0.011518809777753724
14.964,-0.011520132007614613
14.968,-0.011522656264621766
14.972,-0.011522151413220336
14.976,-0.011521358075303802
14.98,-0.011520492615758491
14.984,-0.011523209197109047
14.988,-0.011525252643257695
14.992,-0.011527897102979473
14.996,-0.011525156481085994
15.0,-0.011522295656477886
15.004,-0.01152268030516469
15.008000000000001,-0.011520035845442912
15.012,-0.011522824548422243
15.016,-0.011523738089053402
15.02,-0.01152217545376326
15.024000000000001,-0.011522512021364215
15.028,-0.01152441122425531
15.032,-0.011522536061907139
15.036,-0.011525565170315723
15.040000000000001,-0.011527776900264847
15.044,-0.011526671035290285
15.048,-0.011525132440543068
15.052,-0.011525901737916676
15.056000000000001,-0.011526839319090761
15.06,-0.011526118102803004
15.064,-0.011523569805252926
15.068,-0.011522896670051018
15.072000000000001,-0.01152674315691906
15.076,-0.011522896670051018
15.08,-0.01151796835875134
15.084,-0.011518401088523995
15.088000000000001,-0.011520516656301417
15.092,-0.011519098264268827
15.096,-0.01151842512906692
15.1,-0.011523233237651972
15.104000000000001,-0.011526190224431779
15.108,-0.011525973859545452
15.112,-0.011525204562171844
15.116,-0.011521285953675025
15.120000000000001,-0.011518280885809367
15.124,-0.011520877264445296
15.128,-0.011524483345884086
15.132,-0.01152313707548027
15.136000000000001,-0.011523209197109047
15.14,-0.011525805575744976
15.144,-0.0115234496025383
15.148,-0.011522055251048635
15.152000000000001,-0.011526382548775181
15.156,-0.011525132440543068
15.16,-0.011523714048510478
15.164,-0.01152258414299299
15.168000000000001,-0.011522199494306187
15.172,-0.01152623830551763
15.176,-0.01152674315691906
15.18,-0.011526166183888855
15.184000000000001,-0.011524795872942114
15.188,-0.011526767197461986
15.192,-0.011529459738269616
15.196,-0.011525493048686946
15.200000000000001,-0.011522536061907139
15.204,-0.011520156048157539
15.208,-0.011521285953675025
15.212,-0.01152217545376326
15.216000000000001,-0.011520276250872164
15.22,-0.011522968791679794
15.224,-0.011526646994747359
15.228,-0.01152897892741111
15.232000000000001,-0.011531094495188533
15.236,-0.011532512887221123
15.24,-0.011528690440896007
15.244,-0.011526166183888855
15.248000000000001,-0.011522560102450065
15.252,-0.0115234496025383
15.256,-0.011519627156213182
15.26,-0.011520564737387268
15.264000000000001,-0.011526887400176612
15.268,-0.01152760861646437
15.272,-0.011526406589318108
15.276,-0.011524483345884086
15.280000000000001,-0.01152385829176803
15.284,-0.0115257334541162
15.288,-0.0115280173056941
15.292,-0.011527656697550221
15.296000000000001,-0.011527584575921445
15.3,-0.011526622954204434
15.304,-0.011526574873118584
15.308,-0.011529171251754513
15.312000000000001,-0.011529868427499345
15.316,-0.011532825414279153
15.32,-0.011536022806488213
15.324,-0.011531455103332412
15.328000000000001,-0.011530204995100298
15.332,-0.011527945184065323
15.336,-0.011525060318914293
15.34,-0.011526887400176612
15.344000000000001,-0.011526430629861032
15.348,-0.011525444967601096
15.352,-0.011526021940631303
15.356,-0.011527897102979473
15.36,-0.011527223967777566
15.364,-0.01152948377881254
15.368,-0.01152700760289124
15.372,-0.011527824981350698
15.376,-0.01152989246804227
15.38,-0.01152751245429267
15.384,-0.011529555900441316
15.388,-0.0115303973194437
15.392,-0.011524218899911908
15.396,-0.011523930413396805
15.4,-0.011524723751313339
15.404,-0.011526646994747359
15.408,-0.011527584575921445
15.412,-0.011525012237828442
15.416,-0.011526502751489807
15.42,-0.011527488413749743
15.424,-0.011527368211035118
15.428,-0.01152943569772669
15.432,-0.011529099130125736
15.436,-0.011527776900264847
15.44,-0.01152948377881254
15.444,-0.011530950251930981
15.448,-0.011534123603597117
15.452,-0.011534748657713173
15.456,-0.011530541562701252
15.46,-0.011528666400353082
15.464,-0.011530421359986626
15.468,-0.011530469441072477
15.472,-0.011532224400706021
15.476,-0.011536167049745763
15.48,-0.011533835117082013
15.484,-0.011531142576274384
15.488,-0.01153263308993575
15.492,-0.01153162338713289
15.496,-0.011532056116905543
15.5,-0.011531551265504113
15.504,-0.01153090217084513
15.508000000000001,-0.011532993698079629
15.512,-0.011535469874000932
15.516,-0.011535109265857052
15.52,-0.011536263211917464
15.524000000000001,-0.01152994054912812
15.528,-0.011525060318914293
15.532,-0.01152679123800491
15.536,-0.011529507819355465
15.540000000000001,-0.01153162338713289
15.544,-0.011532368643963573
15.548,-0.011531479143875338
15.552,-0.011532705211564525
15.556000000000001,-0.011532416725049423
15.56,-0.011531382981703637
15.564,-0.011531983995276768
15.568,-0.011533787035996163
15.572000000000001,-0.011532753292650376
15.576,-0.011535181387485828
15.58,-0.011534075522511266
15.584,-0.01153349854948106
15.588000000000001,-0.01153313794133718
15.592,-0.011529315495012064
15.596,-0.011529507819355465
15.6,-0.011531334900617786
15.604000000000001,-0.011531382981703637
15.608,-0.011530421359986626
15.612,-0.01153034923835785
15.616,-0.011526863359633687
15.620000000000001,-0.011530926211388057
15.624,-0.01153313794133718
15.628,-0.011533065819708406
15.632,-0.011534291887397593
15.636000000000001,-0.011534219765768818
15.64,-0.011533258144051806
15.644,-0.01153446017119807
15.648,-0.011533618752195687
15.652000000000001,-0.01153491694151365
15.656,-0.011536335333546241
15.66,-0.011531815711476292
15.664,-0.01153263308993575
15.668000000000001,-0.011535181387485828
15.672,-0.011532777333193302
15.676,-0.011533186022423031
15.68,-0.011532536927764049
15.684000000000001,-0.01153090217084513
15.688,-0.011536311293003315
15.692,-0.011537272914720327
15.696,-0.011533859157624938
15.700000000000001,-0.011531190657360234
15.704,-0.011531527224961188
15.708,-0.011531431062789487
15.712,-0.011536311293003315
15.716000000000001,-0.011536431495717942
15.72,-0.011534628454998547
15.724,-0.011534075522511266
15.728,-0.011532993698079629
15.732000000000001,-0.01153679210386182
15.736,-0.011537441198520803
15.74,-0.011532416725049423
15.744,-0.011535397752372155
15.748000000000001,-0.011541191523217144
15.752,-0.011538306658066112
15.756,-0.011536263211917464
15.76,-0.011533835117082013
15.764000000000001,-0.011534700576627322
15.768,-0.011532224400706021
15.772,-0.011532825414279153
15.776,-0.01153446017119807
15.780000000000001,-0.011534940982056575
15.784,-0.011533738954910312
15.788,-0.01153578240105896
15.792,-0.01153842686078074
15.796000000000001,-0.011536671901147195
15.8,-0.011535950684859436
15.804,-0.011534412090112219
15.808,-0.011534436130655145
15.812000000000001,-0.01153811433372271
15.816,-0.011539676969012853
15.82,-0.011540085658242582
15.824,-0.011538907671639244
15.828000000000001,-0.011536383414632092
15.832,-0.011534532292826846
15.836,-0.011534147644140041
15.84,-0.011535566036172631
15.844000000000001,-0.011539580806841152
15.848,-0.011537104630919849
15.852,-0.011534219765768818
15.856,-0.011535566036172631
15.860000000000001,-0.01153770564449298
15.864,-0.011536311293003315
15.868,-0.011540927077244965
15.872,-0.0115394365635836
15.876,-0.011538787468924618
15.88,-0.011539556766298226
15.884,-0.011539508685212375
15.888,-0.011540686671815714
15.892,-0.0115394365635836
15.896,-0.011537729685035907
15.9,-0.01153912403652557
15.904,-0.011540277982585985
15.908,-0.011539604847384076
15.912,-0.011542465671992182
15.916,-0.011540951117787891
15.92,-0.011538042212093935
15.924,-0.01153491694151365
15.928,-0.011534436130655145
15.932,-0.01153619109028869
15.936,-0.011535998765945287
15.94,-0.011535109265857052
15.944,-0.011535998765945287
15.948,-0.011538282617523187
15.952,-0.011538402820237813
15.956,-0.011536960387662297
15.96,-0.011538595144581216
15.964,-0.0115371527120057
15.968,-0.01153482077934195
15.972,-0.011535037144228277
15.976,-0.011532296522334796
15.98,-0.011534604414455621
15.984,-0.011537801806664682
15.988,-0.01154044626638646
15.992,-0.011537681603950056
15.996,-0.011535541995629707
16.0,-0.01153770564449298
16.004,-0.011537994131008084
16.008,-0.011534796738799024
16.012,-0.011536864225490596
16.016000000000002,-0.011538450901323664
16.02,-0.011537849887750532
16.024,-0.011538547063495365
16.028,-0.011536383414632092
16.032,-0.01153912403652557
16.036,-0.011541648293532724
16.04,-0.011540590509644013
16.044,-0.011538523022952439
16.048000000000002,-0.011536383414632092
16.052,-0.011537441198520803
16.056,-0.0115394365635836
16.06,-0.011538763428381692
16.064,-0.0115371527120057
16.068,-0.011538883631096319
16.072,-0.011541552131361023
16.076,-0.011542946482850688
16.080000000000002,-0.011541528090818097
16.084,-0.0115372488741774
16.088,-0.011533522590023985
16.092,-0.01153842686078074
16.096,-0.01154309072610824
16.1,-0.011542393550363407
16.104,-0.011541744455704425
16.108,-0.011539220198697272
16.112000000000002,-0.011538907671639244
16.116,-0.011541720415161499
16.12,-0.01153847494186659
16.124,-0.0115371527120057
16.128,-0.011536671901147195
16.132,-0.011534339968483444
