0.0,1.8400631554996754E-4
0.004,1.8340530197683594E-4
0.008,1.83501464148537E-4
0.012,1.839822750070423E-4
0.016,1.8345338306268648E-4
0.02,1.83501464148537E-4
0.024,1.8268408568907805E-4
0.028,1.8266004514615278E-4
0.032,1.8465541020894967E-4
0.036000000000000004,1.8362166686316332E-4
0.04,1.8165034234329173E-4
0.044,1.842948020650707E-4
0.048,1.875402753599813E-4
0.052000000000000005,1.8758835644583181E-4
0.056,1.8619400495616654E-4
0.06,1.8542470758255812E-4
0.064,1.8684309961514866E-4
0.068,1.8717966721610235E-4
0.07200000000000001,1.870113834156255E-4
0.076,1.8641036984249392E-4
0.08,1.8604976169861497E-4
0.084,1.8585743735521286E-4
0.088,1.8778068078923393E-4
0.092,1.8927119445060029E-4
0.096,1.8665077527174655E-4
0.1,1.8650653201419498E-4
0.10400000000000001,1.8679501852929812E-4
0.108,1.872758293878034E-4
0.112,1.873960321024297E-4
0.116,1.8641036984249392E-4
0.12,1.8470349129480018E-4
0.124,1.829004505754054E-4
0.128,1.8494389672405284E-4
0.132,1.8761239698875709E-4
0.136,1.8999241073835817E-4
0.14,1.8814128893311288E-4
0.14400000000000002,1.8616996441324127E-4
0.148,1.8597764006983918E-4
0.152,1.8826149164773918E-4
0.156,1.8758835644583181E-4
0.16,1.884538159911413E-4
0.164,1.904491810539382E-4
0.168,1.9035301888223715E-4
0.17200000000000001,1.8833361327651497E-4
0.176,1.8891058630672133E-4
0.18,1.9126655951339717E-4
0.184,1.9049726213978875E-4
0.188,1.8612188332739075E-4
0.192,1.8364570740608856E-4
0.196,1.8340530197683594E-4
0.2,1.8266004514615278E-4
0.20400000000000001,1.818667072296191E-4
0.20800000000000002,1.8253984243152646E-4
0.212,1.8347742360561172E-4
0.216,1.848958156382023E-4
0.22,1.8561703192596023E-4
0.224,1.8381399120656543E-4
0.228,1.8340530197683594E-4
0.232,1.8405439663581809E-4
0.23600000000000002,1.843669236938465E-4
0.24,1.0476868606829874E-4
0.244,8.772394113428685E-5
0.248,9.445529315336067E-5
0.252,1.1513016006908736E-4
0.256,1.3508381069705612E-4
0.26,1.5943688068034814E-4
0.264,1.7902992316443797E-4
0.268,1.8607380224154024E-4
0.272,1.907136270261161E-4
0.276,1.9138676222802347E-4
0.28,1.9064150539734032E-4
0.28400000000000003,1.9198777580115505E-4
0.28800000000000003,1.9323788403326878E-4
0.292,1.9278111371768874E-4
0.296,1.9386293814932563E-4
0.3,1.9419950575027932E-4
0.304,1.949447625809625E-4
0.308,1.9583426266919725E-4
0.312,1.9617083027015093E-4
0.316,1.9472839769463514E-4
0.32,1.9285323534646453E-4
0.324,1.9030493779638663E-4
0.328,1.9314172186156773E-4
0.332,1.9331000566204457E-4
0.336,1.952092085531404E-4
0.34,1.9470435715170987E-4
0.34400000000000003,1.9523324909606567E-4
0.34800000000000003,1.956659788687204E-4
0.352,1.9972883062308996E-4
0.356,1.9773346556029305E-4
0.36,1.9499284366681304E-4
0.364,1.9528133018191618E-4
0.368,1.9624295189892672E-4
0.372,1.9386293814932563E-4
0.376,1.941273841215035E-4
0.38,1.9371869489177404E-4
0.384,1.9648335732817934E-4
0.388,1.971084114442362E-4
0.392,1.9903165487825732E-4
0.396,1.9732477633056355E-4
0.4,1.9571405995457092E-4
0.404,1.9787770881784462E-4
0.40800000000000003,1.9814215479002252E-4
0.41200000000000003,1.9807003316124673E-4
0.41600000000000004,1.975651817598162E-4
0.42,1.973728574164141E-4
0.424,1.9708437090131092E-4
0.428,1.975651817598162E-4
0.432,1.9843064130512569E-4
0.436,2.0032984419622154E-4
0.44,2.0071449288302574E-4
0.444,2.004740874537731E-4
0.448,2.032627904331037E-4
0.452,2.0251753360242054E-4
0.456,2.003538847391468E-4
0.46,2.0117126319860575E-4
0.464,2.0227712817316788E-4
0.468,1.991037765070331E-4
0.47200000000000003,1.9780558718906883E-4
0.47600000000000003,1.9722861415886252E-4
0.48,1.9732477633056355E-4
0.484,1.985268034768268E-4
0.488,1.9686800601498357E-4
0.492,1.9530537072484145E-4
0.496,1.968439654720583E-4
0.5,1.9350233000544668E-4
0.504,1.9244454611673506E-4
0.508,1.9335808674789508E-4
0.512,1.90978072998294E-4
0.516,1.901847350817603E-4
0.52,1.907857486548919E-4
0.524,1.916271676572761E-4
0.528,1.929974786040161E-4
0.532,1.929493975181656E-4
0.536,1.9393505977810142E-4
0.54,1.960025464696741E-4
0.544,1.9388697869225088E-4
0.548,1.9102615408414452E-4
0.552,1.9357445163422247E-4
0.556,1.946081949800088E-4
0.56,1.934302083766709E-4
0.5640000000000001,1.924205055738098E-4
0.5680000000000001,1.881172483901876E-4
0.5720000000000001,1.884538159911413E-4
0.5760000000000001,1.9037705942516242E-4
0.58,1.90521302682714E-4
0.584,1.8835765381944024E-4
0.588,1.8975200530910554E-4
0.592,1.9061746485441505E-4
0.596,1.9095403245536873E-4
0.6,1.952092085531404E-4
0.604,1.9431970846490562E-4
0.608,1.954015328965425E-4
0.612,1.9807003316124673E-4
0.616,1.9888741162070575E-4
0.62,2.0011347930989416E-4
0.624,1.981661953329478E-4
0.628,1.9739689795933936E-4
0.632,1.9662760058573094E-4
0.636,1.978296277319941E-4
0.64,1.9823831696172357E-4
0.644,2.0083469559765206E-4
0.648,1.9924801976458468E-4
0.652,1.963871951564783E-4
0.656,1.9588234375504776E-4
0.66,1.9799791153247095E-4
0.664,1.985268034768268E-4
0.668,1.9643527624232883E-4
0.672,1.948726409521867E-4
0.676,1.9422354629320456E-4
0.68,1.9535345181069197E-4
0.684,1.9696416818668462E-4
0.6880000000000001,1.9948842519383733E-4
0.6920000000000001,1.9907973596410784E-4
0.6960000000000001,1.9595446538382355E-4
0.7000000000000001,1.9225222177333295E-4
0.704,1.9326192457619405E-4
0.708,1.9441587063660667E-4
0.712,1.9564193832579513E-4
0.716,1.9362253272007298E-4
0.72,1.3241531043235187E-4
0.724,1.4873883907860587E-4
0.728,1.7354867937747787E-4
0.732,1.9734881687348882E-4
0.736,2.0722948001577216E-4
0.74,2.110519263408891E-4
0.744,2.1208566968667543E-4
0.748,2.1009030462387855E-4
0.752,2.090084801922417E-4
0.756,2.0665250698556585E-4
0.76,2.0684483132896793E-4
0.764,2.080949395610817E-4
0.768,2.0746988544502478E-4
0.772,2.0929696670734485E-4
0.776,2.1124425068429122E-4
0.78,2.1124425068429122E-4
0.784,2.094652505078217E-4
0.788,2.082391828186333E-4
0.792,2.076622097884269E-4
0.796,2.0792665576060485E-4
0.8,2.0799877738938063E-4
0.804,2.0670058807141636E-4
0.808,2.0864787204836276E-4
0.812,2.121818318583765E-4
0.8160000000000001,2.096094937653733E-4
0.8200000000000001,2.0989798028047643E-4
0.8240000000000001,2.1232607511592806E-4
0.8280000000000001,2.1345598063341544E-4
0.8320000000000001,2.1242223728762911E-4
0.836,2.123741562017786E-4
0.84,2.1285496706028385E-4
0.844,2.1393679149192074E-4
0.848,2.1386466986314493E-4
0.852,2.1198950751497437E-4
0.856,2.1134041285599228E-4
0.86,2.1278284543150807E-4
0.864,2.1102788579796384E-4
0.868,2.1220587240130176E-4
0.872,2.154753862391376E-4
0.876,2.1470608886552917E-4
0.88,2.1338385900463965E-4
0.884,2.136723455197428E-4
0.888,2.1393679149192074E-4
0.892,2.1410507529239759E-4
0.896,2.1290304814613437E-4
0.9,2.1331173737586386E-4
0.904,2.1451376452212705E-4
0.908,2.16701453928326E-4
0.912,2.1634084578444707E-4
0.916,2.168937782717281E-4
0.92,2.1691781881465338E-4
0.924,2.1595619709764284E-4
0.928,2.124943589164049E-4
0.932,2.1290304814613437E-4
0.936,2.1403295366362177E-4
0.9400000000000001,2.1182122371449753E-4
0.9440000000000001,2.0876807476298906E-4
0.9480000000000001,2.0530623658175109E-4
0.9520000000000001,2.0701311512944477E-4
0.9560000000000001,2.1006626408095328E-4
0.96,2.0833534499033432E-4
0.964,2.068207907860427E-4
0.968,2.0518603386712479E-4
0.972,2.0573896635440583E-4
0.976,2.055466420110037E-4
0.98,2.0528219603882584E-4
0.984,2.0424845269303947E-4
0.988,2.052341149529753E-4
0.992,2.058110879831816E-4
0.996,2.0749392598795006E-4
1.0,2.062918988416869E-4
1.004,2.0395996617793633E-4
1.008,2.026617768599721E-4
1.012,2.0136358754200786E-4
1.016,2.0172419568588684E-4
1.02,2.0093085776935312E-4
1.024,1.9924801976458468E-4
1.028,1.9996923605234259E-4
1.032,2.0037792528207205E-4
1.036,2.0184439840051314E-4
1.04,2.0218096600146683E-4
1.044,2.0227712817316788E-4
1.048,2.0150783079955943E-4
1.052,2.0494562843787213E-4
1.056,2.029983444609258E-4
1.06,2.0364743911990789E-4
1.064,2.041042094354879E-4
1.068,2.020848038297658E-4
1.072,2.0112318211275523E-4
1.076,2.0189247948636368E-4
1.08,2.0177227677173736E-4
1.084,2.037195607486837E-4
1.088,2.050417906095732E-4
1.092,2.0453693920814264E-4
1.096,2.0432057432181528E-4
1.1,2.0256561468827105E-4
1.104,2.0049812799669838E-4
1.108,2.0018560093866994E-4
1.112,2.044167364935163E-4
1.116,2.048494662661711E-4
1.12,2.034551147765058E-4
1.124,2.0513795278127424E-4
1.1280000000000001,2.0417633106426368E-4
1.1320000000000001,2.048494662661711E-4
1.1360000000000001,2.0561876363977953E-4
1.1400000000000001,2.018203578575879E-4
1.1440000000000001,2.005462090825489E-4
1.1480000000000001,2.035753174911321E-4
1.1520000000000001,2.0323874989017842E-4
1.156,2.0112318211275523E-4
1.16,2.006904523401005E-4
1.164,2.013395469990826E-4
1.168,2.005462090825489E-4
1.172,2.0189247948636368E-4
1.176,2.0335895260480474E-4
1.18,2.0482542572324583E-4
1.184,2.049215878949469E-4
1.188,2.0280602011752368E-4
1.192,2.0458502029399315E-4
1.196,2.068688718718932E-4
1.2,2.0292622283215E-4
1.204,2.0097893885520364E-4
1.208,2.0112318211275523E-4
1.212,1.994403441079868E-4
1.216,1.9984903333771626E-4
1.22,2.0088277668350258E-4
1.224,1.998971144235668E-4
1.228,2.0032984419622154E-4
1.232,1.9919993867873416E-4
1.236,2.0145974971370892E-4
1.24,2.004260063679226E-4
1.244,1.9804599261832146E-4
1.248,2.0093085776935312E-4
1.252,2.0232520925901842E-4
1.256,2.0215692545854158E-4
1.26,2.020848038297658E-4
1.264,2.0025772256744575E-4
1.268,1.9674780330035724E-4
1.272,1.9662760058573094E-4
1.276,1.98911452163631E-4
1.28,1.9898357379240678E-4
1.284,1.9903165487825732E-4
1.288,2.0121934428445626E-4
1.292,2.0105106048397942E-4
1.296,2.0011347930989416E-4
1.3,1.9968074953723942E-4
1.304,1.9833447913342463E-4
1.308,1.9722861415886252E-4
1.312,2.006904523401005E-4
1.316,1.9972883062308996E-4
1.32,1.9681992492913303E-4
1.324,1.9686800601498357E-4
1.328,1.943918300936814E-4
1.332,1.951370869243646E-4
1.336,2.010029793981289E-4
1.34,2.0119530374153102E-4
1.344,2.002096414815952E-4
1.348,1.9888741162070575E-4
1.352,1.9807003316124673E-4
1.356,1.9895953324948154E-4
1.36,1.981661953329478E-4
1.364,1.9922397922165943E-4
1.368,1.9679588438620778E-4
1.372,1.948245598663362E-4
1.3760000000000001,1.921560596016319E-4
1.3800000000000001,1.9092999191244346E-4
1.3840000000000001,1.91434843313874E-4
1.3880000000000001,1.9679588438620778E-4
1.3920000000000001,1.9576214104042146E-4
1.3960000000000001,1.9544961398239302E-4
1.4000000000000001,1.976853844744425E-4
1.4040000000000001,1.9953650627968785E-4
1.408,1.986470061914531E-4
1.412,1.9739689795933936E-4
1.416,1.9831043859049936E-4
1.42,1.9953650627968785E-4
1.424,1.9840660076220041E-4
1.428,1.9648335732817934E-4
1.432,1.9331000566204457E-4
1.436,1.9218010014455716E-4
1.44,1.915069649426498E-4
1.444,1.9333404620496984E-4
1.448,1.937427354346993E-4
1.452,1.9391101923517615E-4
1.456,1.9458415443708352E-4
1.46,1.9306960023279191E-4
1.464,1.9463223552293408E-4
1.468,1.9968074953723942E-4
1.472,2.0283006066044895E-4
1.476,2.0076257396887628E-4
1.48,1.978296277319941E-4
1.484,1.9915185759288365E-4
1.488,2.0045004691084784E-4
1.492,1.9831043859049936E-4
1.496,1.9766134393151724E-4
1.5,1.9725265470178777E-4
1.504,1.9732477633056355E-4
1.508,1.993201413933605E-4
1.512,2.000894387669689E-4
1.516,2.0283006066044895E-4
1.52,2.0924888562149434E-4
1.524,2.1201354805789965E-4
1.528,2.0898443964931644E-4
1.532,1.973007357876383E-4
1.536,1.7323615231944946E-4
1.54,1.479935822479227E-4
1.544,1.2412132312313595E-4
1.548,1.0964891628212726E-4
1.552,1.1154811917322308E-4
1.556,1.2678982338784018E-4
1.56,1.4102182479959626E-4
1.564,1.6299488103328717E-4
1.568,1.887423025062445E-4
1.572,2.0206076328684053E-4
1.576,2.0458502029399315E-4
1.58,2.0677270970019215E-4
1.584,2.0701311512944477E-4
1.588,2.074458449020995E-4
1.592,2.0677270970019215E-4
1.596,2.0792665576060485E-4
1.6,2.1206162914375016E-4
1.604,2.1066727765408486E-4
1.608,2.116529399140207E-4
1.612,2.10859601997487E-4
1.616,2.110519263408891E-4
1.62,2.1427335909287443E-4
1.624,2.1439356180750073E-4
1.6280000000000001,2.1119616959844068E-4
1.6320000000000001,2.0879211530591433E-4
1.6360000000000001,2.0785453413182906E-4
1.6400000000000001,2.0922484507856907E-4
1.6440000000000001,2.0857575041958697E-4
1.6480000000000001,2.103066695102059E-4
1.6520000000000001,2.1097980471211332E-4
1.6560000000000001,2.117010209998712E-4
1.6600000000000001,2.1073939928286064E-4
1.6640000000000001,2.1090768308333754E-4
1.668,2.102585884243554E-4
1.672,2.1227799403007754E-4
1.676,2.133357779187891E-4
1.68,2.1453780506505232E-4
1.684,2.1612448089811969E-4
1.688,2.1232607511592806E-4
1.692,2.1177314262864702E-4
1.696,2.1335981846171438E-4
1.7,2.1417719692117337E-4
1.704,2.1417719692117337E-4
1.708,2.1439356180750073E-4
1.712,2.1566771058253968E-4
1.716,2.166293322995502E-4
1.72,2.175909540165608E-4
1.724,2.1751883238778501E-4
1.728,2.1867277844819766E-4
1.732,2.1535518352451126E-4
1.736,2.138887104060702E-4
1.74,2.1622064306982074E-4
1.744,2.1674953501417654E-4
1.748,2.1706206207220503E-4
1.752,2.1706206207220503E-4
1.756,2.1718226478683133E-4
1.76,2.169418593575787E-4
1.764,2.1682165664295232E-4
1.768,2.1715822424390606E-4
1.772,2.143454807216502E-4
1.776,2.141531563782481E-4
1.78,2.1581195384009127E-4
1.784,2.155234673249881E-4
1.788,2.146820483226039E-4
1.792,2.11316372313067E-4
1.796,2.110519263408891E-4
1.8,2.12229912944227E-4
1.804,2.0778241250305328E-4
1.808,2.0638806101338795E-4
1.812,2.0795069630353012E-4
1.816,2.079747368464554E-4
1.82,2.0737372327332373E-4
1.824,2.0597937178365845E-4
1.828,2.0412824997841317E-4
1.832,2.0646018264216373E-4
1.836,2.0535431766760163E-4
1.84,2.0636402047046268E-4
1.844,2.0453693920814264E-4
1.848,2.0420037160718895E-4
1.852,2.048494662661711E-4
1.856,2.0369552020575843E-4
1.86,2.0179631731466263E-4
1.864,1.9804599261832146E-4
1.868,2.0155591188541E-4
1.872,2.0136358754200786E-4
1.8760000000000001,2.0340703369065526E-4
1.8800000000000001,2.027819795745984E-4
1.8840000000000001,2.0285410120337422E-4
1.8880000000000001,2.0023368202452048E-4
1.8920000000000001,1.9773346556029305E-4
1.8960000000000001,2.0124338482738153E-4
1.9000000000000001,2.026617768599721E-4
1.9040000000000001,2.0408016889256263E-4
1.9080000000000001,2.0393592563501105E-4
1.9120000000000001,2.0468118246569426E-4
1.9160000000000001,2.0400804726378684E-4
1.92,2.0383976346331E-4
1.924,2.0251753360242054E-4
1.928,2.037676418345342E-4
1.932,2.0232520925901842E-4
1.936,2.0381572292038473E-4
1.94,2.0501775006664794E-4
1.944,2.0444077703644158E-4
1.948,2.0453693920814264E-4
1.952,2.0472926355154478E-4
1.956,2.0261369577412156E-4
1.96,2.0352723640528159E-4
1.964,2.0480138518032056E-4
1.968,2.020848038297658E-4
1.972,2.023492498019437E-4
1.976,2.0446481757936685E-4
1.98,2.0292622283215E-4
1.984,2.0525815549590057E-4
1.988,2.0573896635440583E-4
1.992,2.0533027712467636E-4
1.996,2.0468118246569426E-4
2.0,2.0513795278127424E-4
2.004,2.0528219603882584E-4
2.008,2.0218096600146683E-4
2.012,2.0191652002928895E-4
2.016,2.0350319586235632E-4
2.02,2.0448885812229212E-4
2.024,2.0422441215011422E-4
2.028,2.063399799275374E-4
2.032,2.0636402047046268E-4
2.036,2.035753174911321E-4
2.04,2.0136358754200786E-4
2.044,2.0328683097602896E-4
2.048,2.0309450663262685E-4
2.052,2.0605149341243427E-4
2.056,2.0508987169542373E-4
2.06,2.060755339553595E-4
2.064,2.0624381775583635E-4
2.068,2.0636402047046268E-4
2.072,2.0790261521767958E-4
2.076,2.0778241250305328E-4
2.08,2.0552260146807847E-4
2.084,2.0665250698556585E-4
2.088,2.06027452869509E-4
2.092,2.0513795278127424E-4
2.096,2.0316662826140263E-4
2.1,2.0516199332419952E-4
2.104,2.0573896635440583E-4
2.108,2.0525815549590057E-4
2.112,2.0557068255392898E-4
2.116,2.0636402047046268E-4
2.12,2.065563448138648E-4
2.124,2.0359935803405737E-4
2.128,2.0545047983930268E-4
2.132,2.0658038535679003E-4
2.136,2.0448885812229212E-4
2.14,2.0489754735202162E-4
2.144,2.047773446373953E-4
2.148,2.055466420110037E-4
2.152,2.037676418345342E-4
2.156,1.9956054682261312E-4
2.16,1.9977691170894047E-4
2.164,2.0369552020575843E-4
2.168,2.0011347930989416E-4
2.172,2.0059429016839944E-4
2.176,2.0314258771847736E-4
2.18,2.0393592563501105E-4
2.184,2.0412824997841317E-4
2.188,2.0547452038222793E-4
2.192,2.0790261521767958E-4
2.196,2.086238315054375E-4
2.2,2.0742180435917427E-4
2.204,2.0852766933373643E-4
2.208,2.135521428051165E-4
2.212,2.124943589164049E-4
2.216,2.082872639044838E-4
2.22,2.0715735838699637E-4
2.224,2.0754200707380057E-4
2.228,2.0631593938461216E-4
2.232,2.0720543947284689E-4
2.236,2.0838342607618486E-4
2.24,2.064121015563132E-4
2.244,2.1069131819701013E-4
2.248,2.105230343965333E-4
2.2520000000000002,2.0821514227570802E-4
2.2560000000000002,2.0727756110162267E-4
2.2600000000000002,2.0763816924550163E-4
2.2640000000000002,2.0672462861434163E-4
2.2680000000000002,2.0826322336155853E-4
2.2720000000000002,2.1001818299510276E-4
2.2760000000000002,2.1076343982578591E-4
2.2800000000000002,2.123741562017786E-4
2.2840000000000003,2.1054707493945856E-4
2.2880000000000003,2.082872639044838E-4
2.2920000000000003,2.0838342607618486E-4
2.2960000000000003,2.0674866915726688E-4
2.3000000000000003,2.086238315054375E-4
2.3040000000000003,2.088161558488396E-4
2.308,2.0727756110162267E-4
2.312,2.0696503404359426E-4
2.316,2.0225308763024264E-4
2.32,2.0148379025663416E-4
2.324,2.0499370952372267E-4
2.328,2.059553312407332E-4
2.332,2.0237329034486894E-4
2.336,2.027338984887479E-4
2.34,2.0340703369065526E-4
2.344,2.0280602011752368E-4
2.348,2.0383976346331E-4
2.352,2.0737372327332373E-4
2.356,2.0749392598795006E-4
2.36,2.0761412870257636E-4
2.364,2.10859601997487E-4
2.368,2.1436952126457548E-4
2.372,2.164370079561481E-4
2.376,2.0763816924550163E-4
2.38,1.8383803174949067E-4
2.384,1.563116101000639E-4
2.388,1.3448279712392454E-4
2.392,1.1618794395779895E-4
2.396,1.1097114614301675E-4
2.4,1.2808801270580442E-4
2.404,1.4369032506430048E-4
2.408,1.656874218409167E-4
2.412,1.8967988368032975E-4
2.416,2.0557068255392898E-4
2.42,2.1283092651735858E-4
2.424,2.1742267021608396E-4
2.428,2.1309537248953648E-4
2.432,2.1326365629001332E-4
2.436,2.1708610261513028E-4
2.44,2.1600427818349336E-4
2.444,2.1638892687029758E-4
2.448,2.1561962949668916E-4
2.452,2.183121703043187E-4
2.456,2.1706206207220503E-4
2.46,2.1465800777967862E-4
2.464,2.1350406171926595E-4
2.468,2.133357779187891E-4
2.472,2.169418593575787E-4
2.476,2.16701453928326E-4
2.48,2.1641296741322285E-4
2.484,2.1698994044342922E-4
2.488,2.1595619709764284E-4
2.492,2.1583599438301652E-4
2.496,2.1542730515328705E-4
2.5,2.1424931854994916E-4
2.504,2.1126829122721647E-4
2.508,2.110038452550386E-4
2.512,2.111240479696649E-4
2.516,2.1150869665646912E-4
2.52,2.115808182852449E-4
2.524,2.1422527800702389E-4
2.528,2.1622064306982074E-4
2.532,2.1489841320893125E-4
2.536,2.150666970094081E-4
2.54,2.1583599438301652E-4
2.544,2.1477821049430495E-4
2.548,2.1713418370098082E-4
2.552,2.1610044035519441E-4
2.556,2.174707513019345E-4
2.56,2.1754287293071029E-4
2.564,2.1703802152927976E-4
2.568,2.1836025139016922E-4
2.572,2.197546028798345E-4
2.576,2.2208653554358507E-4
2.58,2.1946611636473136E-4
2.584,2.1843237301894504E-4
2.588,2.1970652179398398E-4
2.592,2.179275216175145E-4
2.596,2.169418593575787E-4
2.6,2.1655721067077443E-4
2.604,2.1821600813261765E-4
2.608,2.1814388650384187E-4
2.612,2.1626872415567126E-4
2.616,2.1528306189573548E-4
2.62,2.1629276469859653E-4
2.624,2.1667741338540075E-4
2.628,2.1511477809525864E-4
2.632,2.1338385900463965E-4
2.636,2.1403295366362177E-4
2.64,2.119173858861986E-4
2.644,2.093931288790459E-4
2.648,2.093931288790459E-4
2.652,2.0929696670734485E-4
2.656,2.0763816924550163E-4
2.66,2.0588320961195742E-4
2.664,2.06484223185089E-4
2.668,2.0280602011752368E-4
2.672,2.029983444609258E-4
2.676,2.0388784454916054E-4
2.68,2.0434461486474052E-4
2.684,2.0393592563501105E-4
2.688,2.0292622283215E-4
2.692,2.0383976346331E-4
2.696,2.0179631731466263E-4
2.7,2.0268581740289738E-4
2.704,2.0444077703644158E-4
2.708,2.0395996617793633E-4
2.712,2.0347915531943104E-4
2.716,2.0292622283215E-4
2.72,2.0268581740289738E-4
2.724,2.0516199332419952E-4
2.728,2.0561876363977953E-4
2.732,2.0564280418270477E-4
2.736,2.06484223185089E-4
2.74,2.0540239875345214E-4
2.744,2.0420037160718895E-4
2.748,2.049215878949469E-4
2.7520000000000002,2.06940993500669E-4
2.7560000000000002,2.0451289866521737E-4
2.7600000000000002,2.0453693920814264E-4
2.7640000000000002,2.04657141922769E-4
2.7680000000000002,2.029983444609258E-4
2.7720000000000002,2.045609797510679E-4
2.7760000000000002,2.0525815549590057E-4
2.7800000000000002,2.0270985794582262E-4
2.7840000000000003,2.010029793981289E-4
2.7880000000000003,2.0244541197364472E-4
2.7920000000000003,2.0105106048397942E-4
2.7960000000000003,2.0321470934725315E-4
2.8000000000000003,2.0045004691084784E-4
2.8040000000000003,2.00738533425951E-4
2.8080000000000003,2.0244541197364472E-4
2.8120000000000003,2.023973308877942E-4
2.816,2.0283006066044895E-4
2.82,2.0249349305949526E-4
2.824,2.037195607486837E-4
2.828,2.0340703369065526E-4
2.832,2.021328849156163E-4
2.836,2.0417633106426368E-4
2.84,2.0751796653087533E-4
2.844,2.0561876363977953E-4
2.848,2.0206076328684053E-4
2.852,2.0395996617793633E-4
2.856,2.034551147765058E-4
2.86,2.033108715189542E-4
2.864,2.0032984419622154E-4
2.868,2.0184439840051314E-4
2.872,2.0162803351418579E-4
2.876,2.0189247948636368E-4
2.88,2.009548983122784E-4
2.884,2.0198864165806474E-4
2.888,2.0311854717555212E-4
2.892,2.0232520925901842E-4
2.896,2.021328849156163E-4
2.9,2.0172419568588684E-4
2.904,2.0112318211275523E-4
2.908,2.026617768599721E-4
2.912,2.0292622283215E-4
2.916,2.013395469990826E-4
2.92,2.0037792528207205E-4
2.924,2.001615603957447E-4
2.928,1.9927206030750995E-4
2.932,1.9994519550941731E-4
2.936,2.0206076328684053E-4
2.94,2.023973308877942E-4
2.944,2.0160399297126051E-4
2.948,2.0335895260480474E-4
2.952,2.0393592563501105E-4
2.956,2.0242137143071948E-4
2.96,2.006904523401005E-4
2.964,2.0244541197364472E-4
2.968,2.0160399297126051E-4
2.972,2.0218096600146683E-4
2.976,2.0275793903167316E-4
2.98,1.9996923605234259E-4
2.984,1.9840660076220041E-4
2.988,1.9706033035838565E-4
2.992,1.9650739787110461E-4
2.996,1.9696416818668462E-4
3.0,1.9823831696172357E-4
3.004,1.9811811424709725E-4
3.008,2.0037792528207205E-4
3.012,2.0359935803405737E-4
3.016,2.0487350680909635E-4
3.02,2.0609957449828478E-4
3.024,2.0340703369065526E-4
3.028,2.013395469990826E-4
3.032,2.0362339857698264E-4
3.036,2.0501775006664794E-4
3.04,2.0730160164454794E-4
3.044,2.0383976346331E-4
3.048,2.047052230086195E-4
3.052,2.0754200707380057E-4
3.056,2.068207907860427E-4
3.06,2.0756604761672584E-4
3.064,2.0936908833612064E-4
3.068,2.0898443964931644E-4
3.072,2.0557068255392898E-4
3.076,2.0230116871609315E-4
3.08,1.9912781704995838E-4
3.084,2.030464255467763E-4
3.088,2.0232520925901842E-4
3.092,2.0311854717555212E-4
3.096,2.0386380400623527E-4
3.1,2.0530623658175109E-4
3.104,2.0533027712467636E-4
3.108,2.0600341232658372E-4
3.112,2.0578704744025637E-4
3.116,2.0393592563501105E-4
3.12,2.0359935803405737E-4
3.124,2.0412824997841317E-4
3.128,2.0347915531943104E-4
3.132,2.0383976346331E-4
3.136,2.0393592563501105E-4
3.14,2.0564280418270477E-4
3.144,2.0446481757936685E-4
3.148,2.054264392963774E-4
3.152,2.0665250698556585E-4
3.156,2.0585916906903215E-4
3.16,2.0521007441005003E-4
3.164,2.0355127694820683E-4
3.168,2.0129146591323208E-4
3.172,2.0119530374153102E-4
3.176,2.0049812799669838E-4
3.18,2.0170015514296157E-4
3.184,2.0237329034486894E-4
3.188,2.0227712817316788E-4
3.192,2.0004135768111837E-4
3.196,2.0129146591323208E-4
3.2,2.0429653377889E-4
3.204,2.0638806101338795E-4
3.208,2.0703715567237004E-4
3.212,2.0552260146807847E-4
3.216,2.0617169612706057E-4
3.22,2.050417906095732E-4
3.224,2.088161558488396E-4
3.228,2.1273476434565753E-4
3.232,2.1261456163103123E-4
3.236,2.020848038297658E-4
3.24,1.763133418138832E-4
3.244,1.479935822479227E-4
3.248,1.2359243117878013E-4
3.2520000000000002,1.046004022678219E-4
3.2560000000000002,1.0419171303809243E-4
3.2600000000000002,1.2162110665890852E-4
3.2640000000000002,1.393389867948278E-4
3.2680000000000002,1.625861918035577E-4
3.2720000000000002,1.8566511301181074E-4
3.2760000000000002,1.9956054682261312E-4
3.2800000000000002,2.0545047983930268E-4
3.2840000000000003,2.0597937178365845E-4
3.2880000000000003,2.049696689807974E-4
3.2920000000000003,2.0535431766760163E-4
3.2960000000000003,2.0689291241481847E-4
3.3000000000000003,2.0826322336155853E-4
3.3040000000000003,2.066044258997153E-4
3.3080000000000003,2.047773446373953E-4
3.3120000000000003,2.0833534499033432E-4
3.3160000000000003,2.1141253448476806E-4
3.3200000000000003,2.0936908833612064E-4
3.3240000000000003,2.0778241250305328E-4
3.3280000000000003,2.0684483132896793E-4
3.332,2.068688718718932E-4
3.336,2.0761412870257636E-4
3.34,2.090084801922417E-4
3.344,2.1172506154279648E-4
3.348,2.1023454788143012E-4
3.352,2.090806018210175E-4
3.356,2.09128682906868E-4
3.36,2.0963353430829854E-4
3.364,2.0994606136632698E-4
3.368,2.1134041285599228E-4
3.372,2.1016242625265433E-4
3.376,2.11316372313067E-4
3.38,2.103066695102059E-4
3.384,2.0857575041958697E-4
3.388,2.1066727765408486E-4
3.392,2.0994606136632698E-4
3.396,2.0932100725027012E-4
3.4,2.110519263408891E-4
3.404,2.1186930480034805E-4
3.408,2.1174910208572175E-4
3.412,2.1110000742673962E-4
3.416,2.1033071005313117E-4
3.42,2.105711154823838E-4
3.424,2.1259052108810596E-4
3.428,2.1280688597443334E-4
3.432,2.14417602350426E-4
3.436,2.12229912944227E-4
3.44,2.138165887772944E-4
3.444,2.1458588615090284E-4
3.448,2.152590213528102E-4
3.452,2.13600223890967E-4
3.456,2.1299921031783542E-4
3.46,2.1386466986314493E-4
3.464,2.1403295366362177E-4
3.468,2.138165887772944E-4
3.472,2.1182122371449753E-4
3.476,2.1167698045694596E-4
3.48,2.1146061557061858E-4
3.484,2.1261456163103123E-4
3.488,2.1273476434565753E-4
3.492,2.1338385900463965E-4
3.496,2.1489841320893125E-4
3.5,2.1595619709764284E-4
3.504,2.14874372666006E-4
3.508,2.1297516977491018E-4
3.512,2.0891231802054066E-4
3.516,2.0646018264216373E-4
3.52,2.0381572292038473E-4
3.524,2.0417633106426368E-4
3.528,2.0242137143071948E-4
3.532,2.021328849156163E-4
3.536,2.0225308763024264E-4
3.54,2.035753174911321E-4
3.544,2.0564280418270477E-4
3.548,2.0362339857698264E-4
3.552,2.0222904708731737E-4
3.556,2.0155591188541E-4
3.56,2.0148379025663416E-4
3.564,2.019405605722142E-4
3.568,2.0184439840051314E-4
3.572,2.004260063679226E-4
3.576,2.010029793981289E-4
3.58,2.0227712817316788E-4
3.584,2.035753174911321E-4
3.588,2.0352723640528159E-4
3.592,2.034551147765058E-4
3.596,2.0323874989017842E-4
3.6,2.017482362288121E-4
3.604,2.0165207405711106E-4
3.608,2.004740874537731E-4
3.612,2.0321470934725315E-4
3.616,2.0472926355154478E-4
3.62,2.0388784454916054E-4
3.624,2.055466420110037E-4
3.628,2.0631593938461216E-4
3.632,2.0393592563501105E-4
3.636,2.027338984887479E-4
3.64,2.0270985794582262E-4
3.644,2.018684389434384E-4
3.648,2.0203672274391525E-4
3.652,2.0057024962547417E-4
3.656,2.0136358754200786E-4
3.66,2.0321470934725315E-4
3.664,2.0254157414534578E-4
3.668,2.0412824997841317E-4
3.672,2.0417633106426368E-4
3.676,2.062197772129111E-4
3.68,2.0708523675822059E-4
3.684,2.047052230086195E-4
3.688,2.0429653377889E-4
3.692,2.0364743911990789E-4
3.696,2.0040196582499733E-4
3.7,2.0179631731466263E-4
3.704,2.020848038297658E-4
3.708,2.009548983122784E-4
3.712,2.021328849156163E-4
3.716,2.0076257396887628E-4
3.72,2.0482542572324583E-4
3.724,2.064121015563132E-4
3.728,2.033108715189542E-4
3.732,2.0078661451180152E-4
3.736,2.015318713424847E-4
3.74,2.0340703369065526E-4
3.744,2.0292622283215E-4
3.748,2.020848038297658E-4
3.7520000000000002,2.0311854717555212E-4
3.7560000000000002,2.0400804726378684E-4
3.7600000000000002,2.0636402047046268E-4
3.7640000000000002,2.06484223185089E-4
3.7680000000000002,2.0412824997841317E-4
3.7720000000000002,2.0381572292038473E-4
3.7760000000000002,2.0165207405711106E-4
3.7800000000000002,2.0295026337507528E-4
3.7840000000000003,2.0321470934725315E-4
3.7880000000000003,2.0076257396887628E-4
3.7920000000000003,1.9984903333771626E-4
3.7960000000000003,2.0369552020575843E-4
3.8000000000000003,2.0350319586235632E-4
3.8040000000000003,2.0400804726378684E-4
3.8080000000000003,2.0210884437269104E-4
3.8120000000000003,1.9787770881784462E-4
3.8160000000000003,1.981661953329478E-4
3.8200000000000003,2.010751010269047E-4
3.8240000000000003,2.0141166862785838E-4
3.8280000000000003,2.0114722265568048E-4
3.8320000000000003,2.0112318211275523E-4
3.8360000000000003,2.010751010269047E-4
3.84,2.0201268220098998E-4
3.844,1.9956054682261312E-4
3.848,2.0076257396887628E-4
3.852,2.0246945251657E-4
3.856,2.0268581740289738E-4
3.86,2.0201268220098998E-4
3.864,2.0203672274391525E-4
3.868,2.0155591188541E-4
3.872,2.0124338482738153E-4
3.876,2.0105106048397942E-4
3.88,2.0172419568588684E-4
3.884,2.0244541197364472E-4
3.888,2.0143570917078365E-4
3.892,1.997047900801647E-4
3.896,1.998971144235668E-4
3.9,2.0105106048397942E-4
3.904,2.0242137143071948E-4
3.908,2.004740874537731E-4
3.912,2.0004135768111837E-4
3.916,1.9907973596410784E-4
3.92,1.9823831696172357E-4
3.924,1.9554577615409408E-4
3.928,1.978296277319941E-4
3.932,2.0136358754200786E-4
3.936,2.032627904331037E-4
3.94,2.0218096600146683E-4
3.944,2.029983444609258E-4
3.948,2.0263773631704684E-4
3.952,2.005462090825489E-4
3.956,1.9912781704995838E-4
3.96,1.973007357876383E-4
3.964,1.978296277319941E-4
3.968,1.9739689795933936E-4
3.972,1.998971144235668E-4
3.976,1.9929610085043522E-4
3.98,1.9843064130512569E-4
3.984,1.9859892510560258E-4
3.988,1.985268034768268E-4
3.992,1.9807003316124673E-4
3.996,1.9350233000544668E-4
4.0,1.9335808674789508E-4
4.0040000000000004,1.934782894625214E-4
4.008,1.9419950575027932E-4
4.0120000000000005,1.9499284366681304E-4
4.016,1.961948708130762E-4
4.0200000000000005,1.9838256021927514E-4
4.024,1.9840660076220041E-4
4.0280000000000005,1.987912494490047E-4
4.032,1.99368222479211E-4
4.0360000000000005,1.987191278202289E-4
4.04,1.963871951564783E-4
4.0440000000000005,1.9826235750464882E-4
4.048,2.0040196582499733E-4
4.0520000000000005,2.0114722265568048E-4
4.056,2.034551147765058E-4
4.0600000000000005,2.059553312407332E-4
4.064,2.0280602011752368E-4
4.0680000000000005,2.0141166862785838E-4
4.072,2.0117126319860575E-4
4.0760000000000005,2.009548983122784E-4
4.08,1.9840660076220041E-4
4.0840000000000005,1.9975287116601523E-4
4.088,2.0179631731466263E-4
4.0920000000000005,2.0412824997841317E-4
4.096,2.0297430391800052E-4
4.1,2.0198864165806474E-4
4.104,2.0665250698556585E-4
4.108,2.0994606136632698E-4
4.112,2.0559472309685425E-4
4.116,1.9456011389415825E-4
4.12,1.6758662473201252E-4
4.124,1.3943514896652885E-4
4.128,1.1568309255636841E-4
4.132,1.0087411811440606E-4
4.136,1.0373494272251239E-4
4.14,1.2330394466367696E-4
4.144,1.4179112217320468E-4
4.148,1.6645671921452511E-4
4.152,1.8763643753168233E-4
4.156,2.0006539822404364E-4
4.16,2.0605149341243427E-4
4.164,2.0696503404359426E-4
4.168,2.0751796653087533E-4
4.172,2.0795069630353012E-4
4.176,2.0826322336155853E-4
4.18,2.0720543947284689E-4
4.184,2.0816706118985748E-4
4.188,2.1093172362626278E-4
4.192,2.1021050733850487E-4
4.196,2.1054707493945856E-4
4.2,2.115808182852449E-4
4.204,2.1042687222483223E-4
4.208,2.0869595313421327E-4
4.212,2.096575748512238E-4
4.216,2.1076343982578591E-4
4.22,2.0958545322244802E-4
4.224,2.0768625033135217E-4
4.228,2.071333178440711E-4
4.232,2.068207907860427E-4
4.236,2.0850362879081116E-4
4.24,2.0936908833612064E-4
4.244,2.0756604761672584E-4
4.248,2.064121015563132E-4
4.252,2.0453693920814264E-4
4.256,2.050417906095732E-4
4.26,2.102585884243554E-4
4.264,2.113884939418428E-4
4.268,2.114365750276933E-4
4.272,2.13600223890967E-4
4.276,2.1235011565885333E-4
4.28,2.1066727765408486E-4
4.284,2.1093172362626278E-4
4.288,2.1129233177014174E-4
4.292,2.1011434516680382E-4
4.296,2.0679675024311742E-4
4.3,2.096094937653733E-4
4.304,2.1345598063341544E-4
4.308,2.1309537248953648E-4
4.312,2.1179718317157226E-4
4.316,2.096575748512238E-4
4.32,2.1182122371449753E-4
4.324,2.149464942947818E-4
4.328,2.155955889537639E-4
4.332,2.12686683259807E-4
4.336,2.1345598063341544E-4
4.34,2.13960832034846E-4
4.344,2.1273476434565753E-4
4.348,2.1225395348715227E-4
4.352,2.1266264271688174E-4
4.356,2.1235011565885333E-4
4.36,2.1023454788143012E-4
4.364,2.0896039910639117E-4
4.368,2.0821514227570802E-4
4.372,2.1061919656823434E-4
4.376,2.1273476434565753E-4
4.38,2.0982585865170065E-4
4.384,2.052341149529753E-4
4.388,2.0528219603882584E-4
4.392,2.043686554076658E-4
4.396,2.0379168237745948E-4
4.4,2.0508987169542373E-4
4.404,2.0352723640528159E-4
4.408,2.0011347930989416E-4
4.412,2.0131550645615732E-4
4.416,2.0131550645615732E-4
4.42,2.0045004691084784E-4
4.424,2.0141166862785838E-4
4.428,2.0157995242833524E-4
4.432,2.0285410120337422E-4
4.436,2.04657141922769E-4
4.44,2.0475330409447005E-4
4.444,2.0432057432181528E-4
4.448,2.037195607486837E-4
4.452,2.0444077703644158E-4
4.456,2.0340703369065526E-4
4.46,2.0145974971370892E-4
4.464,2.023973308877942E-4
4.468,2.0359935803405737E-4
4.472,2.041042094354879E-4
4.476,2.0499370952372267E-4
4.48,2.0429653377889E-4
4.484,2.0328683097602896E-4
4.488,2.0451289866521737E-4
4.492,2.0573896635440583E-4
4.496,2.062197772129111E-4
4.5,2.0513795278127424E-4
4.5040000000000004,2.0343107423358053E-4
4.508,2.049215878949469E-4
4.5120000000000005,2.0545047983930268E-4
4.516,2.0650826372801425E-4
4.5200000000000005,2.0256561468827105E-4
4.524,2.031906688043279E-4
4.5280000000000005,2.0359935803405737E-4
4.532,2.0398400672086157E-4
4.5360000000000005,2.0482542572324583E-4
4.54,2.045609797510679E-4
4.5440000000000005,2.0215692545854158E-4
4.548,2.0025772256744575E-4
4.5520000000000005,2.0201268220098998E-4
4.556,2.0280602011752368E-4
4.5600000000000005,2.003538847391468E-4
4.564,2.0105106048397942E-4
4.5680000000000005,2.020848038297658E-4
4.572,2.0398400672086157E-4
4.5760000000000005,2.026617768599721E-4
4.58,2.021328849156163E-4
4.5840000000000005,2.020848038297658E-4
4.588,2.0136358754200786E-4
4.5920000000000005,2.006904523401005E-4
4.596,1.987191278202289E-4
4.6000000000000005,1.9919993867873416E-4
4.604,2.0018560093866994E-4
4.6080000000000005,2.000894387669689E-4
4.612,2.0112318211275523E-4
4.616,2.0292622283215E-4
4.62,2.0439269595059107E-4
4.624,2.0328683097602896E-4
4.628,2.0129146591323208E-4
4.632,2.027338984887479E-4
4.636,2.0359935803405737E-4
4.64,2.0321470934725315E-4
4.644,2.0141166862785838E-4
4.648,2.0025772256744575E-4
4.652,2.0093085776935312E-4
4.656,2.0071449288302574E-4
4.66,2.001615603957447E-4
4.664,2.0057024962547417E-4
4.668,2.0121934428445626E-4
4.672,2.000894387669689E-4
4.676,2.0189247948636368E-4
4.68,2.0251753360242054E-4
4.684,2.0057024962547417E-4
4.688,1.9996923605234259E-4
4.692,2.0119530374153102E-4
4.696,2.019405605722142E-4
4.7,2.0184439840051314E-4
4.704,2.0196460111513947E-4
4.708,2.0287814174629946E-4
4.712,2.045609797510679E-4
4.716,2.0429653377889E-4
4.72,2.0230116871609315E-4
4.724,2.030464255467763E-4
4.728,2.004740874537731E-4
4.732,1.9674780330035724E-4
4.736,1.99368222479211E-4
4.74,2.0381572292038473E-4
4.744,2.045609797510679E-4
4.748,2.0405612834963738E-4
4.752,2.0165207405711106E-4
4.756,2.0109914156982996E-4
4.76,2.0114722265568048E-4
4.764,2.0222904708731737E-4
4.768,2.0201268220098998E-4
4.772,2.0023368202452048E-4
4.776,2.0032984419622154E-4
4.78,1.9804599261832146E-4
4.784,1.9956054682261312E-4
4.788,2.0071449288302574E-4
4.792,2.0340703369065526E-4
4.796,2.0367147966283316E-4
4.8,2.0489754735202162E-4
4.804,2.0225308763024264E-4
4.808,2.027338984887479E-4
4.812,2.043686554076658E-4
4.816,2.0323874989017842E-4
4.82,2.010751010269047E-4
4.824,1.9804599261832146E-4
4.828,1.9893549270655626E-4
4.832,1.9895953324948154E-4
4.836,2.0057024962547417E-4
4.84,2.013395469990826E-4
4.844,2.026617768599721E-4
4.848,2.0249349305949526E-4
4.852,2.020848038297658E-4
4.856,2.029983444609258E-4
4.86,2.0316662826140263E-4
4.864,1.9984903333771626E-4
4.868,1.9939226302213627E-4
4.872,2.0025772256744575E-4
4.876,2.0088277668350258E-4
4.88,2.0129146591323208E-4
4.884,2.0246945251657E-4
4.888,2.0191652002928895E-4
4.892,2.0292622283215E-4
4.896,2.026617768599721E-4
4.9,2.0367147966283316E-4
4.904,1.9960862790846363E-4
4.908,1.9590638429797303E-4
4.912,1.9987307388064153E-4
4.916,2.0136358754200786E-4
4.92,2.023973308877942E-4
4.924,2.027819795745984E-4
4.928,2.0472926355154478E-4
4.932,2.035753174911321E-4
4.936,2.0432057432181528E-4
4.94,1.9977691170894047E-4
4.944,1.9919993867873416E-4
4.948,2.0124338482738153E-4
4.952,1.9895953324948154E-4
4.956,1.9778154664614356E-4
4.96,2.0059429016839944E-4
4.964,2.07758371960128E-4
4.968,2.1323961574708805E-4
4.972,2.1189334534327332E-4
4.976,2.0275793903167316E-4
4.98,1.8275620731785384E-4
4.984,1.594609212232734E-4
4.988,1.3465108092440138E-4
4.992,1.1738997110406211E-4
4.996,1.1296651120581362E-4
5.0,1.2873710736478655E-4
5.0040000000000004,1.4792146061914688E-4
5.008,1.6888481404997674E-4
5.0120000000000005,1.9172332982897715E-4
5.016,2.0864787204836276E-4
5.0200000000000005,2.12229912944227E-4
5.024,2.137444671485186E-4
5.0280000000000005,2.1287900760320912E-4
5.032,2.1208566968667543E-4
5.0360000000000005,2.1162889937109542E-4
5.04,2.113884939418428E-4
5.0440000000000005,2.1093172362626278E-4
5.048,2.1042687222483223E-4
5.0520000000000005,2.0792665576060485E-4
5.056,2.0749392598795006E-4
5.0600000000000005,2.0821514227570802E-4
5.064,2.06484223185089E-4
5.0680000000000005,2.0364743911990789E-4
5.072,2.049696689807974E-4
5.0760000000000005,2.0773433141720274E-4
5.08,2.1102788579796384E-4
5.0840000000000005,2.110038452550386E-4
5.088,2.088161558488396E-4
5.0920000000000005,2.0843150716203537E-4
5.096,2.0790261521767958E-4
5.1000000000000005,2.0773433141720274E-4
5.104,2.0924888562149434E-4
5.1080000000000005,2.1054707493945856E-4
5.112,2.1206162914375016E-4
5.1160000000000005,2.1259052108810596E-4
5.12,2.1273476434565753E-4
5.124,2.1134041285599228E-4
5.128,2.06940993500669E-4
5.132,2.062918988416869E-4
5.136,2.0677270970019215E-4
5.14,2.0879211530591433E-4
5.144,2.1042687222483223E-4
5.148,2.0982585865170065E-4
5.152,2.0984989919462592E-4
5.156,2.116529399140207E-4
5.16,2.1006626408095328E-4
5.164,2.1066727765408486E-4
5.168,2.1311941303246175E-4
5.172,2.1311941303246175E-4
5.176,2.1338385900463965E-4
5.18,2.1641296741322285E-4
5.184,2.1927379202132924E-4
5.188,2.1667741338540075E-4
5.192,2.164370079561481E-4
5.196,2.1501861592355758E-4
5.2,2.1530710243866075E-4
5.204,2.1557154841083865E-4
5.208,2.1523498080988494E-4
5.212,2.1554750786791338E-4
5.216,2.1723034587268187E-4
5.22,2.1482629158015547E-4
5.224,2.1213375077252595E-4
5.228,2.1054707493945856E-4
5.232,2.09128682906868E-4
5.236,2.0859979096251222E-4
5.24,2.115808182852449E-4
5.244,2.1261456163103123E-4
5.248,2.1119616959844068E-4
5.252,2.0754200707380057E-4
5.256,2.058110879831816E-4
5.26,2.0624381775583635E-4
5.264,2.0506583115249846E-4
5.268,2.034551147765058E-4
5.272,2.0268581740289738E-4
5.276,1.9975287116601523E-4
5.28,1.9862296564852785E-4
5.284,1.9999327659526786E-4
5.288,2.017482362288121E-4
5.292,2.0237329034486894E-4
5.296,2.0307046608970158E-4
5.3,2.0323874989017842E-4
5.304,2.0225308763024264E-4
5.308,2.0311854717555212E-4
5.312,2.019405605722142E-4
5.316,2.0141166862785838E-4
5.32,2.030464255467763E-4
5.324,2.0417633106426368E-4
5.328,2.0225308763024264E-4
5.332,2.0227712817316788E-4
5.336,2.0528219603882584E-4
5.34,2.0480138518032056E-4
5.344,2.0773433141720274E-4
5.348,2.0571492581148058E-4
5.352,2.0287814174629946E-4
5.356,2.040320878067121E-4
5.36,2.0787857467475433E-4
5.364,2.0756604761672584E-4
5.368,2.032627904331037E-4
5.372,2.0136358754200786E-4
5.376,2.0114722265568048E-4
5.38,2.0076257396887628E-4
5.384,2.0059429016839944E-4
5.388,2.0244541197364472E-4
5.392,2.0270985794582262E-4
5.396,2.0105106048397942E-4
5.4,2.0424845269303947E-4
5.404,2.021328849156163E-4
5.408,2.0533027712467636E-4
5.412,2.037676418345342E-4
5.416,2.0230116871609315E-4
5.42,2.0249349305949526E-4
5.424,2.0011347930989416E-4
5.428,1.987912494490047E-4
5.432,2.0124338482738153E-4
5.436,2.034551147765058E-4
5.44,2.026617768599721E-4
5.444,2.0145974971370892E-4
5.448,2.0189247948636368E-4
5.452,1.9992115496649207E-4
5.456,1.9907973596410784E-4
5.46,1.987912494490047E-4
5.464,1.9994519550941731E-4
5.468,2.0364743911990789E-4
5.472,2.0268581740289738E-4
5.476,2.034551147765058E-4
5.48,2.0112318211275523E-4
5.484,2.0177227677173736E-4
5.488,2.0230116871609315E-4
5.492,2.0145974971370892E-4
5.496,2.017482362288121E-4
5.5,2.037195607486837E-4
5.5040000000000004,2.0230116871609315E-4
5.508,2.0040196582499733E-4
5.5120000000000005,2.0059429016839944E-4
5.516,2.0078661451180152E-4
5.5200000000000005,2.013876280849331E-4
5.524,2.037676418345342E-4
5.5280000000000005,2.0718139892992162E-4
5.532,2.0638806101338795E-4
5.5360000000000005,2.0578704744025637E-4
5.54,2.0754200707380057E-4
5.5440000000000005,2.0843150716203537E-4
5.548,2.0593129069780794E-4
5.5520000000000005,2.064121015563132E-4
5.556,2.047773446373953E-4
5.5600000000000005,2.0340703369065526E-4
5.564,2.049215878949469E-4
5.5680000000000005,2.049215878949469E-4
5.572,2.0383976346331E-4
5.5760000000000005,2.0398400672086157E-4
5.58,2.0323874989017842E-4
5.5840000000000005,2.0487350680909635E-4
5.588,2.0559472309685425E-4
5.5920000000000005,2.0833534499033432E-4
5.596,2.0811898010400696E-4
5.6000000000000005,2.0677270970019215E-4
5.604,2.0583512852610688E-4
5.6080000000000005,2.049696689807974E-4
5.612,2.0537835821052687E-4
5.6160000000000005,2.0557068255392898E-4
5.62,2.0718139892992162E-4
5.6240000000000006,2.0816706118985748E-4
5.628,2.0619573666998584E-4
5.632,2.0573896635440583E-4
5.636,2.0826322336155853E-4
5.64,2.0997010190925222E-4
5.644,2.1126829122721647E-4
5.648,2.1422527800702389E-4
5.652,2.1271072380273228E-4
5.656,2.117010209998712E-4
5.66,2.1340789954756492E-4
5.664,2.138165887772944E-4
5.668,2.1186930480034805E-4
5.672,2.0898443964931644E-4
5.676,2.1023454788143012E-4
5.68,2.1066727765408486E-4
5.684,2.1194142642912386E-4
5.688,2.134800211763407E-4
5.692,2.1213375077252595E-4
5.696,2.1261456163103123E-4
5.7,2.1259052108810596E-4
5.704,2.1372042660559333E-4
5.708,2.0997010190925222E-4
5.712,2.0968161539414908E-4
5.716,2.0826322336155853E-4
5.72,2.0821514227570802E-4
5.724,2.1136445339891752E-4
5.728,2.1314345357538702E-4
5.732,2.088161558488396E-4
5.736,2.094652505078217E-4
5.74,2.103066695102059E-4
5.744,2.096094937653733E-4
5.748,2.1021050733850487E-4
5.752,2.0922484507856907E-4
5.756,2.0780645304597855E-4
5.76,2.0650826372801425E-4
5.764,2.0696503404359426E-4
5.768,2.0833534499033432E-4
5.772,2.093931288790459E-4
5.776,2.0840746661911013E-4
5.78,2.1110000742673962E-4
5.784,2.113884939418428E-4
5.788,2.078304935889038E-4
5.792,2.082872639044838E-4
5.796,2.1102788579796384E-4
5.8,2.1311941303246175E-4
5.804,2.1119616959844068E-4
5.808,2.099941424521775E-4
5.812,2.1345598063341544E-4
5.816,2.1809580541799135E-4
5.82,2.2369725191957775E-4
5.824,2.2021137319541454E-4
5.828,2.0109914156982996E-4
5.832,1.725630171175421E-4
5.836,1.47657014646969E-4
5.84,1.2626093144348438E-4
5.844,1.1474551138228314E-4
5.848,1.252031475547728E-4
5.852,1.4325759529164574E-4
5.856,1.625861918035577E-4
5.86,1.8821341056188867E-4
5.864,2.0982585865170065E-4
5.868,2.1655721067077443E-4
5.872,2.202354137383398E-4
5.876,2.177832783599629E-4
5.88,2.1679761610002705E-4
5.884,2.1775923781703764E-4
5.888,2.1638892687029758E-4
5.892,2.1593215655471757E-4
5.896,2.16244683612746E-4
5.9,2.1590811601179233E-4
5.904,2.1715822424390606E-4
5.908,2.1956227853643239E-4
5.912,2.2100471111194823E-4
5.916,2.2016329210956402E-4
5.92,2.196344001652082E-4
5.924,2.1742267021608396E-4
5.928,2.1744671075900923E-4
5.932,2.197546028798345E-4
5.936,2.218701706572577E-4
5.94,2.2138935979875243E-4
5.944,2.1893722442037556E-4
5.948,2.1924975147840397E-4
5.952,2.196344001652082E-4
5.956,2.218701706572577E-4
5.96,2.2427422494978406E-4
5.964,2.2348088703325037E-4
5.968,2.2292795454596927E-4
5.972,2.2324048160399774E-4
5.976,2.2487523852291564E-4
5.98,2.2533200883849565E-4
5.984,2.2557241426774828E-4
5.988,2.277601036739473E-4
5.992,2.2384149517712932E-4
5.996,2.2463483309366302E-4
6.0,2.2687060358571255E-4
6.0040000000000004,2.25091603409243E-4
6.008,2.2595706295455248E-4
6.0120000000000005,2.2739949553006835E-4
6.016,2.2590898186870196E-4
6.0200000000000005,2.2773606313102203E-4
6.024,2.2631767109843151E-4
6.0280000000000005,2.263897927272073E-4
6.032,2.261493872979546E-4
6.0360000000000005,2.262455494696557E-4
6.04,2.2768798204517152E-4
6.0440000000000005,2.267023197852357E-4
6.048,2.266542386993852E-4
6.0520000000000005,2.2708696847203994E-4
6.056,2.2852940104755573E-4
6.0600000000000005,2.297554687367442E-4
6.064,2.2812071181782626E-4
6.0680000000000005,2.2771202258809676E-4
6.072,2.2655807652768414E-4
6.0760000000000005,2.235289681191009E-4
6.08,2.2494736015169143E-4
6.0840000000000005,2.258128196970009E-4
6.088,2.2564453589652407E-4
6.0920000000000005,2.2408190060638195E-4
6.096,2.227356302025672E-4
6.1000000000000005,2.2331260323277353E-4
6.104,2.2223077880113666E-4
6.1080000000000005,2.199469272232366E-4
6.112,2.2018733265248927E-4
6.1160000000000005,2.1751883238778501E-4
6.12,2.1763903510241134E-4
6.1240000000000006,2.1840833247601977E-4
6.128,2.1682165664295232E-4
6.132000000000001,2.164370079561481E-4
6.136,2.163168052415218E-4
6.140000000000001,2.1679761610002705E-4
6.144,2.1682165664295232E-4
6.148,2.1600427818349336E-4
6.152,2.165812512136997E-4
6.156,2.1723034587268187E-4
6.16,2.1715822424390606E-4
6.164,2.1802368378921554E-4
6.168,2.183121703043187E-4
6.172,2.144656834362765E-4
6.176,2.15787913297166E-4
6.18,2.1845641356187028E-4
6.184,2.1725438641560712E-4
6.188,2.1537922406743653E-4
6.192,2.138165887772944E-4
6.196,2.120375886008249E-4
6.2,2.1261456163103123E-4
6.204,2.1338385900463965E-4
6.208,2.1167698045694596E-4
6.212,2.107874803687112E-4
6.216,2.113884939418428E-4
6.22,2.132876968329386E-4
6.224,2.1549942678206283E-4
6.228,2.1261456163103123E-4
6.232,2.1386466986314493E-4
6.236,2.113884939418428E-4
6.24,2.1150869665646912E-4
6.244,2.1247031837347963E-4
6.248,2.1379254823436912E-4
6.252,2.1179718317157226E-4
6.256,2.1011434516680382E-4
6.26,2.1097980471211332E-4
6.264,2.1432144017872494E-4
6.268,2.1261456163103123E-4
6.272,2.113884939418428E-4
6.276,2.1400891312069653E-4
6.28,2.151388186381839E-4
6.284,2.149464942947818E-4
6.288,2.164370079561481E-4
6.292,2.1843237301894504E-4
6.296,2.168456971858776E-4
6.3,2.1451376452212705E-4
6.304,2.127588048885828E-4
6.308,2.1398487257777126E-4
6.312,2.1362426443389228E-4
6.316,2.1420123746409861E-4
6.32,2.124943589164049E-4
6.324,2.136723455197428E-4
6.328,2.1398487257777126E-4
6.332,2.1485033212308074E-4
6.336,2.1655721067077443E-4
6.34,2.165091295849239E-4
6.344,2.1638892687029758E-4
6.348,2.172063053297566E-4
6.352,2.1581195384009127E-4
6.356,2.155234673249881E-4
6.36,2.1465800777967862E-4
6.364,2.1340789954756492E-4
6.368,2.1427335909287443E-4
6.372,2.1545134569621232E-4
6.376,2.1492245375185652E-4
6.38,2.1723034587268187E-4
6.384,2.1648508904199864E-4
6.388,2.149945753806323E-4
6.392,2.1509073755233336E-4
6.396,2.1013838570972906E-4
6.4,2.0936908833612064E-4
6.404,2.1186930480034805E-4
6.408,2.1456184560797757E-4
6.412,2.1439356180750073E-4
6.416,2.1304729140368597E-4
6.42,2.1352810226219122E-4
6.424,2.1477821049430495E-4
6.428,2.121097102296007E-4
6.432,2.1047495331068275E-4
6.436,2.11316372313067E-4
6.44,2.1350406171926595E-4
6.444,2.1201354805789965E-4
6.448,2.1239819674470384E-4
6.452,2.1297516977491018E-4
6.456,2.1263860217395647E-4
6.46,2.1393679149192074E-4
6.464,2.121818318583765E-4
6.468,2.1182122371449753E-4
6.472,2.115808182852449E-4
6.476,2.1179718317157226E-4
6.48,2.1598023764056811E-4
6.484,2.146820483226039E-4
6.488,2.1021050733850487E-4
6.492,2.0963353430829854E-4
6.496,2.094652505078217E-4
6.5,2.0905656127809223E-4
6.5040000000000004,2.0761412870257636E-4
6.508,2.0537835821052687E-4
6.5120000000000005,2.023492498019437E-4
6.516,2.0362339857698264E-4
6.5200000000000005,2.0674866915726688E-4
6.524,2.0679675024311742E-4
6.5280000000000005,2.080949395610817E-4
6.532,2.1088364254041227E-4
6.5360000000000005,2.096094937653733E-4
6.54,2.086238315054375E-4
6.5440000000000005,2.0761412870257636E-4
6.548,2.0773433141720274E-4
6.5520000000000005,2.0571492581148058E-4
6.556,2.07397763816249E-4
6.5600000000000005,2.0927292616441958E-4
6.564,2.0970565593707432E-4
6.5680000000000005,2.09128682906868E-4
6.572,2.0869595313421327E-4
6.5760000000000005,2.0958545322244802E-4
6.58,2.0720543947284689E-4
6.5840000000000005,2.0573896635440583E-4
6.588,2.0843150716203537E-4
6.5920000000000005,2.080228179323059E-4
6.596,2.0948929105074697E-4
6.6000000000000005,2.0826322336155853E-4
6.604,2.0742180435917427E-4
6.6080000000000005,2.090084801922417E-4
6.612,2.105711154823838E-4
6.6160000000000005,2.0963353430829854E-4
6.62,2.0879211530591433E-4
6.6240000000000006,2.0898443964931644E-4
6.628,2.093450477931954E-4
6.632000000000001,2.1141253448476806E-4
6.636,2.096094937653733E-4
6.640000000000001,2.0807089901815642E-4
6.644,2.0670058807141636E-4
6.648000000000001,2.1150869665646912E-4
6.652,2.1843237301894504E-4
6.656000000000001,2.1915358930670292E-4
6.66,2.172784269585324E-4
6.664,2.0177227677173736E-4
6.668,1.7515939575347056E-4
6.672,1.5167178531548802E-4
6.676,1.2916983713744129E-4
6.68,1.1234145708975677E-4
6.684,1.2034695788386954E-4
6.688,1.393389867948278E-4
6.692,1.563116101000639E-4
6.696,1.8032811248240222E-4
6.7,2.0297430391800052E-4
6.704,2.1189334534327332E-4
6.708,2.1429739963579967E-4
6.712,2.1400891312069653E-4
6.716,2.1398487257777126E-4
6.72,2.1511477809525864E-4
6.724,2.1711014315805555E-4
6.728,2.1824004867554292E-4
6.732,2.1742267021608396E-4
6.736,2.1711014315805555E-4
6.74,2.172784269585324E-4
6.744,2.1951419745058187E-4
6.748,2.2045177862466716E-4
6.752,2.1855257573357134E-4
6.756,2.1888914333452502E-4
6.76,2.1939399473595554E-4
6.764,2.1768711618826186E-4
6.768,2.14417602350426E-4
6.772,2.152109402669597E-4
6.776,2.1691781881465338E-4
6.78,2.1617256198397023E-4
6.784,2.193699541930303E-4
6.788,2.209566300260977E-4
6.792,2.1869681899112293E-4
6.796,2.1912954876377767E-4
6.8,2.1992288668031134E-4
6.804,2.2119703545535034E-4
6.808,2.221346166294356E-4
6.812,2.208364273114714E-4
6.816,2.193699541930303E-4
6.82,2.1941803527888082E-4
6.824,2.2011521102371348E-4
6.828,2.2206249500065982E-4
6.832,2.2162976522800508E-4
6.836,2.2211057608651034E-4
6.84,2.2256734640209035E-4
6.844,2.2208653554358507E-4
6.848,2.241299816922325E-4
6.852,2.2131723816997664E-4
6.856,2.2179804902848192E-4
6.86,2.233366437756988E-4
6.864,2.2564453589652407E-4
6.868,2.2689464412863782E-4
6.872,2.242501844068588E-4
6.876,2.221346166294356E-4
6.88,2.2280775183134297E-4
6.884,2.236491708337272E-4
6.888,2.254281710101967E-4
6.892,2.2324048160399774E-4
6.896,2.2244714368746402E-4
6.9,2.24178062778083E-4
6.904,2.2420210332100828E-4
6.908,2.244425087502609E-4
6.912,2.2458675200781247E-4
6.916,2.2203845445773455E-4
6.92,2.1999500830908713E-4
6.924,2.2331260323277353E-4
6.928,2.207643056826956E-4
6.932,2.174707513019345E-4
6.936,2.1554750786791338E-4
6.94,2.1516285918110915E-4
6.944,2.1634084578444707E-4
6.948,2.1403295366362177E-4
6.952,2.1326365629001332E-4
6.956,2.1206162914375016E-4
6.96,2.088161558488396E-4
6.964,2.0754200707380057E-4
6.968,2.1049899385360802E-4
6.972,2.1093172362626278E-4
6.976,2.0884019639176487E-4
6.98,2.086238315054375E-4
6.984,2.1097980471211332E-4
6.988,2.0968161539414908E-4
6.992,2.0816706118985748E-4
6.996,2.0518603386712479E-4
7.0,2.062918988416869E-4
7.0040000000000004,2.1129233177014174E-4
7.008,2.141531563782481E-4
7.0120000000000005,2.1283092651735858E-4
7.016,2.115808182852449E-4
7.0200000000000005,2.121818318583765E-4
7.024,2.1343194009049016E-4
7.0280000000000005,2.13600223890967E-4
7.032,2.1561962949668916E-4
7.0360000000000005,2.1824004867554292E-4
7.04,2.189612649633008E-4
7.0440000000000005,2.181198459609166E-4
7.048,2.1653317012784915E-4
7.0520000000000005,2.138887104060702E-4
7.056,2.1271072380273228E-4
7.0600000000000005,2.13960832034846E-4
7.064,2.1403295366362177E-4
7.0680000000000005,2.1429739963579967E-4
7.072,2.180477243321408E-4
7.0760000000000005,2.1970652179398398E-4
7.08,2.2078834622562085E-4
7.0840000000000005,2.179996432462903E-4
7.088,2.1708610261513028E-4
7.0920000000000005,2.1602831872641863E-4
7.096,2.1542730515328705E-4
7.1000000000000005,2.165812512136997E-4
7.104,2.1739862967315871E-4
7.1080000000000005,2.1384062932021963E-4
7.112,2.130232508607607E-4
7.1160000000000005,2.1338385900463965E-4
7.12,2.1518689972403442E-4
7.1240000000000006,2.1504265646648285E-4
7.128,2.1345598063341544E-4
7.132000000000001,2.1153273719939436E-4
7.136,2.138165887772944E-4
7.140000000000001,2.1667741338540075E-4
7.144,2.1398487257777126E-4
7.148000000000001,2.1292708868905964E-4
7.152,2.1540326461036178E-4
7.156000000000001,2.1713418370098082E-4
7.16,2.1518689972403442E-4
7.164000000000001,2.1530710243866075E-4
7.168,2.110038452550386E-4
7.172,2.0989798028047643E-4
7.176,2.1117212905551544E-4
7.18,2.1102788579796384E-4
7.184,2.0896039910639117E-4
7.188,2.1066727765408486E-4
7.192,2.12229912944227E-4
7.196,2.1292708868905964E-4
7.2,2.143454807216502E-4
7.204,2.137444671485186E-4
7.208,2.137444671485186E-4
7.212,2.124943589164049E-4
7.216,2.105230343965333E-4
7.22,2.1141253448476806E-4
7.224,2.1254244000225544E-4
7.228,2.1254244000225544E-4
7.232,2.1198950751497437E-4
7.236,2.117010209998712E-4
7.24,2.120375886008249E-4
7.244,2.1126829122721647E-4
7.248,2.0982585865170065E-4
7.252,2.101864667955796E-4
7.256,2.1083556145456173E-4
7.26,2.0980181810877538E-4
7.264,2.103066695102059E-4
7.268,2.0932100725027012E-4
7.272,2.1093172362626278E-4
7.276,2.130713319466112E-4
7.28,2.1376850769144385E-4
7.284,2.119173858861986E-4
7.288,2.1186930480034805E-4
7.292,2.1174910208572175E-4
7.296,2.1134041285599228E-4
7.3,2.0963353430829854E-4
7.304,2.1194142642912386E-4
7.308,2.1612448089811969E-4
7.312,2.1405699420654704E-4
7.316,2.1254244000225544E-4
7.32,2.0977777756585013E-4
7.324,2.0982585865170065E-4
7.328,2.1259052108810596E-4
7.332,2.119654669720491E-4
7.336,2.094652505078217E-4
7.34,2.0249349305949526E-4
7.344,2.0256561468827105E-4
7.348,2.035753174911321E-4
7.352,2.0444077703644158E-4
7.356,2.058110879831816E-4
7.36,2.049696689807974E-4
7.364,2.0501775006664794E-4
7.368,2.0513795278127424E-4
7.372,2.0506583115249846E-4
7.376,2.0533027712467636E-4
7.38,2.0458502029399315E-4
7.384,2.055466420110037E-4
7.388,2.0710927730114583E-4
7.392,2.0689291241481847E-4
7.396,2.071333178440711E-4
7.4,2.073256421874732E-4
7.404,2.045609797510679E-4
7.408,2.0545047983930268E-4
7.412,2.0545047983930268E-4
7.416,2.0489754735202162E-4
7.42,2.0701311512944477E-4
7.424,2.1037879113898172E-4
7.428,2.0833534499033432E-4
7.432,2.065563448138648E-4
7.436,2.076622097884269E-4
7.44,2.0833534499033432E-4
7.444,2.0708523675822059E-4
7.448,2.059553312407332E-4
7.452,2.0814302064693223E-4
7.456,2.088161558488396E-4
7.46,2.0910464236394274E-4
7.464,2.079747368464554E-4
7.468,2.0691695295774374E-4
7.472,2.0665250698556585E-4
7.476,2.0710927730114583E-4
7.48,2.1073939928286064E-4
7.484,2.1554750786791338E-4
7.488,2.1511477809525864E-4
7.492,2.110519263408891E-4
7.496,1.9609870864137515E-4
7.5,1.7114462508495152E-4
7.5040000000000004,1.4676751455873423E-4
7.508,1.2678982338784018E-4
7.5120000000000005,1.1621198450072422E-4
7.516,1.2491466103966962E-4
7.5200000000000005,1.3929090570897728E-4
7.524,1.543883666660428E-4
7.5280000000000005,1.776355716747727E-4
7.532,1.9862296564852785E-4
7.5360000000000005,2.0665250698556585E-4
7.54,2.0715735838699637E-4
7.5440000000000005,2.0780645304597855E-4
7.548,2.0706119621529532E-4
7.5520000000000005,2.0754200707380057E-4
7.556,2.0884019639176487E-4
7.5600000000000005,2.0677270970019215E-4
7.564,2.060755339553595E-4
7.5680000000000005,2.06484223185089E-4
7.572,2.0689291241481847E-4
7.5760000000000005,2.0636402047046268E-4
7.58,2.0689291241481847E-4
7.5840000000000005,2.0619573666998584E-4
7.588,2.0489754735202162E-4
7.5920000000000005,2.0287814174629946E-4
7.596,2.0237329034486894E-4
7.6000000000000005,2.0458502029399315E-4
7.604,2.0540239875345214E-4
7.6080000000000005,2.0617169612706057E-4
7.612,2.0593129069780794E-4
7.6160000000000005,2.0624381775583635E-4
7.62,2.0658038535679003E-4
7.6240000000000006,2.0811898010400696E-4
7.628,2.1059515602530907E-4
7.632000000000001,2.1066727765408486E-4
7.636,2.1021050733850487E-4
7.640000000000001,2.0891231802054066E-4
7.644,2.0948929105074697E-4
7.648000000000001,2.1141253448476806E-4
7.652,2.101864667955796E-4
7.656000000000001,2.1001818299510276E-4
7.66,2.1290304814613437E-4
7.664000000000001,2.129511292319849E-4
7.668,2.1278284543150807E-4
7.672000000000001,2.1182122371449753E-4
7.676,2.1292708868905964E-4
7.68,2.133357779187891E-4
7.684,2.1530710243866075E-4
7.688,2.150666970094081E-4
7.692,2.1595619709764284E-4
7.696,2.1920167039255346E-4
7.7,2.165812512136997E-4
7.704,2.155955889537639E-4
7.708,2.1477821049430495E-4
7.712,2.1641296741322285E-4
7.716,2.1566771058253968E-4
7.72,2.154753862391376E-4
7.724,2.1679761610002705E-4
7.728,2.1843237301894504E-4
7.732,2.179996432462903E-4
7.736,2.1775923781703764E-4
7.74,2.1610044035519441E-4
7.744,2.141531563782481E-4
7.748,2.1357618334804176E-4
7.752,2.1458588615090284E-4
7.756,2.135521428051165E-4
7.76,2.1141253448476806E-4
7.764,2.0857575041958697E-4
7.768,2.080228179323059E-4
7.772,2.080949395610817E-4
7.776,2.0749392598795006E-4
7.78,2.093450477931954E-4
7.784,2.090084801922417E-4
7.788,2.0398400672086157E-4
7.792,2.0412824997841317E-4
7.796,2.047773446373953E-4
7.8,2.0501775006664794E-4
7.804,2.0533027712467636E-4
7.808,2.0352723640528159E-4
7.812,2.0145974971370892E-4
7.816,2.0261369577412156E-4
7.82,2.045609797510679E-4
7.824,2.0593129069780794E-4
7.828,2.0778241250305328E-4
7.832,2.0670058807141636E-4
7.836,2.0453693920814264E-4
7.84,2.0689291241481847E-4
7.844,2.05113912238349E-4
7.848,2.0612361504121005E-4
7.852,2.047052230086195E-4
7.856,2.0340703369065526E-4
7.86,2.0432057432181528E-4
7.864,2.0754200707380057E-4
7.868,2.049696689807974E-4
7.872,2.0263773631704684E-4
7.876,2.049696689807974E-4
7.88,2.063399799275374E-4
7.884,2.0605149341243427E-4
7.888,2.0547452038222793E-4
7.892,2.0799877738938063E-4
7.896,2.0761412870257636E-4
7.9,2.048494662661711E-4
7.904,2.0506583115249846E-4
7.908,2.0439269595059107E-4
7.912,2.015318713424847E-4
7.916,2.0215692545854158E-4
7.92,2.044167364935163E-4
7.924,2.0321470934725315E-4
7.928,2.0458502029399315E-4
7.932,2.0612361504121005E-4
7.936,2.0525815549590057E-4
7.94,2.0280602011752368E-4
7.944,1.9895953324948154E-4
7.948,2.0258965523119632E-4
7.952,2.0191652002928895E-4
7.956,2.0150783079955943E-4
7.96,2.0191652002928895E-4
7.964,2.0309450663262685E-4
7.968,2.0561876363977953E-4
7.972,2.0708523675822059E-4
7.976,2.059553312407332E-4
7.98,2.0513795278127424E-4
7.984,2.0460906083691842E-4
7.988,2.0117126319860575E-4
7.992,2.0275793903167316E-4
7.996,2.0287814174629946E-4
8.0,2.0386380400623527E-4
8.004,2.0424845269303947E-4
8.008000000000001,2.0263773631704684E-4
8.012,2.0232520925901842E-4
8.016,2.0162803351418579E-4
8.02,2.0131550645615732E-4
8.024000000000001,2.0059429016839944E-4
8.028,2.0232520925901842E-4
8.032,2.0352723640528159E-4
8.036,2.0275793903167316E-4
8.040000000000001,2.0040196582499733E-4
8.044,2.0032984419622154E-4
8.048,1.9826235750464882E-4
8.052,1.9797387098954567E-4
8.056000000000001,1.9946438465091206E-4
8.06,1.994403441079868E-4
8.064,2.003538847391468E-4
8.068,1.974209385022646E-4
8.072000000000001,2.0040196582499733E-4
8.076,2.0203672274391525E-4
8.08,1.9965670899431417E-4
8.084,2.0052216853962365E-4
8.088000000000001,2.020848038297658E-4
8.092,2.0328683097602896E-4
8.096,2.00738533425951E-4
8.1,2.002096414815952E-4
8.104000000000001,2.0105106048397942E-4
8.108,1.9968074953723942E-4
8.112,2.008106550547268E-4
8.116,2.016761146000363E-4
8.120000000000001,2.006904523401005E-4
8.124,2.0201268220098998E-4
8.128,2.016761146000363E-4
8.132,2.0328683097602896E-4
8.136000000000001,2.041522905213384E-4
8.14,2.0540239875345214E-4
8.144,2.054264392963774E-4
8.148,2.0189247948636368E-4
8.152000000000001,2.0143570917078365E-4
8.156,2.0513795278127424E-4
8.16,2.0670058807141636E-4
8.164,2.0696503404359426E-4
8.168000000000001,2.0545047983930268E-4
8.172,2.033108715189542E-4
8.176,2.021328849156163E-4
8.18,2.023973308877942E-4
8.184000000000001,2.0333491206187947E-4
8.188,2.0333491206187947E-4
8.192,2.0379168237745948E-4
8.196,1.9980095225186574E-4
8.2,2.000894387669689E-4
8.204,2.0097893885520364E-4
8.208,2.023973308877942E-4
8.212,2.0307046608970158E-4
8.216,1.9996923605234259E-4
8.22,2.010751010269047E-4
8.224,2.018203578575879E-4
8.228,2.034551147765058E-4
8.232,2.00738533425951E-4
8.236,1.9907973596410784E-4
8.24,1.97637303388592E-4
8.244,1.987191278202289E-4
8.248,1.9850276293390152E-4
8.252,1.976853844744425E-4
8.256,1.9903165487825732E-4
8.26,1.975651817598162E-4
8.264,1.9614678972722566E-4
8.268,1.9607466809844987E-4
8.272,1.9992115496649207E-4
8.276,2.0057024962547417E-4
8.28,1.9992115496649207E-4
8.284,1.979498304466204E-4
8.288,1.9785366827491935E-4
8.292,2.0230116871609315E-4
8.296,2.0141166862785838E-4
8.3,1.9934418193628573E-4
8.304,1.9912781704995838E-4
8.308,2.009548983122784E-4
8.312,2.0561876363977953E-4
8.316,2.0840746661911013E-4
8.32,2.096094937653733E-4
8.324,2.043686554076658E-4
8.328,1.8119357202771172E-4
8.332,1.5128713662868377E-4
8.336,1.2767932347607495E-4
8.34,1.097450784538283E-4
8.344,1.0409555086639137E-4
8.348,1.1818330902059583E-4
8.352,1.3638200001502037E-4
8.356,1.5977344828130183E-4
8.36,1.854487481254834E-4
8.364,2.0141166862785838E-4
8.368,2.0780645304597855E-4
8.372,2.0917676399271855E-4
8.376,2.0677270970019215E-4
8.38,2.0590725015488267E-4
8.384,2.0922484507856907E-4
8.388,2.0975373702292486E-4
8.392,2.0821514227570802E-4
8.396,2.0521007441005003E-4
8.4,2.0417633106426368E-4
8.404,2.0453693920814264E-4
8.408,2.0684483132896793E-4
8.412,2.0585916906903215E-4
8.416,2.034551147765058E-4
8.42,2.034551147765058E-4
8.424,2.0446481757936685E-4
8.428,2.045609797510679E-4
8.432,2.0283006066044895E-4
8.436,1.9907973596410784E-4
8.44,2.0023368202452048E-4
8.444,2.010029793981289E-4
8.448,2.0136358754200786E-4
8.452,2.0210884437269104E-4
8.456,2.0533027712467636E-4
8.46,2.0564280418270477E-4
8.464,2.04657141922769E-4
8.468,2.0189247948636368E-4
8.472,2.050417906095732E-4
8.476,2.0768625033135217E-4
8.48,2.062197772129111E-4
8.484,2.0475330409447005E-4
8.488,2.0703715567237004E-4
8.492,2.0643614209923846E-4
8.496,2.0256561468827105E-4
8.5,2.054985609251532E-4
8.504,2.0785453413182906E-4
8.508000000000001,2.0754200707380057E-4
8.512,2.0922484507856907E-4
8.516,2.0980181810877538E-4
8.52,2.102585884243554E-4
8.524000000000001,2.0857575041958697E-4
8.528,2.0917676399271855E-4
8.532,2.105711154823838E-4
8.536,2.1110000742673962E-4
8.540000000000001,2.1021050733850487E-4
8.544,2.1021050733850487E-4
8.548,2.115808182852449E-4
8.552,2.1049899385360802E-4
8.556000000000001,2.0811898010400696E-4
8.56,2.0780645304597855E-4
8.564,2.09128682906868E-4
8.568,2.0677270970019215E-4
8.572000000000001,2.058110879831816E-4
8.576,2.0460906083691842E-4
8.58,2.0275793903167316E-4
8.584,2.0290218228922473E-4
8.588000000000001,2.0256561468827105E-4
8.592,2.0285410120337422E-4
8.596,2.0460906083691842E-4
8.6,2.0093085776935312E-4
8.604000000000001,2.0121934428445626E-4
8.608,1.9809407370417197E-4
8.612,1.9480051932341093E-4
8.616,1.9388697869225088E-4
8.620000000000001,1.9246858665966033E-4
8.624,1.8965584313740448E-4
8.628,1.88790383592095E-4
8.632,1.8982412693788133E-4
8.636000000000001,1.9042514051101293E-4
8.64,1.951370869243646E-4
8.644,1.954736545253183E-4
8.648,1.9191565417237927E-4
8.652000000000001,1.9047322159686348E-4
8.656,1.906655459402656E-4
8.66,1.9032897833931188E-4
8.664,1.9251666774551085E-4
8.668000000000001,1.9323788403326878E-4
8.672,1.9367061380592352E-4
8.676,1.949447625809625E-4
8.68,1.9643527624232883E-4
8.684000000000001,1.9246858665966033E-4
8.688,1.9263687046013717E-4
8.692,1.9246858665966033E-4
8.696,1.9184353254360348E-4
8.700000000000001,1.9186757308652875E-4
8.704,1.929493975181656E-4
8.708,1.9292535697524032E-4
8.712,1.907857486548919E-4
8.716,1.9270899208891296E-4
8.72,1.941273841215035E-4
8.724,1.9443991117953195E-4
8.728,1.9225222177333295E-4
8.732,1.9537749235361724E-4
8.736,1.9819023587587303E-4
8.74,1.9662760058573094E-4
8.744,1.9367061380592352E-4
8.748,1.9415142466442878E-4
8.752,1.9431970846490562E-4
8.756,1.9326192457619405E-4
8.76,1.9395910032102666E-4
8.764,1.9475243823756038E-4
8.768,1.9595446538382355E-4
8.772,1.9458415443708352E-4
8.776,1.9549769506824356E-4
8.78,1.9643527624232883E-4
8.784,1.9655547895695513E-4
8.788,1.9431970846490562E-4
8.792,1.9244454611673506E-4
8.796,1.8939139716522659E-4
8.8,1.8946351879400237E-4
8.804,1.895837215086287E-4
8.808,1.9023281616761085E-4
8.812,1.937427354346993E-4
8.816,1.9492072203803723E-4
8.82,1.9306960023279191E-4
8.824,1.9499284366681304E-4
8.828,1.9417546520735405E-4
8.832,1.929974786040161E-4
8.836,1.9456011389415825E-4
8.84,1.9417546520735405E-4
8.844,1.9431970846490562E-4
8.848,1.9311768131864246E-4
8.852,1.9020877562468558E-4
8.856,1.9326192457619405E-4
8.86,1.9595446538382355E-4
8.864,1.9193969471530454E-4
8.868,1.9571405995457092E-4
8.872,1.9766134393151724E-4
8.876,1.9422354629320456E-4
8.88,1.9131464059924768E-4
8.884,1.9107423516999506E-4
8.888,1.9246858665966033E-4
8.892,1.9311768131864246E-4
8.896,1.9350233000544668E-4
8.9,1.9114635679877084E-4
8.904,1.9011261345298452E-4
8.908,1.8953564042277816E-4
8.912,1.8830957273358972E-4
8.916,1.8970392422325503E-4
8.92,1.8898270793549712E-4
8.924,1.8806916730433707E-4
8.928,1.8953564042277816E-4
8.932,1.8864614033454343E-4
8.936,1.90978072998294E-4
8.94,1.9424758683612983E-4
8.944,1.924205055738098E-4
8.948,1.8814128893311288E-4
8.952,1.8729986993072865E-4
8.956,1.9016069453883504E-4
8.96,1.9193969471530454E-4
8.964,1.9282919480353926E-4
8.968,1.9193969471530454E-4
8.972,1.9254070828843612E-4
8.976,1.9650739787110461E-4
8.98,1.948245598663362E-4
8.984,1.8980008639495605E-4
8.988,1.8528046432500652E-4
8.992,1.8504005889575386E-4
8.996,1.84775612923576E-4
9.0,1.8540066703963285E-4
9.004,1.859055184410634E-4
9.008000000000001,1.8794896458971077E-4
9.012,1.9073766756904137E-4
9.016,1.9138676222802347E-4
9.02,1.88790383592095E-4
9.024000000000001,1.8782876187508444E-4
9.028,1.9016069453883504E-4
9.032,1.9064150539734032E-4
9.036,1.9030493779638663E-4
9.040000000000001,1.9141080277094874E-4
9.044,1.9282919480353926E-4
9.048,1.9340616783374562E-4
9.052,1.938148570634751E-4
9.056000000000001,1.927330326318382E-4
9.06,1.9008857291005925E-4
9.064,1.9056938376856453E-4
9.068,1.9059342431148978E-4
9.072000000000001,1.9131464059924768E-4
9.076,1.9239646503088452E-4
9.08,1.9218010014455716E-4
9.084,1.9357445163422247E-4
9.088000000000001,1.9357445163422247E-4
9.092,1.9333404620496984E-4
9.096,1.915550460285003E-4
9.1,1.90064532367134E-4
9.104000000000001,1.9218010014455716E-4
9.108,1.943918300936814E-4
9.112,1.96266992441852E-4
9.116,1.9975287116601523E-4
9.120000000000001,1.9956054682261312E-4
9.124,1.988393305348552E-4
9.128,2.018203578575879E-4
9.132,2.0670058807141636E-4
9.136000000000001,2.0953737213659748E-4
9.14,2.0790261521767958E-4
9.144,1.9102615408414452E-4
9.148,1.6244194854600613E-4
9.152000000000001,1.37079175759853E-4
9.156,1.1267802469071045E-4
9.16,1.0015290182664813E-4
9.164,1.0767759176225563E-4
9.168000000000001,1.2630901252933492E-4
9.172,1.4657519021533214E-4
9.176,1.7193796300148524E-4
9.18,1.9641123569940356E-4
9.184000000000001,2.0369552020575843E-4
9.188,2.0583512852610688E-4
9.192,2.0352723640528159E-4
9.196,1.9867104673437837E-4
9.200000000000001,1.9960862790846363E-4
9.204,2.0145974971370892E-4
9.208,2.0196460111513947E-4
9.212,2.020848038297658E-4
9.216000000000001,2.0624381775583635E-4
9.22,2.0328683097602896E-4
9.224,2.0222904708731737E-4
9.228,2.0165207405711106E-4
9.232,2.0242137143071948E-4
9.236,2.0458502029399315E-4
9.24,2.0499370952372267E-4
9.244,2.048494662661711E-4
9.248,2.0388784454916054E-4
9.252,2.0297430391800052E-4
9.256,2.0131550645615732E-4
9.26,2.00738533425951E-4
9.264,2.0105106048397942E-4
9.268,2.0244541197364472E-4
9.272,2.0037792528207205E-4
9.276,2.0196460111513947E-4
9.28,2.0280602011752368E-4
9.284,2.035753174911321E-4
9.288,2.0408016889256263E-4
9.292,2.04657141922769E-4
9.296,2.0359935803405737E-4
9.3,2.0508987169542373E-4
9.304,2.0453693920814264E-4
9.308,2.0352723640528159E-4
9.312,2.0393592563501105E-4
9.316,2.0408016889256263E-4
9.32,2.0246945251657E-4
9.324,2.0307046608970158E-4
9.328,2.064121015563132E-4
9.332,2.0646018264216373E-4
9.336,2.063399799275374E-4
9.34,2.054985609251532E-4
9.344,2.0480138518032056E-4
9.348,2.044167364935163E-4
9.352,2.0557068255392898E-4
9.356,2.0876807476298906E-4
9.36,2.110038452550386E-4
9.364,2.0886423693469011E-4
9.368,2.0888827747761538E-4
9.372,2.1088364254041227E-4
9.376,2.1040283168190696E-4
9.38,2.0804685847523118E-4
9.384,2.066765475284911E-4
9.388,2.0605149341243427E-4
9.392,2.0850362879081116E-4
9.396,2.090806018210175E-4
9.4,2.0927292616441958E-4
9.404,2.0710927730114583E-4
9.408,2.071333178440711E-4
9.412,2.0472926355154478E-4
9.416,2.0196460111513947E-4
9.42,2.0129146591323208E-4
9.424,1.9855084401975207E-4
9.428,1.9939226302213627E-4
9.432,1.9787770881784462E-4
9.436,1.976853844744425E-4
9.44,1.978296277319941E-4
9.444,1.9734881687348882E-4
9.448,1.9350233000544668E-4
9.452,1.9282919480353926E-4
9.456,1.9193969471530454E-4
9.46,1.9246858665966033E-4
9.464,1.9333404620496984E-4
9.468,1.9648335732817934E-4
9.472,1.9542557343946778E-4
9.476,1.9535345181069197E-4
9.48,1.9643527624232883E-4
9.484,1.9648335732817934E-4
9.488,1.951370869243646E-4
9.492,1.9220414068748243E-4
9.496,1.952092085531404E-4
9.5,1.9708437090131092E-4
9.504,1.9843064130512569E-4
9.508000000000001,2.0078661451180152E-4
9.512,1.9804599261832146E-4
9.516,1.9987307388064153E-4
9.52,2.0143570917078365E-4
9.524000000000001,2.006904523401005E-4
9.528,1.9766134393151724E-4
9.532,1.960506275555246E-4
9.536,1.9694012764375935E-4
9.540000000000001,2.0059429016839944E-4
9.544,1.9915185759288365E-4
9.548,1.9900761433533205E-4
9.552,2.001615603957447E-4
9.556000000000001,1.9992115496649207E-4
9.56,2.0150783079955943E-4
9.564,1.9999327659526786E-4
9.568,2.0018560093866994E-4
9.572000000000001,2.0198864165806474E-4
9.576,2.0078661451180152E-4
9.58,1.985268034768268E-4
9.584,1.9727669524471304E-4
9.588000000000001,1.9915185759288365E-4
9.592,1.9965670899431417E-4
9.596,1.99368222479211E-4
9.6,1.9862296564852785E-4
9.604000000000001,1.9751710067396566E-4
9.608,1.9679588438620778E-4
9.612,1.9686800601498357E-4
9.616,1.9696416818668462E-4
9.620000000000001,1.9379081652054982E-4
9.624,1.9669972221450673E-4
9.628,1.985748845626773E-4
9.632,1.9980095225186574E-4
9.636000000000001,2.0059429016839944E-4
9.64,1.9956054682261312E-4
9.644,1.9924801976458468E-4
9.648,1.9915185759288365E-4
9.652000000000001,1.979498304466204E-4
9.656,1.963150735277025E-4
9.66,1.9564193832579513E-4
9.664,1.9607466809844987E-4
9.668000000000001,1.971564925300867E-4
9.672,1.963150735277025E-4
9.676,1.9653143841402988E-4
9.68,1.9362253272007298E-4
9.684000000000001,1.92348383945034E-4
9.688,1.9191565417237927E-4
9.692,1.9145888385679926E-4
9.696,1.9340616783374562E-4
9.700000000000001,1.9443991117953195E-4
9.704,1.9405526249272772E-4
9.708,1.9537749235361724E-4
9.712,1.952572896389909E-4
9.716000000000001,1.9362253272007298E-4
9.72,1.9398314086395193E-4
9.724,1.9506496529558882E-4
9.728,1.9458415443708352E-4
9.732,1.9395910032102666E-4
9.736,1.9761326284566672E-4
9.74,1.9528133018191618E-4
9.744,1.9386293814932563E-4
9.748,1.9537749235361724E-4
9.752,1.9590638429797303E-4
9.756,1.943437490078309E-4
9.76,1.9597850592674882E-4
9.764,1.9927206030750995E-4
9.768,1.975651817598162E-4
9.772,1.9405526249272772E-4
9.776,1.9530537072484145E-4
9.78,1.9924801976458468E-4
9.784,1.9799791153247095E-4
9.788,1.9840660076220041E-4
9.792,1.9927206030750995E-4
9.796,1.994403441079868E-4
9.8,1.9843064130512569E-4
9.804,1.9516112746728988E-4
9.808,1.943918300936814E-4
9.812,1.9431970846490562E-4
9.816,1.9306960023279191E-4
9.82,1.9383889760640036E-4
9.824,1.9662760058573094E-4
9.828,1.9681992492913303E-4
9.832,1.9535345181069197E-4
9.836,1.9335808674789508E-4
9.84,1.960506275555246E-4
9.844,1.9739689795933936E-4
9.848,1.961948708130762E-4
9.852,1.955217356111688E-4
9.856,1.968439654720583E-4
9.86,1.9576214104042146E-4
9.864,1.9345424891959614E-4
9.868,1.9304555968986664E-4
9.872,1.920358568870056E-4
9.876,1.9282919480353926E-4
9.88,1.9145888385679926E-4
9.884,1.9035301888223715E-4
9.888,1.9270899208891296E-4
9.892,1.9371869489177404E-4
9.896,1.9367061380592352E-4
9.9,1.942716273790551E-4
9.904,1.9443991117953195E-4
9.908,1.9193969471530454E-4
9.912,1.9092999191244346E-4
9.916,1.9196373525822978E-4
9.92,1.899683701954329E-4
9.924,1.901847350817603E-4
9.928,1.9131464059924768E-4
9.932,1.9379081652054982E-4
9.936,1.9429566792198035E-4
9.94,1.948726409521867E-4
9.944,1.963150735277025E-4
9.948,2.0335895260480474E-4
9.952,2.0537835821052687E-4
9.956,2.034551147765058E-4
9.96,1.9530537072484145E-4
9.964,1.6773086798956412E-4
9.968,1.388581759363225E-4
9.972,1.1371176803649681E-4
9.976,9.873450979405757E-5
9.98,1.0106644245780816E-4
9.984,1.1618794395779895E-4
9.988,1.332086483488856E-4
9.992,1.5715302910244812E-4
9.996,1.8266004514615278E-4
10.0,1.9734881687348882E-4
10.004,2.023973308877942E-4
10.008000000000001,2.0417633106426368E-4
10.012,2.0386380400623527E-4
10.016,2.04657141922769E-4
10.02,2.050417906095732E-4
10.024000000000001,2.0468118246569426E-4
10.028,2.0439269595059107E-4
10.032,2.0451289866521737E-4
10.036,2.0381572292038473E-4
10.040000000000001,2.0516199332419952E-4
10.044,2.0381572292038473E-4
10.048,2.009548983122784E-4
10.052,2.010029793981289E-4
10.056000000000001,2.027819795745984E-4
10.06,2.0316662826140263E-4
10.064,2.056908852685553E-4
10.068,2.076622097884269E-4
10.072000000000001,2.0696503404359426E-4
10.076,2.0677270970019215E-4
10.08,2.018684389434384E-4
10.084,2.0129146591323208E-4
10.088000000000001,2.0232520925901842E-4
10.092,2.0489754735202162E-4
10.096,2.0203672274391525E-4
10.1,2.0280602011752368E-4
10.104000000000001,2.0201268220098998E-4
10.108,2.0292622283215E-4
10.112,2.0528219603882584E-4
10.116,2.0708523675822059E-4
10.120000000000001,2.0578704744025637E-4
10.124,2.074458449020995E-4
10.128,2.06940993500669E-4
10.132,2.0778241250305328E-4
10.136000000000001,2.0756604761672584E-4
10.14,2.0706119621529532E-4
10.144,2.0689291241481847E-4
10.148,2.044167364935163E-4
10.152000000000001,2.0359935803405737E-4
10.156,2.0521007441005003E-4
10.16,2.0352723640528159E-4
10.164,2.0472926355154478E-4
10.168000000000001,2.0624381775583635E-4
10.172,2.1073939928286064E-4
10.176,2.1064323711115961E-4
10.18,2.0790261521767958E-4
10.184000000000001,2.09128682906868E-4
10.188,2.1066727765408486E-4
10.192,2.104509127677575E-4
10.196,2.118452642574228E-4
10.200000000000001,2.1076343982578591E-4
10.204,2.088161558488396E-4
10.208,2.0749392598795006E-4
10.212,2.0355127694820683E-4
10.216000000000001,2.0383976346331E-4
10.22,2.0463310137984372E-4
10.224,2.0280602011752368E-4
10.228,2.041522905213384E-4
10.232000000000001,2.0237329034486894E-4
10.236,2.0093085776935312E-4
10.24,2.00281763110371E-4
10.244,1.9843064130512569E-4
10.248,1.9758922230274145E-4
10.252,1.9665164112865618E-4
10.256,1.979498304466204E-4
10.26,1.9660356004280567E-4
10.264,1.9489668149511198E-4
10.268,1.946081949800088E-4
10.272,1.9734881687348882E-4
10.276,1.9999327659526786E-4
10.28,1.979498304466204E-4
10.284,1.9669972221450673E-4
10.288,1.971084114442362E-4
10.292,1.9641123569940356E-4
10.296,1.9811811424709725E-4
10.3,1.9840660076220041E-4
10.304,1.9840660076220041E-4
10.308,2.0124338482738153E-4
10.312,2.0011347930989416E-4
10.316,1.9994519550941731E-4
10.32,2.009548983122784E-4
10.324,1.998971144235668E-4
10.328,1.9934418193628573E-4
10.332,1.988393305348552E-4
10.336,1.9855084401975207E-4
10.34,1.987191278202289E-4
10.344,1.9725265470178777E-4
10.348,1.9691608710083408E-4
10.352,1.9951246573676257E-4
10.356,1.9696416818668462E-4
10.36,1.9698820872960987E-4
10.364,1.9655547895695513E-4
10.368,1.9564193832579513E-4
10.372,1.9532941126776672E-4
10.376,1.9679588438620778E-4
10.38,1.9653143841402988E-4
10.384,1.9571405995457092E-4
10.388,1.9727669524471304E-4
10.392,1.957861815833467E-4
10.396,1.960506275555246E-4
10.4,1.977575061032183E-4
10.404,1.978296277319941E-4
10.408,1.9415142466442878E-4
10.412,1.923003028591835E-4
10.416,1.9484860040926144E-4
10.42,1.9787770881784462E-4
10.424,1.9465627606585933E-4
10.428,1.959304248408983E-4
10.432,1.9722861415886252E-4
10.436,1.9939226302213627E-4
10.44,1.9939226302213627E-4
10.444,1.9915185759288365E-4
10.448,1.9835851967634987E-4
10.452,1.982142764187983E-4
10.456,1.9823831696172357E-4
10.46,1.9569001941164565E-4
10.464,1.9665164112865618E-4
10.468,1.9614678972722566E-4
10.472,1.9727669524471304E-4
10.476,1.957861815833467E-4
10.48,1.9251666774551085E-4
10.484,1.9239646503088452E-4
10.488,1.901366539959098E-4
10.492,1.8919907282182447E-4
10.496,1.8689118070099918E-4
10.5,1.887423025062445E-4
10.504,1.8980008639495605E-4
10.508000000000001,1.9222818123040768E-4
10.512,1.94079303035653E-4
10.516,1.9535345181069197E-4
10.52,1.9410334357857826E-4
10.524000000000001,1.9309364077571718E-4
10.528,1.9191565417237927E-4
10.532,1.9465627606585933E-4
10.536,1.9544961398239302E-4
10.540000000000001,1.963871951564783E-4
10.544,1.9496880312388777E-4
10.548,1.946081949800088E-4
10.552,1.9602658701259936E-4
10.556000000000001,1.9383889760640036E-4
10.56,1.9511304638143934E-4
10.564,1.9672376275743197E-4
10.568,1.9869508727730364E-4
10.572000000000001,1.9900761433533205E-4
10.576,1.9770942501736778E-4
10.58,1.9929610085043522E-4
10.584,1.9859892510560258E-4
10.588000000000001,1.9785366827491935E-4
10.592,2.0013751985281943E-4
10.596,2.0145974971370892E-4
10.6,2.0177227677173736E-4
10.604000000000001,2.0064237125424995E-4
10.608,1.968439654720583E-4
10.612,1.9511304638143934E-4
10.616,1.948726409521867E-4
10.620000000000001,1.9386293814932563E-4
10.624,1.9446395172245722E-4
10.628,1.9662760058573094E-4
10.632,1.9470435715170987E-4
10.636000000000001,1.9220414068748243E-4
10.64,1.902568567105361E-4
10.644,1.9251666774551085E-4
10.648,1.934782894625214E-4
10.652000000000001,1.9393505977810142E-4
10.656,1.9314172186156773E-4
10.66,1.9126655951339717E-4
10.664,1.9131464059924768E-4
10.668000000000001,1.9350233000544668E-4
10.672,1.943437490078309E-4
10.676,1.963871951564783E-4
10.68,1.9679588438620778E-4
10.684000000000001,1.9655547895695513E-4
10.688,1.9564193832579513E-4
10.692,1.9706033035838565E-4
10.696,1.9686800601498357E-4
10.700000000000001,1.9758922230274145E-4
10.704,1.965795194998804E-4
10.708,1.940071814068772E-4
10.712,1.9492072203803723E-4
10.716000000000001,1.943437490078309E-4
10.72,1.9350233000544668E-4
10.724,1.942716273790551E-4
10.728,1.9590638429797303E-4
10.732000000000001,1.9583426266919725E-4
10.736,1.9198777580115505E-4
10.74,1.9306960023279191E-4
10.744,1.9869508727730364E-4
10.748000000000001,2.009548983122784E-4
10.752,2.0261369577412156E-4
10.756,2.0525815549590057E-4
10.76,2.0032984419622154E-4
10.764,1.8744411318828024E-4
10.768,1.639565027502977E-4
10.772,1.4140647348640046E-4
10.776,1.2234232294666645E-4
10.78,1.0823052424953668E-4
10.784,1.1361560586479575E-4
10.788,1.2919387768036656E-4
10.792,1.464790280436311E-4
10.796,1.7210624680196208E-4
10.8,1.9222818123040768E-4
10.804,1.9948842519383733E-4
10.808,2.0145974971370892E-4
10.812,2.0124338482738153E-4
10.816,1.98911452163631E-4
10.82,1.9888741162070575E-4
10.824,2.0049812799669838E-4
10.828,1.9956054682261312E-4
10.832,1.99368222479211E-4
10.836,2.0083469559765206E-4
10.84,1.9862296564852785E-4
10.844,1.9722861415886252E-4
10.848,1.9847872239097625E-4
10.852,1.9956054682261312E-4
10.856,1.982863980475741E-4
10.86,1.9641123569940356E-4
10.864,1.994403441079868E-4
10.868,2.0355127694820683E-4
10.872,2.043686554076658E-4
10.876,2.0302238500385106E-4
10.88,2.004740874537731E-4
10.884,2.0093085776935312E-4
10.888,2.019405605722142E-4
10.892,2.0340703369065526E-4
10.896,2.0636402047046268E-4
10.9,2.0547452038222793E-4
10.904,2.0463310137984372E-4
10.908,2.0448885812229212E-4
10.912,2.0309450663262685E-4
10.916,2.034551147765058E-4
10.92,2.0434461486474052E-4
10.924,2.0487350680909635E-4
10.928,2.0393592563501105E-4
10.932,2.058110879831816E-4
10.936,2.0590725015488267E-4
10.94,2.0754200707380057E-4
10.944,2.0434461486474052E-4
10.948,2.0557068255392898E-4
10.952,2.0424845269303947E-4
10.956,2.045609797510679E-4
10.96,2.077102908742775E-4
10.964,2.082872639044838E-4
10.968,2.0838342607618486E-4
10.972,2.082872639044838E-4
10.976,2.0932100725027012E-4
10.98,2.093931288790459E-4
10.984,2.0696503404359426E-4
10.988,2.0600341232658372E-4
10.992,2.0636402047046268E-4
10.996,2.0816706118985748E-4
11.0,2.0756604761672584E-4
11.004,2.0605149341243427E-4
11.008000000000001,2.0653230427093952E-4
11.012,2.0400804726378684E-4
11.016,2.0057024962547417E-4
11.02,1.9960862790846363E-4
11.024000000000001,1.9746901958811515E-4
11.028,1.9881528999192994E-4
11.032,1.9903165487825732E-4
11.036,2.0023368202452048E-4
11.040000000000001,2.018684389434384E-4
11.044,2.0018560093866994E-4
11.048,1.9859892510560258E-4
11.052,1.9732477633056355E-4
11.056000000000001,2.001615603957447E-4
11.06,1.9722861415886252E-4
11.064,1.965795194998804E-4
11.068,1.9588234375504776E-4
11.072000000000001,1.9424758683612983E-4
11.076,1.943918300936814E-4
11.08,1.926128299172119E-4
11.084,1.9333404620496984E-4
11.088000000000001,1.9624295189892672E-4
11.092,1.932138434903435E-4
11.096,1.9220414068748243E-4
11.1,1.9285323534646453E-4
11.104000000000001,1.9239646503088452E-4
11.108,1.9157908657142558E-4
11.112,1.940071814068772E-4
11.116,1.963150735277025E-4
11.120000000000001,1.9633911407062777E-4
11.124,1.9751710067396566E-4
11.128,1.993201413933605E-4
11.132,1.9823831696172357E-4
11.136000000000001,1.9744497904518988E-4
11.14,1.9780558718906883E-4
11.144,1.9708437090131092E-4
11.148,1.9660356004280567E-4
11.152000000000001,1.994403441079868E-4
11.156,2.008106550547268E-4
11.16,1.9859892510560258E-4
11.164,1.9758922230274145E-4
11.168000000000001,1.9691608710083408E-4
11.172,1.943918300936814E-4
11.176,1.957861815833467E-4
11.18,1.956659788687204E-4
11.184000000000001,1.9492072203803723E-4
11.188,1.9694012764375935E-4
11.192,1.9732477633056355E-4
11.196,1.963150735277025E-4
11.200000000000001,1.9595446538382355E-4
11.204,1.946081949800088E-4
11.208,1.941273841215035E-4
11.212,1.9364657326299825E-4
11.216000000000001,1.9311768131864246E-4
11.22,1.943437490078309E-4
11.224,1.9422354629320456E-4
11.228,1.928772758893898E-4
11.232000000000001,1.94079303035653E-4
11.236,1.9516112746728988E-4
11.24,1.956659788687204E-4
11.244,1.9369465434884877E-4
11.248000000000001,1.9335808674789508E-4
11.252,1.9121847842754663E-4
11.256,1.9270899208891296E-4
11.26,1.935504110912972E-4
11.264,1.9292535697524032E-4
11.268,1.9480051932341093E-4
11.272,1.9362253272007298E-4
11.276,1.9463223552293408E-4
11.28,1.902568567105361E-4
11.284,1.904491810539382E-4
11.288,1.8907887010719817E-4
11.292,1.8922311336474974E-4
11.296,1.9112231625584557E-4
11.3,1.9419950575027932E-4
11.304,1.90978072998294E-4
11.308,1.897760458520308E-4
11.312,1.9133868114217296E-4
11.316,1.9331000566204457E-4
11.32,1.9405526249272772E-4
11.324,1.9311768131864246E-4
11.328,1.9254070828843612E-4
11.332,1.9292535697524032E-4
11.336,1.9376677597762458E-4
11.34,1.916271676572761E-4
11.344,1.9109827571292033E-4
11.348,1.9499284366681304E-4
11.352,1.9544961398239302E-4
11.356,1.9532941126776672E-4
11.36,1.9609870864137515E-4
11.364,1.9364657326299825E-4
11.368,1.9251666774551085E-4
11.372,1.942716273790551E-4
11.376,1.9499284366681304E-4
11.38,1.9357445163422247E-4
11.384,1.963150735277025E-4
11.388,1.9636315461355304E-4
11.392,1.9766134393151724E-4
11.396,1.985748845626773E-4
11.4,1.9744497904518988E-4
11.404,1.9850276293390152E-4
11.408,1.9939226302213627E-4
11.412,2.0052216853962365E-4
11.416,1.9751710067396566E-4
11.42,1.9758922230274145E-4
11.424,1.961948708130762E-4
11.428,1.9511304638143934E-4
11.432,1.9395910032102666E-4
11.436,1.9333404620496984E-4
11.44,1.9722861415886252E-4
11.444,1.968439654720583E-4
11.448,1.9607466809844987E-4
11.452,1.9617083027015093E-4
11.456,1.977575061032183E-4
11.46,1.9799791153247095E-4
11.464,1.9463223552293408E-4
11.468,1.9607466809844987E-4
11.472,1.973728574164141E-4
11.476,1.9480051932341093E-4
11.48,1.9335808674789508E-4
11.484,1.9376677597762458E-4
11.488,1.943918300936814E-4
11.492,1.957861815833467E-4
11.496,1.9667568167158146E-4
11.5,1.956659788687204E-4
11.504,1.9561789778286986E-4
11.508000000000001,1.959304248408983E-4
11.512,1.9766134393151724E-4
11.516,1.9713245198716147E-4
11.52,1.9725265470178777E-4
11.524000000000001,1.9518516801021512E-4
11.528,1.9472839769463514E-4
11.532,1.948726409521867E-4
11.536,1.9571405995457092E-4
11.540000000000001,1.9869508727730364E-4
11.544,1.9888741162070575E-4
11.548,1.982863980475741E-4
11.552,1.977575061032183E-4
11.556000000000001,1.9984903333771626E-4
11.56,2.0427249323596474E-4
11.564,2.0528219603882584E-4
11.568,2.0521007441005003E-4
11.572000000000001,2.0244541197364472E-4
11.576,1.836937884919391E-4
11.58,1.5385947472168701E-4
11.584,1.2779952619070128E-4
11.588000000000001,1.0777375393395669E-4
11.592,1.0142705060168711E-4
11.596,1.1589945744269578E-4
11.6,1.329201618337824E-4
11.604000000000001,1.5417200177971543E-4
11.608,1.796068961946443E-4
11.612,1.976853844744425E-4
11.616,2.0405612834963738E-4
11.620000000000001,2.0521007441005003E-4
11.624,2.0446481757936685E-4
11.628,2.0244541197364472E-4
11.632,2.0393592563501105E-4
11.636000000000001,2.0597937178365845E-4
11.64,2.0545047983930268E-4
11.644,2.056908852685553E-4
11.648,2.0424845269303947E-4
11.652000000000001,2.0280602011752368E-4
11.656,2.0355127694820683E-4
11.66,2.0566684472563004E-4
11.664,2.0451289866521737E-4
11.668000000000001,2.0297430391800052E-4
11.672,2.0227712817316788E-4
11.676,2.0408016889256263E-4
11.68,2.0670058807141636E-4
11.684000000000001,2.0689291241481847E-4
11.688,2.0566684472563004E-4
11.692,2.0597937178365845E-4
11.696,2.0773433141720274E-4
11.700000000000001,2.054985609251532E-4
11.704,2.0432057432181528E-4
11.708,2.0432057432181528E-4
11.712,2.0566684472563004E-4
11.716000000000001,2.063399799275374E-4
11.72,2.0489754735202162E-4
11.724,2.0573896635440583E-4
11.728,2.071333178440711E-4
11.732000000000001,2.0864787204836276E-4
11.736,2.1006626408095328E-4
11.74,2.0922484507856907E-4
11.744,2.0573896635440583E-4
11.748000000000001,2.0494562843787213E-4
11.752,2.0398400672086157E-4
11.756,2.0703715567237004E-4
11.76,2.0888827747761538E-4
11.764000000000001,2.0886423693469011E-4
11.768,2.0910464236394274E-4
11.772,2.1001818299510276E-4
11.776,2.099941424521775E-4
11.78,2.1013838570972906E-4
11.784,2.0838342607618486E-4
11.788,2.062918988416869E-4
11.792,2.06940993500669E-4
11.796,2.089363585634659E-4
11.8,2.0987393973755116E-4
11.804,2.0984989919462592E-4
11.808,2.0838342607618486E-4
11.812,2.0792665576060485E-4
11.816,2.0528219603882584E-4
11.82,2.0653230427093952E-4
11.824,2.0333491206187947E-4
11.828,2.0222904708731737E-4
11.832,2.0335895260480474E-4
11.836,2.0439269595059107E-4
11.84,2.0405612834963738E-4
11.844,2.044167364935163E-4
11.848,2.0525815549590057E-4
11.852,2.0521007441005003E-4
11.856,2.0475330409447005E-4
11.86,2.0412824997841317E-4
11.864,2.0528219603882584E-4
11.868,2.060755339553595E-4
11.872,2.0482542572324583E-4
11.876,2.034551147765058E-4
11.88,2.0025772256744575E-4
11.884,1.9934418193628573E-4
11.888,1.9907973596410784E-4
11.892,2.016761146000363E-4
11.896,2.0333491206187947E-4
11.9,2.0172419568588684E-4
11.904,1.9898357379240678E-4
11.908,1.9867104673437837E-4
11.912,2.0085873614057734E-4
11.916,2.015318713424847E-4
11.92,2.0064237125424995E-4
11.924,1.9987307388064153E-4
11.928,2.0040196582499733E-4
11.932,1.9855084401975207E-4
11.936,2.0129146591323208E-4
11.94,2.0275793903167316E-4
11.944,2.032627904331037E-4
11.948,2.0136358754200786E-4
11.952,2.0011347930989416E-4
11.956,1.987912494490047E-4
11.96,1.9898357379240678E-4
11.964,2.0198864165806474E-4
11.968,2.0059429016839944E-4
11.972,1.973007357876383E-4
11.976,1.97637303388592E-4
11.98,1.9915185759288365E-4
11.984,2.0191652002928895E-4
11.988,1.9975287116601523E-4
11.992,2.0032984419622154E-4
11.996,2.0196460111513947E-4
12.0,2.0254157414534578E-4
12.004,2.0383976346331E-4
12.008000000000001,2.0383976346331E-4
12.012,2.0088277668350258E-4
12.016,1.9915185759288365E-4
12.02,2.0121934428445626E-4
12.024000000000001,2.0136358754200786E-4
12.028,1.9982499279479101E-4
12.032,2.0338299314773E-4
12.036,2.0323874989017842E-4
12.040000000000001,1.9965670899431417E-4
12.044,1.987912494490047E-4
12.048,2.009548983122784E-4
12.052,1.9951246573676257E-4
12.056000000000001,1.963150735277025E-4
12.06,1.9456011389415825E-4
12.064,1.9528133018191618E-4
12.068,1.9874316836315415E-4
12.072000000000001,1.9691608710083408E-4
12.076,1.963871951564783E-4
12.08,1.974209385022646E-4
12.084,1.976853844744425E-4
12.088000000000001,1.9720457361593725E-4
12.092,1.9934418193628573E-4
12.096,2.016761146000363E-4
12.1,2.0244541197364472E-4
12.104000000000001,1.9972883062308996E-4
12.108,2.0129146591323208E-4
12.112,2.0129146591323208E-4
12.116,1.985268034768268E-4
12.120000000000001,1.9773346556029305E-4
12.124,1.9744497904518988E-4
12.128,1.9674780330035724E-4
12.132,1.9922397922165943E-4
12.136000000000001,1.987912494490047E-4
12.14,1.987912494490047E-4
12.144,1.978296277319941E-4
12.148,1.9746901958811515E-4
12.152000000000001,1.9900761433533205E-4
12.156,2.0057024962547417E-4
12.16,2.0011347930989416E-4
12.164,1.9915185759288365E-4
12.168000000000001,1.986470061914531E-4
12.172,1.9869508727730364E-4
12.176,1.986470061914531E-4
12.18,2.0004135768111837E-4
12.184000000000001,2.0340703369065526E-4
12.188,2.0369552020575843E-4
12.192,2.0052216853962365E-4
12.196,1.9980095225186574E-4
12.200000000000001,1.9968074953723942E-4
12.204,2.0052216853962365E-4
12.208,2.0105106048397942E-4
12.212,2.0203672274391525E-4
12.216000000000001,2.010029793981289E-4
12.22,2.000894387669689E-4
12.224,2.0052216853962365E-4
12.228,2.0177227677173736E-4
12.232000000000001,1.9881528999192994E-4
12.236,1.9251666774551085E-4
12.24,1.929974786040161E-4
12.244,1.968920465579088E-4
12.248000000000001,1.981661953329478E-4
12.252,1.9912781704995838E-4
12.256,1.9939226302213627E-4
12.26,1.9898357379240678E-4
12.264000000000001,1.9941630356506152E-4
12.268,2.0280602011752368E-4
12.272,2.0218096600146683E-4
12.276,2.0148379025663416E-4
12.280000000000001,1.9843064130512569E-4
12.284,2.0141166862785838E-4
12.288,2.004740874537731E-4
12.292,1.9855084401975207E-4
12.296,1.979017493607699E-4
12.3,1.9629103298477723E-4
12.304,1.9621891135600145E-4
12.308,1.9770942501736778E-4
12.312,1.9922397922165943E-4
12.316,2.006904523401005E-4
12.32,1.9907973596410784E-4
12.324,2.004740874537731E-4
12.328,1.9869508727730364E-4
12.332,1.9826235750464882E-4
12.336,2.0061833071132468E-4
12.34,1.9912781704995838E-4
12.344,1.9867104673437837E-4
12.348,1.9886337107778048E-4
12.352,1.993201413933605E-4
12.356,1.9912781704995838E-4
12.36,1.99368222479211E-4
12.364,1.9960862790846363E-4
12.368,2.0487350680909635E-4
12.372,2.0761412870257636E-4
12.376,2.120375886008249E-4
12.38,2.1194142642912386E-4
12.384,2.059553312407332E-4
12.388,1.9672376275743197E-4
12.392,1.7155331431468101E-4
12.396,1.4498851438226473E-4
12.4,1.1738997110406211E-4
12.404,1.0056159105637762E-4
12.408,1.0323009132108187E-4
12.412,1.2198171480278746E-4
12.416,1.4294506823361733E-4
12.42,1.6854824644902305E-4
12.424,1.9311768131864246E-4
12.428,2.04657141922769E-4
12.432,2.071333178440711E-4
12.436,2.094652505078217E-4
12.44,2.078304935889038E-4
12.444,2.0710927730114583E-4
12.448,2.0684483132896793E-4
12.452,2.0756604761672584E-4
12.456,2.0826322336155853E-4
12.46,2.105711154823838E-4
12.464,2.06940993500669E-4
12.468,2.064121015563132E-4
12.472,2.06940993500669E-4
12.476,2.057630068973311E-4
12.48,2.0564280418270477E-4
12.484,2.0768625033135217E-4
12.488,2.0573896635440583E-4
12.492,2.064121015563132E-4
12.496,2.0840746661911013E-4
12.5,2.0970565593707432E-4
12.504,2.0850362879081116E-4
12.508000000000001,2.0679675024311742E-4
12.512,2.0638806101338795E-4
12.516,2.0857575041958697E-4
12.52,2.06484223185089E-4
12.524000000000001,2.0737372327332373E-4
12.528,2.0884019639176487E-4
12.532,2.0929696670734485E-4
12.536,2.0847958824788592E-4
12.540000000000001,2.0922484507856907E-4
12.544,2.107874803687112E-4
12.548,2.1021050733850487E-4
12.552,2.1177314262864702E-4
12.556000000000001,2.1331173737586386E-4
12.56,2.1220587240130176E-4
12.564,2.129511292319849E-4
12.568,2.148022510372302E-4
12.572000000000001,2.1674953501417654E-4
12.576,2.163168052415218E-4
12.58,2.1771115673118713E-4
12.584,2.1706206207220503E-4
12.588000000000001,2.177832783599629E-4
12.592,2.1742267021608396E-4
12.596,2.1600427818349336E-4
12.6,2.1583599438301652E-4
12.604000000000001,2.1530710243866075E-4
12.608,2.151388186381839E-4
12.612,2.1751883238778501E-4
12.616,2.192257109354787E-4
12.620000000000001,2.1872085953404818E-4
12.624,2.1809580541799135E-4
12.628,2.155955889537639E-4
12.632,2.1343194009049016E-4
12.636000000000001,2.1319153466123754E-4
12.64,2.1189334534327332E-4
12.644,2.0845554770496064E-4
12.648,2.0871999367713854E-4
12.652000000000001,2.099941424521775E-4
12.656,2.082872639044838E-4
12.66,2.0703715567237004E-4
12.664,2.082391828186333E-4
12.668000000000001,2.062197772129111E-4
12.672,2.0696503404359426E-4
12.676,2.0446481757936685E-4
12.68,2.0328683097602896E-4
12.684000000000001,2.037195607486837E-4
12.688,2.043686554076658E-4
12.692,2.0352723640528159E-4
12.696,2.037676418345342E-4
12.700000000000001,2.0643614209923846E-4
12.704,2.049215878949469E-4
12.708,2.027338984887479E-4
12.712,2.037195607486837E-4
12.716000000000001,2.0362339857698264E-4
12.72,2.023973308877942E-4
12.724,2.00281763110371E-4
12.728,2.023973308877942E-4
12.732000000000001,2.022050065443921E-4
12.736,1.9982499279479101E-4
12.74,1.975651817598162E-4
12.744,1.9840660076220041E-4
12.748000000000001,1.9686800601498357E-4
12.752,1.96266992441852E-4
12.756,1.987191278202289E-4
12.76,2.012674253703068E-4
12.764000000000001,1.9919993867873416E-4
12.768,1.9903165487825732E-4
12.772,1.9941630356506152E-4
12.776,1.9708437090131092E-4
12.780000000000001,1.9799791153247095E-4
12.784,1.9862296564852785E-4
12.788,2.0196460111513947E-4
12.792,2.0251753360242054E-4
12.796000000000001,2.015318713424847E-4
12.8,2.0198864165806474E-4
12.804,2.0141166862785838E-4
12.808,2.0177227677173736E-4
12.812,2.001615603957447E-4
12.816,1.9831043859049936E-4
12.82,1.9984903333771626E-4
12.824,1.9855084401975207E-4
12.828,1.9919993867873416E-4
12.832,2.0203672274391525E-4
12.836,2.0131550645615732E-4
12.84,2.018684389434384E-4
12.844,2.054985609251532E-4
12.848,2.0191652002928895E-4
12.852,2.009548983122784E-4
12.856,2.0129146591323208E-4
12.86,2.0177227677173736E-4
12.864,2.0129146591323208E-4
12.868,2.0040196582499733E-4
12.872,1.979498304466204E-4
12.876,1.9722861415886252E-4
12.88,1.958583032121225E-4
12.884,1.9645931678525407E-4
12.888,1.9713245198716147E-4
12.892,1.9696416818668462E-4
12.896,1.9929610085043522E-4
12.9,2.013395469990826E-4
12.904,2.0109914156982996E-4
12.908,2.0314258771847736E-4
12.912,2.0203672274391525E-4
12.916,1.98911452163631E-4
12.92,2.0093085776935312E-4
12.924,1.9987307388064153E-4
12.928,1.9903165487825732E-4
12.932,2.001615603957447E-4
12.936,1.9977691170894047E-4
12.94,1.9895953324948154E-4
12.944,1.9855084401975207E-4
12.948,1.9903165487825732E-4
12.952,1.996326684513889E-4
12.956,2.0018560093866994E-4
12.96,2.0141166862785838E-4
12.964,2.0059429016839944E-4
12.968,2.0143570917078365E-4
12.972,2.0251753360242054E-4
12.976,2.0078661451180152E-4
12.98,1.9859892510560258E-4
12.984,1.9994519550941731E-4
12.988,2.0032984419622154E-4
12.992,2.0179631731466263E-4
12.996,2.0064237125424995E-4
13.0,1.9912781704995838E-4
13.004,2.0244541197364472E-4
13.008000000000001,2.0333491206187947E-4
13.012,2.0369552020575843E-4
13.016,2.0424845269303947E-4
13.02,2.0249349305949526E-4
13.024000000000001,2.021328849156163E-4
13.028,2.0191652002928895E-4
13.032,2.0256561468827105E-4
13.036,2.023973308877942E-4
13.040000000000001,2.0451289866521737E-4
13.044,2.057630068973311E-4
13.048,1.9987307388064153E-4
13.052,1.9835851967634987E-4
13.056000000000001,1.9972883062308996E-4
13.06,2.0189247948636368E-4
13.064,2.0323874989017842E-4
13.068,2.0540239875345214E-4
13.072000000000001,2.0367147966283316E-4
13.076,2.034551147765058E-4
13.08,2.034551147765058E-4
13.084,2.0114722265568048E-4
13.088000000000001,2.0076257396887628E-4
13.092,2.0275793903167316E-4
13.096,2.0311854717555212E-4
13.1,2.0292622283215E-4
13.104000000000001,2.0155591188541E-4
13.108,2.0258965523119632E-4
13.112,2.0244541197364472E-4
13.116,2.0210884437269104E-4
13.120000000000001,2.0052216853962365E-4
13.124,1.980219520753962E-4
13.128,2.0114722265568048E-4
13.132,2.0254157414534578E-4
13.136000000000001,2.0444077703644158E-4
13.14,2.0379168237745948E-4
13.144,2.0191652002928895E-4
13.148,2.0600341232658372E-4
13.152000000000001,2.0170015514296157E-4
13.156,2.0177227677173736E-4
13.16,2.021328849156163E-4
13.164,2.0249349305949526E-4
13.168000000000001,2.0275793903167316E-4
13.172,2.0412824997841317E-4
13.176,2.043686554076658E-4
13.18,2.026617768599721E-4
13.184000000000001,2.044167364935163E-4
13.188,2.0352723640528159E-4
13.192,2.0196460111513947E-4
13.196,2.0444077703644158E-4
13.200000000000001,2.1076343982578591E-4
13.204,2.14417602350426E-4
13.208,2.123020345730028E-4
13.212,2.004740874537731E-4
13.216000000000001,1.717696792010084E-4
13.22,1.4292102769069206E-4
13.224,1.2068352548482323E-4
13.228,1.0553798344190719E-4
13.232000000000001,1.0839880805001353E-4
13.236,1.248665799538191E-4
13.24,1.4234405466048575E-4
13.244,1.683799626485462E-4
13.248000000000001,1.9121847842754663E-4
13.252,2.0432057432181528E-4
13.256,2.0977777756585013E-4
13.26,2.114365750276933E-4
13.264000000000001,2.1110000742673962E-4
13.268,2.1119616959844068E-4
13.272,2.1129233177014174E-4
13.276,2.1136445339891752E-4
13.280000000000001,2.1090768308333754E-4
13.284,2.1076343982578591E-4
13.288,2.1119616959844068E-4
13.292,2.1186930480034805E-4
13.296000000000001,2.1150869665646912E-4
13.3,2.107874803687112E-4
13.304,2.1261456163103123E-4
13.308,2.1463396723675335E-4
13.312000000000001,2.1595619709764284E-4
13.316,2.141531563782481E-4
13.32,2.1239819674470384E-4
13.324,2.1271072380273228E-4
13.328,2.1439356180750073E-4
13.332,2.1403295366362177E-4
13.336,2.0941716942197118E-4
13.34,2.0956141267952275E-4
13.344,2.130713319466112E-4
13.348,2.1427335909287443E-4
13.352,2.1372042660559333E-4
13.356,2.1297516977491018E-4
13.36,2.1141253448476806E-4
13.364,2.0963353430829854E-4
13.368,2.1054707493945856E-4
13.372,2.1153273719939436E-4
13.376,2.1028262896728066E-4
13.38,2.0984989919462592E-4
13.384,2.0845554770496064E-4
13.388,2.093931288790459E-4
13.392,2.103066695102059E-4
13.396,2.1251839945933017E-4
13.4,2.135521428051165E-4
13.404,2.132876968329386E-4
13.408,2.1511477809525864E-4
13.412,2.1465800777967862E-4
13.416,2.1549942678206283E-4
13.42,2.174707513019345E-4
13.424,2.1723034587268187E-4
13.428,2.1828812976139344E-4
13.432,2.2018733265248927E-4
13.436,2.177832783599629E-4
13.44,2.1463396723675335E-4
13.444,2.1422527800702389E-4
13.448,2.1439356180750073E-4
13.452,2.148022510372302E-4
13.456,2.13960832034846E-4
13.46,2.1319153466123754E-4
13.464,2.1090768308333754E-4
13.468,2.0977777756585013E-4
13.472,2.0662846644264058E-4
13.476,2.062197772129111E-4
13.48,2.0588320961195742E-4
13.484,2.0701311512944477E-4
13.488,2.0636402047046268E-4
13.492,2.0698907458651953E-4
13.496,2.0297430391800052E-4
13.5,2.022050065443921E-4
13.504,2.0285410120337422E-4
13.508000000000001,2.0307046608970158E-4
13.512,2.026617768599721E-4
13.516,1.9958458736553836E-4
13.52,1.9907973596410784E-4
13.524000000000001,2.0023368202452048E-4
13.528,2.0112318211275523E-4
13.532,2.00281763110371E-4
13.536,1.9823831696172357E-4
13.540000000000001,1.9667568167158146E-4
13.544,1.9713245198716147E-4
13.548,1.9643527624232883E-4
13.552,1.9686800601498357E-4
13.556000000000001,1.97637303388592E-4
13.56,1.9758922230274145E-4
13.564,1.9948842519383733E-4
13.568,1.9886337107778048E-4
13.572000000000001,1.9770942501736778E-4
13.576,2.0114722265568048E-4
13.58,2.023973308877942E-4
13.584,2.0145974971370892E-4
13.588000000000001,1.9956054682261312E-4
13.592,2.0114722265568048E-4
13.596,2.003538847391468E-4
13.6,1.971084114442362E-4
13.604000000000001,1.981661953329478E-4
13.608,1.9888741162070575E-4
13.612,2.022050065443921E-4
13.616,2.0352723640528159E-4
13.620000000000001,2.0155591188541E-4
13.624,1.9975287116601523E-4
13.628,2.017482362288121E-4
13.632,2.0141166862785838E-4
13.636000000000001,2.022050065443921E-4
13.64,2.0612361504121005E-4
13.644,2.0530623658175109E-4
13.648,2.0311854717555212E-4
13.652000000000001,2.0203672274391525E-4
13.656,2.0468118246569426E-4
13.66,2.0677270970019215E-4
13.664,2.0638806101338795E-4
13.668000000000001,2.0530623658175109E-4
13.672,2.058110879831816E-4
13.676,2.041042094354879E-4
13.68,2.0170015514296157E-4
13.684000000000001,1.987912494490047E-4
13.688,1.965795194998804E-4
13.692,1.9807003316124673E-4
13.696,2.0052216853962365E-4
13.700000000000001,1.9847872239097625E-4
13.704,1.9874316836315415E-4
13.708,1.9602658701259936E-4
13.712,1.9645931678525407E-4
13.716000000000001,1.9696416818668462E-4
13.72,1.943918300936814E-4
13.724,1.975651817598162E-4
13.728,1.9876720890607942E-4
13.732000000000001,1.9823831696172357E-4
13.736,2.0018560093866994E-4
13.74,2.001615603957447E-4
13.744,1.9888741162070575E-4
13.748000000000001,1.9874316836315415E-4
13.752,2.0121934428445626E-4
13.756,2.0155591188541E-4
13.76,2.005462090825489E-4
13.764000000000001,1.996326684513889E-4
13.768,1.9859892510560258E-4
13.772,1.991037765070331E-4
13.776,2.0057024962547417E-4
13.780000000000001,2.0177227677173736E-4
13.784,2.0071449288302574E-4
13.788,2.0117126319860575E-4
13.792,1.9953650627968785E-4
13.796000000000001,1.986470061914531E-4
13.8,2.0059429016839944E-4
13.804,2.0256561468827105E-4
13.808,2.0124338482738153E-4
13.812000000000001,1.9975287116601523E-4
13.816,1.99368222479211E-4
13.82,1.9855084401975207E-4
13.824,1.9903165487825732E-4
13.828,2.0275793903167316E-4
13.832,2.0528219603882584E-4
13.836,2.0251753360242054E-4
13.84,1.9900761433533205E-4
13.844,1.990556954211826E-4
13.848,2.00281763110371E-4
13.852,2.018684389434384E-4
13.856,2.0374360129160894E-4
13.86,2.0352723640528159E-4
13.864,2.0323874989017842E-4
13.868,2.0328683097602896E-4
13.872,2.0323874989017842E-4
13.876,2.021328849156163E-4
13.88,2.00281763110371E-4
13.884,1.987912494490047E-4
13.888,2.0097893885520364E-4
13.892,2.0049812799669838E-4
13.896,1.9895953324948154E-4
13.9,1.9900761433533205E-4
13.904,2.0249349305949526E-4
13.908,2.0369552020575843E-4
13.912,2.0280602011752368E-4
13.916,2.001615603957447E-4
13.92,1.988393305348552E-4
13.924,1.9886337107778048E-4
13.928,1.9939226302213627E-4
13.932,1.9583426266919725E-4
13.936,1.9893549270655626E-4
13.94,1.9780558718906883E-4
13.944,1.973728574164141E-4
13.948,2.002096414815952E-4
13.952,1.9787770881784462E-4
13.956,1.961227491843004E-4
13.96,1.9590638429797303E-4
13.964,1.9595446538382355E-4
13.968,1.9859892510560258E-4
13.972,1.9948842519383733E-4
13.976,1.988393305348552E-4
13.98,1.9987307388064153E-4
13.984,1.9912781704995838E-4
13.988,2.0040196582499733E-4
13.992,1.9951246573676257E-4
13.996,1.9643527624232883E-4
14.0,1.968920465579088E-4
14.004,1.978296277319941E-4
14.008000000000001,1.97637303388592E-4
14.012,1.9679588438620778E-4
14.016,1.9465627606585933E-4
14.02,1.9559385723994462E-4
14.024000000000001,2.0124338482738153E-4
14.028,2.043686554076658E-4
14.032,2.047773446373953E-4
14.036,2.0379168237745948E-4
14.040000000000001,1.929974786040161E-4
14.044,1.6785107070419042E-4
14.048,1.41454554572251E-4
14.052,1.18471795535699E-4
14.056000000000001,1.0253291557624923E-4
14.06,1.0464848335367243E-4
14.064,1.2412132312313595E-4
14.068,1.3905050027972462E-4
14.072000000000001,1.621775025738282E-4
14.076,1.873479510165792E-4
14.08,2.0165207405711106E-4
14.084,2.035753174911321E-4
14.088000000000001,2.0521007441005003E-4
14.092,2.0323874989017842E-4
14.096,2.0314258771847736E-4
14.1,2.0338299314773E-4
14.104000000000001,2.0369552020575843E-4
14.108,2.0283006066044895E-4
14.112,2.0388784454916054E-4
14.116,2.049696689807974E-4
14.120000000000001,2.0292622283215E-4
14.124,2.0136358754200786E-4
14.128,2.0283006066044895E-4
14.132,2.0145974971370892E-4
14.136000000000001,1.9927206030750995E-4
14.14,1.9975287116601523E-4
14.144,2.0206076328684053E-4
14.148,2.0588320961195742E-4
14.152000000000001,2.0155591188541E-4
14.156,1.9984903333771626E-4
14.16,2.0261369577412156E-4
14.164,2.0756604761672584E-4
14.168000000000001,2.059553312407332E-4
14.172,2.0343107423358053E-4
14.176,2.0381572292038473E-4
14.18,2.044167364935163E-4
14.184000000000001,2.045609797510679E-4
14.188,2.0537835821052687E-4
14.192,2.0785453413182906E-4
14.196,2.0819110173278275E-4
14.200000000000001,2.068207907860427E-4
14.204,2.0535431766760163E-4
14.208,2.0540239875345214E-4
14.212,2.0525815549590057E-4
14.216000000000001,2.0571492581148058E-4
14.22,2.0638806101338795E-4
14.224,2.0905656127809223E-4
14.228,2.1042687222483223E-4
14.232000000000001,2.0963353430829854E-4
14.236,2.0734968273039846E-4
14.24,2.0552260146807847E-4
14.244,2.0646018264216373E-4
14.248000000000001,2.04657141922769E-4
14.252,2.0297430391800052E-4
14.256,2.0521007441005003E-4
14.26,2.0696503404359426E-4
14.264000000000001,2.0593129069780794E-4
14.268,2.066044258997153E-4
14.272,2.0768625033135217E-4
14.276,2.0552260146807847E-4
14.280000000000001,2.0725352055869743E-4
14.284,2.0715735838699637E-4
14.288,2.0561876363977953E-4
14.292,2.0369552020575843E-4
14.296000000000001,2.0191652002928895E-4
14.3,1.987912494490047E-4
14.304,1.9862296564852785E-4
14.308,1.974209385022646E-4
14.312000000000001,1.979498304466204E-4
14.316,1.9867104673437837E-4
14.32,1.9761326284566672E-4
14.324,1.975651817598162E-4
14.328000000000001,1.9691608710083408E-4
14.332,1.977575061032183E-4
14.336,1.985268034768268E-4
14.34,1.9778154664614356E-4
14.344,1.9814215479002252E-4
14.348,1.9571405995457092E-4
14.352,1.928772758893898E-4
14.356,1.9451203280830773E-4
14.36,1.958583032121225E-4
14.364,1.9624295189892672E-4
14.368,1.9458415443708352E-4
14.372,1.954015328965425E-4
14.376,1.954736545253183E-4
14.38,1.9804599261832146E-4
14.384,1.971564925300867E-4
14.388,1.9431970846490562E-4
14.392,1.9371869489177404E-4
14.396,1.9624295189892672E-4
14.4,1.9602658701259936E-4
14.404,1.9583426266919725E-4
14.408,1.9679588438620778E-4
14.412,1.9660356004280567E-4
14.416,1.9833447913342463E-4
14.42,1.9924801976458468E-4
14.424,1.9835851967634987E-4
14.428,1.965795194998804E-4
14.432,1.9778154664614356E-4
14.436,1.980219520753962E-4
14.44,1.9845468184805093E-4
14.444,1.9679588438620778E-4
14.448,1.978296277319941E-4
14.452,1.9804599261832146E-4
14.456,1.9939226302213627E-4
14.46,1.9915185759288365E-4
14.464,1.9686800601498357E-4
14.468,1.9847872239097625E-4
14.472,1.981661953329478E-4
14.476,1.985268034768268E-4
14.48,1.9739689795933936E-4
14.484,1.9734881687348882E-4
14.488,1.9691608710083408E-4
14.492,1.9602658701259936E-4
14.496,1.9484860040926144E-4
14.5,1.9732477633056355E-4
14.504,1.987912494490047E-4
14.508000000000001,1.9833447913342463E-4
14.512,1.9751710067396566E-4
14.516,1.961227491843004E-4
14.52,1.9607466809844987E-4
14.524000000000001,1.9739689795933936E-4
14.528,1.979017493607699E-4
14.532,1.9972883062308996E-4
14.536,1.9778154664614356E-4
14.540000000000001,1.9523324909606567E-4
14.544,1.9145888385679926E-4
14.548,1.921560596016319E-4
14.552,1.9506496529558882E-4
14.556000000000001,1.9681992492913303E-4
14.56,1.9819023587587303E-4
14.564,1.9895953324948154E-4
14.568,1.9751710067396566E-4
14.572000000000001,1.96266992441852E-4
14.576,1.9511304638143934E-4
14.58,1.9506496529558882E-4
14.584,1.976853844744425E-4
14.588000000000001,1.9819023587587303E-4
14.592,1.9655547895695513E-4
14.596,1.9960862790846363E-4
14.6,2.0196460111513947E-4
14.604000000000001,1.976853844744425E-4
14.608,1.9660356004280567E-4
14.612,1.9629103298477723E-4
14.616,1.970362898154604E-4
14.620000000000001,1.9919993867873416E-4
14.624,2.0191652002928895E-4
14.628,1.9859892510560258E-4
14.632,1.9833447913342463E-4
14.636000000000001,1.9980095225186574E-4
14.64,1.987191278202289E-4
14.644,1.9648335732817934E-4
14.648,1.9419950575027932E-4
14.652000000000001,1.9275707317476347E-4
14.656,1.9405526249272772E-4
14.66,1.9475243823756038E-4
14.664,1.952572896389909E-4
14.668000000000001,1.9496880312388777E-4
14.672,1.9112231625584557E-4
14.676,1.9369465434884877E-4
14.68,1.943437490078309E-4
14.684000000000001,1.94079303035653E-4
14.688,1.9492072203803723E-4
14.692,1.9727669524471304E-4
14.696,1.9886337107778048E-4
14.700000000000001,1.9665164112865618E-4
14.704,1.9778154664614356E-4
14.708,1.9867104673437837E-4
14.712,1.956659788687204E-4
14.716000000000001,1.963871951564783E-4
14.72,1.9475243823756038E-4
14.724,1.9306960023279191E-4
14.728,1.9648335732817934E-4
14.732000000000001,1.9662760058573094E-4
14.736,1.9595446538382355E-4
14.74,1.9826235750464882E-4
14.744,1.98911452163631E-4
14.748000000000001,1.9706033035838565E-4
14.752,1.9718053307301198E-4
14.756,1.9645931678525407E-4
14.76,1.952572896389909E-4
14.764000000000001,1.935504110912972E-4
14.768,1.9780558718906883E-4
14.772,1.9987307388064153E-4
14.776,1.9597850592674882E-4
14.780000000000001,1.9112231625584557E-4
14.784,1.9121847842754663E-4
14.788,1.8972796476618027E-4
14.792,1.8698734287270023E-4
14.796000000000001,1.8554491029718444E-4
14.8,1.8561703192596023E-4
14.804,1.8669885635759706E-4
14.808,1.90521302682714E-4
14.812000000000001,1.901847350817603E-4
14.816,1.928772758893898E-4
14.82,1.9278111371768874E-4
14.824,1.901366539959098E-4
14.828000000000001,1.9145888385679926E-4
14.832,1.9157908657142558E-4
14.836,1.9251666774551085E-4
14.84,1.9114635679877084E-4
14.844000000000001,1.8927119445060029E-4
14.848,1.890548295642729E-4
14.852,1.9258878937428663E-4
14.856,1.9480051932341093E-4
14.86,1.976853844744425E-4
14.864,2.0049812799669838E-4
14.868,2.0283006066044895E-4
14.872,2.0256561468827105E-4
14.876,1.862901671278676E-4
14.88,1.5811465081945868E-4
14.884,1.350357296112056E-4
14.888,1.1844775499277373E-4
14.892,1.0712465927497458E-4
14.896,1.1195680840295255E-4
14.9,1.2924195876621707E-4
14.904,1.4664731184410793E-4
14.908,1.6746642201738622E-4
14.912,1.871315861302518E-4
14.916,1.9609870864137515E-4
14.92,2.012674253703068E-4
14.924,2.044167364935163E-4
14.928,2.0408016889256263E-4
14.932,2.0210884437269104E-4
14.936,2.026617768599721E-4
14.94,2.0383976346331E-4
14.944,2.0316662826140263E-4
14.948,2.0037792528207205E-4
14.952,1.9992115496649207E-4
14.956,1.9946438465091206E-4
14.96,1.9948842519383733E-4
14.964,1.9770942501736778E-4
14.968,1.9840660076220041E-4
14.972,1.985748845626773E-4
14.976,1.9823831696172357E-4
14.98,2.0059429016839944E-4
14.984,1.9934418193628573E-4
14.988,1.9681992492913303E-4
14.992,1.9797387098954567E-4
14.996,2.00281763110371E-4
15.0,1.9855084401975207E-4
15.004,1.9602658701259936E-4
15.008000000000001,1.9838256021927514E-4
15.012,2.0057024962547417E-4
15.016,1.996326684513889E-4
15.02,1.9876720890607942E-4
15.024000000000001,1.9874316836315415E-4
15.028,1.9778154664614356E-4
15.032,1.9602658701259936E-4
15.036,1.9691608710083408E-4
15.040000000000001,1.9898357379240678E-4
15.044,2.0160399297126051E-4
15.048,2.0201268220098998E-4
15.052,2.0162803351418579E-4
15.056000000000001,2.006904523401005E-4
15.06,1.9912781704995838E-4
15.064,1.994403441079868E-4
15.068,2.0066641179717522E-4
15.072000000000001,2.0191652002928895E-4
15.076,2.0280602011752368E-4
15.08,1.9720457361593725E-4
15.084,1.963871951564783E-4
15.088000000000001,2.0023368202452048E-4
15.092,2.0076257396887628E-4
15.096,2.0275793903167316E-4
15.1,2.0270985794582262E-4
15.104000000000001,2.0383976346331E-4
15.108,2.015318713424847E-4
15.112,2.0066641179717522E-4
15.116,2.0256561468827105E-4
15.120000000000001,2.0215692545854158E-4
15.124,1.9972883062308996E-4
15.128,1.9992115496649207E-4
15.132,1.9999327659526786E-4
15.136000000000001,1.985268034768268E-4
15.14,1.9698820872960987E-4
15.144,1.9504092475266355E-4
15.148,1.9475243823756038E-4
15.152000000000001,1.9395910032102666E-4
15.156,1.9318980294741824E-4
15.16,1.9443991117953195E-4
15.164,1.9239646503088452E-4
15.168000000000001,1.916992892860519E-4
15.172,1.91434843313874E-4
15.176,1.8775664024630866E-4
15.18,1.8943947825107713E-4
15.184000000000001,1.8946351879400237E-4
15.188,1.8965584313740448E-4
15.192,1.8689118070099918E-4
15.196,1.8580935626936234E-4
15.200000000000001,1.8929523499352553E-4
15.204,1.9107423516999506E-4
15.208,1.9030493779638663E-4
15.212,1.8703542395855075E-4
15.216000000000001,1.868671401580739E-4
15.22,1.891269511930487E-4
15.224,1.886701808774687E-4
15.228,1.8705946450147602E-4
15.232000000000001,1.8566511301181074E-4
15.236,1.904010999680877E-4
15.24,1.9290131643231507E-4
15.244,1.911703973416961E-4
15.248000000000001,1.8999241073835817E-4
15.252,1.915069649426498E-4
15.256,1.8982412693788133E-4
15.26,1.8710754558732656E-4
15.264000000000001,1.867469374434476E-4
15.268,1.8854997816284238E-4
15.272,1.9020877562468558E-4
15.276,1.9213201905870662E-4
15.280000000000001,1.9054534322563926E-4
15.284,1.9114635679877084E-4
15.288,1.913627216850982E-4
15.292,1.9016069453883504E-4
15.296000000000001,1.9085787028366767E-4
15.3,1.9109827571292033E-4
15.304,1.8893462684964658E-4
15.308,1.888625052208708E-4
15.312000000000001,1.87973005132636E-4
15.316,1.8939139716522659E-4
15.32,1.895837215086287E-4
15.324,1.864824914712697E-4
15.328000000000001,1.852083426962307E-4
15.332,1.8626612658494233E-4
15.336,1.8619400495616654E-4
15.34,1.8715562667317708E-4
15.344000000000001,1.868190590722234E-4
15.348,1.8616996441324127E-4
15.352,1.865546131000455E-4
15.356,1.8672289690052234E-4
15.36,1.8465541020894967E-4
15.364,1.850881399816044E-4
15.368,1.8506409943867914E-4
15.372,1.8393419392119176E-4
15.376,1.8321297763343385E-4
15.38,1.848958156382023E-4
15.384,1.812656936564875E-4
15.388,1.813378152852633E-4
15.392,1.8314085600465804E-4
15.396,1.8268408568907805E-4
15.4,1.852083426962307E-4
15.404,1.8907887010719817E-4
15.408,1.882374511048139E-4
15.412,1.873479510165792E-4
15.416,1.879249240467855E-4
15.42,1.8434288315092125E-4
15.424,1.8145801799988962E-4
15.428,1.7838082850545585E-4
15.432,1.785491123059327E-4
15.436,1.8049639628287906E-4
15.44,1.8304469383295698E-4
15.444,1.8256388297445173E-4
15.448,1.8309277491880752E-4
15.452,1.8422268043629493E-4
15.456,1.8881442413502028E-4
15.46,1.90978072998294E-4
15.464,1.8645845092834444E-4
15.468,1.817465045149928E-4
15.472,1.7979922053804642E-4
15.476,1.8239559917397489E-4
15.48,1.8362166686316332E-4
15.484,1.8165034234329173E-4
15.488,1.837659101207149E-4
15.492,1.8306873437588225E-4
15.496,1.8102528822723488E-4
15.5,1.8184266668669382E-4
15.504,1.815301396286654E-4
15.508000000000001,1.7996750433852326E-4
15.512,1.7915012587906427E-4
15.516,1.783567879625306E-4
15.52,1.7871739610640953E-4
15.524000000000001,1.8068872062628117E-4
15.528,1.8015982868192537E-4
15.532,1.7859719339178323E-4
15.536,1.7732304461674428E-4
15.540000000000001,1.8015982868192537E-4
15.544,1.8220327483057277E-4
15.548,1.820109504871707E-4
15.552,1.8215519374472226E-4
15.556000000000001,1.8403035609289281E-4
15.56,1.862180454990918E-4
15.564,1.8645845092834444E-4
15.568,1.881893700189634E-4
15.572000000000001,1.8650653201419498E-4
15.576,1.8246772080275067E-4
15.58,1.820590315730212E-4
15.584,1.8237155863104961E-4
15.588000000000001,1.8203499103009593E-4
15.592,1.842948020650707E-4
15.596,1.8607380224154024E-4
15.6,1.8412651826459387E-4
15.604000000000001,1.8227539645934856E-4
15.608,1.7943861239416747E-4
15.612,1.7818850416205376E-4
15.616,1.8181862614376857E-4
15.620000000000001,1.80400234111178E-4
15.624,1.7972709890927063E-4
15.628,1.8061659899750538E-4
15.632,1.8150609908574013E-4
15.636000000000001,1.8052043682580433E-4
15.64,1.7845295013423166E-4
15.644,1.7713072027334217E-4
15.648,1.7850103122008217E-4
15.652000000000001,1.7852507176300745E-4
15.656,1.7845295013423166E-4
15.66,1.8015982868192537E-4
15.664,1.8059255845458011E-4
15.668000000000001,1.8292449111833068E-4
15.672,1.8273216677492857E-4
15.676,1.8431884260799598E-4
15.68,1.8470349129480018E-4
15.684000000000001,1.8292449111833068E-4
15.688,1.8366974794901383E-4
15.692,1.859535995269139E-4
15.696,1.83501464148537E-4
15.700000000000001,1.8220327483057277E-4
15.704,1.817465045149928E-4
15.708,1.8191478831546963E-4
15.712,1.8427076152214544E-4
15.716000000000001,1.8826149164773918E-4
15.72,1.9112231625584557E-4
15.724,1.9256474883136136E-4
15.728,1.8842977544821602E-4
15.732000000000001,1.704234087971936E-4
15.736,1.3917070299435095E-4
15.74,1.1306267337751466E-4
15.744,9.188295506035744E-5
15.748000000000001,8.178592703174675E-5
15.752,9.558519867084806E-5
15.756,1.1380793020819787E-4
15.76,1.3501168906828034E-4
15.764000000000001,1.616486106294724E-4
15.768,1.8181862614376857E-4
15.772,1.8826149164773918E-4
15.776,1.9133868114217296E-4
15.780000000000001,1.8854997816284238E-4
15.784,1.8999241073835817E-4
15.788,1.8929523499352553E-4
15.792,1.895115998798529E-4
15.796000000000001,1.9047322159686348E-4
15.8,1.8814128893311288E-4
15.804,1.8662673472882128E-4
15.808,1.8525642378208125E-4
15.812000000000001,1.8333318034806015E-4
15.816,1.8585743735521286E-4
15.82,1.8794896458971077E-4
15.824,1.8725178884487813E-4
15.828000000000001,1.8888654576379606E-4
15.832,1.8972796476618027E-4
15.836,1.9431970846490562E-4
15.84,1.9391101923517615E-4
15.844000000000001,1.9119443788462136E-4
15.848,1.9167524874312664E-4
15.852,1.898962485666571E-4
15.856,1.8814128893311288E-4
15.860000000000001,1.8910291065012344E-4
15.864,1.9114635679877084E-4
15.868,1.9121847842754663E-4
15.872,1.9126655951339717E-4
15.876,1.9254070828843612E-4
15.88,1.9256474883136136E-4
15.884,1.9275707317476347E-4
15.888,1.9059342431148978E-4
15.892,1.8864614033454343E-4
15.896,1.8934331607937607E-4
15.9,1.9085787028366767E-4
15.904,1.916992892860519E-4
15.908,1.916992892860519E-4
15.912,1.9213201905870662E-4
15.916,1.9121847842754663E-4
15.92,1.902568567105361E-4
15.924,1.9092999191244346E-4
15.928,1.9391101923517615E-4
15.932,1.9391101923517615E-4
15.936,1.921560596016319E-4
15.94,1.9095403245536873E-4
15.944,1.917714109148277E-4
15.948,1.9256474883136136E-4
15.952,1.929974786040161E-4
15.956,1.9364657326299825E-4
15.96,1.9422354629320456E-4
15.964,1.948245598663362E-4
15.968,1.9648335732817934E-4
15.972,1.932138434903435E-4
15.976,1.9179545145775294E-4
15.98,1.9165120820020137E-4
15.984,1.8790088350386023E-4
15.988,1.8898270793549712E-4
15.992,1.8616996441324127E-4
15.996,1.8391015337826651E-4
16.0,1.8085700442675804E-4
16.004,1.824436802598254E-4
16.008,1.8540066703963285E-4
16.012,1.860257211556897E-4
16.016000000000002,1.8364570740608856E-4
16.02,1.829004505754054E-4
16.024,1.8241963971690016E-4
16.028,1.8304469383295698E-4
16.032,1.834293425197612E-4
16.036,1.82131153201797E-4
16.04,1.833812614339107E-4
16.044,1.8196286940132015E-4
16.048000000000002,1.8138589637111383E-4
16.052,1.8246772080275067E-4
16.056,1.8097720714138437E-4
16.06,1.8287641003248014E-4
16.064,1.83501464148537E-4
16.068,1.8453520749432334E-4
16.072,1.8419863989336966E-4
16.076,1.815301396286654E-4
16.080000000000002,1.8241963971690016E-4
16.084,1.8128973419941278E-4
16.088,1.8080892334090752E-4
16.092,1.8064063954043063E-4
16.096,1.8169842342914225E-4
16.1,1.8465541020894967E-4
16.104,1.8352550469146226E-4
16.108,1.8475157238065072E-4
16.112000000000002,1.8650653201419498E-4
16.116,1.8501601835282862E-4
16.12,1.829725722041812E-4
16.124,1.8472753183772545E-4
16.128,1.8566511301181074E-4
16.132,1.8299661274710647E-4
16.136,1.8044831519702854E-4
16.14,1.7893376099273691E-4
16.144000000000002,1.788135582781106E-4
16.148,1.7936649076539168E-4
16.152,1.8073680171213168E-4
16.156,1.8246772080275067E-4
16.16,1.8366974794901383E-4
16.164,1.82587923517377E-4
16.168,1.8177054505791803E-4
16.172,1.7936649076539168E-4
16.176000000000002,1.8015982868192537E-4
16.18,1.7965497728049485E-4
16.184,1.8294853166125595E-4
16.188,1.8631420767079287E-4
16.192,1.8518430215330546E-4
16.196,1.8458328858017388E-4
16.2,1.826360046032275E-4
