0.0,0.009123025431993656
0.004,0.009119106823496837
0.008,0.009116221958345806
0.012,0.00910381703819637
0.016,0.009106004727602568
0.02,0.00911340921482355
0.024,0.00911600559345948
0.028,0.009118193282865677
0.032,0.009117688431464247
0.036000000000000004,0.00911889045861051
0.04,0.009118193282865677
0.044,0.009117688431464247
0.048,0.009115981552916553
0.052000000000000005,0.00911747206657792
0.056,0.009119996323585072
0.06,0.009121366634531813
0.064,0.009118241363951528
0.068,0.009121751283218616
0.07200000000000001,0.009120380972271877
0.076,0.009118674093724183
0.08,0.00911884237752466
0.084,0.009119371269469016
0.088,0.009119563593812418
0.092,0.009119924201956297
0.096,0.00912016460738555
0.1,0.009118000958522275
0.10400000000000001,0.009120573296615279
0.108,0.009119515512726568
0.112,0.009121006026387933
0.116,0.009120813702044532
0.12,0.009120741580415755
0.124,0.009118289445037378
0.128,0.009116486404317984
0.132,0.009103792997653444
0.136,0.009106124930317195
0.14,0.009112303349848989
0.14400000000000002,0.009118626012638333
0.148,0.009120453093900652
0.152,0.009120645418244054
0.156,0.009119443391097791
0.16,0.009120477134443578
0.164,0.009122688864392702
0.168,0.009118505809923705
0.17200000000000001,0.009118409647752006
0.176,0.009119443391097791
0.18,0.009121150269645485
0.184,0.00912035693172895
0.188,0.00912345816176631
0.192,0.00912619878365979
0.196,0.0091247803916272
0.2,0.009126222824202716
0.20400000000000001,0.009122977350907805
0.20800000000000002,0.009123602405023861
0.212,0.009121847445390317
0.216,0.009122448458963449
0.22,0.009120068445213849
0.224,0.009121270472360112
0.228,0.009121198350731335
0.232,0.009123866850996039
0.23600000000000002,0.009125020797056453
0.24,0.009123746648281413
0.244,0.009123434121223385
0.248,0.009121294512903036
0.252,0.009123097553622431
0.256,0.009122568661678076
0.26,0.00911696721517649
0.264,0.009122640783306851
0.268,0.009127208486462651
0.272,0.009126919999947547
0.276,0.009127304648634352
0.28,0.009128987486639121
0.28400000000000003,0.009130285675957086
0.28800000000000003,0.009131439622017498
0.292,0.009129275973154223
0.296,0.009129973148899056
0.3,0.009129708702926878
0.304,0.009116270039431657
0.308,0.00911523629608587
0.312,0.009124419783483322
0.316,0.00912930001369715
0.32,0.009127064243205099
0.324,0.009127448891891904
0.328,0.00912838647306599
0.332,0.00912792970275041
0.336,0.00912615070257394
0.34,0.009126078580945165
0.34400000000000003,0.009126415148546117
0.34800000000000003,0.009124996756513527
0.352,0.009127136364833876
0.356,0.009129708702926878
0.36,0.009131824270704301
0.364,0.00912980486509858
0.368,0.009129660621841028
0.372,0.009129179810982524
0.376,0.009130598203015114
0.38,0.009132353162648658
0.384,0.00913204063559063
0.388,0.009130189513785384
0.392,0.009120741580415755
0.396,0.009107543322349785
0.4,0.00911518821500002
0.404,0.00912396301316774
0.40800000000000003,0.009128338391980139
0.41200000000000003,0.00912792970275041
0.41600000000000004,0.009128650919038167
0.42,0.009123746648281413
0.424,0.00912792970275041
0.428,0.00912812202709381
0.432,0.009128819202838643
0.436,0.00912889132446742
0.44,0.009126775756689997
0.444,0.009127448891891904
0.448,0.00912889132446742
0.452,0.00913035779758586
0.456,0.009130429919214637
0.46,0.009131030932787769
0.464,0.009132305081562807
0.468,0.00913199255450478
0.47200000000000003,0.009132016595047704
0.47600000000000003,0.009129131729896673
0.48,0.00912792970275041
0.484,0.009125020797056453
0.488,0.00912766525677823
0.492,0.009129949108356131
0.496,0.009132232959934032
0.5,0.009134540852054857
0.504,0.009134228324996828
0.508,0.009133939838481726
0.512,0.009133843676310024
0.516,0.00913081456790144
0.52,0.00913259356807791
0.524,0.009134300446625604
0.528,0.009121246431817186
0.532,0.00911701529626234
0.536,0.009126992121576324
0.54,0.009132785892421313
0.544,0.009133386905994445
0.548,0.009133819635767098
0.552,0.009131968513961853
0.556,0.009134108122282202
0.56,0.00913569479811527
0.5640000000000001,0.009134324487168529
0.5680000000000001,0.009133074378936415
0.5720000000000001,0.009129468297497625
0.5760000000000001,0.009129588500212253
0.58,0.00913208871667648
0.584,0.009132112757219405
0.588,0.009131391540931648
0.592,0.009131199216588245
0.596,0.009129612540755177
0.6,0.009128458594694765
0.604,0.00913026163541416
0.608,0.009133362865451519
0.612,0.009131487703103349
0.616,0.009125573729543734
0.62,0.009112832241793344
0.624,0.00911985208032752
0.628,0.009129348094783
0.632,0.009134156203368052
0.636,0.00913345902762322
0.64,0.009132401243734508
0.644,0.009132353162648658
0.648,0.0091340119601105
0.652,0.009135815000829895
0.656,0.009136295811688401
0.66,0.009134300446625604
0.664,0.009131968513961853
0.668,0.00913665641983228
0.672,0.00913980573095549
0.676,0.00913908451466773
0.68,0.009134949541284586
0.684,0.009133194581651042
0.6880000000000001,0.009133122460022266
0.6920000000000001,0.009132377203191582
0.6960000000000001,0.009134228324996828
0.7000000000000001,0.009137041068519085
0.704,0.009136872784718607
0.708,0.009132281041019881
0.712,0.00913295417622179
0.716,0.009131151135502395
0.72,0.009130886689530217
0.724,0.009131896392333078
0.728,0.009133338824908594
0.732,0.009135550554857718
0.736,0.009136055406259148
0.74,0.009134685095312407
0.744,0.009135310149428465
0.748,0.009136223690059625
0.752,0.009135021662913361
0.756,0.009132930135678863
0.76,0.009133218622193967
0.764,0.009134853379112885
0.768,0.009135478433228941
0.772,0.009135502473771867
0.776,0.009139276839011133
0.78,0.009142522312306044
0.784,0.009143291609679652
0.788,0.009145647582886328
0.792,0.009144108988139112
0.796,0.009135213987256764
0.8,0.009120909864216232
0.804,0.009128723040666942
0.808,0.009135069743999212
0.812,0.009135790960286971
0.8160000000000001,0.009134132162825126
0.8200000000000001,0.00913543035214309
0.8240000000000001,0.009136800663089832
0.8280000000000001,0.00913884410923848
0.8320000000000001,0.00913487741965581
0.836,0.009132858014050088
0.84,0.009135790960286971
0.844,0.009132257000476957
0.848,0.00913437256825438
0.852,0.009136464095488878
0.856,0.009137401676662963
0.86,0.009137497838834665
0.864,0.009137521879377589
0.868,0.009138387338922898
0.872,0.009136800663089832
0.876,0.009135310149428465
0.88,0.009137017027976159
0.884,0.009138002690236095
0.888,0.00912528524302863
0.892,0.009124972715970603
0.896,0.009132377203191582
0.9,0.009137401676662963
0.904,0.009140166339099368
0.908,0.009141344325702705
0.912,0.009141176041902229
0.916,0.009140430785071546
0.92,0.009139781690412564
0.924,0.009137906528064394
0.928,0.009140118258013518
0.932,0.009136512176574728
0.936,0.009132425284277433
0.9400000000000001,0.009135911163001597
0.9440000000000001,0.009135598635943569
0.9480000000000001,0.009132112757219405
0.9520000000000001,0.009135069743999212
0.9560000000000001,0.009138796028152629
0.96,0.009139324920096984
0.964,0.009139829771498414
0.968,0.00914071927158665
0.972,0.009141825136561211
0.976,0.009132882054593013
0.98,0.009120645418244054
0.984,0.009130237594871235
0.988,0.009136632379289354
0.992,0.009137834406435617
0.996,0.009136007325173298
1.0,0.009135863081915746
1.004,0.009133242662736893
1.008,0.009132906095135939
1.012,0.00913670450091813
1.016,0.009133074378936415
1.02,0.009132737811335463
1.024,0.009135141865627989
1.028,0.009136464095488878
1.032,0.009138291176751197
1.036,0.009138555622723376
1.04,0.009142402109591418
1.044,0.009143075244793325
1.048,0.009143315650222578
1.052,0.009142474231220193
1.056,0.009142065541990464
1.06,0.009143171406965026
1.064,0.009144998488227345
1.068,0.009140430785071546
1.072,0.009139637447155012
1.076,0.009137858446978543
1.08,0.009141608771674884
1.084,0.009143532015108905
1.088,0.009143075244793325
1.092,0.009144349393568363
1.096,0.009142762717735297
1.1,0.009141055839187603
1.104,0.009140214420185219
1.108,0.009139637447155012
1.112,0.009127184445919726
1.116,0.00912295331036488
1.12,0.009130622243558038
1.124,0.009136752582003981
1.1280000000000001,0.00913711319014786
1.1320000000000001,0.009139421082268685
1.1360000000000001,0.009140671190500799
1.1400000000000001,0.009141152001359305
1.1440000000000001,0.009141416447331482
1.1480000000000001,0.00914168089330366
1.1520000000000001,0.009141200082445155
1.156,0.009137521879377589
1.16,0.009135839041372822
1.164,0.009136920865804457
1.168,0.00913711319014786
1.172,0.009139949974213041
1.176,0.009143027163707474
1.18,0.009143291609679652
1.184,0.009143676258366457
1.188,0.009142522312306044
1.192,0.009143652217823532
1.196,0.009144734042255168
1.2,0.009141801096018287
1.204,0.009141127960816378
1.208,0.009144998488227345
1.212,0.009144998488227345
1.216,0.009143556055651831
1.22,0.009145431218
1.224,0.00914442151519714
1.228,0.009143772420538158
1.232,0.00914660920460334
1.236,0.009145575461257553
1.24,0.009145960109944357
1.244,0.009142522312306044
1.248,0.009126318986374416
1.252,0.009130742446272665
1.256,0.009136464095488878
1.26,0.009144685961169317
1.264,0.009145912028858507
1.268,0.009148508407494434
1.272,0.009148364164236884
1.276,0.009146993853290143
1.28,0.009148652650751985
1.284,0.009148844975095388
1.288,0.009148003556093003
1.292,0.00914483020442687
1.296,0.009146080312658983
1.3,0.009146897691118441
1.304,0.009148195880436406
1.308,0.009151008623958661
1.312,0.009150143164413352
1.316,0.00914660920460334
1.32,0.009146561123517489
1.324,0.009148292042608107
1.328,0.009147378501976947
1.332,0.009148628610209061
1.336,0.009140959677015902
1.34,0.00913985381204134
1.344,0.009146489001888712
1.348,0.009149109421067565
1.352,0.00914684961003259
1.356,0.009144734042255168
1.36,0.00914665728568919
1.364,0.009148051637178854
1.368,0.009147859312835453
1.372,0.009149205583239266
1.3760000000000001,0.009148604569666135
1.3800000000000001,0.009142161704162165
1.3840000000000001,0.009143988785424485
1.3880000000000001,0.009147642947949125
1.3920000000000001,0.009148796894009537
1.3960000000000001,0.009150119123870428
1.4000000000000001,0.009148604569666135
1.4040000000000001,0.009148412245322734
1.408,0.00914848436695151
1.412,0.009149157502153416
1.416,0.009151104786130362
1.42,0.009152571259248805
1.424,0.00914853244803736
1.428,0.009146777488403816
1.432,0.009151393272645466
1.436,0.009152018326761524
1.44,0.009152330853819552
1.444,0.009152306813276626
1.448,0.009152451056534177
1.452,0.009152258732190775
1.456,0.00915319631336486
1.46,0.009153965610738468
1.464,0.009154542583768676
1.468,0.0091499027589841
1.472,0.009130381838128787
1.476,0.009125886256601762
1.48,0.009138964311953105
1.484,0.00914730638034817
1.488,0.009151417313188392
1.492,0.009149686394097772
1.496,0.009150575894186008
1.5,0.009151417313188392
1.504,0.009149061339981716
1.508,0.009146392839717011
1.512,0.009149614272468997
1.516,0.009150047002241651
1.52,0.00915269146196343
1.524,0.009153869448566769
1.528,0.009152811664678056
1.532,0.009153532880965815
1.536,0.00915223469164785
1.54,0.009151128826673289
1.544,0.009150431650928456
1.548,0.009150888421244036
1.552,0.009150888421244036
1.556,0.009150527813100157
1.56,0.009147354461434021
1.564,0.009146176474830684
1.568,0.009149566191383147
1.572,0.009152667421420506
1.576,0.009150984583415737
1.58,0.009149518110297296
1.584,0.009149061339981716
1.588,0.009145815866686806
1.592,0.009147041934375993
1.596,0.00915045569147138
1.6,0.009148171839893481
1.604,0.009142570393391895
1.608,0.009127304648634352
1.612,0.009133603270880771
1.616,0.009145118690941973
1.62,0.009153172272821936
1.624,0.009153965610738468
1.6280000000000001,0.009157980381406989
1.6320000000000001,0.0091590381652957
1.6360000000000001,0.009156153300144668
1.6400000000000001,0.009155095516255957
1.6440000000000001,0.00915629754340222
1.6480000000000001,0.009151585596988868
1.6520000000000001,0.009147498704691573
1.6560000000000001,0.009147402542519872
1.6600000000000001,0.00914680152894674
1.6640000000000001,0.009146921731661367
1.668,0.009146897691118441
1.672,0.009148965177810015
1.676,0.009150095083327502
1.68,0.00915172984024642
1.684,0.00914858052912321
1.688,0.009149734475183623
1.692,0.009149782556269474
1.696,0.009134612973683632
1.7,0.009130694365186815
1.704,0.009142209785248016
1.708,0.009149373867039744
1.712,0.009152499137620028
1.716,0.00915127306993084
1.72,0.009150672056357709
1.724,0.009149758515726547
1.728,0.009149734475183623
1.732,0.00915117690775914
1.736,0.009153893489109693
1.74,0.009150984583415737
1.744,0.009151657718617643
1.748,0.00915040761038553
1.752,0.009150383569842605
1.756,0.009150864380701111
1.76,0.00914898921835294
1.764,0.009148364164236884
1.768,0.009149926799527025
1.772,0.009150888421244036
1.776,0.009152787624135132
1.78,0.009152667421420506
1.784,0.009148604569666135
1.788,0.009145695663972178
1.792,0.009146561123517489
1.796,0.009150143164413352
1.8,0.009150335488756755
1.804,0.009150479732014306
1.808,0.009149181542696342
1.812,0.009150095083327502
1.816,0.009151249029387914
1.82,0.00915072013744356
1.824,0.009150864380701111
1.828,0.009147402542519872
1.832,0.0091315357841892
1.836,0.009135310149428465
1.84,0.009144565758454692
1.844,0.0091499027589841
1.848,0.009152667421420506
1.852,0.009154326218882349
1.856,0.00915310015119316
1.86,0.00915081629961526
1.864,0.009153460759337038
1.868,0.009153292475536562
1.872,0.009152427015991253
1.8760000000000001,0.00914949406975437
1.8800000000000001,0.009151200948302064
1.8840000000000001,0.009151489434817167
1.8880000000000001,0.009151104786130362
1.8920000000000001,0.009154302178339423
1.8960000000000001,0.009155456124399835
1.9000000000000001,0.009152811664678056
1.9040000000000001,0.009150095083327502
1.9080000000000001,0.009148941137267089
1.9120000000000001,0.009149806596812398
1.9160000000000001,0.009149373867039744
1.92,0.0091453350558283
1.924,0.009151056705044512
1.928,0.009155408043313985
1.932,0.009156033097430042
1.936,0.009157114921861678
1.94,0.00915584077308664
1.944,0.009155143597341807
1.948,0.00915533592168521
1.952,0.009155816732543714
1.956,0.00915725916511923
1.96,0.009154734908112078
1.964,0.009145719704515104
1.968,0.009135310149428465
1.972,0.009143027163707474
1.976,0.009149854677898249
1.98,0.009152330853819552
1.984,0.009151417313188392
1.988,0.009154662786483301
1.992,0.009154494502682825
1.996,0.009153629043137516
2.0,0.009153388637708263
2.004,0.009152907826849757
2.008,0.009151417313188392
2.012,0.009149782556269474
2.016,0.009151826002418121
2.02,0.009152739543049281
2.024,0.009152739543049281
2.028,0.009153989651281395
2.032,0.009155864813629564
2.036,0.009156129259601744
2.04,0.009156081178515893
2.044,0.009154037732367245
2.048,0.009155696529829088
2.052,0.009153220353907787
2.056,0.009136055406259148
2.06,0.00913802673077902
2.064,0.00914848436695151
2.068,0.009152811664678056
2.072,0.00915461470539745
2.076,0.009155816732543714
2.08,0.009159086246381551
2.084,0.00915802846249284
2.088,0.009153508840422889
2.092,0.009154350259425273
2.096,0.009155816732543714
2.1,0.009150840340158185
2.104,0.009152571259248805
2.108,0.009156465827202696
2.112,0.009156153300144668
2.116,0.009153629043137516
2.12,0.009154206016167721
2.124,0.00915766785434896
2.128,0.00915899008420985
2.132,0.009158244827379166
2.136,0.009157980381406989
2.14,0.009159014124752774
2.144,0.009155624408200313
2.148,0.009152931867392683
2.152,0.009155071475713032
2.156,0.009157547651634334
2.16,0.009156706232631949
2.164,0.00915543208385691
2.168,0.009154254097253572
2.172,0.009155936935258341
2.176,0.009156658151546098
2.18,0.0091543742999682
2.184,0.009154494502682825
2.188,0.009153460759337038
2.192,0.009153532880965815
2.196,0.009157884219235288
2.2,0.009157427448919708
2.204,0.00915483107028378
2.208,0.009155071475713032
2.212,0.009155552286571536
2.216,0.009155936935258341
2.22,0.009155047435170106
2.224,0.00915634562448807
2.228,0.009156153300144668
2.232,0.009153172272821936
2.236,0.009153821367480918
2.24,0.009156465827202696
2.244,0.00915410985399602
2.248,0.009154302178339423
2.2520000000000002,0.009155912894715415
2.2560000000000002,0.009157042800232903
2.2600000000000002,0.009157187043490455
2.2640000000000002,0.009157355327290931
2.2680000000000002,0.009159134327467401
2.2720000000000002,0.009156273502859295
2.2760000000000002,0.00915579269200079
2.2800000000000002,0.009144445555740064
2.2840000000000003,0.009142450190677269
2.2880000000000003,0.00915127306993084
2.2920000000000003,0.009156225421773445
2.2960000000000003,0.009158148665207465
2.3000000000000003,0.009158797759866447
2.3040000000000003,0.009159567057240055
2.308,0.009159663219411756
2.312,0.00915995170592686
2.316,0.009159831503212234
2.32,0.009158677557151822
2.324,0.009148460326408585
2.328,0.009138964311953105
2.332,0.009149253664325117
2.336,0.009157860178692362
2.34,0.009161514341217002
2.344,0.009162475962934012
2.348,0.009162788489992042
2.352,0.009162427881848161
2.356,0.009162043233161358
2.36,0.00916233171967646
2.364,0.009162524044019862
2.368,0.009159206449096177
2.372,0.00915807654357869
2.376,0.009159639178868832
2.38,0.009161033530358497
2.384,0.009158942003123999
2.388,0.009161057570901422
2.392,0.009162427881848161
2.396,0.009160384435699515
2.4,0.009160336354613665
2.404,0.009161057570901422
2.408,0.009161778787189179
2.412,0.009155528246028612
2.416,0.009140430785071546
2.42,0.0091453350558283
2.424,0.009156634111003174
2.428,0.009162788489992042
2.432,0.009163870314423677
2.436,0.009162548084562789
2.44,0.009162884652163743
2.444,0.009163677990080275
2.448,0.009161538381759928
2.452,0.009162115354790133
2.456,0.009161898989903806
2.46,0.00915730724620508
2.464,0.009155960975801266
2.468,0.009158869881495222
2.472,0.009160336354613665
2.476,0.00916411071985293
2.48,0.009166659017403008
2.484,0.009170289139384722
2.488,0.009171779653046089
2.492,0.009175361693941954
2.496,0.009175770383171683
2.5,0.009172044099018267
2.504,0.009165000219941166
2.508,0.009163798192794902
2.512,0.00916319717922177
2.516,0.009162764449449115
2.52,0.00916182686827503
2.524,0.00916187494936088
2.528,0.009162956773792518
2.532,0.009165168503741642
2.536,0.00916543294971382
2.54,0.009166082044372801
2.544,0.00916507234156994
2.548,0.009154398340511124
2.552,0.0091431473664221
2.556,0.009151321151016691
2.56,0.009155408043313985
2.564,0.009159615138325906
2.568,0.009162043233161358
2.572,0.009163726071166126
2.576,0.009162283638590611
2.58,0.009163942436052454
2.584,0.009163269300850546
2.588,0.009162355760219386
2.592,0.00915899008420985
2.596,0.009155095516255957
2.6,0.009160769084386318
2.604,0.009161947070989657
2.608,0.009163798192794902
2.612,0.009163293341393472
2.616,0.00915858139498012
2.62,0.00915721108403338
2.624,0.009160793124929244
2.628,0.009163726071166126
2.632,0.009164158800938781
2.636,0.009161081611444348
2.64,0.009157547651634334
2.644,0.00916086524655802
2.648,0.009162716368363265
2.652,0.009162740408906191
2.656,0.009166394571430831
2.66,0.00916680326066056
2.664,0.009165336787542118
2.668,0.009163990517138305
2.672,0.009163798192794902
2.676,0.009164423246910958
2.68,0.009162307679133536
2.684,0.009149926799527025
2.688,0.00914583990722973
2.692,0.009153508840422889
2.696,0.009159302611267878
2.7,0.009159663219411756
2.704,0.009163798192794902
2.708,0.009166226287630353
2.712,0.009167163868804439
2.716,0.009164759814511913
2.72,0.009164591530711436
2.724,0.009164663652340211
2.728,0.009160696962757543
2.732,0.009164351125282183
2.736,0.009167235990433214
2.74,0.009167356193147841
2.744,0.00916949580146819
2.748,0.009169207314953087
2.7520000000000002,0.009169039031152609
2.7560000000000002,0.00916776488237757
2.7600000000000002,0.00916685134174641
2.7640000000000002,0.009165913760572325
2.7680000000000002,0.009169880450154993
2.7720000000000002,0.009165048301027016
2.7760000000000002,0.009149181542696342
2.7800000000000002,0.009157355327290931
2.7840000000000003,0.009160769084386318
2.7880000000000003,0.009164831936140688
2.7920000000000003,0.009168413977036553
2.7960000000000003,0.00916872650409458
2.8000000000000003,0.00917141904490221
2.8040000000000003,0.009171731571960239
2.8080000000000003,0.009170289139384722
2.8120000000000003,0.009167981247263897
2.816,0.009167043666089813
2.82,0.009165913760572325
2.824,0.009169159233867236
2.828,0.009169351558210638
2.832,0.009168293774321927
2.836,0.009167476395862467
2.84,0.00916913519332431
2.844,0.009169255396038937
2.848,0.009169327517667712
2.852,0.009171395004359284
2.856,0.009169327517667712
2.86,0.00916675517957471
2.864,0.00916319717922177
2.868,0.00916451940908266
2.872,0.00916685134174641
2.876,0.009168774585180431
2.88,0.0091681735716073
2.884,0.009167452355319542
2.888,0.009166226287630353
2.892,0.00916822165269315
2.896,0.009169039031152609
2.9,0.009166178206544503
2.904,0.009164543449625586
2.908,0.009163341422479323
2.912,0.009167380233690766
2.916,0.009167500436405393
2.92,0.009165096382112867
2.924,0.009163245260307621
2.928,0.009162403841305237
2.932,0.009162355760219386
2.936,0.00916314909813592
2.94,0.00916406263876708
2.944,0.009164351125282183
2.948,0.009165048301027016
2.952,0.00916192303044673
2.956,0.009162908692706667
2.96,0.009166442652516682
2.964,0.00916603396328695
2.968,0.009164182841481705
2.972,0.009165505071342596
2.976,0.009168798625723357
2.98,0.009170072774498396
2.984,0.00916685134174641
2.988,0.009165553152428446
2.992,0.009164447287453885
2.996,0.00915949493561128
3.0,0.009143483934023054
3.004,0.009149013258895866
3.008,0.009157739975977736
3.012,0.009160552719499991
3.016,0.00916675517957471
3.02,0.009167740841834644
3.024,0.00916822165269315
3.028,0.009168125490521449
3.032,0.009167644679662945
3.036,0.009168966909523834
3.04,0.009166659017403008
3.044,0.009149133461610491
3.048,0.00914949406975437
3.052,0.009156658151546098
3.056,0.009161249895244824
3.06,0.009164952138855315
3.064,0.009165769517314773
3.068,0.009165769517314773
3.072,0.009166514774145457
3.076,0.00916543294971382
3.08,0.009163894354966604
3.084,0.009165048301027016
3.088,0.009163870314423677
3.092,0.009166154166001578
3.096,0.00916964004472574
3.1,0.009168005287806823
3.104,0.009167356193147841
3.108,0.009170241058298872
3.112,0.009167837004006345
3.116,0.009164783855054837
3.12,0.00916548103079967
3.124,0.009164158800938781
3.128,0.009163004854878368
3.132,0.009153292475536562
3.136,0.009143291609679652
3.14,0.009154326218882349
3.144,0.009163341422479323
3.148,0.009169207314953087
3.152,0.009168558220294104
3.156,0.009168918828437983
3.16,0.009169519842011115
3.164,0.009169519842011115
3.168,0.009168317814864851
3.172,0.009163581827908574
3.176,0.009162355760219386
3.18,0.009163918395509528
3.184,0.00916726003097614
3.188,0.009170168936670097
3.192,0.009169712166354517
3.196,0.009169039031152609
3.2,0.009168053368892674
3.204,0.009168029328349748
3.208,0.009167548517491244
3.212,0.009167837004006345
3.216,0.009163509706279799
3.22,0.009160047868098561
3.224,0.009157475530005559
3.228,0.009162620206191564
3.232,0.009164086679310006
3.236,0.009164399206368034
3.24,0.00916406263876708
3.244,0.00916411071985293
3.248,0.009162524044019862
3.2520000000000002,0.009163966476595379
3.2560000000000002,0.009165505071342596
3.2600000000000002,0.00916680326066056
3.2640000000000002,0.009162451922391087
3.2680000000000002,0.009149686394097772
3.2720000000000002,0.009147739110120826
3.2760000000000002,0.009158653516608896
3.2800000000000002,0.009160745043843394
3.2840000000000003,0.009163317381936396
3.2880000000000003,0.009164807895597763
3.2920000000000003,0.009164206882024632
3.2960000000000003,0.009164495368539735
3.3000000000000003,0.009164880017226538
3.3040000000000003,0.009164591530711436
3.3080000000000003,0.0091636058684515
3.3120000000000003,0.009160432516785366
3.3160000000000003,0.009157860178692362
3.3200000000000003,0.009159158368010326
3.3240000000000003,0.00916096140872972
3.3280000000000003,0.009161514341217002
3.332,0.00916213939533306
3.336,0.009163677990080275
3.34,0.009166370530887905
3.344,0.009167812963463421
3.348,0.00916771680129172
3.352,0.009168558220294104
3.356,0.009169014990609684
3.36,0.009174135626252765
3.364,0.009177813829320331
3.368,0.00917776574823448
3.372,0.009177885950949106
3.376,0.00917552997774243
3.38,0.009172140261189968
3.384,0.009170721869157378
3.388,0.009167788922920495
3.392,0.009167139828261513
3.396,0.009168774585180431
3.4,0.00916223555750476
3.404,0.009147955475007153
3.408,0.009152306813276626
3.412,0.009161995152075508
3.416,0.009167933166178047
3.42,0.009171491166530986
3.424,0.0091703612610135
3.428,0.009165673355143072
3.432,0.009163677990080275
3.436,0.009166947503918112
3.44,0.009167476395862467
3.444,0.009168654382465806
3.448,0.009166947503918112
3.452,0.009169880450154993
3.456,0.009169471760925264
3.46,0.009168365895950702
3.464,0.00916593780111525
3.468,0.009166466693059606
3.472,0.009169279436581862
3.476,0.009164687692883138
3.48,0.009165168503741642
3.484,0.00916776488237757
3.488,0.009169039031152609
3.492,0.009156874516432427
3.496,0.009152883786306833
3.5,0.009159855543755159
3.504,0.009165168503741642
3.508,0.009169159233867236
3.512,0.009168053368892674
3.516,0.009167284071519064
3.52,0.009170337220470573
3.524,0.009172500869333848
3.528,0.009171923896303641
3.532,0.00917132288273051
3.536,0.009166226287630353
3.54,0.00916680326066056
3.544,0.009170096815041322
3.548,0.009166562855231307
3.552,0.009166634976860082
3.556,0.009167933166178047
3.56,0.009167620639120019
3.564,0.00916629840925913
3.568,0.009166394571430831
3.572,0.009165048301027016
3.576,0.009163461625193948
3.58,0.00916091332764387
3.584,0.009160360395156589
3.588,0.009161442219588227
3.592,0.009164471327996809
3.596,0.009164447287453885
3.6,0.009165192544284568
3.604,0.009166394571430831
3.608,0.009165240625370418
3.612,0.009168413977036553
3.616,0.009171034396215406
3.62,0.00916964004472574
3.624,0.009168317814864851
3.628,0.00916456749016851
3.632,0.009169736206897441
3.636,0.009169159233867236
3.64,0.009169014990609684
3.644,0.009173125923449904
3.648,0.009172861477477727
3.652,0.00916867842300873
3.656,0.0091704574231852
3.66,0.009171803693589015
3.664,0.009171082477301256
3.668,0.009172500869333848
3.672,0.009160312314070738
3.676,0.009160192111356113
3.68,0.009166490733602532
3.684,0.009172524909876772
3.688,0.009172164301732894
3.692,0.009171899855760716
3.696,0.009169880450154993
3.7,0.0091704574231852
3.704,0.009169736206897441
3.708,0.009170385301556424
3.712,0.009169736206897441
3.716,0.009165673355143072
3.72,0.009166226287630353
3.724,0.009168966909523834
3.728,0.009170601666442752
3.732,0.009171274801644659
3.736,0.009167909125635122
3.74,0.009167500436405393
3.744,0.009169279436581862
3.748,0.009170818031329079
3.7520000000000002,0.009173847139737661
3.7560000000000002,0.009173895220823512
3.7600000000000002,0.009166274368716204
3.7640000000000002,0.009152330853819552
3.7680000000000002,0.009160144030270262
3.7720000000000002,0.00916456749016851
3.7760000000000002,0.009167404274233692
3.7800000000000002,0.009169423679839413
3.7840000000000003,0.009170601666442752
3.7880000000000003,0.0091727412747631
3.7920000000000003,0.009172092180104117
3.7960000000000003,0.009172260463904595
3.8000000000000003,0.00917329420725038
3.8040000000000003,0.00917137096381636
3.8080000000000003,0.0091703612610135
3.8120000000000003,0.009172885518020651
3.8160000000000003,0.009172164301732894
3.8200000000000003,0.009171130558387107
3.8240000000000003,0.0091704574231852
3.8280000000000003,0.009170721869157378
3.8320000000000003,0.009171611369245613
3.8360000000000003,0.00917238066661922
3.84,0.009169616004182816
3.844,0.009168245693236076
3.848,0.009168774585180431
3.852,0.00915461470539745
3.856,0.009153388637708263
3.86,0.009162115354790133
3.864,0.009167572558034168
3.868,0.009171923896303641
3.872,0.009171178639472958
3.876,0.009172933599106502
3.88,0.009171971977389492
3.884,0.009169976612326694
3.888,0.009167692760748795
3.892,0.00916944772038234
3.896,0.009166490733602532
3.9,0.009167380233690766
3.904,0.009170601666442752
3.908,0.009172092180104117
3.912,0.009173823099194737
3.916,0.00917649159945944
3.92,0.009175289572313177
3.924,0.00917360673430841
3.928,0.00917355865322256
3.932,0.009173919261366438
3.936,0.009175746342628757
3.94,0.009173174004535755
3.944,0.009173582693765484
3.948,0.009175097247969775
3.952,0.009173823099194737
3.956,0.009172092180104117
3.96,0.009173486531593783
3.964,0.009174087545166914
3.968,0.009173678855937185
3.972,0.009173462491050858
3.976,0.009173366328879157
3.98,0.009173462491050858
3.984,0.009171298842187585
3.988,0.009167284071519064
3.992,0.009170986315129555
3.996,0.009174953004712223
4.0,0.009176539680545291
4.0040000000000004,0.009178390802350537
4.008,0.009182910424420486
4.0120000000000005,0.009179352424067547
4.016,0.009178342721264686
4.0200000000000005,0.009177789788777405
4.024,0.009177429180633526
4.0280000000000005,0.009177477261719377
4.032,0.009171635409788537
4.0360000000000005,0.009174039464081064
4.04,0.009175818464257534
4.0440000000000005,0.009175025126341
4.048,0.009175650180457056
4.0520000000000005,0.0091773089779189
4.056,0.009179544748410949
4.0600000000000005,0.009178270599635911
4.064,0.009176179072401413
4.0680000000000005,0.009173174004535755
4.072,0.00917137096381636
4.0760000000000005,0.009166899422832261
4.08,0.009168149531064375
4.0840000000000005,0.009175145329055626
4.088,0.00918009768089823
4.0920000000000005,0.009182237289218579
4.096,0.009181347789130344
4.1,0.009180939099900615
4.104,0.009176804126517469
4.108,0.009175578058828281
4.112,0.009175794423714608
4.116,0.009176323315658964
4.12,0.00916949580146819
4.124,0.009161802827732105
4.128,0.00917132288273051
4.132,0.009177501302262301
4.136,0.009179977478183604
4.14,0.009182309410847354
4.144,0.009179857275468977
4.148,0.009179544748410949
4.152,0.009180001518726529
4.156,0.009178078275292509
4.16,0.009177573423891078
4.164,0.00917745322117645
4.168,0.009175602099371205
4.172,0.009177381099547676
4.176,0.00917918414026707
4.18,0.009177044531946722
4.184,0.009178414842893463
4.188,0.009178270599635911
4.192,0.00917766958606278
4.196,0.009176299275116038
4.2,0.009175049166883924
4.204,0.009176539680545291
4.208,0.009174712599282972
4.212,0.00915899008420985
4.216,0.009165168503741642
4.22,0.009174087545166914
4.224,0.009179328383524622
4.228,0.009185194275998386
4.232,0.009187285803232885
4.236,0.009186684789659753
4.24,0.009186083776086621
4.244,0.009184184573195526
4.248,0.009180434248499184
4.252,0.009177140694118423
4.256,0.009174448153310793
4.26,0.009175097247969775
4.264,0.009176347356201889
4.268,0.009173823099194737
4.272,0.009174159666795691
4.276,0.009173486531593783
4.28,0.009171731571960239
4.284,0.00917456835602542
4.288,0.009172717234220175
4.292,0.009175097247969775
4.296,0.009175866545343385
4.3,0.009170577625899826
4.304,0.009173318247793306
4.308,0.00917822251855006
4.312,0.009179785153840202
4.316,0.009177741707691554
4.32,0.009177645545519853
4.324,0.009181395870216194
4.328,0.009180842937728913
4.332,0.009178919694294893
4.336,0.009183078708220964
4.34,0.00918233345139028
4.344,0.00917401542353814
4.348,0.009158845840952298
4.352,0.009167091747175664
4.356,0.009171923896303641
4.36,0.009176299275116038
4.364,0.009175217450684402
4.368,0.009175313612856104
4.372,0.009174448153310793
4.376,0.009175049166883924
4.38,0.009176227153487263
4.384,0.009174688558740046
4.388,0.009174592396568345
4.392,0.009174303910053243
4.396,0.00917238066661922
4.4,0.009173630774851334
4.404,0.009175097247969775
4.408,0.009173991382995213
4.412,0.009170890152957854
4.416,0.009172524909876772
4.42,0.009174351991139092
4.424,0.009175554018285355
4.428,0.00917644351837359
4.432,0.009174784720911747
4.436,0.00917360673430841
4.44,0.009177092613032572
4.444,0.009177068572489648
4.448,0.009176371396744815
4.452,0.009174928964169299
4.456,0.009159567057240055
4.46,0.00915771593543481
4.464,0.009168413977036553
4.468,0.00917360673430841
4.472,0.009172092180104117
4.476,0.009174183707338615
4.48,0.009174760680368823
4.484,0.009176780085974544
4.488,0.00918009768089823
4.492,0.009182549816276607
4.496,0.009179616870039726
4.5,0.00917918414026707
4.5040000000000004,0.009180001518726529
4.508,0.009181443951302045
4.5120000000000005,0.009182525775733683
4.516,0.009183222951478515
4.5200000000000005,0.0091795928294968
4.524,0.009178150396921284
4.5280000000000005,0.00918050637012796
4.532,0.009181083343158166
4.5360000000000005,0.009181179505329868
4.54,0.009182597897362458
4.5440000000000005,0.009181179505329868
4.548,0.009180626572842587
4.5520000000000005,0.00918319891093559
4.556,0.009183896086680422
4.5600000000000005,0.00918370376233702
4.564,0.009181299708044493
4.5680000000000005,0.009169567923096965
4.572,0.009169880450154993
4.5760000000000005,0.00917863120777979
4.58,0.009182670018991234
4.5840000000000005,0.00918471346513988
4.588,0.009181035262072316
4.5920000000000005,0.009178054234749582
4.596,0.009179905356554828
4.6000000000000005,0.009178270599635911
4.604,0.009178150396921284
4.6080000000000005,0.009179328383524622
4.612,0.00917817443746421
4.616,0.009179015856466594
4.62,0.009180987180986465
4.624,0.009179664951125576
4.628,0.009179496667325098
4.632,0.009180939099900615
4.636,0.009178871613209042
4.64,0.009178486964522238
4.644,0.009178775451037341
4.648,0.009180386167413334
4.652,0.009179664951125576
4.656,0.009179063937552445
4.66,0.009180458289042109
4.664,0.009181948802703475
4.668,0.009182237289218579
4.672,0.009183150829849739
4.676,0.009182261329761503
4.68,0.009180338086327483
4.684,0.009181588194559597
4.688,0.009183463356907767
4.692,0.009184449019167703
4.696,0.00918182859998885
4.7,0.009178342721264686
4.704,0.009163533746822723
4.708,0.009168125490521449
4.712,0.009175746342628757
4.716,0.009178607167236863
4.72,0.009180458289042109
4.724,0.009178775451037341
4.728,0.009176299275116038
4.732,0.009177861910406182
4.736,0.009181708397274222
4.74,0.00918420861373845
4.744,0.009181492032387896
4.748,0.009178054234749582
4.752,0.009179015856466594
4.756,0.009181203545872792
4.76,0.009180121721441156
4.764,0.00917913605918122
4.768,0.009178342721264686
4.772,0.009177116653575498
4.776,0.009176756045431618
4.78,0.009178583126693939
4.784,0.009178078275292509
4.788,0.009178006153663732
4.792,0.00917690028868917
4.796,0.009177861910406182
4.8,0.009180770816100138
4.804,0.00918132374858742
4.808,0.009180265964698708
4.812,0.009179304342981696
4.816,0.009163726071166126
4.82,0.009168798625723357
4.824,0.009178390802350537
4.828,0.00918101122152939
4.832,0.009183343154193141
4.836,0.009177934032034957
4.84,0.009173318247793306
4.844,0.009176732004888694
4.848,0.009179737072754351
4.852,0.009183367194736065
4.856,0.009182237289218579
4.86,0.009177982113120807
4.864,0.009179857275468977
4.868,0.009182117086503953
4.872,0.009179857275468977
4.876,0.009182718100077085
4.88,0.009180650613385511
4.884,0.009180362126870407
4.888,0.009182525775733683
4.892,0.009180338086327483
4.896,0.0091818766810747
4.9,0.009181972843246402
4.904,0.009178943734837818
4.908,0.009182549816276607
4.912,0.00918649246531635
4.916,0.009183872046137498
4.92,0.009183944167766273
4.924,0.009184040329937974
4.928,0.00916685134174641
4.932,0.009169231355496011
4.936,0.009177789788777405
4.94,0.009176203112944337
4.944,0.009177861910406182
4.948,0.009180698694471362
4.952,0.00917918414026707
4.956,0.009182213248675653
4.96,0.009185747208485667
4.964,0.00918603569500077
4.968,0.00918466538405403
4.972,0.009180963140443539
4.976,0.009181443951302045
4.98,0.009181756478360073
4.984,0.00918502599219791
4.988,0.009184352856996002
4.992,0.009180410207956258
4.996,0.009180362126870407
5.0,0.00918279022170586
5.0040000000000004,0.009183679721794095
5.008,0.009183968208309197
5.0120000000000005,0.00918324699202144
5.016,0.00917867928886564
5.0200000000000005,0.009181347789130344
5.024,0.009184881748940358
5.0280000000000005,0.009186107816629546
5.032,0.00918812722223527
5.0360000000000005,0.009187093478889482
5.04,0.009183343154193141
5.0440000000000005,0.00918132374858742
5.048,0.009180794856643063
5.0520000000000005,0.009183511437993617
5.056,0.009184400938081852
5.0600000000000005,0.009179713032211427
5.064,0.00916456749016851
5.0680000000000005,0.009174544315482494
5.072,0.009185771249028592
5.0760000000000005,0.009193392101135902
5.08,0.009195291304026998
5.0840000000000005,0.009193920993080256
5.088,0.00919380079036563
5.0920000000000005,0.009193007452449097
5.096,0.009191396736073104
5.1000000000000005,0.009188391668207447
5.104,0.009187285803232885
5.1080000000000005,0.009182549816276607
5.112,0.009185915492286143
5.1160000000000005,0.009184905789483283
5.12,0.009184761546225731
5.124,0.009186252059887098
5.128,0.009185314478713012
5.132,0.009183367194736065
5.136,0.009189473492639082
5.14,0.009189569654810784
5.144,0.00918598761391492
5.148,0.00918598761391492
5.152,0.009184040329937974
5.156,0.009186468424773424
5.16,0.009187790654634315
5.164,0.009187646411376763
5.168,0.009186300140972948
5.172,0.009179977478183604
5.176,0.009165264665913343
5.18,0.009173943301909362
5.184,0.009186011654457845
5.188,0.009190411073813168
5.192,0.00918827146549282
5.196,0.009183126789306814
5.2,0.009184184573195526
5.204,0.009185001951654984
5.208,0.00918375184342287
5.212,0.009184400938081852
5.216,0.009185146194912536
5.22,0.00918543468142764
5.224,0.009186420343687574
5.228,0.00918812722223527
5.232,0.009188415708750371
5.236,0.00918745408703336
5.24,0.00918639630314465
5.244,0.00918375184342287
5.248,0.009184833667854508
5.252,0.00918694923563193
5.256,0.0091864443842305
5.26,0.009185242357084237
5.264,0.009184689424596956
5.268,0.009185506803056414
5.272,0.009187165600518257
5.276,0.009188007019520642
5.28,0.009186756911288528
5.284,0.009181299708044493
5.288,0.009167524476948317
5.292,0.009173775018108886
5.296,0.009178967775380744
5.3,0.009181299708044493
5.304,0.009185723167942743
5.308,0.00918283830279171
5.312,0.009182766181162934
5.316,0.009185843370657368
5.32,0.009189473492639082
5.324,0.009191036127929226
5.328,0.009190411073813168
5.332,0.009186684789659753
5.336,0.009188007019520642
5.34,0.009189882181868813
5.344,0.00918959369535371
5.348,0.009190242790012692
5.352,0.009189449452096158
5.356,0.009188487830379148
5.36,0.009189209046666905
5.364,0.009190675519785346
5.368,0.009189834100782963
5.372,0.0091887282358084
5.376,0.009187694492462614
5.38,0.00918836762766452
5.384,0.009191492898244806
5.388,0.009193223817335424
5.392,0.00919192562801746
5.396,0.009190675519785346
5.4,0.009189353289924457
5.404,0.009191997749646236
5.408,0.009192406438875965
5.412,0.00919380079036563
5.416,0.00919055531707072
5.42,0.009180746775557212
5.424,0.009172116220647043
5.428,0.009179857275468977
5.432,0.009186588627488052
5.436,0.009191589060416507
5.44,0.009191132290100927
5.444,0.009189040762866429
5.448,0.009191348654987254
5.452,0.0091932959389642
5.456,0.00919151693878773
5.46,0.009190795722499973
5.464,0.009189858141325887
5.468,0.009187670451919688
5.472,0.009190675519785346
5.476,0.009194449885024613
5.48,0.009194594128282165
5.484,0.00919416139850951
5.488,0.009190122587298065
5.492,0.009191757344216983
5.496,0.00919243047941889
5.5,0.009192310276704264
5.5040000000000004,0.009195098979683595
5.508,0.009192238155075489
5.5120000000000005,0.009191036127929226
5.516,0.00919247856050474
5.5200000000000005,0.00919420947959536
5.524,0.00919690202040299
5.5280000000000005,0.009194329682309986
5.532,0.00918329507310729
5.5360000000000005,0.009171683490874388
5.54,0.009181347789130344
5.5440000000000005,0.009192502601047666
5.548,0.009194041195794884
5.5520000000000005,0.009191420776616029
5.556,0.00918812722223527
5.5600000000000005,0.009191420776616029
5.564,0.00919512302022652
5.5680000000000005,0.009197503033976121
5.572,0.009199570520667694
5.5760000000000005,0.009196517371716185
5.58,0.009193776749822705
5.5840000000000005,0.009197791520491223
5.588,0.009196998182574691
5.5920000000000005,0.009198128088092178
5.596,0.009198921426008711
5.6000000000000005,0.00919416139850951
5.604,0.009193175736249573
5.6080000000000005,0.00919663757443081
5.612,0.009197454952890271
5.6160000000000005,0.00919608464194353
5.62,0.009195002817511894
5.6240000000000006,0.00919521918239822
5.628,0.009196926060945914
5.632,0.009196877979860064
5.636,0.009197743439405374
5.64,0.009198055966463402
5.644,0.009190483195441945
5.648,0.009176130991315562
5.652,0.00918543468142764
5.656,0.009189906222411738
5.66,0.009192694925391069
5.664,0.009192815128105694
5.668,0.009189834100782963
5.672,0.009192238155075489
5.676,0.009195339385112848
5.68,0.009195411506741623
5.684,0.009197935763748775
5.688,0.009195483628370398
5.692,0.00919420947959536
5.696,0.009199859007182797
5.7,0.009199257993609666
5.704,0.009199089709809188
5.708,0.009195603831085026
5.712,0.00919380079036563
5.716,0.009196228885201082
5.72,0.009197671317776598
5.724,0.00919882526383701
5.728,0.00919973880446817
5.732,0.009197142425832243
5.736,0.009191805425302834
5.74,0.009193151695706649
5.744,0.009197334750175644
5.748,0.00919695010148884
5.752,0.009194810493168492
5.756,0.009196517371716185
5.76,0.009199017588180413
5.764,0.009200339818041301
5.768,0.009202695791247977
5.772,0.009202815993962605
5.776,0.009200363858584228
5.78,0.009187117519432407
5.784,0.00918137182967327
5.788,0.009190675519785346
5.792,0.009196060601400605
5.796,0.009198705061122385
5.8,0.009198248290806805
5.804,0.009197094344746392
5.808,0.009198921426008711
5.812,0.009198200209720954
5.816,0.009198705061122385
5.82,0.009198488696236056
5.824,0.009196156763572307
5.828,0.009197238588003942
5.832,0.009199065669266263
5.836,0.009198993547637487
5.84,0.009197695358319524
5.844,0.009195844236514279
5.848,0.009197310709632719
5.852,0.009198681020579458
5.856,0.009197046263660542
5.86,0.009197046263660542
5.864,0.009194906655340193
5.868,0.009192117952360862
5.872,0.009191540979330656
5.876,0.009196805858231289
5.88,0.00919933011523844
5.884,0.009198224250263879
5.888,0.00919663757443081
5.892,0.009183319113650217
5.896,0.009176659883259919
5.9,0.009189930262954664
5.904,0.009202239020932397
5.908,0.009208393399921267
5.912,0.009209210778380725
5.916,0.009211446548872775
5.92,0.009212360089503935
5.924,0.009209667548696305
5.928,0.009210869575842568
5.932,0.00921101381910012
5.936,0.00920517196716928
5.94,0.009200460020755929
5.944,0.009201950534417296
5.948,0.009200267696412526
5.952,0.009199666682839395
5.956,0.009199161831437964
5.96,0.009197382831261494
5.964,0.009202695791247977
5.968,0.009205027723911728
5.972,0.00920567681857071
5.976,0.009206205710515065
5.98,0.009202840034505529
5.984,0.009199570520667694
5.988,0.009200652345099331
5.992,0.009202455385818726
5.996,0.00920334488590696
6.0,0.009203152561563559
6.0040000000000004,0.009195411506741623
6.008,0.009185050032740835
6.0120000000000005,0.00919243047941889
6.016,0.009200940831614433
6.0200000000000005,0.009206902886259898
6.024,0.009204594994139073
6.0280000000000005,0.009201686088445116
6.032,0.009203657412964989
6.0360000000000005,0.00920567681857071
6.04,0.009206061467257515
6.0440000000000005,0.009206566318658946
6.048,0.009205989345628739
6.0520000000000005,0.00920466711576785
6.056,0.009208705926979295
6.0600000000000005,0.009209427143267052
6.064,0.009207840467433986
6.0680000000000005,0.009203777615679615
6.072,0.009198945466551638
6.0760000000000005,0.009202263061475324
6.08,0.009200988912700284
6.0840000000000005,0.009202190939846547
6.088,0.00920522004825513
6.0920000000000005,0.009203368926449886
6.096,0.009202239020932397
6.1000000000000005,0.009203417007535736
6.104,0.009207672183633508
6.1080000000000005,0.009208754008065145
6.112,0.009204763277939551
6.1160000000000005,0.009200748507271032
6.12,0.009203104480477708
6.1240000000000006,0.009205652778027784
6.128,0.009205436413141458
6.132000000000001,0.009205869142914113
6.136,0.009207071170060376
6.140000000000001,0.009202671750705053
6.144,0.009208393399921267
6.148,0.009208874210779771
6.152,0.009209066535123173
6.156,0.009208705926979295
6.16,0.009206662480830647
6.164,0.009203945899480091
6.168,0.009206806724088197
6.172,0.009208705926979295
6.176,0.009209980075754333
6.18,0.009209956035211408
6.184,0.009198873344922861
6.188,0.009194978776968968
6.192,0.00920562873748486
6.196,0.009208345318835416
6.2,0.00920959542706753
6.204,0.009208393399921267
6.208,0.009206470156487245
6.212,0.009208201075577864
6.216,0.009211278265072297
6.22,0.009209956035211408
6.224,0.009210797454213793
6.228,0.00921096573801427
6.232,0.009208465521550042
6.236,0.009207720264719358
6.24,0.009209835832496783
6.244,0.009209787751410932
6.248,0.00921284090036244
6.252,0.00921096573801427
6.256,0.0092114705894157
6.26,0.009210677251499166
6.264,0.009212071602988831
6.268,0.009210316643355287
6.272,0.009208152994492014
6.276,0.00920731157548963
6.28,0.009210244521726512
6.284,0.009209042494580249
6.288,0.009207936629605687
6.292,0.009208177035034938
6.296,0.009197983844834626
6.3,0.009192358357790115
6.304,0.009201181237043686
6.308,0.009205075804997579
6.312,0.009209066535123173
6.316,0.009208152994492014
6.32,0.009206398034858468
6.324,0.00920964350815338
6.328,0.009211350386701074
6.332,0.00921050896769869
6.336,0.009210340683898213
6.34,0.009209427143267052
6.344,0.009208441481007117
6.348,0.009211735035387877
6.352,0.00921425929239503
6.356,0.009214692022167686
6.36,0.009213682319364824
6.364,0.00921010027846896
6.368,0.009210244521726512
6.372,0.00921096573801427
6.376,0.009211831197559578
6.38,0.009210797454213793
6.384,0.009212768778733664
6.388,0.009212360089503935
6.392,0.009216062333114425
6.396,0.009216014252028575
6.4,0.009214115049137479
6.404,0.009214692022167686
6.408,0.009206470156487245
6.412,0.009198224250263879
6.416,0.009205003683368802
6.42,0.00920954734598168
6.424,0.009214018886965778
6.428,0.009214018886965778
6.432,0.009209691589239231
6.436,0.009213441913935572
6.44,0.00921425929239503
6.444,0.009214475657281358
6.448,0.009214836265425236
6.452,0.009212408170589785
6.456,0.009212528373304411
6.46,0.009213778481536525
6.464,0.009213081305791692
6.468,0.009211831197559578
6.472,0.009211085940728897
6.476,0.00920933098109535
6.48,0.009210076237926034
6.484,0.009209835832496783
6.488,0.009210845535299644
6.492,0.009212456251675636
6.496,0.009211638873216178
6.5,0.00921223988678931
6.5040000000000004,0.00921517283302619
6.508,0.009214812224882312
6.5120000000000005,0.009214355454566732
6.516,0.009211999481360056
6.5200000000000005,0.009205772980742412
6.524,0.009197022223117616
6.5280000000000005,0.009204354588709822
6.532,0.00921192735973128
6.5360000000000005,0.009215725765513471
6.54,0.009214764143796461
6.5440000000000005,0.009210533008241614
6.548,0.009212720697647813
6.5520000000000005,0.009214115049137479
6.556,0.009213682319364824
6.5600000000000005,0.00921320150850632
6.564,0.009210869575842568
6.5680000000000005,0.00920827319720664
6.572,0.009213345751763871
6.5760000000000005,0.009216783549402183
6.58,0.009214860305968162
6.5840000000000005,0.0092115667515874
6.588,0.009209427143267052
6.5920000000000005,0.009210677251499166
6.596,0.00921274473819074
6.6000000000000005,0.009213730400450674
6.604,0.009214956468139864
6.6080000000000005,0.0092137544409936
6.612,0.009208345318835416
6.6160000000000005,0.009208104913406163
6.62,0.009214595859995985
6.6240000000000006,0.009215773846599322
6.628,0.009216350819629529
6.632000000000001,0.009205989345628739
6.636,0.009189810060240037
6.640000000000001,0.009196733736602512
6.644,0.009208104913406163
6.648000000000001,0.009210629170413315
6.652,0.00921228796787516
6.656000000000001,0.009212263927332234
6.66,0.00921471606271061
6.664,0.009216879711573884
6.668,0.009220173265954645
6.672,0.009219043360437157
6.676,0.009215845968228099
6.68,0.009213081305791692
6.684,0.009215966170942724
6.688,0.009218802955007906
6.692,0.009218418306321101
6.696,0.009218995279351307
6.7,0.009217240319717762
6.704,0.00921731244134654
6.708,0.009217937495462595
6.712,0.009221543576901385
6.716,0.009221255090386283
6.72,0.00921558152225592
6.724,0.009213610197736049
6.728,0.009213994846422853
6.732,0.00921589404931395
6.736,0.009219812657810767
6.74,0.00922389955010806
6.744,0.009220389630840972
6.748,0.00920735965657548
6.752,0.009216158495286127
6.756,0.009219956901068319
6.76,0.00922101468495703
6.764,0.00922024538758342
6.768,0.00921512475194034
6.772,0.009216278698000752
6.776,0.009217937495462595
6.78,0.009216807589945109
6.784,0.009216422941258304
6.788,0.009215413238455443
6.792,0.009213105346334618
6.796,0.009217769211662119
6.8,0.009217649008947493
6.804,0.009216999914288511
6.808,0.009219620333467364
6.812,0.009215942130399798
6.816,0.00921512475194034
6.82,0.009215437278998368
6.824,0.009217649008947493
6.828,0.009216615265601706
6.832,0.0092161344547432
6.836,0.009213922724794077
6.84,0.00921695183320266
6.844,0.009218129819805998
6.848,0.009215196873569117
6.852,0.009215653643884696
6.856,0.009208994413494398
6.86,0.009195363425655773
6.864,0.009204114183280569
6.868,0.009210917656928419
6.872,0.009216062333114425
6.876,0.009216639306144631
6.88,0.00921324958959217
6.884,0.009213610197736049
6.888,0.009214283332937955
6.892,0.00921329767067802
6.896,0.009214091008594555
6.9,0.009213922724794077
6.904,0.009211037859643046
6.908,0.009215244954654967
6.912,0.009218201941434774
6.916,0.009215653643884696
6.92,0.009214643941081836
6.924,0.009211879278645429
6.928,0.009211374427243998
6.932,0.009213081305791692
6.936,0.009214331414023806
6.94,0.009214475657281358
6.944,0.009214091008594555
6.948,0.009213273630135094
6.952,0.00921284090036244
6.956,0.009212071602988831
6.96,0.009213465954478497
6.964,0.009215485360084218
6.968,0.009213345751763871
6.972,0.00919877718275116
6.976,0.009204306507623971
6.98,0.009213153427420469
6.984,0.009216975873745585
6.988,0.009214091008594555
6.992,0.009213610197736049
6.996,0.009217192238631912
7.0,0.009217576887318717
7.0040000000000004,0.009219187603694709
7.008,0.009219043360437157
7.0120000000000005,0.00921736052243239
7.016,0.009213730400450674
7.0200000000000005,0.009215052630311565
7.024,0.009217216279174838
7.0280000000000005,0.00921740860351824
7.032,0.009216158495286127
7.0360000000000005,0.009214115049137479
7.04,0.009212047562445907
7.0440000000000005,0.00921425929239503
7.048,0.009215773846599322
7.0520000000000005,0.009217047995374362
7.056,0.009215605562798846
7.0600000000000005,0.009215365157369593
7.064,0.009218081738720147
7.0680000000000005,0.009218466387406952
7.072,0.009220726198441926
7.0760000000000005,0.009221856103959414
7.08,0.009218081738720147
7.0840000000000005,0.009214571819453059
7.088,0.009218658711750354
7.0920000000000005,0.009219091441523008
7.096,0.009215365157369593
7.1000000000000005,0.009215557481712995
7.104,0.009209355021638277
7.1080000000000005,0.009198945466551638
7.112,0.00920522004825513
7.1160000000000005,0.00921416313022333
7.12,0.009215918089856874
7.1240000000000006,0.009216326779086603
7.128,0.009211254224529373
7.132000000000001,0.009208128953949088
7.136,0.009214499697824284
7.140000000000001,0.009216759508859258
7.144,0.00922010114432587
7.148000000000001,0.009218009617091372
7.152,0.009215918089856874
7.156000000000001,0.009216999914288511
7.16,0.009216999914288511
7.164000000000001,0.009216759508859258
7.168,0.009219644374010289
7.172,0.009215821927685173
7.176,0.009217168198088987
7.18,0.009219091441523008
7.184,0.009216663346687557
7.188,0.009217528806232866
7.192,0.009214427576195507
7.196,0.00921471606271061
7.2,0.009218081738720147
7.204,0.009219163563151785
7.208,0.009218009617091372
7.212,0.009216278698000752
7.216,0.009209475224352903
7.22,0.009198176169178028
7.224,0.009207792386348135
7.228,0.009215773846599322
7.232,0.009220581955184375
7.236,0.00921877891446498
7.24,0.009216615265601706
7.244,0.009220125184868795
7.248,0.009221904185045265
7.252,0.009222096509388666
7.256,0.009222529239161321
7.26,0.00922019730649757
7.264,0.00921517283302619
7.268,0.009217721130576268
7.272,0.009221134887671656
7.276,0.009218899117179607
7.28,0.009217264360260689
7.284,0.009217528806232866
7.288,0.00922005306324002
7.292,0.009222048428302815
7.296,0.009223106212191528
7.3,0.009224067833908538
7.304,0.00922248115807547
7.308,0.009218923157722532
7.312,0.009219355887495187
7.316,0.00921978861726784
7.32,0.009221134887671656
7.324,0.009222817725676425
7.328,0.00921639890071538
7.332,0.009201445683015863
7.336,0.009208441481007117
7.34,0.009215701724970547
7.344,0.009221207009300432
7.348,0.009222529239161321
7.352,0.009218899117179607
7.356,0.009219115482065934
7.36,0.009221327212015058
7.364,0.009220654076813151
7.368,0.009221182968757506
7.372,0.009218586590121577
7.376,0.00921690375211681
7.38,0.009219596292924438
7.384,0.009217480725147015
7.388,0.009215244954654967
7.392,0.009215004549225714
7.396,0.009215461319541294
7.4,0.00921558152225592
7.404,0.009214932427596937
7.408,0.009214956468139864
7.412,0.009215918089856874
7.416,0.009214980508682788
7.42,0.009214932427596937
7.424,0.009216014252028575
7.428,0.0092183221441494
7.432,0.009220581955184375
7.436,0.009218995279351307
7.44,0.00921736052243239
7.444,0.009217047995374362
7.448,0.009220485793012673
7.452,0.009224188036623164
7.456,0.009225101577254324
7.46,0.009219500130752739
7.464,0.009206373994315543
7.468,0.009200820628899807
7.472,0.009209811791953857
7.476,0.009218081738720147
7.48,0.009221351252557982
7.484,0.009221158928214582
7.488,0.009220654076813151
7.492,0.009221423374186759
7.496,0.009221687820158937
7.5,0.009223250455449078
7.5040000000000004,0.009224139955537313
7.508,0.00922339469870663
7.5120000000000005,0.009223034090562751
7.516,0.00922649592874399
7.5200000000000005,0.0092275537126327
7.524,0.009229380793895021
7.5280000000000005,0.009229549077695498
7.532,0.009226327644943513
7.5360000000000005,0.009225101577254324
7.54,0.009228034523491207
7.5440000000000005,0.00922796240186243
7.548,0.00922659209091569
7.5520000000000005,0.00922370722576466
7.556,0.00921974053618199
7.5600000000000005,0.009222697522961797
7.564,0.009225005415082622
7.5680000000000005,0.009229140388465768
7.572,0.009231063631899789
7.5760000000000005,0.009224332279880716
7.58,0.009220702157899002
7.5840000000000005,0.009229308672266245
7.588,0.00923284263207626
7.5920000000000005,0.0092320252536168
7.596,0.009227481591003926
7.6000000000000005,0.009223202374363228
7.604,0.009225341982683577
7.6080000000000005,0.009227145023402971
7.612,0.00922877978032189
7.6160000000000005,0.009227457550461
7.62,0.009224188036623164
7.6240000000000006,0.009221711860701863
7.628,0.009222312874274994
7.632000000000001,0.009226183401685961
7.636,0.009226880577430794
7.640000000000001,0.009224428442052417
7.644,0.00922106276604288
7.648000000000001,0.009224476523138268
7.652,0.009225029455625549
7.656000000000001,0.009222336914817919
7.66,0.009224813090739222
7.664000000000001,0.00922426015825194
7.668,0.009222505198618397
7.672000000000001,0.00922334661762078
7.676,0.009225822793542083
7.68,0.009222793685133499
7.684,0.009222649441875947
7.688,0.00921279281927659
7.692,0.009206349953772617
7.696,0.009216326779086603
7.7,0.009222264793189144
7.704,0.009226904617973718
7.708,0.009225606428655754
7.712,0.00922370722576466
7.716,0.009227842199147804
7.72,0.00923156848330122
7.724,0.009230919388642239
7.728,0.009229981807468153
7.732,0.009228298969463384
7.736,0.009225269861054802
7.74,0.009225534307026979
7.744,0.009225991077342559
7.748,0.009224524604224118
7.752,0.009224139955537313
7.756,0.009220125184868795
7.76,0.00922096660387118
7.764,0.009224139955537313
7.768,0.009222457117532546
7.772,0.009219572252381514
7.776,0.009218658711750354
7.78,0.009218562549578653
7.784,0.009221904185045265
7.788,0.009225462185398204
7.792,0.009225967036799634
7.796,0.009224236117709015
7.8,0.009220774279527777
7.804,0.009220726198441926
7.808,0.009224404401509491
7.812,0.009223683185221734
7.816,0.009224139955537313
7.82,0.009228058564034131
7.824,0.009213922724794077
7.828,0.009213489995021423
7.832,0.009221783982330638
7.836,0.009226616131458617
7.84,0.009228972104665292
7.844,0.00922709694231712
7.848,0.00922421207716609
7.852,0.009227457550461
7.856,0.009230606861584209
7.86,0.00923019817235448
7.864,0.00922882786140774
7.868,0.009227265226117599
7.872,0.009227794118061954
7.876,0.009230029888554004
7.88,0.009230270293983257
7.884,0.009232097375245576
7.888,0.00923147232112952
7.892,0.009229140388465768
7.896,0.009231640604929996
7.9,0.009229597158781348
7.904,0.009231063631899789
7.908,0.009232962834790885
7.912,0.009232217577960201
7.916,0.009227938361319505
7.92,0.009229188469551619
7.924,0.009230102010182779
7.928,0.009227938361319505
7.932,0.009225390063769427
7.936,0.00921320150850632
7.94,0.00920959542706753
7.944,0.009220485793012673
7.948,0.009229212510094544
7.952,0.009230823226470538
7.956,0.009228395131635085
7.96,0.009231063631899789
7.964,0.009233708091621568
7.968,0.009233251321305988
7.972,0.00923166464547292
7.976,0.009229813523667675
7.98,0.009223971671736837
7.984,0.009225414104312353
7.988,0.009228130685662908
7.992,0.00922781815860488
7.996,0.009227457550461
8.0,0.009225366023226503
8.004,0.00922344277979248
8.008000000000001,0.009226832496344943
8.012,0.00922801048294828
8.016,0.009229597158781348
8.02,0.009229981807468153
8.024000000000001,0.009229356753352095
8.028,0.009228443212720936
8.032,0.009230943429185163
8.036,0.009231304037329042
8.040000000000001,0.009232818591533333
8.044,0.009231760807644622
8.048,0.009219620333467364
8.052,0.009211735035387877
8.056000000000001,0.009222240752646218
8.06,0.009229068266836993
8.064,0.009229981807468153
8.068,0.009227770077519029
8.072000000000001,0.009225101577254324
8.076,0.009228130685662908
8.08,0.009229332712809171
8.084,0.009228491293806786
8.088000000000001,0.009226664212544467
8.092,0.009222769644590574
8.096,0.009220461752469749
8.1,0.009225486225941128
8.104000000000001,0.009228419172178011
8.108,0.00922827492892046
8.112,0.00922649592874399
8.116,0.009221663779616012
8.120000000000001,0.009225750671913306
8.124,0.009229645239867199
8.128,0.009228755739778964
8.132,0.009228034523491207
8.136000000000001,0.009225414104312353
8.14,0.009228899983036516
8.144,0.009230919388642239
8.148,0.009230991510271014
8.152000000000001,0.00922877978032189
8.156,0.00922700078014542
8.16,0.009227794118061954
8.164,0.009229837564210601
8.168000000000001,0.00923284263207626
8.172,0.009230126050725705
8.176,0.009227577753175627
8.18,0.00922365914467881
8.184000000000001,0.009208128953949088
8.188,0.009210316643355287
8.192,0.009220533874098524
8.196,0.009224019752822688
8.2,0.009225606428655754
8.204,0.009223370658163706
8.208,0.009221423374186759
8.212,0.00922192822558819
8.216,0.009224500563681192
8.22,0.009226712293630318
8.224,0.009225991077342559
8.228,0.009223010050019827
8.232,0.009225221779968951
8.236,0.009224308239337791
8.24,0.009222745604047648
8.244,0.009224524604224118
8.248,0.009223058131105678
8.252,0.00922238499590377
8.256,0.009226904617973718
8.26,0.009227457550461
8.264,0.009228395131635085
8.268,0.009226688253087392
8.272,0.009224644806938744
8.276,0.009228298969463384
8.28,0.009229837564210601
8.284,0.009228082604577057
8.288,0.009230823226470538
8.292,0.009229909685839376
8.296,0.009216014252028575
8.3,0.009216999914288511
8.304,0.009225366023226503
8.308,0.009228755739778964
8.312,0.009230943429185163
8.316,0.009229957766925227
8.32,0.009229957766925227
8.324,0.009232265659046052
8.328,0.009233107078048437
8.332,0.009234958199853682
8.336,0.009236352551343347
8.34,0.009233491726735241
8.344,0.009232073334702651
8.348,0.009232241618503128
8.352,0.009231183834614416
8.356,0.009233491726735241
8.36,0.009233996578136672
8.364,0.009233155159134287
8.368,0.00923486203768198
8.372,0.009237530537946686
8.376,0.00923801134880519
8.38,0.009238083470433967
8.384,0.00923851620020662
8.388,0.00924120874101425
8.392,0.00924527159276862
8.396,0.009246810187515837
8.4,0.009247771809232848
8.404,0.009245295633311546
8.408,0.009242482889789289
8.412,0.009243781079107253
8.416,0.009238900848893426
8.42,0.009236208308085796
8.424,0.00923604002428532
8.428,0.009236256389171646
8.432,0.009237169929802806
8.436,0.009240054794953838
8.44,0.009237843065004714
8.444,0.009237314173060358
8.448,0.009238347916406145
8.452,0.00922101468495703
8.456,0.00921421121130918
8.46,0.009233996578136672
8.464,0.009242266524902962
8.468,0.009243612795306777
8.472,0.009242603092503916
8.476,0.0092388768083505
8.48,0.009243612795306777
8.484,0.009244382092680385
8.488,0.0092434445115063
8.492,0.009244598457566713
8.496,0.009239598024638258
8.5,0.009237290132517433
8.504,0.009242098241102486
8.508000000000001,0.009241905916759083
8.512,0.009239838430067511
8.516,0.009239718227352884
8.52,0.0092389729705222
8.524000000000001,0.009241809754587382
8.528,0.0092434445115063
8.532,0.009239069132693902
8.536,0.009238299835320294
8.540000000000001,0.009232914753705034
8.544,0.009215990211485649
8.548,0.009220413671383898
8.552,0.009230630902127135
8.556000000000001,0.009235366889083411
8.56,0.009238852767807575
8.564,0.009235703456684365
8.568,0.009235246686368785
8.572000000000001,0.009236424672972122
8.576,0.009238900848893426
8.58,0.009238083470433967
8.584,0.009238660443464173
8.588000000000001,0.009237482456860836
8.592,0.009239357619209005
8.596,0.00923942974083778
8.6,0.009236160226999945
8.604000000000001,0.009238203673148593
8.608,0.009237843065004714
8.612,0.00923801134880519
8.616,0.009243732998021403
8.620000000000001,0.009243973403450656
8.624,0.009239982673325061
8.628,0.009237242051431583
8.632,0.009234525470081028
8.636000000000001,0.00923745841631791
8.64,0.009237843065004714
8.644,0.009239598024638258
8.648,0.009240415403097717
8.652000000000001,0.009235511132340963
8.656,0.009217384562975314
8.66,0.009221904185045265
8.664,0.009227794118061954
8.668000000000001,0.009233419605106465
8.672,0.009233227280763064
8.676,0.00922827492892046
8.68,0.009233299402391839
8.684000000000001,0.00923979034898166
8.688,0.009241809754587382
8.692,0.009239862470610436
8.696,0.00923873256509295
8.700000000000001,0.009238612362378322
8.704,0.009240343281468942
8.708,0.009240776011241595
8.712,0.009240439443640643
8.716,0.009239093173236828
8.72,0.009238395997491995
8.724,0.009239501862466557
8.728,0.009242242484360038
8.732,0.009243011781733645
8.736,0.009240415403097717
8.74,0.009239814389524585
8.744,0.009239934592239213
8.748,0.009241689551872757
8.752,0.009244550376480863
8.756,0.009244021484536506
8.76,0.009243612795306777
8.764,0.009240030754410912
8.768,0.00922426015825194
8.772,0.009228491293806786
8.776,0.009238251754234443
8.78,0.00923923741649438
8.784,0.009241761673501532
8.788,0.009240271159840165
8.792,0.009237770943375937
8.796,0.00924161743024398
8.8,0.009245103308968144
8.804,0.009245175430596919
8.808,0.009244285930508684
8.812,0.009241881876216157
8.816,0.009243372389877524
8.82,0.00924207420055956
8.824,0.009243781079107253
8.828,0.00924293966010487
8.832,0.009240319240926016
8.836,0.009239814389524585
8.84,0.009241088538299625
8.844,0.009240920254499147
8.848,0.009241593389701055
8.852,0.009242314605988813
8.856,0.009241761673501532
8.86,0.009241497227529354
8.864,0.009245752403627126
8.868,0.009247940093033324
8.872,0.009247218876745567
8.876,0.009245463917112022
8.88,0.009241953997844934
8.884,0.009243757038564329
8.888,0.009248108376833802
8.892,0.009249190201265437
8.896,0.009248228579548427
8.9,0.009236953564916479
8.904,0.009222697522961797
8.908,0.009232241618503128
8.912,0.009236208308085796
8.916,0.009242482889789289
8.92,0.009242675214132691
8.924,0.00923873256509295
8.928,0.009240727930155745
8.932,0.009244454214309162
8.936,0.009247699687604072
8.94,0.009248637268778157
8.944,0.009246449579371959
8.948,0.009244406133223311
8.952,0.009247531403803595
8.956,0.009249622931038093
8.96,0.009250368187868776
8.964,0.009252483755646199
8.968,0.009249646971581017
8.972,0.009249622931038093
8.976,0.009246810187515837
8.98,0.00924796413357625
8.984,0.009246810187515837
8.988,0.00924664190371536
8.992,0.009246425538829033
8.996,0.009248565147149381
9.0,0.00924938252560884
9.004,0.009249791214838569
9.008000000000001,0.009250368187868776
9.012,0.009242050160016635
9.016,0.00922731330720345
9.02,0.009235751537770216
9.024000000000001,0.009243011781733645
9.028,0.009246161092856855
9.032,0.009247651606518222
9.036,0.00924385320073603
9.040000000000001,0.009244334011594534
9.044,0.00924284349793317
9.048,0.009241377024814727
9.052,0.009240751970698671
9.056000000000001,0.0092411606599284
9.06,0.009241232781557175
9.064,0.009243997443993582
9.068,0.009245463917112022
9.072000000000001,0.009246617863172435
9.076,0.009248757471492784
9.08,0.0092479160524904
9.084,0.009246786146972911
9.088000000000001,0.00924892575529326
9.092,0.009248372822805979
9.096,0.009247339079460192
9.1,0.009246665944258286
9.104000000000001,0.009246257255028556
9.108,0.009247988174119174
9.112,0.009248228579548427
9.116,0.009246425538829033
9.120000000000001,0.009246714025344136
9.124,0.009241929957302008
9.128,0.00922978948312475
9.132,0.009237362254146208
9.136000000000001,0.009243973403450656
9.14,0.009245656241455425
9.144,0.009245295633311546
9.148,0.009246016849599303
9.152000000000001,0.009247940093033324
9.156,0.009247940093033324
9.16,0.009246882309144612
9.164,0.009245800484712977
9.168000000000001,0.009246329376657331
9.172,0.009246064930685154
9.176,0.009247892011947473
9.18,0.009249310403980065
9.184000000000001,0.009249238282351288
9.188,0.009246882309144612
9.192,0.009247098674030941
9.196,0.009246858268601688
9.200000000000001,0.00924993545809612
9.204,0.00925298860704763
9.208,0.009254839728852875
9.212,0.009258638134635067
9.216000000000001,0.009258205404862411
9.22,0.00925765247237513
9.224,0.009260369053725686
9.228,0.00925861409409214
9.232,0.009258854499521393
9.236,0.009254382958537295
9.24,0.00924993545809612
9.244,0.009252171228588171
9.248,0.00925308476921933
9.252,0.009254142553108042
9.256,0.009253277093562733
9.26,0.009243011781733645
9.264,0.009233828294336196
9.268,0.009240463484183567
9.272,0.00924481482245304
9.276,0.009248565147149381
9.28,0.009247867971404549
9.284,0.009245079268425218
9.288,0.009247074633488015
9.292,0.009248805552578634
9.296,0.009248949795836186
9.3,0.009247747768689923
9.304,0.009245343714397397
9.308,0.009243684916935552
9.312,0.009245247552225696
9.316,0.009249310403980065
9.32,0.009248517066063531
9.324,0.00924654574154366
9.328,0.009243636835849701
9.332,0.009247940093033324
9.336,0.009247988174119174
9.34,0.009247218876745567
9.344,0.009248541106606455
9.348,0.009247699687604072
9.352,0.009244790781910114
9.356,0.009244406133223311
9.36,0.00924664190371536
9.364,0.009248300701177204
9.368,0.009250223944611224
9.372,0.009239477821923631
9.376,0.009229549077695498
9.38,0.0092364967946009
9.384,0.009243420470963375
9.388,0.00924745928217482
9.392,0.0092479160524904
9.396,0.009244141687251134
9.4,0.009243011781733645
9.404,0.009241809754587382
9.408,0.009246329376657331
9.412,0.009247988174119174
9.416,0.009244141687251134
9.42,0.009244093606165283
9.424,0.009247771809232848
9.428,0.009247892011947473
9.432,0.009245656241455425
9.436,0.009245439876569096
9.44,0.00924385320073603
9.444,0.009245367754940321
9.448,0.009246906349687539
9.452,0.009247315038917268
9.456,0.009245463917112022
9.46,0.009245944727970528
9.464,0.009245343714397397
9.468,0.009246016849599303
9.472,0.009246810187515837
9.476,0.009248252620091353
9.48,0.009248132417376726
9.484,0.009242050160016635
9.488,0.00923238586176068
9.492,0.00924065580852697
9.496,0.009246377457743182
9.5,0.009249671012123943
9.504,0.009249911417553196
9.508000000000001,0.00924435805213746
9.512,0.009243732998021403
9.516,0.009248613228235232
9.52,0.009251930823158918
9.524000000000001,0.009252820323247153
9.528,0.009247988174119174
9.532,0.00924476674136719
9.536,0.009249214241808364
9.540000000000001,0.009250247985154149
9.544,0.009246569782086584
9.548,0.009245367754940321
9.552,0.009244406133223311
9.556000000000001,0.009246978471316314
9.56,0.00925116152578531
9.564,0.009250320106782926
9.568,0.009252315471845723
9.572000000000001,0.009251714458272591
9.576,0.00924705059294509
9.58,0.009245487957654947
9.584,0.00924796413357625
9.588000000000001,0.00924938252560884
9.592,0.009249310403980065
9.596,0.009250247985154149
9.6,0.00925070475546973
9.604000000000001,0.009251714458272591
9.608,0.0092525799178179
9.612,0.009252796282704227
9.616,0.009252748201618376
9.620000000000001,0.009238900848893426
9.624,0.009233756172707419
9.628,0.009245175430596919
9.632,0.009252195269131095
9.636000000000001,0.009253397296277359
9.64,0.009251714458272591
9.644,0.00924993545809612
9.648,0.0092525799178179
9.652000000000001,0.009252219309674022
9.656,0.009252724161075452
9.66,0.009251858701530143
9.664,0.009251882742073067
9.668000000000001,0.009250584552755103
9.672,0.009251425971757488
9.676,0.009249646971581017
9.68,0.009250897079813131
9.684000000000001,0.009252363552931573
9.688,0.0092503922284117
9.692,0.009251498093386263
9.696,0.009251498093386263
9.700000000000001,0.009249863336467346
9.704,0.009248637268778157
9.708,0.00925111344469946
9.712,0.009252700120532526
9.716000000000001,0.009255633066769409
9.72,0.009255488823511857
9.724,0.009254839728852875
9.728,0.009254070431479267
9.732,0.009241256822100101
9.736,0.009233587888906943
9.74,0.009245463917112022
9.744,0.009251425971757488
9.748,0.009252339512388647
9.752,0.009252844363790078
9.756,0.00925303668813348
9.76,0.009254863769395801
9.764,0.009258013080519009
9.768,0.009258037121061935
9.772,0.009256883175001522
9.776,0.009257363985860028
9.78,0.009256835093915672
9.784,0.009257460148031728
9.788,0.00925572922894111
9.792,0.009253830026050014
9.796,0.009249358485065915
9.8,0.009247074633488015
9.804,0.009250776877098505
9.808,0.009253229012476882
9.812,0.009253397296277359
9.816,0.009253757904421239
9.82,0.009249983539181971
9.824,0.009247940093033324
9.828,0.009251353850128713
9.832,0.009252555877274976
9.836,0.00925344537736321
9.84,0.00925262799890375
9.844,0.00924435805213746
9.848,0.009235607294512664
9.852,0.00924531967385447
9.856,0.009250320106782926
9.86,0.009255344580254305
9.864,0.009254190634193893
9.868,0.009249502728323467
9.872,0.00925065667438388
9.876,0.009252820323247153
9.88,0.009253301134105657
9.884,0.009251810620444292
9.888,0.009250560512212179
9.892,0.00924993545809612
9.896,0.009253830026050014
9.9,0.009255296499168454
9.904,0.00925298860704763
9.908,0.009252507796189125
9.912,0.009250223944611224
9.916,0.009253589620620761
9.92,0.009254983972110426
9.924,0.009256089837084988
9.928,0.009258830458978469
9.932,0.00925440699908022
9.936,0.009253132850305181
9.94,0.00925354153953491
9.944,0.00925399830985049
9.948,0.009256835093915672
9.952,0.009256113877627915
9.956,0.009251594255557964
9.96,0.009251401931214561
9.964,0.009254022350393416
9.968,0.009255801350569885
9.972,0.009254551242337771
9.976,0.009252676079989601
9.98,0.00923791518663349
9.984,0.009236905483830628
9.988,0.009249021917464961
9.992,0.009254070431479267
9.996,0.00925481568830995
10.0,0.009254599323423622
10.004,0.009258590053549216
10.008000000000001,0.009265225243396588
10.012,0.009266451311085777
10.016,0.009266283027285301
10.02,0.00926445594602298
10.024000000000001,0.009260921986212967
10.028,0.009260441175354461
10.032,0.009263326040505494
10.036,0.009263734729735223
10.040000000000001,0.0092617153241295
10.044,0.009259912283410105
10.048,0.009256618729029345
10.052,0.00925887854006432
10.056000000000001,0.009259118945493573
10.06,0.009259527634723302
10.064,0.009258541972463365
10.068,0.009255584985683558
10.072000000000001,0.009255248418082604
10.076,0.009258205404862411
10.08,0.009261787445758276
10.084,0.009261474918700248
10.088000000000001,0.009262508662046033
10.092,0.009248108376833802
10.096,0.009244141687251134
10.1,0.009250993241984832
10.104000000000001,0.009257844796718533
10.108,0.009258397729205814
10.112,0.009252916485418854
10.116,0.009250416268954627
10.120000000000001,0.00925116152578531
10.124,0.0092525799178179
10.128,0.009254671445052398
10.132,0.009255633066769409
10.136000000000001,0.009252387593474498
10.14,0.009251498093386263
10.144,0.009254479120708996
10.148,0.00925426275582267
10.152000000000001,0.00925618599925669
10.156,0.00925426275582267
10.16,0.009252195269131095
10.164,0.009256161958713765
10.168000000000001,0.009255801350569885
10.172,0.00925532053971138
10.176,0.009255032053196277
10.18,0.009251281728499936
10.184000000000001,0.009250873039270207
10.188,0.009253180931391032
10.192,0.009252868404333004
10.196,0.009252267390759872
10.200000000000001,0.009253132850305181
10.204,0.009242266524902962
10.208,0.00923969418680996
10.212,0.009250464350040477
10.216000000000001,0.00925618599925669
10.22,0.009257508229117578
10.224,0.009257580350746355
10.228,0.009256450445228867
10.232000000000001,0.009257363985860028
10.236,0.009257291864231252
10.24,0.009254599323423622
10.244,0.009256354283057166
10.248,0.009260970067298818
10.252,0.009263854932449848
10.256,0.009264576148737607
10.26,0.009263975135164476
10.264,0.009263013513447464
10.268,0.009263157756705016
10.272,0.009262412499874332
10.276,0.009264359783851279
10.28,0.009264720391995157
10.284,0.009263854932449848
10.288,0.009263109675619165
10.292,0.009263157756705016
10.296,0.009264359783851279
10.3,0.00926669171651503
10.304,0.00926568201371217
10.308,0.009260729661869565
10.312,0.009260008445581806
10.316,0.009255416701883082
10.32,0.00925938339146575
10.324,0.009262412499874332
10.328,0.00926258078367481
10.332,0.009258998742778945
10.336,0.009256426404685943
10.34,0.009246786146972911
10.344,0.009252868404333004
10.348,0.00926212401335923
10.352,0.009265008878510261
10.356,0.00926765333823204
10.36,0.009263277959419643
10.364,0.009263638567563522
10.368,0.009265633932626319
10.372,0.009267581216603265
10.376,0.009268783243749528
10.38,0.009267941824747144
10.384,0.009264888675795635
10.388,0.009266066662398972
10.392,0.009269047689721706
10.396,0.009270105473610417
10.4,0.009269865068181164
10.404,0.009264648270366382
10.408,0.009262725026932362
10.412,0.009265898378598496
10.416,0.009265754135340944
10.42,0.009268687081577827
10.424,0.009268999608635855
10.428,0.009264215540593727
10.432,0.00926486463525271
10.436,0.009267821622032517
10.44,0.009267845662575443
10.444,0.009267028284115983
10.448,0.009265249283939514
10.452,0.009251377890671637
10.456,0.009251401931214561
10.46,0.009259239148208198
10.464,0.009265657973169243
10.468,0.009266619594886253
10.472,0.009263133716162091
10.476,0.009260513296983236
10.48,0.009263734729735223
10.484,0.009266547473257478
10.488,0.009266210905656524
10.492,0.009266042621856048
10.496,0.009262917351275763
10.5,0.009264792513623934
10.504,0.009264191500050803
10.508000000000001,0.009266307067828225
10.512,0.009264888675795635
10.516,0.00926258078367481
10.52,0.009261859567387051
10.524000000000001,0.009263854932449848
10.528,0.009264696351452233
10.532,0.009265898378598496
10.536,0.00926669171651503
10.540000000000001,0.009267172527373534
10.544,0.00926714848683061
10.548,0.009269095770807556
10.552,0.009270538203383073
10.556000000000001,0.009268855365378303
10.56,0.009267412932802787
10.564,0.009264287662222504
10.568,0.00926907173026463
10.572000000000001,0.009267725459860815
10.576,0.009264479986565906
10.58,0.009262484621503109
10.584,0.009256811053372746
10.588000000000001,0.009246137052313929
10.592,0.009255032053196277
10.596,0.009263157756705016
10.6,0.00926806202746177
10.604000000000001,0.009270442041211371
10.608,0.009267581216603265
10.612,0.009267749500403741
10.616,0.009267220608459385
10.620000000000001,0.009267917784204218
10.624,0.009266499392171628
10.628,0.009266210905656524
10.632,0.00926760525714619
10.636000000000001,0.009271187298042055
10.64,0.009271331541299605
10.644,0.009267436973345713
10.648,0.009265129081224888
10.652000000000001,0.009260946026755892
10.656,0.009264816554166859
10.66,0.009268422635605648
10.664,0.009266114743484823
10.668000000000001,0.009265537770454618
10.672,0.009264071297336175
10.676,0.009262676945846511
10.68,0.009264119378422026
10.684000000000001,0.009266138784027749
10.688,0.009266475351628702
10.692,0.009266571513800403
10.696,0.0092618114863012
10.700000000000001,0.009245872606341752
10.704,0.009256450445228867
10.708,0.00926765333823204
10.712,0.009271067095327427
10.716000000000001,0.00927267781170342
10.72,0.009271932554872736
10.724,0.009274288528079412
10.728,0.009276115609341733
10.732000000000001,0.009273783676677982
10.736,0.009271187298042055
10.74,0.009270970933155726
10.744,0.009268182230176397
10.748000000000001,0.009268831324835377
10.752,0.009269744865466539
10.756,0.009270249716867969
10.76,0.009271115176413278
10.764,0.009268759203206602
10.768,0.00926536948665414
10.772,0.00926577817588387
10.776,0.009269408297865584
10.78,0.009272052757587364
10.784,0.00927130750075668
10.788,0.009265129081224888
10.792,0.009267725459860815
10.796,0.009269215973522182
10.8,0.009267725459860815
10.804,0.009269504460037286
10.808,0.009263686648649372
10.812,0.009247675647061146
10.816,0.00925354153953491
10.82,0.009262845229646988
10.824,0.009269143851893407
10.828,0.00927856774472011
10.832,0.009277990771689903
10.836,0.009276957028344118
10.84,0.009277269555402146
10.844,0.009277029149972893
10.848,0.009272341244102467
10.852,0.009270610325011848
10.856,0.009268927487007078
10.86,0.009268470716691499
10.864,0.009269937189809941
10.868,0.00927262973061757
10.872,0.009271139216956204
10.876,0.00926806202746177
10.88,0.009267965865290068
10.884,0.00926815818963347
10.888,0.009268254351805172
10.892,0.009271091135870354
10.896,0.009272293163016617
10.9,0.009268879405921228
10.904,0.009270706487183549
10.908,0.009272822054960972
10.912,0.009273567311791655
10.916,0.009271692149443485
10.92,0.009270778608812324
10.924,0.009266403229999927
10.928,0.009268206270719321
10.932,0.009269504460037286
10.936,0.009266884040858432
10.94,0.009267701419317891
10.944,0.009267701419317891
10.948,0.00926933617623681
10.952,0.009270826689898174
10.956,0.009270105473610417
10.96,0.009271043054784503
10.964,0.009269456378951435
10.968,0.009266763838143805
10.972,0.009270490122297222
10.976,0.009272701852246346
10.98,0.009272052757587364
10.984,0.009274889541652544
10.988,0.009268206270719321
10.992,0.009252555877274976
10.996,0.009259960364495955
11.0,0.009269961230352865
11.004,0.009273110541476075
11.008000000000001,0.009272028717044438
11.012,0.009265225243396588
11.016,0.009264888675795635
11.02,0.009266860000315506
11.024000000000001,0.009268254351805172
11.028,0.009267172527373534
11.032,0.009266283027285301
11.036,0.009266451311085777
11.040000000000001,0.009270586284468923
11.044,0.009271788311615186
11.048,0.009273471149619954
11.052,0.009273423068534103
11.056000000000001,0.009270466081754296
11.06,0.009271908514329812
11.064,0.009273663473963356
11.068,0.009273374987448253
11.072000000000001,0.009272148919759065
11.076,0.0092708507304411
11.08,0.009269648703294837
11.084,0.00927039396012552
11.088000000000001,0.009271571946728858
11.092,0.009271139216956204
11.096,0.009273110541476075
11.1,0.009268855365378303
11.104000000000001,0.00925166637718674
11.108,0.009256546607400568
11.112,0.009269937189809941
11.116,0.009275081865995946
11.120000000000001,0.009276668541829014
11.124,0.009273014379304374
11.128,0.00927272589278927
11.132,0.009276981068887042
11.136000000000001,0.0092754184335969
11.14,0.009275394393053976
11.144,0.009277125312144594
11.148,0.009273976001021384
11.152000000000001,0.009274577014594516
11.156,0.009276500258028538
11.16,0.009274985703824245
11.164,0.009273807717220908
11.168000000000001,0.009274384690251113
11.172,0.009272966298218523
11.176,0.009274336609165263
11.18,0.009276115609341733
11.184000000000001,0.009276716622914865
11.188,0.009277077231058743
11.192,0.009264672310909307
11.196,0.009258758337349692
11.200000000000001,0.009268398595062724
11.204,0.009273903879392609
11.208,0.009277077231058743
11.212,0.009275009744367171
11.216000000000001,0.009272293163016617
11.22,0.009275033784910095
11.224,0.009273326906362402
11.228,0.009273471149619954
11.232000000000001,0.009273567311791655
11.236,0.009271595987271784
11.24,0.009272100838673214
11.244,0.009273158622561926
11.248000000000001,0.00927546651468275
11.252,0.009276957028344118
11.256,0.00927719743377337
11.26,0.0092708507304411
11.264,0.009273158622561926
11.268,0.009275610757940303
11.272,0.009275105906538872
11.276,0.009277702285174801
11.28,0.009276740663457789
11.284,0.009274072163193085
11.288,0.009275899244455406
11.292,0.009279865934038074
11.296,0.009280274623267804
11.3,0.00927861582580596
11.304,0.009263975135164476
11.308,0.009257075499344925
11.312,0.009266090702941899
11.316,0.009272485487360017
11.32,0.009276596420200239
11.324,0.009277053190515819
11.328,0.009277966731146978
11.332,0.009280082298924401
11.336,0.009279505325894196
11.34,0.009276740663457789
11.344,0.00927445681187989
11.348,0.009274216406450637
11.352,0.009277774406803576
11.356,0.00928080351521216
11.36,0.009281596853128692
11.364,0.009282414231588152
11.368,0.009280250582724877
11.372,0.009275105906538872
11.376,0.00927582712282663
11.38,0.009277485920288472
11.384,0.009278303298747933
11.388,0.009278423501462558
11.392,0.009276644501286088
11.396,0.009273831757763832
11.4,0.009274721257852067
11.404,0.009275178028167647
11.408,0.00927638005531391
11.412,0.009276932987801191
11.416,0.009265609892083393
11.42,0.00925979208069548
11.424,0.009269961230352865
11.428,0.009277389758116771
11.432,0.009278423501462558
11.436,0.009275995406627107
11.44,0.009275538636311526
11.444,0.009278135014947455
11.448,0.009276572379657313
11.452,0.00927851966363426
11.456,0.009279385123179568
11.46,0.009275346311968125
11.464,0.009274745298394994
11.468,0.009279385123179568
11.472,0.009280106339467327
11.476,0.009281524731499917
11.48,0.00927902451503569
11.484,0.009278038852775753
11.488,0.009282318069416451
11.492,0.009281885339643796
11.496,0.009279000474492765
11.5,0.009278736028520586
11.504,0.00928181321801502
11.508000000000001,0.00928368838036319
11.512,0.009285755867054763
11.516,0.009285731826511838
11.52,0.009283544137105639
11.524000000000001,0.009283159488418836
11.528,0.009270081433067491
11.532,0.009260897945670041
11.536,0.009269215973522182
11.540000000000001,0.009277750366260652
11.544,0.009281596853128692
11.548,0.009281885339643796
11.552,0.009278591785263034
11.556000000000001,0.009280322704353654
11.56,0.009281404528785292
11.564,0.0092822699883306
11.568,0.009281500690956991
11.572000000000001,0.00927952936643712
11.576,0.009276428136399761
11.58,0.009279865934038074
11.584,0.009280010177295626
11.588000000000001,0.009281116042270188
11.592,0.009281116042270188
11.596,0.00927688490671534
11.6,0.009278832190692287
11.604000000000001,0.009281188163898963
11.608,0.009279601488065897
11.612,0.009277389758116771
11.616,0.009275442474139825
11.620000000000001,0.009273134582019
11.624,0.009275009744367171
11.628,0.00928075543412631
11.632,0.009286717488771775
11.636000000000001,0.00928779931320341
11.64,0.00928633284008497
11.644,0.009289962962066684
11.648,0.009293809448934726
11.652000000000001,0.009291092867584172
11.656,0.009288736894377496
11.66,0.009285323137282109
11.664,0.009269095770807556
11.668000000000001,0.009267893743661293
11.672,0.009281043920641411
11.676,0.009286116475198643
11.68,0.00928856861057702
11.684000000000001,0.009287967597003888
11.688,0.009286164556284494
11.692,0.009286404961713745
11.696,0.009285852029226464
11.700000000000001,0.009285587583254287
11.704,0.009285299096739183
11.708,0.009281789177472095
11.712,0.009281548772042842
11.716000000000001,0.009285515461625512
11.72,0.0092846500020802
11.724,0.009286477083342522
11.728,0.009282390191045226
11.732000000000001,0.009280010177295626
11.736,0.00928486636696653
11.74,0.009284361515565099
11.744,0.009283159488418836
11.748000000000001,0.00928364029927734
11.752,0.009280923717926786
11.756,0.009279601488065897
11.76,0.009280683312497533
11.764000000000001,0.009283856664163667
11.768,0.009285395258910884
11.772,0.009281404528785292
11.776,0.009268663041034901
11.78,0.00926582625696972
11.784,0.009273735595592131
11.788,0.009281909380186722
11.792,0.009284481718279725
11.796,0.009282005542358423
11.8,0.009280082298924401
11.804,0.009281693015300393
11.808,0.009281644934214543
11.812,0.00927734167703092
11.816,0.009280394825982429
11.82,0.009281476650414067
11.824,0.009280971799012636
11.828,0.009280683312497533
11.832,0.009278687947434736
11.836,0.009281957461272573
11.84,0.009284842326423603
11.844,0.009282558474845704
11.848,0.009283760501991967
11.852,0.009285010610224081
11.856,0.009285948191398165
11.86,0.009285731826511838
11.864,0.00928440959665095
11.868,0.009283279691133461
11.872,0.009284457677736798
11.876,0.009285251015653332
11.88,0.00928953023229403
11.884,0.009287005975286877
11.888,0.0092732307441907
11.892,0.009265441608282916
11.896,0.009276307933685135
11.9,0.009282053623444272
11.904,0.009282606555931555
11.908,0.00927907259612154
11.912,0.009277822487889427
11.916,0.009283255650590535
11.92,0.009286453042799596
11.924,0.009285852029226464
11.928,0.009287679110488785
11.932,0.009286573245514223
11.936,0.009286813650943476
11.94,0.009291092867584172
11.944,0.009291766002786079
11.948,0.009289313867407702
11.952,0.00928628475899912
11.956,0.009287126178001504
11.96,0.009289289826864777
11.964,0.009290756299983218
11.968,0.009290371651296415
11.972,0.00929181408387193
11.976,0.00928993892152376
11.98,0.00928628475899912
11.984,0.009288881137635048
11.988,0.00929145347572805
11.992,0.009292463178530911
11.996,0.009292006408215332
12.0,0.009290083164781311
12.004,0.009290804381069068
12.008000000000001,0.009292943989389417
12.012,0.009294218138164455
12.016,0.009293112273189894
12.02,0.009290684178354443
12.024000000000001,0.009275779041740779
12.028,0.00927734167703092
12.032,0.009283159488418836
12.036,0.00928628475899912
12.040000000000001,0.009287078096915653
12.044,0.009285154853481631
12.048,0.009286573245514223
12.052,0.009288448407862393
12.056000000000001,0.00929409793544983
12.06,0.009294747030108812
12.064,0.009292535300159688
12.068,0.009288400326776542
12.072000000000001,0.009289722556637433
12.076,0.00929044377292519
12.08,0.009292463178530911
12.084,0.00929318439481867
12.088000000000001,0.009289385989036478
12.092,0.009284529799365575
12.096,0.009288352245690691
12.1,0.009292342975816286
12.104000000000001,0.009292102570387033
12.108,0.009289626394465731
12.112,0.009286356880627894
12.116,0.009285900110312315
12.120000000000001,0.00928724638071613
12.124,0.009290924583783696
12.128,0.009289169624150152
12.132,0.009288087799718514
12.136000000000001,0.009276596420200239
12.14,0.00927683682562949
12.144,0.0092845538399085
12.148,0.009288784975463347
12.152000000000001,0.00929272762450309
12.156,0.00929318439481867
12.16,0.009292992070475268
12.164,0.009292919948846491
12.168000000000001,0.009293833489477652
12.172,0.00929287186776064
12.176,0.009292463178530911
12.18,0.009288905178177972
12.184000000000001,0.00928871285383457
12.188,0.00929135731355635
12.192,0.00929145347572805
12.196,0.009289602353922805
12.200000000000001,0.009288496488948243
12.204,0.009287775272660486
12.208,0.009294170057078605
12.212,0.0092935930840484
12.216000000000001,0.009290852462154919
12.22,0.009290924583783696
12.224,0.009289289826864777
12.228,0.009289410029579403
12.232000000000001,0.009289722556637433
12.236,0.009291621759528529
12.24,0.009291741962243154
12.244,0.009289698516094506
12.248000000000001,0.009288280124061916
12.252,0.009288784975463347
12.256,0.009291261151384648
12.26,0.009288039718632663
12.264000000000001,0.009288953259263823
12.268,0.009290299529667638
12.272,0.009288929218720899
12.276,0.009290684178354443
12.280000000000001,0.009292703583960164
12.284,0.00929181408387193
12.288,0.009292102570387033
12.292,0.009280587150325832
12.296,0.009270538203383073
12.3,0.009282149785615973
12.304,0.00929191024604363
12.308,0.009295275922053167
12.312,0.009293857530020577
12.316,0.00929222277310166
12.32,0.009295732692368748
12.324,0.009298016543946647
12.328,0.009297463611459366
12.332,0.00929582885454045
12.336,0.00929222277310166
12.34,0.009292847827217716
12.344,0.009296093300512627
12.348,0.009295588449111197
12.352,0.009296574111371131
12.356,0.009296357746484804
12.36,0.009291237110841724
12.364,0.009292583381245539
12.368,0.009295131678795617
12.372,0.00929272762450309
12.376,0.009293448840790848
12.38,0.009291333273013425
12.384,0.009276259852599285
12.388,0.009281116042270188
12.392,0.009287558907774158
12.396,0.009293016111018192
12.4,0.009295348043681944
12.404,0.009291597718985602
12.408,0.009291573678442678
12.412,0.009295732692368748
12.416,0.009296117341055551
12.42,0.009296622192456982
12.424,0.009293833489477652
12.428,0.009292992070475268
12.432,0.009294698949022961
12.436,0.009293929651649354
12.44,0.00929683855734331
12.444,0.009299434935979239
12.448,0.009295588449111197
12.452,0.009292487219073838
12.456,0.009299002206206584
12.46,0.00930323334176143
12.464,0.009310950356040442
12.468,0.009313162085989566
12.472,0.009303161220132654
12.476,0.00929679047625746
12.48,0.009295396124767794
12.484,0.009295660570739972
12.488,0.009295372084224868
12.492,0.009289049421435524
12.496,0.00927710127160167
12.5,0.009283039285704208
12.504,0.009289890840437909
12.508000000000001,0.009294771070651736
12.512,0.009295780773454599
12.516,0.009293304597533296
12.52,0.00929510763825269
12.524000000000001,0.009297583814173994
12.528,0.009299314733264612
12.532,0.009301262017241558
12.536,0.009303305463390206
12.540000000000001,0.0092960692599697
12.544,0.009291958327129481
12.548,0.0092914053946422
12.552,0.009294242178707382
12.556000000000001,0.009299699381951416
12.56,0.009304820017594497
12.564,0.009298112706118349
12.568,0.009293016111018192
12.572000000000001,0.009287102137458578
12.576,0.00928820800243314
12.58,0.009292463178530911
12.584,0.00929222277310166
12.588000000000001,0.009292607421788463
12.592,0.009292559340702613
12.596,0.009293376719162073
12.6,0.009293112273189894
12.604000000000001,0.00928861669166287
12.608,0.009274264487536488
12.612,0.009279192798836166
12.616,0.009287534867231233
12.620000000000001,0.009291501556813901
12.624,0.009293569043505473
12.628,0.009291838124414855
12.632,0.009291333273013425
12.636000000000001,0.009294290259793232
12.64,0.009297992503403723
12.644,0.009295780773454599
12.648,0.009292559340702613
12.652000000000001,0.009293545002962549
12.656,0.009295852895083374
12.66,0.00929633370594188
12.664,0.009294843192280513
12.668000000000001,0.00929460278685126
12.672,0.009294170057078605
12.676,0.009294290259793232
12.68,0.009298280989918825
12.684000000000001,0.009297824219603245
12.688,0.009297896341232022
12.692,0.009299050287292434
12.696,0.009294867232823438
12.700000000000001,0.009292246813644585
12.704,0.009294073894906904
12.708,0.009296574111371131
12.712,0.009297463611459366
12.716000000000001,0.009297655935802769
12.72,0.009294218138164455
12.724,0.009298112706118349
12.728,0.009298473314262227
12.732000000000001,0.009298617557519779
12.736,0.009299819584666042
12.74,0.009289097502521375
12.744,0.009276716622914865
12.748000000000001,0.009287727191574635
12.752,0.0092960692599697
12.756,0.009299266652178761
12.76,0.009301213936155708
12.764000000000001,0.009300468679325024
12.768,0.009301838990271765
12.772,0.009304579612165244
12.776,0.00930806549088941
12.780000000000001,0.009305565274425182
12.784,0.009299386854893388
12.788,0.009296598151914057
12.792,0.009302271720044419
12.796000000000001,0.009306118206912463
12.8,0.009301983233529315
12.804,0.009298088665575424
12.808,0.009295636530197047
12.812,0.009298954125120733
12.816,0.009299699381951416
12.82,0.00929729532765889
12.824,0.009299434935979239
12.828,0.009299579179236789
12.832,0.009300420598239174
12.836,0.00930332950393313
12.84,0.009302920814703401
12.844,0.009302752530902925
12.848,0.009301790909185915
12.852,0.009295444205853645
12.856,0.009283375853305163
12.86,0.0092935930840484
12.864,0.009301189895612783
12.868,0.009302007274072242
12.872,0.00930287273361755
12.876,0.009307127909715324
12.88,0.009303810314791636
12.884,0.009302656368731224
12.888,0.009300228273895771
12.892,0.00929775209797447
12.896,0.00930099757126938
12.9,0.009301983233529315
12.904,0.009298497354805153
12.908,0.009294771070651736
12.912,0.009297319368201815
12.916,0.009299434935979239
12.92,0.009297728057431544
12.924,0.009297968462860797
12.928,0.009300781206383052
12.932,0.009302560206559523
12.936,0.009301766868642989
12.94,0.009301550503756662
12.944,0.009299915746837743
12.948,0.009301983233529315
12.952,0.009299867665751893
12.956,0.009299434935979239
12.96,0.009303425666104832
12.964,0.009302560206559523
12.968,0.009287126178001504
12.972,0.00929003508369546
12.976,0.009295973097798
12.98,0.009301742828100064
12.984,0.009305805679854435
12.988,0.0093071038691724
12.992,0.009310926315497516
12.996,0.009310205099209759
13.0,0.00930852226120499
13.004,0.009306671139399744
13.008000000000001,0.00930135817941326
13.012,0.009303161220132654
13.016,0.009307079828629473
13.02,0.00931085419386874
13.024000000000001,0.009309195396406898
13.028,0.009301598584842512
13.032,0.00929683855734331
13.036,0.00930328142284728
13.040000000000001,0.009305228706824226
13.044,0.00930323334176143
13.048,0.009303185260675579
13.052,0.009302247679501495
13.056000000000001,0.009299458976522164
13.06,0.009300252314438697
13.064,0.00930450749053647
13.068,0.009307849126003083
13.072000000000001,0.009308810747720093
13.076,0.009306574977228043
13.08,0.009306022044740762
13.084,0.009311575410156498
13.088000000000001,0.009316070991683523
13.092,0.009321600316556333
13.096,0.009318667370319451
13.1,0.009302031314615166
13.104000000000001,0.009286308799542044
13.108,0.009296982800600862
13.112,0.009304435368907692
13.116,0.009307512558402129
13.120000000000001,0.009307752963831382
13.124,0.009309772369437103
13.128,0.009312104302100855
13.132,0.009306839423200222
13.136000000000001,0.009307680842202605
13.14,0.009309628126179552
13.144,0.009309315599121524
13.148,0.009306983666457772
13.152000000000001,0.009303666071534085
13.156,0.009305469112253481
13.16,0.00930542103116763
13.164,0.009302536166016596
13.168000000000001,0.009299795544123118
13.172,0.009306911544828997
13.176,0.00931171965341405
13.18,0.009311599450699424
13.184000000000001,0.009309580045093701
13.188,0.009310277220838534
13.192,0.009310181058666833
13.196,0.009311094599297994
13.200000000000001,0.009308329936861587
13.204,0.00930765680165968
13.208,0.009311599450699424
13.212,0.00930135817941326
13.216000000000001,0.009289410029579403
13.22,0.009302079395701017
13.224,0.00931436411313583
13.228,0.009317128775572234
13.232000000000001,0.009308546301747916
13.236,0.009301838990271765
13.24,0.009308161653061111
13.244,0.009311238842555544
13.248000000000001,0.00931222450481548
13.252,0.009308882869348868
13.256,0.00930907519369227
13.26,0.009302343841673196
13.264000000000001,0.009304483449993543
13.268,0.009306623058313894
13.272,0.00930811357197526
13.276,0.00930659901777097
13.280000000000001,0.009307873166546007
13.284,0.009310974396583366
13.288,0.00931542189702454
13.292,0.009315734424082569
13.296000000000001,0.00931953282986476
13.3,0.009322994668045998
13.304,0.009322898505874297
13.308,0.009321239708412454
13.312000000000001,0.009313666937390996
13.316,0.00930542103116763
13.32,0.009308041450346485
13.324,0.009301189895612783
13.328,0.009292895908303567
13.332,0.009301550503756662
13.336,0.009306671139399744
13.34,0.00930638265288464
13.344,0.009307127909715324
13.348,0.009309195396406898
13.352,0.009311839856128675
13.356,0.009307368315144577
13.36,0.009305372950081778
13.364,0.00930328142284728
13.368,0.00930405072022089
13.372,0.009302464044387821
13.376,0.009303521828276533
13.38,0.009307440436773354
13.384,0.009311455207441872
13.388,0.009311166720926769
13.392,0.009302848693074626
13.396,0.009303617990448234
13.4,0.00930638265288464
13.404,0.009304315166193067
13.408,0.009304411328364768
13.412,0.009307825085460157
13.416,0.009307055788086549
13.42,0.009307801044917232
13.424,0.009307512558402129
13.428,0.009308161653061111
13.432,0.009308594382833766
13.436,0.009308498220662065
13.44,0.009305324868995928
13.444,0.009306959625914848
13.448,0.009310397423553161
13.452,0.009307464477316278
13.456,0.009305036382480824
13.46,0.009296405827570655
13.464,0.009292583381245539
13.468,0.009299507057608014
13.472,0.009302680409274148
13.476,0.009305637396053959
13.48,0.009306574977228043
13.484,0.009305709517682734
13.488,0.00930857034229084
13.492,0.009309604085636627
13.496,0.009308329936861587
13.5,0.009302295760587345
13.504,0.009296622192456982
13.508000000000001,0.009300805246925978
13.512,0.00930664709885682
13.516,0.00930998873432343
13.52,0.009307488517859204
13.524000000000001,0.009304170922935515
13.528,0.00930359394990531
13.532,0.009304916179766198
13.536,0.00930587780148321
13.540000000000001,0.00930664709885682
13.544,0.00930587780148321
13.548,0.0093071038691724
13.552,0.009306863463743147
13.556000000000001,0.009309099234235197
13.56,0.009309772369437103
13.564,0.009307488517859204
13.568,0.009310445504639012
13.572000000000001,0.009304723855422796
13.576,0.009294771070651736
13.58,0.00929993978738067
13.584,0.009308378017947438
13.588000000000001,0.009307680842202605
13.592,0.009311238842555544
13.596,0.009311286923641394
13.6,0.009314772802365558
13.604000000000001,0.009311335004727245
13.608,0.009306070125826613
13.612,0.009310132977580982
13.616,0.00930897903152057
13.620000000000001,0.00930897903152057
13.624,0.00931075803169704
13.628,0.009307680842202605
13.632,0.009309507923464926
13.636000000000001,0.009311286923641394
13.64,0.009308185693604035
13.644,0.009315566140282092
13.648,0.009313763099562698
13.652000000000001,0.009307440436773354
13.656,0.009313114004903715
13.66,0.00931436411313583
13.664,0.009315109369966513
13.668000000000001,0.009322057086871912
13.672,0.009322898505874297
13.676,0.009313234207618341
13.68,0.009300781206383052
13.684000000000001,0.009284770204794828
13.688,0.009281644934214543
13.692,0.009291790043329005
13.696,0.009295083597709766
13.700000000000001,0.009283760501991967
13.704,0.009274072163193085
13.708,0.009272870136046822
13.712,0.009277221474316295
13.716000000000001,0.009277942690604052
13.72,0.009279505325894196
13.724,0.009278471582548409
13.728,0.009276620460743163
13.732000000000001,0.009280563109782907
13.736,0.009284169191221697
13.74,0.009290083164781311
13.744,0.009298112706118349
13.748000000000001,0.009288809016006271
13.752,0.009274673176766217
13.756,0.009266811919229656
13.76,0.009270177595239192
13.764000000000001,0.009275442474139825
13.768,0.009275562676854452
13.772,0.009277461879745548
13.776,0.009276620460743163
13.780000000000001,0.009279144717750315
13.784,0.009279601488065897
13.788,0.009278447542005483
13.792,0.009276500258028538
13.796000000000001,0.009276957028344118
13.8,0.009281668974757469
13.804,0.00928460192099435
13.808,0.009281596853128692
13.812000000000001,0.009282077663987198
13.816,0.00927907259612154
13.82,0.009268783243749528
13.824,0.009273374987448253
13.828,0.009280851596298009
13.832,0.009286236677913269
13.836,0.009288857097092122
13.84,0.009279889974580999
13.844,0.009273663473963356
13.848,0.009273591352334581
13.852,0.009275322271425199
13.856,0.009280298663810728
13.86,0.00928075543412631
13.864,0.0092776061230031
13.868,0.009271115176413278
13.872,0.009274769338937918
13.876,0.009275322271425199
13.88,0.009275322271425199
13.884,0.009273519230705804
13.888,0.009274432771336964
13.892,0.009278231177119156
13.896,0.009273062460390225
13.9,0.00927683682562949
13.904,0.009281500690956991
13.908,0.00927902451503569
13.912,0.009280394825982429
13.916,0.009283399893848087
13.92,0.009287318502344906
13.924,0.00928323161004761
13.928,0.009282005542358423
13.932,0.009272148919759065
13.936,0.009265657973169243
13.94,0.009268542838320275
13.944,0.009277702285174801
13.948,0.009282846961360806
13.952,0.009281236244984814
13.956,0.009280274623267804
13.96,0.009283447974933938
13.964,0.009283279691133461
13.968,0.0092799861367527
13.972,0.009277461879745548
13.976,0.009278207136576231
13.98,0.009279240879922017
13.984,0.009277750366260652
13.988,0.009277509960831399
13.992,0.009281981501815497
13.996,0.00927815905549038
14.0,0.009274432771336964
14.004,0.009278471582548409
14.008000000000001,0.009281067961184337
14.012,0.009277678244631875
14.016,0.009271067095327427
14.02,0.00927299033876145
14.024000000000001,0.00927491358219547
14.028,0.009278832190692287
14.032,0.009281837258557945
14.036,0.009282438272131077
14.040000000000001,0.009281668974757469
14.044,0.009267124446287684
14.048,0.009264239581136653
14.052,0.009276716622914865
14.056000000000001,0.009280226542181953
14.06,0.009282101704530123
14.064,0.009286092434655717
14.068,0.009275442474139825
14.072000000000001,0.009269696784380688
14.076,0.009270081433067491
14.08,0.009271932554872736
14.084,0.009273206703647776
14.088000000000001,0.00927299033876145
14.092,0.00927450489296574
14.096,0.009276548339114388
14.1,0.009280779474669234
14.104000000000001,0.009283447974933938
14.108,0.009284313434479248
14.112,0.009280875636840935
14.116,0.00928171705584332
14.120000000000001,0.009285443339996735
14.124,0.00928496252913823
14.128,0.009284073029049995
14.132,0.009287078096915653
14.136000000000001,0.009288833056549197
14.14,0.009289241745778927
14.144,0.009285996272484016
14.148,0.00928126028552774
14.152000000000001,0.009280322704353654
14.156,0.00927815905549038
14.16,0.00927952936643712
14.164,0.009279096636664465
14.168000000000001,0.009277389758116771
14.172,0.009278423501462558
14.176,0.009282005542358423
14.18,0.00928176513692917
14.184000000000001,0.009283063326247135
14.188,0.009284722123708978
14.192,0.009282558474845704
14.196,0.00927719743377337
14.200000000000001,0.009272197000844916
14.204,0.009274072163193085
14.208,0.009276620460743163
14.212,0.009278231177119156
14.216000000000001,0.009278183096033305
14.22,0.009276091568798807
14.224,0.009265321405568289
14.228,0.009267124446287684
14.232000000000001,0.009274552974051591
14.236,0.00927851966363426
14.24,0.009279793812409298
14.244,0.009275009744367171
14.248000000000001,0.00927262973061757
14.252,0.00927734167703092
14.256,0.009282342109959376
14.26,0.009279817852952224
14.264000000000001,0.00927349519016288
14.268,0.009268975568092929
14.272,0.009272485487360017
14.276,0.00927395196047846
14.280000000000001,0.009275803082283705
14.284,0.009277077231058743
14.288,0.009276404095856837
14.292,0.009275105906538872
14.296000000000001,0.009277029149972893
14.3,0.00927710127160167
14.304,0.009278231177119156
14.308,0.0092776061230031
14.312000000000001,0.009275971366084181
14.316,0.009279841893495148
14.32,0.0092868376914864
14.324,0.009285443339996735
14.328000000000001,0.009274601055137442
14.332,0.00926344624322012
14.336,0.009252555877274976
14.34,0.009255993674913287
14.344,0.009269744865466539
14.348,0.009275394393053976
14.352,0.009278447542005483
14.356,0.009275274190339348
14.36,0.009272461446817093
14.364,0.009277534001374323
14.368,0.009277461879745548
14.372,0.00927724551485922
14.376,0.009277005109429968
14.38,0.009273519230705804
14.384,0.009275202068710573
14.388,0.009277125312144594
14.392,0.009275995406627107
14.396,0.009279192798836166
14.4,0.009283760501991967
14.404,0.00928404898850707
14.408,0.009282390191045226
14.412,0.009281284326070664
14.416,0.00928126028552774
14.42,0.009280875636840935
14.424,0.009278784109606437
14.428,0.009277437839202622
14.432,0.00927719743377337
14.436,0.009283111407332985
14.44,0.00928267867756033
14.444,0.009274577014594516
14.448,0.009258686215720917
14.452,0.009257003377716148
14.456,0.00926938425732266
14.46,0.00927957744752297
14.464,0.0092845538399085
14.468,0.009283063326247135
14.472,0.00927815905549038
14.476,0.009281524731499917
14.48,0.009280394825982429
14.484,0.009278279258205006
14.488,0.009282510393759854
14.492,0.00928080351521216
14.496,0.009278399460919634
14.5,0.009280683312497533
14.504,0.009286116475198643
14.508000000000001,0.00928633284008497
14.512,0.009278231177119156
14.516,0.009276091568798807
14.52,0.00928049098815413
14.524000000000001,0.00928263059647448
14.528,0.00928729446180198
14.532,0.009295396124767794
14.536,0.009287967597003888
14.540000000000001,0.009277678244631875
14.544,0.009271499825100083
14.548,0.009275538636311526
14.552,0.009276908947258267
14.556000000000001,0.00927267781170342
14.56,0.009261931689015828
14.564,0.009255008012653351
14.568,0.00926673979760088
14.572000000000001,0.009279889974580999
14.576,0.009282245947787674
14.58,0.009280851596298009
14.584,0.009277870568975277
14.588000000000001,0.009280106339467327
14.592,0.009279601488065897
14.596,0.009275779041740779
14.6,0.009276740663457789
14.604000000000001,0.009277726325717725
14.608,0.009279000474492765
14.612,0.009281596853128692
14.616,0.009282005542358423
14.620000000000001,0.009283303731676386
14.624,0.009280563109782907
14.628,0.009278928352863989
14.632,0.009282438272131077
14.636000000000001,0.009281837258557945
14.64,0.00928130836661359
14.644,0.009278952393406915
14.648,0.009276452176942687
14.652000000000001,0.009275346311968125
14.656,0.009277870568975277
14.66,0.009278279258205006
14.664,0.009276524298571462
14.668000000000001,0.009276668541829014
14.672,0.009267292730088162
14.676,0.009260320972639836
14.68,0.00926979294655239
14.684000000000001,0.00927719743377337
14.688,0.00928049098815413
14.692,0.009282197866701824
14.696,0.009276957028344118
14.700000000000001,0.009280971799012636
14.704,0.009283568177648565
14.708,0.009279962096209775
14.712,0.009280466947611206
14.716000000000001,0.009280683312497533
14.72,0.009281789177472095
14.724,0.00928313544787591
14.728,0.009283952826335368
14.732000000000001,0.009287078096915653
14.736,0.009290059124238385
14.74,0.009285226975110408
14.744,0.009287005975286877
14.748000000000001,0.009287174259087354
14.752,0.009282318069416451
14.756,0.009279385123179568
14.76,0.009277726325717725
14.764000000000001,0.009273735595592131
14.768,0.00927957744752297
14.772,0.00928368838036319
14.776,0.009282077663987198
14.780000000000001,0.009283952826335368
14.784,0.009271355581842531
14.788,0.00925861409409214
14.792,0.009267821622032517
14.796000000000001,0.009275274190339348
14.8,0.009278952393406915
14.804,0.009283447974933938
14.808,0.009282318069416451
14.812000000000001,0.009285323137282109
14.816,0.009284289393936322
14.82,0.009279288961007867
14.824,0.00927851966363426
14.828000000000001,0.009275322271425199
14.832,0.009277005109429968
14.836,0.009280851596298009
14.84,0.009282991204618358
14.844000000000001,0.009283568177648565
14.848,0.009282534434302778
14.852,0.009279313001550793
14.856,0.009281236244984814
14.86,0.009280731393583383
14.864,0.009278663906891811
14.868,0.009281957461272573
14.872,0.009279000474492765
14.876,0.009275202068710573
14.88,0.009278808150149363
14.884,0.009284289393936322
14.888,0.009284481718279725
14.892,0.009279553406980046
14.896,0.009267917784204218
14.9,0.009259479553637451
14.904,0.009268206270719321
14.908,0.009275514595768601
14.912,0.009276019447170032
14.916,0.009276139649884657
14.92,0.009272701852246346
14.924,0.00927755804191725
14.928,0.00928263059647448
14.932,0.009280611190868758
14.936,0.009279865934038074
14.94,0.009278856231235214
14.944,0.009281140082813112
14.948,0.009290467813468114
14.952,0.009293328638076222
14.956,0.009286597286057147
14.96,0.00928510677239578
14.964,0.009284746164251902
14.968,0.0092707545682694
14.972,0.009273735595592131
14.976,0.00927948128535127
14.98,0.009278423501462558
14.984,0.009283039285704208
14.988,0.009286813650943476
14.992,0.009286861732029325
14.996,0.009282702718103254
15.0,0.009283784542534892
15.004,0.009285034650767006
15.008000000000001,0.009276692582371938
15.012,0.009262725026932362
15.016,0.009271163257499129
15.02,0.009279264920464943
15.024000000000001,0.00928359221819149
15.028,0.009283015245161284
15.032,0.009281284326070664
15.036,0.009283472015476864
15.040000000000001,0.009285202934567482
15.044,0.00928856861057702
15.048,0.009289458110665253
15.052,0.009286765569857625
15.056000000000001,0.009284193231764621
15.06,0.009285683745425988
15.064,0.009288472448405319
15.068,0.0092982569493759
15.072000000000001,0.009304964260852049
15.076,0.009289385989036478
15.08,0.009270994973698652
15.084,0.009275057825453022
15.088000000000001,0.0092822699883306
15.092,0.009282846961360806
15.096,0.009275394393053976
15.1,0.009273783676677982
15.104000000000001,0.00927755804191725
15.108,0.00927902451503569
15.112,0.009279144717750315
15.116,0.009281837258557945
15.120000000000001,0.00927993805566685
15.124,0.009279505325894196
15.128,0.009282582515388629
15.132,0.009284794245337753
15.136000000000001,0.00928496252913823
15.14,0.009281861299100871
15.144,0.009264672310909307
15.148,0.009262965432361613
15.152000000000001,0.009274264487536488
15.156,0.009283472015476864
15.16,0.009292583381245539
15.164,0.009289698516094506
15.168000000000001,0.009279673609694672
15.172,0.009281043920641411
15.176,0.00928409706959292
15.18,0.009284313434479248
15.184000000000001,0.0092822699883306
15.188,0.00928003421783855
15.192,0.009283928785792444
15.196,0.009285515461625512
15.200000000000001,0.009284577880451426
15.204,0.009286164556284494
15.208,0.009289434070122329
15.212,0.009285443339996735
15.216000000000001,0.009282390191045226
15.22,0.00928537121836796
15.224,0.009290227408038863
15.228,0.009285154853481631
15.232000000000001,0.009274625095680366
15.236,0.009274336609165263
15.24,0.009279553406980046
15.244,0.009280466947611206
15.248000000000001,0.009278303298747933
15.252,0.009279385123179568
15.256,0.009265657973169243
15.26,0.009262749067475286
15.264000000000001,0.009272605690074645
15.268,0.00927806289331868
15.272,0.009280010177295626
15.276,0.009277942690604052
15.280000000000001,0.009280683312497533
15.284,0.009283568177648565
15.288,0.009282798880274955
15.292,0.009286212637370344
15.296000000000001,0.009285034650767006
15.3,0.009284073029049995
15.304,0.009279865934038074
15.308,0.009281116042270188
15.312000000000001,0.009281837258557945
15.316,0.009282486353216927
15.32,0.00927948128535127
15.324,0.009279962096209775
15.328000000000001,0.009284842326423603
15.332,0.009286356880627894
15.336,0.009285178894024557
15.34,0.009283496056019788
15.344000000000001,0.009280635231411682
15.348,0.009275779041740779
15.352,0.009281668974757469
15.356,0.009284722123708978
15.36,0.009286092434655717
15.364,0.00928729446180198
15.368,0.009271595987271784
15.372,0.009257339945317102
15.376,0.00926952850058021
15.38,0.009277389758116771
15.384,0.009278351379833783
15.388,0.009281524731499917
15.392,0.009279433204265419
15.396,0.009277389758116771
15.4,0.009278038852775753
15.404,0.009278375420376708
15.408,0.009280346744896579
15.412,0.009278183096033305
15.416,0.00927952936643712
15.42,0.009286573245514223
15.424,0.009288929218720899
15.428,0.009288881137635048
15.432,0.009286693448228849
15.436,0.009287606988860008
15.44,0.009291741962243154
15.444,0.009286236677913269
15.448,0.009283447974933938
15.452,0.009281116042270188
15.456,0.009283784542534892
15.46,0.009284842326423603
15.464,0.009283976866878294
15.468,0.009279914015123925
15.472,0.009281284326070664
15.476,0.009285443339996735
15.48,0.009279361082636644
15.484,0.009275658839026153
15.488,0.00927806289331868
15.492,0.00928080351521216
15.496,0.009279313001550793
15.5,0.009273350946905328
15.504,0.009261667243043649
15.508000000000001,0.009263326040505494
15.512,0.009270321838496744
15.516,0.009275586717397376
15.52,0.009280394825982429
15.524000000000001,0.009278351379833783
15.528,0.009277413798659697
15.532,0.009279817852952224
15.536,0.009283255650590535
15.540000000000001,0.00928897729980675
15.544,0.009292246813644585
15.548,0.009284433637193874
15.552,0.009278303298747933
15.556000000000001,0.009282245947787674
15.56,0.009286885772572251
15.564,0.00928948215120818
15.568,0.00927952936643712
15.572000000000001,0.009274288528079412
15.576,0.009277966731146978
15.58,0.009281644934214543
15.584,0.009283447974933938
15.588000000000001,0.009282534434302778
15.592,0.00927638005531391
15.596,0.009276067528255882
15.6,0.009277437839202622
15.604000000000001,0.009282702718103254
15.608,0.009285515461625512
15.612,0.009282077663987198
15.616,0.009266835959772582
15.620000000000001,0.009266667675972104
15.624,0.009275947325541257
15.628,0.00928099583955556
15.632,0.009281885339643796
15.636000000000001,0.009277461879745548
15.64,0.009279288961007867
15.644,0.009285635664340137
15.648,0.009290684178354443
15.652000000000001,0.009291477516270977
15.656,0.009282871001903732
15.66,0.009273831757763832
15.664,0.009279769771866373
15.668000000000001,0.00928460192099435
15.672,0.009280875636840935
15.676,0.009279793812409298
15.68,0.00928171705584332
15.684000000000001,0.0092846500020802
15.688,0.00928537121836796
15.692,0.009279841893495148
15.696,0.009280202501639028
15.700000000000001,0.009280515028697056
15.704,0.009279120677207391
15.708,0.009280875636840935
15.712,0.009283159488418836
15.716000000000001,0.009276932987801191
15.72,0.009276259852599285
15.724,0.009281789177472095
15.728,0.009271331541299605
15.732000000000001,0.009264215540593727
15.736,0.009272245081930766
15.74,0.009280683312497533
15.744,0.009283904745249517
15.748000000000001,0.009286549204971297
15.752,0.009289337907950628
15.756,0.009290371651296415
15.76,0.009281043920641411
15.764000000000001,0.00927714935268752
15.768,0.00927902451503569
15.772,0.009276932987801191
15.776,0.009274072163193085
15.780000000000001,0.009273903879392609
15.784,0.009276139649884657
15.788,0.009282005542358423
15.792,0.00928409706959292
15.796000000000001,0.009277726325717725
15.8,0.009275033784910095
15.804,0.009282798880274955
15.808,0.009290684178354443
15.812000000000001,0.009287030015829803
15.816,0.009275586717397376
15.82,0.00927811097440453
15.824,0.009286501123885446
15.828000000000001,0.00929049185401104
15.832,0.009293376719162073
15.836,0.009293713286763025
15.84,0.009284457677736798
15.844000000000001,0.00928852052949117
15.848,0.009296357746484804
15.852,0.009296646232999908
15.856,0.009285443339996735
15.860000000000001,0.009272509527902944
15.864,0.00926029693209691
15.868,0.00926815818963347
15.872,0.009279841893495148
15.876,0.009282197866701824
15.88,0.009280082298924401
15.884,0.009267485054431564
15.888,0.009268927487007078
15.892,0.009278711987977662
15.896,0.009282438272131077
15.9,0.009282895042446657
15.904,0.009277798447346502
15.908,0.009278760069063512
15.912,0.009286573245514223
15.916,0.009290828421611995
15.92,0.009285299096739183
15.924,0.009285275056196259
15.928,0.009283472015476864
15.932,0.009285996272484016
15.936,0.009285082731852856
15.94,0.009284217272307547
15.944,0.009284986569681155
15.948,0.009280875636840935
15.952,0.009272485487360017
15.956,0.009273423068534103
15.96,0.009274745298394994
15.964,0.009274673176766217
15.968,0.009280923717926786
15.972,0.009278086933861604
15.976,0.009258830458978469
15.98,0.00926298947290454
15.984,0.009274384690251113
15.988,0.009280370785439505
15.992,0.009281693015300393
15.996,0.009278784109606437
16.0,0.009277389758116771
16.004,0.009283207569504686
16.008,0.009283856664163667
16.012,0.009281332407156515
16.016000000000002,0.009278183096033305
16.02,0.009277750366260652
16.024,0.009289169624150152
16.028,0.009295732692368748
16.032,0.009285611623797213
16.036,0.009266090702941899
16.04,0.009268326473433947
16.044,0.009273711555049207
16.048000000000002,0.009270826689898174
16.052,0.009270466081754296
16.056,0.009275442474139825
16.06,0.009277317636487996
16.064,0.009272341244102467
16.068,0.00927440873079404
16.072,0.00927907259612154
16.076,0.009279240879922017
16.080000000000002,0.009277870568975277
16.084,0.009277750366260652
16.088,0.00927546651468275
16.092,0.009283063326247135
16.096,0.009286236677913269
16.1,0.00928876093492042
16.104,0.009288135880804365
16.108,0.009290107205324236
16.112000000000002,0.009285635664340137
16.116,0.009286501123885446
16.12,0.009281981501815497
16.124,0.009276211771513434
16.128,0.0092732307441907
16.132,0.009264359783851279
16.136,0.009258037121061935
16.14,0.00926861495994905
16.144000000000002,0.009282438272131077
16.148,0.009283472015476864
16.152,0.009272870136046822
16.156,0.009271884473786886
16.16,0.009276139649884657
16.164,0.009276572379657313
16.168,0.00927902451503569
16.172,0.009281043920641411
16.176000000000002,0.009279361082636644
16.18,0.00927719743377337
16.184,0.00927811097440453
16.188,0.009278952393406915
16.192,0.009278038852775753
16.196,0.009275081865995946
16.2,0.009277774406803576
16.204,0.009289145583607225
16.208000000000002,0.009286861732029325
16.212,0.009275298230882275
16.216,0.009278663906891811
16.22,0.009275298230882275
16.224,0.00926084986458419
16.228,0.009265754135340944
16.232,0.00927176427107226
16.236,0.00927683682562949
16.240000000000002,0.009279385123179568
16.244,0.009276115609341733
16.248,0.009280154420553178
16.252,0.00928440959665095
16.256,0.00928368838036319
16.26,0.009285972231941091
16.264,0.009287919515918038
16.268,0.009286140515741568
16.272000000000002,0.00928368838036319
16.276,0.009276139649884657
16.28,0.009277077231058743
16.284,0.009280707353040459
16.288,0.009282318069416451
16.292,0.009281404528785292
16.296,0.009287174259087354
16.3,0.009291164989212947
16.304000000000002,0.009290299529667638
16.308,0.009287486786145382
16.312,0.0092776061230031
16.316,0.009279553406980046
16.32,0.009284361515565099
16.324,0.009275755001197854
16.328,0.0092754184335969
16.332,0.009272942257675599
16.336000000000002,0.009259022783321871
16.34,0.009269143851893407
16.344,0.009285082731852856
16.348,0.009287823353746337
16.352,0.009286885772572251
16.356,0.009286597286057147
16.36,0.00928825608351899
16.364,0.009287919515918038
16.368000000000002,0.009292102570387033
16.372,0.009294242178707382
16.376,0.009287005975286877
16.38,0.009283520096562714
16.384,0.009289169624150152
16.388,0.009284433637193874
16.392,0.0092821738261589
16.396,0.009282702718103254
16.4,0.00928368838036319
16.404,0.009284794245337753
16.408,0.009290972664869546
16.412,0.009293905611106427
16.416,0.00929263146233139
16.42,0.009289145583607225
16.424,0.009285563542711362
16.428,0.009287005975286877
16.432,0.009288448407862393
16.436,0.009291501556813901
16.44,0.00929724724657304
16.444,0.009293569043505473
16.448,0.009275538636311526
16.452,0.00926806202746177
16.456,0.009279168758293242
16.46,0.009285683745425988
16.464,0.009287847394289261
16.468,0.009292102570387033
16.472,0.009279745731323447
16.476,0.009269095770807556
16.48,0.009277221474316295
16.484,0.009279433204265419
16.488,0.009277509960831399
16.492,0.009279361082636644
16.496,0.009283808583077818
16.5,0.009285467380539661
16.504,0.009287462745602456
16.508,0.009287486786145382
16.512,0.009285275056196259
16.516000000000002,0.009297054922229637
16.52,0.009301021611812305
16.524,0.009289722556637433
16.528,0.009278543704177184
16.532,0.00926669171651503
16.536,0.009277702285174801
16.54,0.009279120677207391
16.544,0.009282077663987198
16.548000000000002,0.009289337907950628
16.552,0.009295973097798
16.556,0.00929510763825269
16.56,0.00929267954341724
16.564,0.009296934719515012
16.568,0.00929582885454045
16.572,0.009295660570739972
16.576,0.009296429868113581
16.580000000000002,0.00929090054324077
16.584,0.009279962096209775
16.588,0.009285996272484016
16.592,0.0092960692599697
16.596,0.009306430733970491
16.6,0.009306719220485595
16.604,0.009298785841320257
16.608,0.009297391489830591
16.612000000000002,0.009303666071534085
16.616,0.009308281855775737
16.62,0.00931710473502931
16.624,0.00931171965341405
16.628,0.00929039569183934
16.632,0.009289313867407702
16.636,0.00930013211172407
16.64,0.00931075803169704
16.644000000000002,0.009296910678972085
16.648,0.009295179759881467
16.652,0.00930568547713981
16.656,0.009309676207265402
16.66,0.009306286490712941
16.664,0.009302440003844897
16.668,0.00930568547713981
16.672,0.009309147315321047
16.676000000000002,0.009308954990977645
16.68,0.009310084896495131
16.684,0.009309051153149346
16.688,0.00932720176305792
16.692,0.009335207263852032
16.696,0.00930378627424871
16.7,0.00930659901777097
