0.0,0.004778827203769748
0.004,0.004776351027848446
0.008,0.0047750047574446315
0.012,0.004775990419704567
0.016,0.004777961744224439
0.02,0.004780437920145741
0.024,0.004782841974438267
0.028,0.0047818082310924805
0.032,0.00478267369063779
0.036000000000000004,0.004781231258062274
0.04,0.00478079852828962
0.044,0.00477815406856784
0.048,0.004781135095890573
0.052000000000000005,0.004783803596155278
0.056,0.004783250663667997
0.06,0.004784212285385007
0.064,0.0047833227852967725
0.068,0.004784524812443036
0.07200000000000001,0.004785967245018551
0.076,0.00478541431253127
0.08,0.004785366231445419
0.084,0.004786424015334132
0.088,0.004787073109993113
0.092,0.004786856745106786
0.096,0.0047868086640209355
0.1,0.004786544218048757
0.10400000000000001,0.004787169272164814
0.108,0.004789308880485163
0.112,0.004789140596684686
0.116,0.004785895123389775
0.12,0.004788347258768152
0.124,0.004787505839765768
0.128,0.004788659785826181
0.132,0.004791977380749867
0.136,0.004792794759209326
0.14,0.004796040232504237
0.14400000000000002,0.0047995741923142505
0.148,0.00479906934091282
0.152,0.00479587194870376
0.156,0.004794141029613141
0.16,0.004792890921381027
0.164,0.0047934678944112335
0.168,0.004792698597037625
0.17200000000000001,0.004793107286267354
0.176,0.004794116989070216
0.18,0.004796232556847638
0.184,0.004796184475761788
0.188,0.004792890921381027
0.192,0.004794453556671169
0.196,0.00479221778617912
0.2,0.00479176101586354
0.20400000000000001,0.004790823434689454
0.20800000000000002,0.004790486867088501
0.212,0.0047926745564946995
0.216,0.004793419813325383
0.22,0.004794116989070216
0.224,0.0047940208268985145
0.228,0.004792578394322998
0.232,0.0047945737593857955
0.23600000000000002,0.004796665286620294
0.24,0.0047969537731353965
0.244,0.004796304678476414
0.248,0.0047971941785646495
0.252,0.004801208949233168
0.256,0.00480231481420773
0.26,0.0048001271248015315
0.264,0.004799285705799147
0.268,0.0048009925843468405
0.272,0.004800199246430307
0.276,0.004802531179094058
0.28,0.004801112787061467
0.28400000000000003,0.004801281070861944
0.28800000000000003,0.004802939868323787
0.292,0.004802651381808684
0.296,0.004802002287149702
0.3,0.004802747543980385
0.304,0.004805536246959716
0.308,0.0048065459497625765
0.312,0.004805295841530463
0.316,0.004803108152124264
0.32,0.004802218652036029
0.324,0.004804574625242705
0.328,0.004806690193020128
0.332,0.0048078922201663914
0.336,0.0048072671660503346
0.34,0.004806209382161623
0.34400000000000003,0.004808493233739523
0.34800000000000003,0.0048089259635121775
0.352,0.0048065459497625765
0.356,0.004806161301075773
0.36,0.004808781720254626
0.364,0.0048109453691179
0.368,0.004810392436630619
0.372,0.004810007787943814
0.376,0.0048082047472244194
0.38,0.004813830234268931
0.384,0.004812003153006611
0.388,0.00481277245038022
0.392,0.004811690625948583
0.396,0.004810608801516946
0.4,0.004813012855809472
0.404,0.004812003153006611
0.40800000000000003,0.004812940734180696
0.41200000000000003,0.004812051234092462
0.41600000000000004,0.004810344355544768
0.42,0.004811714666491508
0.424,0.004812580126036818
0.428,0.004810127990658441
0.432,0.004812171436807088
0.436,0.004814623572185465
0.44,0.0048139263964406325
0.444,0.004811738707034433
0.448,0.0048126522476655935
0.452,0.004813782153183081
0.456,0.004811738707034433
0.46,0.0048120993151783125
0.464,0.00481601792367513
0.468,0.004813493666667978
0.47200000000000003,0.004813397504496277
0.47600000000000003,0.0048128926530948465
0.48,0.004813710031554305
0.484,0.004815416910101998
0.488,0.004815849639874654
0.492,0.004814671653271316
0.496,0.004818782586111536
0.5,0.00481967208619977
0.504,0.004816667018334112
0.508,0.004815633274988326
0.512,0.004815609234445401
0.516,0.004814455288384988
0.52,0.004815993883132205
0.524,0.004818181572538404
0.528,0.004816835302134589
0.532,0.004816739139962888
0.536,0.00481734015353602
0.54,0.004819912491629023
0.544,0.004821403005290389
0.548,0.004822941600037606
0.552,0.004820681789002632
0.556,0.00481871046448276
0.56,0.004821475126919165
0.5640000000000001,0.004819984613257799
0.5680000000000001,0.004819792288914397
0.5720000000000001,0.004820801991717257
0.5760000000000001,0.004820801991717257
0.58,0.004822701194608353
0.584,0.004823951302840467
0.588,0.004824912924557478
0.592,0.004823061802752233
0.596,0.0048224848297220265
0.6,0.004822148262121072
0.604,0.004820513505202155
0.608,0.0048220040188635205
0.612,0.004824215748812645
0.616,0.0048244561542418974
0.62,0.004825754343559862
0.624,0.004825393735415983
0.628,0.00482469655967115
0.632,0.0048240715055550935
0.636,0.004826715965276873
0.64,0.004828014154594836
0.644,0.004827773749165584
0.648,0.004828014154594836
0.652,0.004828230519481164
0.656,0.004826956370706125
0.66,0.004825994748989115
0.664,0.004825249492158431
0.668,0.004825465857044759
0.672,0.004828687289796744
0.676,0.00482743718156463
0.68,0.00482743718156463
0.684,0.00482875941142552
0.6880000000000001,0.004829336384455726
0.6920000000000001,0.004827365059935854
0.6960000000000001,0.004826331316590068
0.7000000000000001,0.004827629505908032
0.704,0.004829817195314231
0.708,0.0048301778034581105
0.712,0.004830874979202943
0.716,0.004829168100655249
0.72,0.004829913357485932
0.724,0.004831980844177505
0.728,0.0048307307359453915
0.732,0.004833471357838871
0.736,0.004833351155124245
0.74,0.004831644276576551
0.744,0.004832245290149683
0.748,0.004833543479467647
0.752,0.0048305624521449144
0.756,0.00483109134408927
0.76,0.004834000249783227
0.764,0.004835466722901668
0.768,0.004834985912043163
0.772,0.004833928128154452
0.776,0.004835707128330921
0.78,0.00483561096615922
0.784,0.00483474550661391
0.788,0.004835851371588472
0.792,0.0048340483308690774
0.796,0.004833928128154452
0.8,0.0048366687500479314
0.804,0.0048369812771059595
0.808,0.004838015020451746
0.812,0.004839986344971617
0.8160000000000001,0.004839096844883383
0.8200000000000001,0.004839986344971617
0.8240000000000001,0.004839986344971617
0.8280000000000001,0.004840346953115497
0.8320000000000001,0.004840539277458899
0.836,0.004842149993834892
0.84,0.004844578088670343
0.844,0.004841957669491489
0.848,0.004841308574832507
0.852,0.004841332615375432
0.856,0.004841885547862713
0.86,0.004841837466776863
0.864,0.0048429192912085
0.868,0.004841741304605162
0.872,0.0048414287775471335
0.876,0.004841140291032031
0.88,0.004842198074920742
0.884,0.00484287121012265
0.888,0.004842799088493874
0.892,0.00484474637247082
0.896,0.004841765345148087
0.9,0.004841789385691012
0.904,0.004843784750753809
0.908,0.004844433845412791
0.912,0.004847559115993076
0.916,0.004847751440336478
0.92,0.004848160129566207
0.924,0.004849169832369068
0.928,0.004849891048656827
0.932,0.0048486409404247125
0.936,0.0048484005349954595
0.9400000000000001,0.004847559115993076
0.9440000000000001,0.004845756075273681
0.9480000000000001,0.004845563750930279
0.9520000000000001,0.004845563750930279
0.9560000000000001,0.004846477291561439
0.96,0.004848929426939816
0.964,0.0048511171163460156
0.968,0.004853449049009766
0.972,0.00485606946818862
0.976,0.004857487860221211
0.98,0.004858954333339651
0.984,0.004856886846648079
0.988,0.004856694522304677
0.992,0.004854266427469225
0.996,0.004854458751812628
1.0,0.004852174900234727
1.004,0.004848929426939816
1.008,0.004849121751283218
1.012,0.0048508767109167635
1.016,0.00485287207597956
1.02,0.004849770845942201
1.024,0.004849001548568591
1.028,0.004850011251371454
1.032,0.0048474869943643
1.036,0.004847318710563823
1.04,0.004848520737710086
1.044,0.004849145791826143
1.048,0.004849121751283218
1.052,0.004849746805399275
1.056,0.004850516102772884
1.06,0.004852367224578129
1.064,0.004851718129919147
1.068,0.004851646008290371
1.072,0.004852319143492279
1.076,0.0048519585353484
1.08,0.0048524633867498305
1.084,0.004852607630007382
1.088,0.004855732900587666
1.092,0.0048542423869263
1.096,0.004851886413719624
1.1,0.004853136521951738
1.104,0.004854218346383375
1.108,0.004855516535701339
1.112,0.0048535692517243925
1.116,0.004852727832722008
1.12,0.004853112481408813
1.124,0.0048533288462951395
1.1280000000000001,0.004853857738239496
1.1320000000000001,0.004853497130095617
1.1360000000000001,0.004854194305840449
1.1400000000000001,0.004858112914337267
1.1440000000000001,0.004854578954527253
1.1480000000000001,0.004854723197784805
1.1520000000000001,0.004857944630536791
1.156,0.004861190103831701
1.16,0.004863786482467629
1.164,0.0048622959688062635
1.168,0.004861598793061431
1.172,0.004862103644462861
1.176,0.004863449914866676
1.18,0.004863570117581302
1.184,0.004861430509260954
1.188,0.004863497995952527
1.192,0.004864315374411985
1.196,0.004865709725901651
1.2,0.004865060631242668
1.204,0.004865493361015323
1.208,0.004866070334045529
1.212,0.004863041225636946
1.216,0.004863041225636946
1.22,0.004864892347442191
1.224,0.0048633777932379
1.228,0.004860853536230747
1.232,0.004862824860750619
1.236,0.004862247887720413
1.24,0.004862896982379395
1.244,0.0048644355771266115
1.248,0.004863281631066199
1.252,0.004862824860750619
1.256,0.004861430509260954
1.26,0.004860589090258569
1.264,0.004862704658035993
1.268,0.004863305671609124
1.272,0.004863449914866676
1.276,0.004865613563729949
1.28,0.0048652289150431455
1.284,0.004864868306899266
1.288,0.004865397198843622
1.292,0.004866262658388932
1.296,0.004864772144727565
1.3,0.004866527104361109
1.304,0.004869460050597992
1.308,0.004866358820560633
1.312,0.004865709725901651
1.316,0.004866911753047914
1.32,0.004869652374941393
1.324,0.004869844699284796
1.328,0.004867248320648867
1.332,0.004866911753047914
1.336,0.004868762874853159
1.34,0.004866767509790362
1.344,0.004867560847706896
1.348,0.004870469753400853
1.352,0.004867657009878597
1.356,0.0048679454963937
1.36,0.004870205307428674
1.364,0.004869532172226767
1.368,0.004871503496746639
1.372,0.004868498428880981
1.3760000000000001,0.00486885903702486
1.3800000000000001,0.004868089739651252
1.3840000000000001,0.004868354185623429
1.3880000000000001,0.004869363888426291
1.3920000000000001,0.004869436010055067
1.3960000000000001,0.004868089739651252
1.4000000000000001,0.00486881095593901
1.4040000000000001,0.004869195604625814
1.408,0.0048699889425423476
1.412,0.004868907118110711
1.416,0.004869844699284796
1.42,0.0048710948075169095
1.424,0.004872392996834874
1.428,0.004872320875206098
1.432,0.004870830361544731
1.436,0.0048725131995495
1.44,0.004872729564435827
1.444,0.0048714794562037134
1.448,0.004874244118640119
1.452,0.004875037456556652
1.456,0.004876287564788766
1.46,0.004875470186329308
1.464,0.00487525382144298
1.468,0.004876527970218019
1.472,0.004879340713740275
1.476,0.004879533038083677
1.48,0.004880085970570958
1.484,0.00487804252442231
1.488,0.0048794128353690505
1.492,0.004880013848942182
1.496,0.00487845121365204
1.5,0.004878643537995442
1.504,0.004878331010937414
1.508,0.004880061930028033
1.512,0.0048793647542832
1.516,0.004876407767503393
1.52,0.004876503929675094
1.524,0.004878763740710068
1.528,0.004879292632654424
1.532,0.0048802061732855844
1.536,0.0048802061732855844
1.54,0.004882441943777634
1.544,0.004881504362603549
1.548,0.004880350416543135
1.552,0.004880855267944567
1.556,0.0048775136324779545
1.56,0.004878258889308638
1.564,0.004879773443512929
1.568,0.0048793647542832
1.572,0.004880494659800687
1.576,0.004879316673197349
1.58,0.004880542740886538
1.584,0.00487982152459878
1.588,0.004882249619434231
1.592,0.00488438922775458
1.596,0.004885062362956488
1.6,0.004884533471012132
1.604,0.004882994876264915
1.608,0.0048836199303809716
1.612,0.004883740133095598
1.616,0.0048816486058611
1.62,0.004882802551921512
1.624,0.004886120146845199
1.6280000000000001,0.004886048025216423
1.6320000000000001,0.004887081768562209
1.6360000000000001,0.004887250052362686
1.6400000000000001,0.004887514498334865
1.6440000000000001,0.004888115511907996
1.6480000000000001,0.00488941370122596
1.6520000000000001,0.004887562579420714
1.6560000000000001,0.004887947228107519
1.6600000000000001,0.004887490457791939
1.6640000000000001,0.0048873462145343875
1.668,0.004885471052186217
1.672,0.00488571145761547
1.676,0.004884821957527235
1.68,0.004885591254900843
1.684,0.004885062362956488
1.688,0.0048841728628682525
1.692,0.004882754470835662
1.696,0.004881864970747427
1.7,0.004885014281870637
1.704,0.004884773876441384
1.708,0.004885422971100366
1.712,0.004886697119875405
1.716,0.0048868654036758824
1.72,0.004885495092729142
1.724,0.004886985606390508
1.728,0.004887201971276836
1.732,0.004885927822501797
1.736,0.0048867932820471065
1.74,0.004885134484585264
1.744,0.004886264390102751
1.748,0.0048871058091051345
1.752,0.004887778944307042
1.756,0.0048890050119962305
1.76,0.004887802984849967
1.764,0.004887562579420714
1.768,0.004886096106302274
1.772,0.004886600957703704
1.776,0.004887370255077313
1.78,0.004886937525304658
1.784,0.004887298133448537
1.788,0.004888379957880174
1.792,0.004888620363309427
1.796,0.004887298133448537
1.8,0.004885471052186217
1.804,0.004888187633536771
1.808,0.004887754903764117
1.812,0.004888187633536771
1.816,0.004890062795884942
1.82,0.004893789080038358
1.824,0.004896746066818165
1.828,0.004898693350795112
1.832,0.004898717391338037
1.836,0.004892947661035974
1.84,0.004889029052539156
1.844,0.004890207039142494
1.848,0.004892202404205291
1.852,0.0048905916878292975
1.856,0.0048913850257458315
1.86,0.0048937650394954325
1.864,0.0048940054449246855
1.868,0.00489124078248828
1.872,0.004892034120404814
1.8760000000000001,0.00488987047154154
1.8800000000000001,0.004888860768738679
1.8840000000000001,0.004891913917690187
1.8880000000000001,0.004893428471894479
1.8920000000000001,0.004893428471894479
1.8960000000000001,0.004890375322942971
1.9000000000000001,0.0048901108769707925
1.9040000000000001,0.004891745633889711
1.9080000000000001,0.004889221376882558
1.9120000000000001,0.0048907840121727
1.9160000000000001,0.00489443817469734
1.92,0.004894606458497817
1.924,0.004895471918043126
1.928,0.004892514931263319
1.932,0.004890687850000999
1.936,0.004892298566376992
1.94,0.004894678580126593
1.944,0.0048932121070081516
1.948,0.0048932121070081516
1.952,0.004896986472247418
1.956,0.004898308702108308
1.96,0.004895447877500201
1.964,0.004894991107184621
1.968,0.004895135350442173
1.972,0.0048953517153285005
1.976,0.004896890310075717
1.98,0.004897563445277624
1.984,0.004897539404734699
1.988,0.004897779810163951
1.992,0.004896962431704493
1.996,0.004896866269532792
2.0,0.004898164458850756
2.004,0.004897563445277624
2.008,0.004898356783194158
2.012,0.004899606891426273
2.016,0.0049002800266281805
2.02,0.004897659607449326
2.024,0.004895135350442173
2.028,0.0048958325261870056
2.032,0.00489539979641435
2.036,0.004896313337045511
2.04,0.004895159390985098
2.044,0.004894726661212444
2.048,0.004895880607272856
2.052,0.004896193134330884
2.056,0.004896553742474764
2.06,0.004898765472423888
2.064,0.004900304067171106
2.068,0.004895688282929454
2.072,0.004894750701755369
2.076,0.004896193134330884
2.08,0.0048951113098992475
2.084,0.004897154756047895
2.088,0.0048976355669064
2.092,0.004897443242562998
2.096,0.004894967066641696
2.1,0.004895592120757753
2.104,0.004896818188446941
2.108,0.004895039188270472
2.112,0.004892803417778422
2.116,0.00489393332329591
2.12,0.004894606458497817
2.124,0.004893356350265703
2.128,0.004895063228813397
2.132,0.00489576040455823
2.136,0.004895640201843603
2.14,0.004894029485467611
2.144,0.004896193134330884
2.148,0.004896145053245034
2.152,0.004896337377588436
2.156,0.0048994866887116465
2.16,0.004899606891426273
2.164,0.004899438607625796
2.168,0.004900760837486686
2.172,0.00489717879659082
2.176,0.004894149688182237
2.18,0.004894606458497817
2.184,0.004897323039848371
2.188,0.004901025283458863
2.192,0.004899895377941376
2.196,0.00489936648599702
2.2,0.004900135783370629
2.204,0.004901409932145668
2.208,0.004897683647992251
2.212,0.004898452945365859
2.216,0.0048985971886234105
2.22,0.004899991540113077
2.224,0.004901842661918322
2.228,0.0048992462832823935
2.232,0.004900760837486686
2.236,0.004901337810516892
2.24,0.004900905080744237
2.244,0.004904246716210849
2.248,0.004905448743357112
2.2520000000000002,0.004906482486702898
2.2560000000000002,0.004904727527069354
2.2600000000000002,0.004903910148609895
2.2640000000000002,0.0049037659053523435
2.2680000000000002,0.004904703486526428
2.2720000000000002,0.004904607324354727
2.2760000000000002,0.004904270756753774
2.2800000000000002,0.00490302064852166
2.2840000000000003,0.004901482053774444
2.2880000000000003,0.0049055929866146635
2.2920000000000003,0.0049104251357426415
2.2960000000000003,0.004908429770679844
2.3000000000000003,0.004904991973041532
2.3040000000000003,0.004907876838192563
2.308,0.004909800081626585
2.312,0.004907107540818955
2.316,0.00490845381122277
2.32,0.004909223108596378
2.324,0.00490946351402563
2.328,0.0049093913923968545
2.332,0.004908213405793517
2.336,0.004909295230225154
2.34,0.004909992405969986
2.344,0.004908189365250591
2.348,0.004907780676020862
2.352,0.004908189365250591
2.356,0.004906867135389703
2.36,0.0049074921895057595
2.364,0.00490845381122277
2.368,0.0049074921895057595
2.372,0.004907708554392086
2.376,0.004909367351853929
2.38,0.004909703919454883
2.384,0.004909150986967602
2.388,0.004909848162712435
2.392,0.0049098722032553605
2.396,0.0049101847303133885
2.4,0.0049122522170049615
2.404,0.004912468581891288
2.408,0.004912204135919111
2.412,0.004912708987320541
2.416,0.004913838892838029
2.42,0.004915089001070142
2.424,0.004915233244327694
2.428,0.004913334041436598
2.432,0.0049122522170049615
2.436,0.004912468581891288
2.44,0.004912516662977139
2.444,0.0049142235415248325
2.448,0.004914319703696534
2.452,0.0049128051494922425
2.456,0.0049114588790884275
2.46,0.0049109059466011466
2.464,0.004912757068406392
2.468,0.004914824555097964
2.472,0.0049143918253253096
2.476,0.004915161122698918
2.48,0.004915786176814975
2.484,0.004914872636183815
2.488,0.004912540703520064
2.492,0.0049122522170049615
2.496,0.0049140792982672815
2.5,0.004915954460615451
2.504,0.004916315068759331
2.508,0.004916555474188583
2.512,0.004913550406322925
2.516,0.00491398313609558
2.52,0.004916411230931032
2.524,0.004918358514907978
2.528,0.0049178777040494726
2.532,0.004918647001423081
2.536,0.004915113041613068
2.54,0.004916074663330078
2.544,0.004919560542054241
2.548,0.004919560542054241
2.552,0.0049173968931909675
2.556,0.0049186710419660065
2.56,0.004915906379529602
2.564,0.004916194866044704
2.568,0.00491489667672674
2.572,0.004915473649756946
2.576,0.004918406595993828
2.58,0.004919945190741046
2.584,0.004918839325766484
2.588,0.004918286393279203
2.592,0.004916387190388107
2.596,0.004916916082332462
2.6,0.004917204568847565
2.604,0.004918070028392875
2.608,0.00491804598784995
2.612,0.004919344177167914
2.616,0.0049203298394278495
2.62,0.004920690447571729
2.624,0.004918021947307024
2.628,0.004918478717622604
2.632,0.004918382555450903
2.636,0.004920450042142476
2.64,0.0049210510557156075
2.644,0.004920065393455672
2.648,0.0049200173123698215
2.652,0.004922733893720376
2.656,0.004922685812634525
2.66,0.00492403208303834
2.664,0.004924248447924668
2.668,0.004924969664212425
2.672,0.004924945623669501
2.676,0.004925378353442155
2.68,0.0049280228131639335
2.684,0.004931460610802247
2.688,0.004930114340398432
2.692,0.004929777772797478
2.696,0.004927421799590802
2.7,0.004926219772444539
2.704,0.00492581108321481
2.708,0.0049261957319016135
2.712,0.004926291894073315
2.716,0.004926291894073315
2.72,0.004925017745298276
2.724,0.004924512893896845
2.728,0.004925907245386511
2.732,0.004926027448101137
2.736,0.004923190664035956
2.74,0.00492585916430066
2.744,0.0049285036240224395
2.748,0.004928311299679037
2.7520000000000002,0.0049261236102728385
2.7560000000000002,0.004927061191446923
2.7600000000000002,0.004928046853706859
2.7640000000000002,0.004928623826737065
2.7680000000000002,0.004928383421307813
2.7720000000000002,0.004930114340398432
2.7760000000000002,0.004929849894426254
2.7800000000000002,0.0049296094889970015
2.7840000000000003,0.004930066259312581
2.7880000000000003,0.004929104637595571
2.7920000000000003,0.0049280949347927094
2.7960000000000003,0.0049280949347927094
2.8000000000000003,0.004928936353795094
2.8040000000000003,0.004930498989085236
2.8080000000000003,0.0049319895027466025
2.8120000000000003,0.004930210502570133
2.816,0.0049293690835677485
2.82,0.004934465678667905
2.824,0.004935835989614644
2.828,0.004933455975865043
2.832,0.004932374151433406
2.836,0.004934225273238652
2.84,0.004934658003011306
2.844,0.0049317971784032
2.848,0.004930859597229115
2.852,0.004932614556862659
2.856,0.004931628894602723
2.86,0.004931869300031976
2.864,0.004930595151256937
2.868,0.0049334078947791925
2.872,0.004934393557039129
2.876,0.004935547503099541
2.88,0.004932085664918304
2.884,0.004930018178226731
2.888,0.004931220205372994
2.892,0.004931268286458844
2.896,0.0049317971784032
2.9,0.004930955759400816
2.904,0.0049338165840089225
2.908,0.0049325424352338835
2.912,0.004935114773326887
2.916,0.004935956192329271
2.92,0.004936725489702879
2.924,0.0049346820435542315
2.928,0.004937350543818936
2.932,0.004938264084450096
2.936,0.004938047719563769
2.94,0.004938841057480302
2.944,0.0049370620573038326
2.948,0.004938817016937377
2.952,0.004940547936027996
2.956,0.004940115206255341
2.96,0.0049393699494246586
2.964,0.004936340841016075
2.968,0.004935956192329271
2.972,0.004936629327531178
2.976,0.004938985300737854
2.98,0.004939730557568537
2.984,0.004939321868338808
2.988,0.004938552570965199
2.992,0.004939874800826089
2.996,0.004936557205902402
3.0,0.00493773519250574
3.004,0.004938264084450096
3.008,0.004938264084450096
3.012,0.0049402354089699676
3.016,0.004940668138742622
3.02,0.004941677841545484
3.024,0.004942158652403989
3.028,0.00494458674723944
3.032,0.004944009774209234
3.036,0.004944105936380935
3.04,0.0049448271526686925
3.044,0.0049432404768356255
3.048,0.004941677841545484
3.052,0.004941990368603512
3.056,0.0049461734230725075
3.06,0.004949202531481091
3.064,0.004947880301620201
3.068,0.004945524328413525
3.072,0.004942663503805419
3.076,0.00494271158489127
3.08,0.004945380085155974
3.084,0.004948505355736258
3.088,0.004949130409852315
3.092,0.004948096666506529
3.096,0.004948433234107482
3.1,0.004948337071935782
3.104,0.004948096666506529
3.108,0.004949178490938165
3.112,0.004950284355912727
3.116,0.00494961122071082
3.12,0.004951366180344365
3.124,0.0049514863830589905
3.128,0.004951270018172664
3.132,0.004949250612566941
3.136,0.004950669004599532
3.14,0.004949442936910344
3.144,0.004947928382706052
3.148,0.004946293625787134
3.152,0.004946149382529582
3.156,0.004946485950130536
3.16,0.004947495652933397
3.164,0.004946558071759312
3.168,0.004946245544701283
3.172,0.004944466544524814
3.176,0.004946293625787134
3.18,0.004947808179991425
3.184,0.00494773605836265
3.188,0.0049466542339310126
3.192,0.004948577477365034
3.196,0.004949178490938165
3.2,0.004950140112655176
3.204,0.004951125774915112
3.208,0.004954924180697304
3.212,0.004954154883323695
3.216,0.00495052476134198
3.22,0.004950693045142457
3.224,0.004952664369662328
3.228,0.004953145180520834
3.232,0.004952207599346749
3.236,0.004952015275003346
3.24,0.004949491017996194
3.244,0.00495139022088729
3.248,0.004951871031745795
3.2520000000000002,0.004952063356089197
3.2560000000000002,0.004951414261430215
3.2600000000000002,0.0049538663968085915
3.2640000000000002,0.004952688410205254
3.2680000000000002,0.004951943153374571
3.2720000000000002,0.00495047668025613
3.2760000000000002,0.004949755463968372
3.2800000000000002,0.004951318099258514
3.2840000000000003,0.004951630626316542
3.2880000000000003,0.004949995869397625
3.2920000000000003,0.004952063356089197
3.2960000000000003,0.004953289423778385
3.3000000000000003,0.004954082761694919
3.3040000000000003,0.004954467410381723
3.3080000000000003,0.004956823383588399
3.3120000000000003,0.004955020342869004
3.3160000000000003,0.004952135477717973
3.3200000000000003,0.004952856694005731
3.3240000000000003,0.004957063789017652
3.3280000000000003,0.004954972261783154
3.332,0.004955332869927033
3.336,0.004957953289105887
3.34,0.004957712883676634
3.344,0.004958097532363438
3.348,0.004959275518966776
3.352,0.004957977329648812
3.356,0.004958530262136093
3.36,0.004957232072818129
3.364,0.004958506221593168
3.368,0.004958169653992214
3.372,0.004958987032451673
3.376,0.004961343005658349
3.38,0.004960790073171068
3.384,0.00496235270846121
3.388,0.00496189593814563
3.392,0.0049613189651154235
3.396,0.004961222802943722
3.4,0.004961655532716377
3.404,0.004962713316605089
3.408,0.0049631460463777435
3.412,0.004963795141036726
3.416,0.004960741992085217
3.42,0.004958097532363438
3.424,0.004958193694535139
3.428,0.004960597748827665
3.432,0.004960020775797459
3.436,0.004959780370368207
3.44,0.004961919978688555
3.444,0.004960453505570114
3.448,0.004958650464850719
3.452,0.004960477546113039
3.456,0.0049618718976027045
3.46,0.004962545032804612
3.464,0.004961126640772021
3.468,0.004959515924396029
3.472,0.004962472911175836
3.476,0.004964876965468362
3.48,0.0049624248300899855
3.484,0.004960285221769637
3.488,0.004960645829913516
3.492,0.004960910275885694
3.496,0.004960741992085217
3.5,0.004964275951895231
3.504,0.004964348073524007
3.508,0.004962545032804612
3.512,0.004962569073347537
3.516,0.004964324032981081
3.52,0.004961463208372975
3.524,0.004961343005658349
3.528,0.004961487248915901
3.532,0.004963001803120192
3.536,0.004964564438410334
3.54,0.004964756762753736
3.544,0.004963482613978697
3.548,0.004963602816693323
3.552,0.004965622222299046
3.556,0.004966295357500953
3.56,0.004967954154962796
3.564,0.004970935182285529
3.568,0.004975767331413507
3.572,0.0049778107775621545
3.576,0.004976801074759293
3.58,0.004976849155845143
3.584,0.004975815412499357
3.588,0.004971608317487436
3.592,0.0049698052767680415
3.596,0.004971007303914305
3.6,0.004973098831148802
3.604,0.004971560236401586
3.608,0.004970550533598725
3.612,0.004969588911881714
3.616,0.0049690119388515076
3.62,0.004969925479482668
3.624,0.0049738440879794855
3.628,0.004973483479835607
3.632,0.004974541263724318
3.636,0.004974877831325272
3.64,0.004974661466438945
3.644,0.004974204696123365
3.648,0.004973964290694112
3.652,0.004977498250504126
3.656,0.004976127939557385
3.66,0.004975166317840375
3.664,0.004975310561097927
3.668,0.0049778107775621545
3.672,0.004979060885794267
3.676,0.004978435831678211
3.68,0.004978075223534332
3.684,0.004978628156021613
3.688,0.004979469575023997
3.692,0.004978507953306986
3.696,0.004977185723446098
3.7,0.00497793098027678
3.704,0.004978507953306986
3.708,0.004978003101905556
3.712,0.0049786762371074635
3.716,0.004980335034569306
3.72,0.00498011866968298
3.724,0.004979084926337193
3.728,0.004975382682726703
3.732,0.004974060452865813
3.736,0.004977065520731471
3.74,0.0049778107775621545
3.744,0.004976584709872966
3.748,0.004977522291047051
3.7520000000000002,0.004978075223534332
3.7560000000000002,0.004976873196388069
3.7600000000000002,0.004976632790958817
3.7640000000000002,0.0049781233046201825
3.7680000000000002,0.004980791804884887
3.7720000000000002,0.004982258278003328
3.7760000000000002,0.004980960088685363
3.7800000000000002,0.004979277250680595
3.7840000000000003,0.004977666534304603
3.7880000000000003,0.004978219466791884
3.7920000000000003,0.004978171385706033
3.7960000000000003,0.004978051182991407
3.8000000000000003,0.004979902304796652
3.8040000000000003,0.0049799503858825025
3.8080000000000003,0.004982065953659925
3.8120000000000003,0.00498295545374816
3.8160000000000003,0.004982522723975506
3.8200000000000003,0.004983724751121769
3.8240000000000003,0.004984037278179797
3.8280000000000003,0.0049858162783562665
3.8320000000000003,0.004985864359442117
3.8360000000000003,0.0049860566837855195
3.84,0.004987258710931783
3.844,0.00498742699473226
3.848,0.0049877154812473625
3.852,0.004989133873279953
3.856,0.004992114900602686
3.86,0.004991561968115405
3.864,0.004990792670741796
3.868,0.0049903359004262165
3.872,0.004988604981335598
3.876,0.0049895425625096825
3.88,0.004991273481600301
3.884,0.004992211062774387
3.888,0.004993485211549425
3.892,0.0049927159141758175
3.896,0.004993220765577248
3.9,0.004997043211902365
3.904,0.004994975725210792
3.908,0.004994759360324464
3.912,0.004993845819693305
3.916,0.004993076522319696
3.92,0.0049919225762592835
3.924,0.004991393684314928
3.928,0.004995023806296643
3.932,0.00499665856321556
3.936,0.004994014103493782
3.94,0.004991033076171049
3.944,0.004990167616625739
3.948,0.004990600346398394
3.952,0.0049916100492012555
3.956,0.004991417724857853
3.96,0.004992595711461191
3.964,0.004995047846839568
3.968,0.004996129671271205
3.972,0.00499569694149855
3.976,0.004994518954895212
3.98,0.004995889265841952
3.984,0.00499665856321556
3.988,0.00499788463090475
3.992,0.004997283617331617
3.996,0.004997283617331617
4.0,0.004997139374074065
4.0040000000000004,0.004993653495349902
4.008,0.0049948555224961656
4.0120000000000005,0.004995720982041475
4.016,0.004994446833266436
4.0200000000000005,0.004993990062950857
4.024,0.004993990062950857
4.0280000000000005,0.00499067246802717
4.032,0.004992691873632892
4.0360000000000005,0.004994206427837183
4.04,0.004995119968468344
4.0440000000000005,0.004997499982217946
4.048,0.004999495347280743
4.0520000000000005,0.004998004833619376
4.056,0.004997355738960394
4.0600000000000005,0.004998221198505704
4.064,0.004999158779679789
4.0680000000000005,0.004998076955248152
4.072,0.004999399185109042
4.0760000000000005,0.004998533725563732
4.08,0.005000192523025576
4.0840000000000005,0.005000673333884081
4.088,0.005000865658227482
4.0920000000000005,0.005005457401926208
4.096,0.005003053347633682
4.1,0.005002668698946877
4.104,0.005002211928631297
4.108,0.0050002165635685
4.112,0.005001731117772792
4.116,0.005001634955601091
4.12,0.005001106063656735
4.124,0.004998413522849105
4.128,0.004999735752709995
4.132,0.0050019234421161945
4.136,0.005000529090626529
4.14,0.004999158779679789
4.144,0.0050000242392250985
4.148,0.0049998559554246215
4.152,0.005000529090626529
4.156,0.005000865658227482
4.16,0.005003149509805383
4.164,0.005007188321016827
4.168,0.005008967321193296
4.172,0.0050048563883530765
4.176,0.005003702442292664
4.18,0.005008222064362613
4.184,0.0050069959966734245
4.188,0.00500524103703988
4.192,0.0050048563883530765
4.196,0.005006755591244172
4.2,0.005005914172241788
4.204,0.005003293753062934
4.208,0.005003678401749739
4.212,0.0050035101179492615
4.216,0.0050029571854619806
4.22,0.005007452766989004
4.224,0.005007597010246556
4.228,0.0050068277128729475
4.232,0.005007957618390436
4.236,0.005010121267253709
4.24,0.005009159645536699
4.244,0.005011251172771196
4.248,0.0050107222808268405
4.252,0.005010073186167858
4.256,0.0050090634833649976
4.26,0.005011731983629701
4.264,0.005011611780915076
4.268,0.005015169781268015
4.272,0.005016684335472306
4.276,0.005015915038098697
4.28,0.005016011200270398
4.284,0.005015434227240192
4.288,0.00501569867321237
4.292,0.005015121700182164
4.296,0.005014039875750526
4.3,0.005015842916469921
4.304,0.005014688970409509
4.308,0.0050153140245255655
4.312,0.005014977456924612
4.316,0.005017357470674213
4.32,0.0050153140245255655
4.324,0.005013054213490591
4.328,0.0050131744162052174
4.332,0.005012717645889638
4.336,0.005011395416028748
4.34,0.005011707943086776
4.344,0.005013631186520797
4.348,0.0050155544299548185
4.352,0.005014232200093929
4.356,0.005017357470674213
4.36,0.00501747767338884
4.364,0.005014160078465153
4.368,0.005018775862706804
4.372,0.005017862322075644
4.376,0.0050171411057878855
4.38,0.00501706898415911
4.384,0.005017790200446868
4.388,0.0050200740520247675
4.392,0.005020651025054974
4.396,0.0050223819441455935
4.4,0.005022261741430967
4.404,0.005022742552289472
4.408,0.005021853052201237
4.412,0.0050208673899413015
4.416,0.005020410619625722
4.42,0.005019737484423814
4.424,0.005021612646771985
4.428,0.005024449430837166
4.432,0.0050253148903824756
4.436,0.005027718944675002
4.44,0.005025531255268802
4.444,0.005024473471380091
4.448,0.0050226944712036216
4.452,0.0050232474036909025
4.456,0.005019569200623337
4.46,0.005019088389764832
4.464,0.0050221415387163406
4.468,0.005025050444410297
4.472,0.005024617714637643
4.476,0.005023367606405529
4.48,0.005025266809296625
4.484,0.0050238003361781835
4.488,0.005023151241519201
4.492,0.005026853485129692
4.496,0.005027694904132077
4.5,0.005026997728387244
4.5040000000000004,0.005026564998614589
4.508,0.0050277670257608525
4.5120000000000005,0.005026901566215543
4.516,0.005028247836619358
4.5200000000000005,0.005027334295988197
4.524,0.005026901566215543
4.5280000000000005,0.005027141971644796
4.532,0.005030122998967528
4.5360000000000005,0.005027021768930169
4.54,0.0050253870120112515
4.5440000000000005,0.005027863187932553
4.548,0.005027839147389628
4.5520000000000005,0.005027550660874525
4.556,0.005026901566215543
4.5600000000000005,0.005027983390647179
4.564,0.005027454498702824
4.5680000000000005,0.005028848850192489
4.572,0.005029714309737798
4.5760000000000005,0.005027959350104254
4.58,0.005026348633728262
4.5840000000000005,0.005029065215078816
4.588,0.005029161377250517
4.5920000000000005,0.005029882593538275
4.596,0.005031517350457193
4.6000000000000005,0.0050306999719977345
4.604,0.005033464634434139
4.6080000000000005,0.0050349070670096556
4.612,0.005032430891088353
4.616,0.00503305594520441
4.62,0.005034666661580403
4.624,0.0050357725265549646
4.628,0.005034594539951627
4.632,0.005033440593891214
4.636,0.005034690702123328
4.64,0.005033729080406318
4.644,0.00503630141849932
4.648,0.005036541823928573
4.652,0.00503305594520441
4.656,0.00503483494538088
4.66,0.005032719377603456
4.664,0.005034402215608225
4.668,0.005035556161668638
4.672,0.005036397580671021
4.676,0.005035219594067684
4.68,0.005034955148095506
4.684,0.005037864053789463
4.688,0.005037840013246538
4.692,0.005038585270077221
4.696,0.005038897797135249
4.7,0.00504447520309391
4.704,0.005042407716402337
4.708,0.005041109527084373
4.712,0.005040580635140017
4.716,0.005040556594597092
4.72,0.005041974986629683
4.724,0.005044066513864181
4.728,0.005043177013775946
4.732,0.0050418788244579816
4.736,0.005040532554054167
4.74,0.005041999027172608
4.744,0.005041349932513626
4.748,0.005039979621566886
4.752,0.005040460432425392
4.756,0.00504260004074574
4.76,0.005042407716402337
4.764,0.005038969918764025
4.768,0.005040508513511241
4.772,0.005040412351339541
4.776,0.005041518216314103
4.78,0.005042840446174993
4.784,0.005042912567803768
4.788,0.005042720243460366
4.792,0.005044114594950031
4.796,0.0050443309598363585
4.8,0.005044763689609013
4.804,0.00504538874372507
4.808,0.005044258838207583
4.812,0.005042047108258459
4.816,0.005044234797664657
4.82,0.005051711406514415
4.824,0.005052865352574828
4.828,0.005053201920175782
4.832,0.005053754852663063
4.836,0.005055581933925383
4.84,0.005055870420440486
4.844,0.005054860717637625
4.848,0.00505447606895082
4.852,0.005056062744783888
4.856,0.005054764555465924
4.86,0.005054764555465924
4.864,0.005054716474380073
4.868,0.0050567118394428704
4.872,0.005057384974644778
4.876,0.005058875488306144
4.88,0.005056399312384842
4.884,0.005058226393647162
4.888,0.0050571926503013755
4.892,0.005057841744960358
4.896,0.0050571205286726
4.9,0.0050556780960970835
4.904,0.005056038704240963
4.908,0.005055029001438101
4.912,0.005055870420440486
4.916,0.005055942542069262
4.92,0.0050569522448721226
4.924,0.005056279109670215
4.928,0.0050571926503013755
4.932,0.0050601255965382575
4.936,0.0050631306644039155
4.94,0.005059476501879275
4.944,0.0050599573127377805
4.948,0.005061688231828399
4.952,0.005059716907308528
4.956,0.005061880556171802
4.96,0.00505899569102077
4.964,0.005059740947851454
4.968,0.0050579859882179095
4.972,0.005057793663874507
4.976,0.005059356299164649
4.98,0.005058346596361788
4.984,0.005062409448116157
4.988,0.005065053907837937
4.992,0.0050627460157171116
4.996,0.005062289245401531
5.0,0.005066039570097872
5.0040000000000004,0.005067241597244135
5.008,0.005064044205035075
5.0120000000000005,0.00506173631291425
5.016,0.005062289245401531
5.0200000000000005,0.0050627460157171116
5.024,0.005064284610464328
5.0280000000000005,0.00506310662386099
5.032,0.005064092286120926
5.0360000000000005,0.0050657510835827695
5.04,0.005066856948557331
5.0440000000000005,0.005066087651183723
5.048,0.005068732110905502
5.0520000000000005,0.0050719295031145615
5.056,0.005072939205917423
5.0600000000000005,0.005070559192167822
5.064,0.005070246665109793
5.0680000000000005,0.005069982219137616
5.072,0.005068611908190876
5.0760000000000005,0.005066568462042228
5.08,0.005067842610817267
5.0840000000000005,0.005065438556524741
5.088,0.00506721755670121
5.0920000000000005,0.005069140800135231
5.096,0.005067361799958762
5.1000000000000005,0.0050671694756153594
5.104,0.005068780191991353
5.1080000000000005,0.005068804232534278
5.112,0.0050699581785946905
5.1160000000000005,0.005070775557054149
5.12,0.005071592935513608
5.124,0.0050710640435692525
5.128,0.0050699581785946905
5.132,0.005070318786738569
5.136,0.0050694052461074095
5.14,0.005070174543481017
5.144,0.005071544854427758
5.148,0.005069813935337139
5.152,0.005071184246283879
5.156,0.005069381205564484
5.16,0.00506808301624652
5.164,0.005069140800135231
5.168,0.0050695494893649605
5.172,0.005070991921940477
5.176,0.005067746448645566
5.18,0.0050671694756153594
5.184,0.0050678906919031175
5.188,0.005069525448822035
5.192,0.005069886056965915
5.196,0.0050699581785946905
5.2,0.005070294746195644
5.204,0.0050724103139730674
5.208,0.005070895759768775
5.212,0.0050723381923442916
5.216,0.005072674759945245
5.22,0.00507366042220518
5.224,0.005073251732975451
5.228,0.005074165273606612
5.232,0.005073492138404704
5.236,0.005073468097861779
5.24,0.005072867084288647
5.244,0.00507406911143491
5.248,0.005073347895147152
5.252,0.005071304448998505
5.256,0.0050716169760565335
5.26,0.0050745499222934155
5.264,0.005072939205917423
5.268,0.0050728911248315725
5.272,0.005076064476497707
5.276,0.005079670557936496
5.28,0.0050839016934913425
5.284,0.005083276639375286
5.288,0.005081281274312489
5.292,0.0050817620851709945
5.296,0.005080680260739358
5.3,0.0050796945984794215
5.304,0.005076256800841109
5.308,0.005075607706182127
5.312,0.005078396409161458
5.316,0.0050763770035557355
5.32,0.00507630488192696
5.324,0.005078107922646354
5.328,0.005076857814414241
5.332,0.005077915598302952
5.336,0.005077987719931728
5.34,0.005077434787444447
5.344,0.005079718639022347
5.348,0.005081112990512012
5.352,0.005082146733857798
5.356,0.005079814801194048
5.36,0.005078396409161458
5.364,0.005078420449704383
5.368,0.005078228125360981
5.372,0.005078805098391187
5.376,0.005080800463453984
5.38,0.005080511976938881
5.384,0.005079478233593095
5.388,0.0050824833014587525
5.392,0.005081281274312489
5.396,0.005078468530790233
5.4,0.005079478233593095
5.404,0.005081617841913443
5.408,0.005084358463806923
5.412,0.005082146733857798
5.416,0.005083444923175763
5.42,0.005083517044804539
5.424,0.005083180477203585
5.428,0.005082363098744126
5.432,0.0050827958285167806
5.436,0.00508178612571392
5.44,0.0050843825043498485
5.444,0.005084839274665428
5.448,0.005083324720461136
5.452,0.0050817620851709945
5.456,0.0050835891664333145
5.46,0.005083444923175763
5.464,0.005084094017834745
5.468,0.005083637247519165
5.472,0.005083420882632837
5.476,0.0050838295718625675
5.48,0.00508411805837767
5.484,0.005085464328781485
5.488,0.005086329788326794
5.492,0.005084310382721073
5.496,0.0050827958285167806
5.5,0.005083420882632837
5.5040000000000004,0.005083012193403108
5.508,0.0050835891664333145
5.5120000000000005,0.0050870750451574775
5.516,0.005085296044981008
5.5200000000000005,0.0050846950314078765
5.524,0.005084887355751279
5.5280000000000005,0.005084791193579578
5.532,0.005084478666521549
5.5360000000000005,0.005085127761180531
5.54,0.005083468963718688
5.5440000000000005,0.005081617841913443
5.548,0.00508411805837767
5.5520000000000005,0.005084791193579578
5.556,0.0050857287747536626
5.5600000000000005,0.005086642315384823
5.564,0.005083925734034268
5.5680000000000005,0.0050823150176582755
5.572,0.005084454625978624
5.5760000000000005,0.005084887355751279
5.58,0.005085584531496112
5.5840000000000005,0.005084094017834745
5.588,0.005084863315208354
5.5920000000000005,0.005087051004614552
5.596,0.005087531815473057
5.6000000000000005,0.005089431018364153
5.604,0.005088854045333947
5.6080000000000005,0.005088325153389591
5.612,0.005088950207505648
5.6160000000000005,0.005088156869589114
5.62,0.005087555856015983
5.6240000000000006,0.005089334856192452
5.628,0.005087964545245713
5.632,0.00508863768044762
5.636,0.005089887788679733
5.64,0.005089358896735377
5.644,0.005091258099626473
5.648,0.005090128194108986
5.652,0.005087988585788638
5.656,0.005088541518275919
5.66,0.005089334856192452
5.664,0.005089046369677349
5.668,0.0050891425318490505
5.672,0.005090080113023135
5.676,0.005093013059260017
5.68,0.005090609004967491
5.684,0.005092291842972259
5.688,0.005094046802605804
5.692,0.005094215086406281
5.696,0.005093878518805327
5.7,0.005092003356457157
5.704,0.0050931813430604945
5.708,0.0050931813430604945
5.712,0.005094936302694039
5.716,0.005094695897264786
5.72,0.00509320538360342
5.724,0.005093325586318046
5.728,0.005093133261974644
5.732,0.0050969076272139105
5.736,0.005098301978703575
5.74,0.005097172073186088
5.744,0.005097388438072416
5.748,0.005098157735446024
5.752,0.005099071276077184
5.756,0.00509782116784507
5.76,0.005098085613817248
5.764,0.005099263600420586
5.768,0.005099768451822017
5.772,0.005099455924763989
5.776,0.005100585830281476
5.78,0.00510101856005413
5.784,0.005099984816708344
5.788,0.005098854911190857
5.792,0.005098951073362557
5.796,0.0050972201542719385
5.8,0.005097196113729013
5.804,0.005100417546480999
5.808,0.005099479965306914
5.812,0.005100898357339504
5.816,0.005100657951910252
5.82,0.005099552086935689
5.824,0.0050991193571630344
5.828,0.005097436519158266
5.832,0.005096931667756836
5.836,0.005097388438072416
5.84,0.005097845208387995
5.844,0.005097388438072416
5.848,0.005098350059789426
5.852,0.005098422181418202
5.856,0.005098710667933305
5.86,0.0050987347084762305
5.864,0.005097676924587519
5.868,0.005096306613640779
5.872,0.0050972201542719385
5.876,0.005097412478615341
5.88,0.0050974605597011915
5.884,0.005097989451645547
5.888,0.0051014993709126355
5.892,0.005102412911543796
5.896,0.005101859979056515
5.9,0.005100225222137596
5.904,0.0051007060329961015
5.908,0.0051016676547131126
5.912,0.0051024609926296465
5.916,0.005101691695256038
5.92,0.005101403208740934
5.924,0.0051038793846622365
5.928,0.005104937168550948
5.932,0.005103182208917404
5.936,0.0051020523033999165
5.94,0.005100898357339504
5.944,0.0051017397763418884
5.948,0.005103614938690059
5.952,0.005104768884750472
5.956,0.005105201614523126
5.96,0.0051038793846622365
5.964,0.005104408276606592
5.968,0.00510416787117734
5.972,0.005103518776518358
5.976,0.005105826668639183
5.98,0.005107557587729802
5.984,0.005108927898676542
5.988,0.005108663452704364
5.992,0.00510827880401756
5.996,0.005106379601126464
6.0,0.005107437385015175
6.0040000000000004,0.0051083990067321864
6.008,0.005107533547186877
6.0120000000000005,0.0051087115337902144
6.016,0.005108759614876065
6.0200000000000005,0.005108447087818037
6.024,0.005110202047451581
6.0280000000000005,0.005110442452880833
6.032,0.005112726304458733
6.0360000000000005,0.0051147457100644556
6.04,0.00511284650717336
6.0440000000000005,0.005111355993511994
6.048,0.005111596398941246
6.0520000000000005,0.005111235790797367
6.056,0.0051112598313402926
6.0600000000000005,0.005111716601655872
6.064,0.005111355993511994
6.0680000000000005,0.005109889520393552
6.072,0.005111692561112947
6.0760000000000005,0.00511238973685778
6.08,0.00511152427731247
6.0840000000000005,0.005112485899029481
6.088,0.005112293574686079
6.0920000000000005,0.005111235790797367
6.096,0.0051119329665422
6.1000000000000005,0.005115370764180512
6.104,0.005114337020834726
6.1080000000000005,0.0051155390479809895
6.112,0.005118255629331544
6.1160000000000005,0.005119962507879237
6.12,0.005120275034937266
6.1240000000000006,0.005120972210682099
6.128,0.005118087345531068
6.132000000000001,0.005114457223549353
6.136,0.005116380466983373
6.140000000000001,0.00511467358843568
6.144,0.005114481264092278
6.148,0.005116140061554121
6.152,0.00511330327748894
6.156,0.005112726304458733
6.16,0.005115034196579559
6.164,0.00511558712906684
6.168,0.005118399872589096
6.172,0.00511832775096032
6.176,0.005118856642904675
6.18,0.0051216453458840065
6.184,0.0051210683728538
6.188,0.005117943102273516
6.192,0.005118063304988142
6.196,0.005118399872589096
6.2,0.005120323116023117
6.204,0.005120250994394341
6.208,0.005120347156566042
6.212,0.0051208520079674726
6.216,0.005121933832399109
6.22,0.0051249629408076924
6.224,0.005126838103155863
6.228,0.005126886184241714
6.232,0.005128569022246482
6.236,0.0051310692387107094
6.24,0.005129314279077165
6.244,0.00512477061646429
6.248,0.005122390602714689
6.252,0.005123736873118504
6.256,0.005122631008143942
6.26,0.005122919494659046
6.264,0.005124482129949187
6.268,0.005123376264974625
6.272,0.005125419711123272
6.276,0.005127198711299742
6.28,0.0051265496166407595
6.284,0.005126645778812461
6.288,0.005128689224961108
6.292,0.005128689224961108
6.296,0.00513066054948098
6.3,0.005129819130478596
6.304,0.005129073873647912
6.308,0.005126814062612938
6.312,0.005126573657183685
6.316,0.005129674887221044
6.32,0.005130804792738531
6.324,0.005131886617170169
6.328,0.0051336896578895634
6.332,0.00513340117137446
6.336,0.0051324876307433
6.34,0.005132824198344254
6.344,0.005132175103685271
6.348,0.005133353090288609
6.352,0.005132872279430104
6.356,0.0051341704687480685
6.36,0.005134795522864125
6.364,0.00513614179326794
6.368,0.005135781185124061
6.372,0.005135997550010389
6.376,0.005134843603949976
6.38,0.00513756018530053
6.384,0.00514070949642374
6.388,0.005142055766827555
6.392,0.005141502834340274
6.396,0.005139819996335505
6.4,0.005139603631449178
6.404,0.005141743239769526
6.408,0.005140372928822786
6.412,0.005139964239593057
6.416,0.005140517172080338
6.42,0.005141118185653469
6.424,0.005140541212623263
6.428,0.005140685455880815
6.432,0.005139651712535029
6.436,0.005140613334252039
6.44,0.005141983645198779
6.444,0.005144099212976202
6.448,0.0051446281049205575
6.452,0.0051422480911709565
6.456,0.005139627671992103
6.46,0.005138137158330737
6.464,0.005138930496247271
6.468,0.0051435222399459956
6.472,0.005146118618581925
6.476,0.005147032159213086
6.48,0.00514842651070275
6.484,0.005146431145639954
6.488,0.005144796388721035
6.492,0.005144724267092259
6.496,0.005144580023834707
6.5,0.005143786685918174
6.5040000000000004,0.005144676186006408
6.508,0.005144291537319604
6.5120000000000005,0.005146743672697982
6.516,0.005150061267621669
6.5200000000000005,0.005148282267445199
6.524,0.005146383064554103
6.5280000000000005,0.0051452771995795414
6.532,0.005144459821120081
6.5360000000000005,0.005147537010614516
6.54,0.005150950767709903
6.5440000000000005,0.005149316010790985
6.548,0.005146984078127235
6.5520000000000005,0.005149412172962687
6.556,0.005149844902735341
6.5600000000000005,0.005149917024364117
6.564,0.00515061420010895
6.5680000000000005,0.005150469956851398
6.572,0.005150469956851398
6.5760000000000005,0.005147825497129619
6.58,0.005149604497306088
6.5840000000000005,0.005148642875589078
6.588,0.005149508335134387
6.5920000000000005,0.005145854172609748
6.596,0.005147705294414992
6.6000000000000005,0.005148714997217854
6.604,0.0051455897266375695
6.6080000000000005,0.005146839834869683
6.612,0.00514655134835458
6.6160000000000005,0.005145926294238523
6.62,0.0051466234699833555
6.6240000000000006,0.005147272564642338
6.628,0.0051476572133291425
6.632000000000001,0.005149844902735341
6.636,0.005149340051333911
6.640000000000001,0.005150998848795754
6.644,0.005152994213858551
6.648000000000001,0.005154653011320394
6.652,0.00515340290308828
6.656000000000001,0.0051543885653482155
6.66,0.00515340290308828
6.664,0.005155254024893525
6.668,0.005155710795209105
6.672,0.005153354822002429
6.676,0.005154989578921347
6.68,0.0051556627141232545
6.684,0.005153234619287803
6.688,0.005151503700197184
6.692,0.005155879079009582
6.696,0.005158090808958706
6.7,0.005156287768239311
6.704,0.005156936862898294
6.708,0.0051588360657893895
6.712,0.0051601823361932045
6.716,0.005157129187241696
6.72,0.005159990011849802
6.724,0.005159268795562044
6.728,0.005158211011673333
6.732,0.005159292836104969
6.736,0.005157201308870472
6.74,0.005156960903441219
6.744,0.005156071403352985
6.748,0.0051582831333021086
6.752,0.005158235052216258
6.756,0.005157033025069995
6.76,0.005156576254754415
6.764,0.005157273430499248
6.768,0.005157946565701154
6.772,0.005157850403529454
6.776,0.005158932227961091
6.78,0.005159917890221026
6.784,0.005158812025246464
6.788,0.005157994646787005
6.792,0.005156480092582714
6.796,0.0051566964574690415
6.8,0.005158475457645511
6.804,0.005160422741622457
6.808,0.00516212962017015
6.812,0.005160807390309261
6.816,0.005161071836281439
6.82,0.0051597976875064
6.824,0.005158090808958706
6.828,0.0051618411336550474
6.832,0.005162922958086684
6.836,0.005161408403882393
6.84,0.005163235485144713
6.844,0.005164437512290976
6.848,0.0051654952961796875
6.852,0.0051644615528339015
6.856,0.005166913688212278
6.86,0.005167370458527858
6.864,0.005163211444601788
6.868,0.005164750039349004
6.872,0.005163764377089069
6.876,0.005163812458174919
6.88,0.005165928025952342
6.884,0.005163523971659816
6.888,0.005163211444601788
6.892,0.005166096309752819
6.896,0.005166889647669353
6.9,0.005166456917896698
6.904,0.005168380161330719
6.908,0.0051684282424165695
6.912,0.005165903985409417
6.916,0.005167298336899082
6.92,0.0051666492422401
6.924,0.00516527893129336
6.928,0.0051658078232377155
6.932,0.005166673282783025
6.936,0.005168211877530242
6.94,0.0051681157153585415
6.944,0.005171481391368078
6.948,0.005175183634978569
6.952,0.005177251121670141
6.956,0.005177924256872048
6.96,0.005175544243122447
6.964,0.0051732603915445475
6.968,0.0051774674865564686
6.972,0.005178308905558853
6.976,0.0051777800136144966
6.98,0.005174558580862512
6.984,0.005173596959145501
6.988,0.005176529905382384
6.992,0.005174582621405437
6.996,0.005174029688918156
7.0,0.005175616364751223
7.0040000000000004,0.005176481824296533
7.008,0.005174630702491288
7.0120000000000005,0.005175544243122447
7.016,0.005181313973424511
7.0200000000000005,0.0051836459060882615
7.024,0.0051815062977679125
7.0280000000000005,0.0051778521352432725
7.032,0.005178188702844227
7.0360000000000005,0.00517624141886728
7.04,0.005177275162213066
7.0440000000000005,0.005177515567642319
7.048,0.005178669513702732
7.0520000000000005,0.005179751338134368
7.056,0.005181602459939614
7.0600000000000005,0.005178356986644703
7.064,0.005176602027011159
7.0680000000000005,0.005177443446013543
7.072,0.005178861838046134
7.0760000000000005,0.005177347283841842
7.08,0.005176914554069188
7.0840000000000005,0.005175159594435643
7.088,0.005179150324561237
7.0920000000000005,0.005179871540848995
7.096,0.00518080912202308
7.1000000000000005,0.005180520635507977
7.104,0.0051799196219348455
7.1080000000000005,0.005179006081303685
7.112,0.005178116581215451
7.1160000000000005,0.005176385662124832
7.12,0.005175544243122447
7.1240000000000006,0.005174101810546932
7.128,0.005175039391721017
7.132000000000001,0.005175808689094626
7.136,0.005175351918779045
7.140000000000001,0.0051756404052941485
7.144,0.005176794351354561
7.148000000000001,0.00517761172981402
7.152,0.005179510932705116
7.156000000000001,0.005177227081127216
7.16,0.005177419405470618
7.164000000000001,0.005177227081127216
7.168,0.005177347283841842
7.172,0.0051791262840183115
7.176,0.005178308905558853
7.18,0.005180039824649472
7.184,0.005181001446366482
7.188,0.005180135986821173
7.192,0.005180208108449948
7.196,0.005181554378853763
7.2,0.005181530338310838
7.204,0.005182443878941998
7.208,0.00518268428437125
7.212,0.005184150757489692
7.216,0.005185400865721806
7.22,0.005185665311693983
7.224,0.005185016217035001
7.228,0.00518400651423214
7.232,0.005182443878941998
7.236,0.005185112379206702
7.24,0.005185256622464254
7.244,0.005184415203461869
7.248,0.0051826362032854
7.252,0.005186074000923713
7.256,0.005187420271327527
7.26,0.005186819257754396
7.264,0.005188670379559641
7.268,0.005189656041819577
7.272,0.005186963501011947
7.276,0.0051857855144086095
7.28,0.005188093406529435
7.284,0.005189247352589847
7.288,0.005187708757842631
7.292,0.005186242284724189
7.296,0.005185881676580311
7.3,0.005188261690329912
7.304,0.005190040690506381
7.308,0.005188454014673314
7.312,0.005186602892868069
7.316,0.005185569149522282
7.32,0.005186242284724189
7.324,0.005189343514761548
7.328,0.005191435041996047
7.332,0.005191290798738495
7.336,0.005192060096112104
7.34,0.0051903772581073345
7.344,0.005191507163624823
7.348,0.005188021284900659
7.352,0.005188934825531819
7.356,0.005190978271680466
7.36,0.005191459082538972
7.364,0.005193406366515918
7.368,0.005192853434028637
7.372,0.005192805352942786
7.376,0.005193214042172516
7.38,0.005195041123434837
7.384,0.00519619506949525
7.388,0.005194776677462659
7.392,0.005194319907147079
7.396,0.00519441606931878
7.4,0.005196964366868858
7.404,0.00519807023184342
7.408,0.005197541339899065
7.412,0.0051968201236113065
7.416,0.005197541339899065
7.42,0.005196002745151847
7.424,0.005196627799267904
7.428,0.0051962671911240255
7.432,0.005196675880353755
7.436,0.005195137285606538
7.44,0.005195137285606538
7.444,0.005198238515643897
7.448,0.005196940326325933
7.452,0.00519807023184342
7.456,0.005201387826767106
7.46,0.0051986472048736266
7.464,0.005197517299356139
7.468,0.005195594055922118
7.472,0.005195666177550894
7.476,0.005196772042525456
7.48,0.005198358718358523
7.484,0.005197781745328317
7.488,0.00519756538044199
7.492,0.0051992001373609075
7.496,0.005202661975542145
7.5,0.0052022052052265655
7.5040000000000004,0.005199704988762338
7.508,0.005199560745504786
7.5120000000000005,0.00519619506949525
7.516,0.0051951613261494636
7.5200000000000005,0.005195425772121641
7.524,0.0051947526369197335
7.5280000000000005,0.00519487283963436
7.532,0.00519537769103579
7.5360000000000005,0.0051949930423489865
7.54,0.005197084569583485
7.5440000000000005,0.005200594488850573
7.548,0.005200402164507171
7.5520000000000005,0.005201267624052481
7.556,0.005201003178080302
7.5600000000000005,0.005197276893926886
7.564,0.005194151623346601
7.5680000000000005,0.005192709190771086
7.572,0.0051946805152909585
7.5760000000000005,0.005195041123434837
7.58,0.00519802215075757
7.5840000000000005,0.005201147421337854
7.588,0.005196627799267904
7.5920000000000005,0.0051986472048736266
7.596,0.005200786813193975
7.6000000000000005,0.005201387826767106
7.604,0.005201940759254387
7.6080000000000005,0.005199921353648666
7.612,0.005201772475453911
7.6160000000000005,0.005200690651022274
7.62,0.005200738732108124
7.6240000000000006,0.005200642569936424
7.628,0.005199560745504786
7.632000000000001,0.005196868204697157
7.636,0.005197541339899065
7.640000000000001,0.005199103975189206
7.644,0.00519807023184342
7.648000000000001,0.005198262556186823
7.652,0.005195978704608922
7.656000000000001,0.005197397096641513
7.66,0.005197469218270289
7.664000000000001,0.005198454880530224
7.668,0.005198094272386346
7.672000000000001,0.00519802215075757
7.676,0.005200666610479349
7.68,0.005201748434910986
7.684,0.005200738732108124
7.688,0.005200378123964245
7.692,0.005200041556363292
7.696,0.005200834894279825
7.7,0.005202036921426088
7.704,0.0052026860160850705
7.708,0.005203743799973782
7.712,0.005201844597082687
7.716,0.005202950462057249
7.72,0.005203383191829903
7.724,0.005203094705314801
7.728,0.005202589853913369
7.732,0.00520629209752386
7.736,0.005206772908382365
7.74,0.00520679694892529
7.744,0.00520679694892529
7.748,0.005204392894632764
7.752,0.005205114110920522
7.756,0.0052056910839507285
7.76,0.005206075732637533
7.764,0.005207397962498422
7.768,0.005208095138243255
7.772,0.005208455746387134
7.776,0.005211508895338643
7.78,0.00521456204429015
7.784,0.005215908314693965
7.788,0.005219057625817175
7.792,0.005217038220211453
7.796,0.00521405719288872
7.8,0.005210090503306052
7.804,0.005210330908735304
7.808,0.005209850097876799
7.812,0.005209297165389518
7.816,0.005211653138596194
7.82,0.005212206071083475
7.824,0.00521309557117171
7.828,0.005212542638684429
7.832,0.005213696584744841
7.836,0.005214249517232122
7.84,0.005213672544201916
7.844,0.005212542638684429
7.848,0.005212446476512728
7.852,0.0052133119360580375
7.856,0.005214009111802869
7.86,0.005211460814252792
7.864,0.0052087923139880875
7.868,0.005209753935705098
7.872,0.0052093452464753685
7.876,0.005210883841222586
7.88,0.005212182030540549
7.884,0.005214586084833076
7.888,0.00521360042257314
7.892,0.00521405719288872
7.896,0.005215667909264713
7.9,0.005214754368633553
7.904,0.005215812152522264
7.908,0.005217615193241659
7.912,0.005218264287900641
7.916,0.005219706720476157
7.92,0.00522040389622099
7.924,0.005219346112332278
7.928,0.005219971166448335
7.932,0.0052224233018267115
7.936,0.00522547645077822
7.94,0.005224202302003181
7.944,0.005222783909970591
7.948,0.005223529166801274
7.952,0.005223072396485694
7.956,0.005225500491321145
7.96,0.005225091802091416
7.964,0.005225308166977744
7.968,0.005226486153581082
7.972,0.0052279766672424476
7.976,0.0052296354647042905
7.98,0.005230044153934021
7.984,0.005230356680992049
7.988,0.005228649802444355
7.992,0.00522816899158585
7.996,0.005229755667418917
8.0,0.005231390424337835
8.004,0.005231967397368041
8.008000000000001,0.0052320154784538915
8.012,0.005230524964792526
8.016,0.0052311500189085825
8.02,0.005232303964968995
8.024000000000001,0.005233938721887913
8.028,0.005235140749034176
8.032,0.005233530032658184
8.036,0.005233890640802062
8.040000000000001,0.005234299330031792
8.044,0.005233530032658184
8.048,0.00523232800551192
8.052,0.0052333617488577065
8.056000000000001,0.005231967397368041
8.06,0.005230236478277422
8.064,0.005230212437734497
8.068,0.005233938721887913
8.072000000000001,0.005236126411294112
8.076,0.005236727424867244
8.08,0.005235164789577101
8.084,0.0052346358976327455
8.088000000000001,0.0052347080192615214
8.092,0.00523232800551192
8.096,0.005231654870310013
8.1,0.005234515694918119
8.104000000000001,0.005235525397720981
8.108,0.0052340829651454646
8.112,0.005234395492203493
8.116,0.005234491654375194
8.120000000000001,0.005234756100347372
8.124,0.0052351888301200265
8.128,0.0052350205463195494
8.132,0.005233530032658184
8.136000000000001,0.005232688613655799
8.14,0.0052336021542869595
8.144,0.005238602587215414
8.148,0.0052397084521899765
8.152000000000001,0.005239660371104126
8.156,0.005240237344134332
8.16,0.005241944222682026
8.164,0.005242857763313185
8.168000000000001,0.005242497155169307
8.172,0.005244276155345776
8.176,0.005243939587744823
8.18,0.005244516560775029
8.184000000000001,0.005245478182492039
8.188,0.00524369918231557
8.192,0.005241944222682026
8.196,0.005243458776886317
8.2,0.005245382020320338
8.204,0.005247209101582658
8.208,0.005246800412352929
8.212,0.005247641831355313
8.216,0.005247281223211434
8.22,0.005246800412352929
8.224,0.005246824452895854
8.228,0.0052468484934387796
8.232,0.005248411128728921
8.236,0.00524963719641811
8.24,0.005249949723476139
8.244,0.005249997804561988
8.248,0.005248988101759128
8.252,0.005249925682933213
8.256,0.00525192104799601
8.26,0.005255767534864052
8.264,0.005254853994232892
8.268,0.005251824885824308
8.272,0.005251584480395056
8.276,0.0052536519670866285
8.28,0.005253772169801255
8.284,0.005254036615773433
8.288,0.005252930750798871
8.292,0.0052543731833743865
8.296,0.005255214602376771
8.3,0.005254084696859284
8.304,0.005256368548437184
8.308,0.005256320467351333
8.312,0.0052565127916947355
8.316,0.005255935818664529
8.32,0.005254709750975341
8.324,0.005253700048172479
8.328,0.005252065291253561
8.332,0.005251560439852131
8.336,0.0052511998317082515
8.34,0.005251752764195533
8.344,0.005252161453425263
8.348,0.005252089331796487
8.352,0.00525009396673369
8.356,0.005249589115332259
8.36,0.005252137412882337
8.364,0.005251488318223355
8.368,0.0052538923725158814
8.372,0.005255310764548472
8.376,0.005256200264636707
8.38,0.005253676007629554
8.384,0.005253074994056422
8.388,0.005256584913323511
8.392,0.005257666737755148
8.396,0.005257474413411746
8.4,0.005258003305356101
8.404,0.005256224305179632
8.408,0.005256657034952286
8.412,0.005256969562010315
8.416,0.0052577869404697745
8.42,0.005255887737578679
8.424,0.005255647332149426
8.428,0.0052546135888036395
8.432,0.00525608006192208
8.436,0.005258243710785354
8.44,0.005256176224093781
8.444,0.00525557521052065
8.448,0.005256608953866436
8.452,0.0052557194537782015
8.456,0.005259061089244813
8.46,0.005257498453954671
8.464,0.005258460075671681
8.468,0.00525877260272971
8.472,0.005257041683639091
8.476,0.005258219670242429
8.48,0.005257258048525418
8.484,0.005257522494497596
8.488,0.005257089764724942
8.492,0.005257883102641475
8.496,0.0052569936025532405
8.5,0.005254805913147041
8.504,0.0052557194537782015
8.508000000000001,0.005261777670595368
8.512,0.005262258481453873
8.516,0.005261609386794891
8.52,0.005262907576112855
8.524000000000001,0.005261248778651012
8.528,0.005261080494850535
8.532,0.005262498886883126
8.536,0.005262258481453873
8.540000000000001,0.005262619089597752
8.544,0.005261417062451488
8.548,0.005263508589685987
8.552,0.005264109603259118
8.556000000000001,0.0052634124275142856
8.56,0.00526379707620109
8.564,0.005264422130317146
8.568,0.005267787806326684
8.572000000000001,0.005266297292665317
8.576,0.0052647586979181005
8.58,0.00526471061683225
8.584,0.005265455873662933
8.588000000000001,0.005264951022261503
8.592,0.00526425384651667
8.596,0.00526749931981158
8.6,0.005269182157816349
8.604000000000001,0.005269254279445124
8.608,0.005271033279621594
8.612,0.005272451671654185
8.616,0.005270792874192342
8.620000000000001,0.005266513657551645
8.624,0.0052679320495842355
8.628,0.0052687975091295445
8.632,0.005268268617185189
8.636000000000001,0.005268412860442741
8.64,0.005270336103876762
8.644,0.00526785992795546
8.648,0.005265383752034157
8.652000000000001,0.005269230238902199
8.656,0.005269879333561181
8.66,0.005269398522702676
8.664,0.005270913076906968
8.668000000000001,0.005271802576995202
8.672,0.005273990266401402
8.676,0.005272668036540512
8.68,0.005271466009394249
8.684000000000001,0.0052722833878537075
8.688,0.005271081360707444
8.692,0.00526927831998805
8.696,0.005269494684874377
8.700000000000001,0.005271634293194725
8.704,0.005273918144772626
8.708,0.005274879766489636
8.712,0.0052749038070325615
8.716,0.00527247571219711
8.72,0.005271802576995202
8.724,0.00527156217156595
8.728,0.005269182157816349
8.732,0.00526968700921778
8.736,0.005271201563422071
8.74,0.005269638928131929
8.744,0.005268677306414918
8.748,0.005270744793106491
8.752,0.005273220969027793
8.756,0.005272067022967381
8.76,0.005271201563422071
8.764,0.005271345806679623
8.768,0.005269110036187573
8.772,0.005271874698623978
8.776,0.005271441968851324
8.78,0.005271754495909352
8.784,0.005271369847222548
8.788,0.005272115104053231
8.792,0.0052736296582575224
8.796,0.005274687442146234
8.8,0.0052741104691160275
8.804,0.005270239941705061
8.808,0.005268629225329067
8.812,0.0052706245903918645
8.816,0.0052673791170969545
8.82,0.005267956090127161
8.824,0.0052715140904801
8.828,0.005273749860972149
8.832,0.0052726920770834376
8.836,0.0052725237932829605
8.84,0.005270720752563566
8.844,0.00526927831998805
8.848,0.005270576509306014
8.852,0.005273269050113644
8.856,0.005274927847575487
8.86,0.005274471077259907
8.864,0.005274134509658953
8.868,0.005270937117449893
8.872,0.0052701437795333594
8.876,0.0052741104691160275
8.88,0.00527567310440617
8.884,0.0052749038070325615
8.888,0.005276322199065152
8.892,0.005275552901691544
8.896,0.005274278752916505
8.9,0.00527480764486086
8.904,0.005276370280151003
8.908,0.0052770434153529095
8.912,0.005276322199065152
8.916,0.005278365645213799
8.92,0.005279086861501557
8.924,0.005282380415882319
8.928,0.005280024442675643
8.932,0.005279014739872781
8.936,0.005277764631640668
8.94,0.005276322199065152
8.944,0.005278365645213799
8.948,0.00527932726693081
8.952,0.005280601415705849
8.956,0.005279158983130333
8.96,0.0052804571724482975
8.964,0.005278245442499173
8.968,0.005279447469645436
8.972,0.005281202429278981
8.976,0.005280889902220952
8.98,0.005281899605023813
8.984,0.005283173753798852
8.988,0.0052844959836597415
8.992,0.005283991132258311
8.996,0.005282332334796468
9.0,0.005281490915794084
9.004,0.005280601415705849
9.008000000000001,0.005280144645390269
9.012,0.005283750726829058
9.016,0.005283726686286133
9.02,0.005283053551084225
9.024000000000001,0.005282260213167692
9.028,0.0052769712937241345
9.032,0.005277596347840191
9.036,0.005281442834708233
9.040000000000001,0.005279880199418091
9.044,0.005278966658786931
9.048,0.005280000402132718
9.052,0.0052822842537106176
9.056000000000001,0.005280433131905372
9.06,0.005280889902220952
9.064,0.005281923645566738
9.068,0.0052818034428521125
9.072000000000001,0.005282500618596944
9.076,0.0052821159699101405
9.08,0.005282692942940347
9.084,0.005282548699682795
9.088000000000001,0.005281851523937962
9.092,0.005283173753798852
9.096,0.005281899605023813
9.1,0.005281659199594561
9.104000000000001,0.005280817780592176
9.108,0.005282452537511094
9.112,0.005285433564833827
9.116,0.005282813145654973
9.120000000000001,0.005283654564657357
9.124,0.005283077591627151
9.128,0.0052831497132559265
9.132,0.005283486280856881
9.136000000000001,0.005284303659316339
9.14,0.005281226469821906
9.144,0.005280409091362447
9.148,0.0052791830236732585
9.152000000000001,0.005278606050643052
9.156,0.005279928280503942
9.16,0.005281178388736056
9.164,0.005282332334796468
9.168000000000001,0.00528389497008661
9.172,0.005282332334796468
9.176,0.005281851523937962
9.18,0.005281683240137486
9.184000000000001,0.0052810101049355785
9.188,0.00528252465913987
9.192,0.005284135375515863
9.196,0.005285169118861649
9.200000000000001,0.005284327699859264
9.204,0.0052847363890889945
9.208,0.005284928713432396
9.212,0.005282476578054019
9.216000000000001,0.005283293956513478
9.22,0.005286659632523015
9.224,0.005287861659669278
9.228,0.005283293956513478
9.232,0.0052821159699101405
9.236,0.00528480851071777
9.24,0.005286851956866417
9.244,0.005290554200476908
9.248,0.00529069844373446
9.252,0.005287837619126354
9.256,0.005288270348899008
9.26,0.005289544497674047
9.264,0.005289183889530168
9.268,0.005287813578583428
9.272,0.005291275416764666
9.276,0.005292309160110452
9.28,0.005289640659845748
9.284,0.005288823281386289
9.288,0.005289063686815541
9.292,0.005288029943469755
9.296,0.005287020240666894
9.3,0.005287789538040503
9.304,0.005289472376045271
9.308,0.005291515822193918
9.312,0.005291419660022218
9.316,0.005291107132964189
9.32,0.005290794605906161
9.324,0.005292092795224124
9.328,0.005292669768254331
9.332,0.00529033783559058
9.336,0.005291996633052424
9.34,0.005292958254769435
9.344,0.00529120329513589
9.348,0.005291756227623171
9.352,0.005292669768254331
9.356,0.005290578241019833
9.36,0.005289616619302823
9.364,0.005290770565363236
9.368,0.005290409957219356
9.372,0.005290578241019833
9.376,0.005291804308709022
9.38,0.005292309160110452
9.384,0.00529252552499678
9.388,0.005291636024908545
9.392,0.0052933909845420905
9.396,0.005294713214402979
9.4,0.005293559268342567
9.404,0.0052949776603751575
9.408,0.005295554633405364
9.412,0.005296107565892645
9.416,0.005299545363530957
9.42,0.005301348404250352
9.424,0.005301757093480082
9.428,0.005301035877192324
9.432,0.0053005310257908935
9.436,0.0052989203094149
9.44,0.00529658837675115
9.444,0.005296540295665299
9.448,0.005296684538922851
9.452,0.00529978576896021
9.456,0.0053013964853362025
9.46,0.005297982728240815
9.464,0.005299088593215377
9.468,0.005298727985071499
9.472,0.005297069187609655
9.476,0.005295362309061961
9.48,0.005296612417294075
9.484,0.005296059484806794
9.488,0.005296828782180403
9.492,0.00529704514706673
9.496,0.005297790403897413
9.5,0.005299473241902181
9.504,0.005300723350134295
9.508000000000001,0.005301877296194708
9.512,0.005302838917911719
9.516,0.005301757093480082
9.52,0.00530161285022253
9.524000000000001,0.005300795471763071
9.528,0.005298487579642246
9.532,0.005302165782709811
9.536,0.0053030552827980455
9.540000000000001,0.005303680336914102
9.544,0.005304593877545263
9.548,0.005303584174742402
9.552,0.005302911039540495
9.556000000000001,0.0053006752690484445
9.56,0.005304040945057982
9.564,0.005303560134199477
9.568,0.005301733052937157
9.572000000000001,0.005301684971851306
9.576,0.005301324363707427
9.58,0.005305459337090572
9.584,0.005308272080612828
9.588000000000001,0.005307430661610444
9.592,0.005307863391383098
9.596,0.005309498148302017
9.6,0.005310171283503924
9.604000000000001,0.00530932986450154
9.608,0.0053105078511048774
9.612,0.005310171283503924
9.616,0.00530709409400949
9.620000000000001,0.00530846440495623
9.624,0.005309209661786913
9.628,0.005307310458895817
9.632,0.0053067815669514615
9.636000000000001,0.0053091615807010625
9.64,0.005310051080789298
9.644,0.005313536959513461
9.648,0.00531303210811203
9.652000000000001,0.005310652094362429
9.656,0.005308776932014259
9.66,0.0053086086482137815
9.664,0.00530704601292364
9.668000000000001,0.005310075121332223
9.672,0.00530983471590297
9.676,0.005308560567127931
9.68,0.0053075027832392195
9.684000000000001,0.0053073344994387425
9.688,0.00530846440495623
9.692,0.005308368242784529
9.696,0.005307142175095341
9.700000000000001,0.005305627620891049
9.704,0.005306541161522209
9.708,0.005308103796812351
9.712,0.0053078874319260234
9.716000000000001,0.005308344202241604
9.72,0.0053080557157265005
9.724,0.005307695107582622
9.728,0.00530800763464065
9.732,0.005305843985777377
9.736,0.005306348837178807
9.74,0.005302646593568316
9.744,0.005304449634287711
9.748,0.005307286418352892
9.752,0.00530755086432507
9.756,0.005307214296724117
9.76,0.0053077431886684725
9.764,0.005307695107582622
9.768,0.005311733918794066
9.772,0.0053115415944506635
9.776,0.005314089892000742
9.78,0.005313200391912507
9.784,0.005309906837531746
9.788,0.005309017337443512
9.792,0.005307671067039697
9.796,0.005309065418529361
9.8,0.005308825013100109
9.804,0.005309209661786913
9.808,0.005308560567127931
9.812,0.005308223999526978
9.816,0.005307935513011874
9.82,0.005309281783415689
9.824,0.00530892117527181
9.828,0.005308103796812351
9.832,0.005308175918441127
9.836,0.005308969256357661
9.84,0.005308199958984052
9.844,0.005309065418529361
9.848,0.0053120224053091695
9.852,0.005310579972733653
9.856,0.0053120945269379445
9.86,0.005311517553907738
9.864,0.005312695540511076
9.868,0.005314186054172443
9.872,0.005314089892000742
9.876,0.005312431094538899
9.88,0.005311469472821888
9.884,0.005313296554084208
9.888,0.00531627758140694
9.892,0.005313729283856863
9.896,0.005312551297253525
9.9,0.005311854121508692
9.904,0.005313536959513461
9.908,0.0053149553515460515
9.912,0.005315916973263062
9.916,0.00531618141923524
9.92,0.005312791702682777
9.924,0.005313200391912507
9.928,0.005312767662139852
9.932,0.0053139937298290404
9.936,0.0053149553515460515
9.94,0.005315027473174827
9.944,0.005316950716608848
9.948,0.005317070919323474
9.952,0.005314186054172443
9.956,0.005315051513717752
9.96,0.005315965054348912
9.964,0.005316037175977688
9.968,0.0053174796085532034
9.972,0.005317287284209802
9.976,0.0053155082840333325
9.98,0.005319042243843346
9.984,0.005320388514247161
9.988,0.005317671932896606
9.992,0.005316902635522997
9.996,0.00531668627063667
10.0,0.005315003432631902
10.004,0.005315099594803602
10.008000000000001,0.00531627758140694
10.012,0.005316950716608848
10.016,0.005319162446557973
10.02,0.005319907703388655
10.024000000000001,0.005320148108817908
10.028,0.005321326095421246
10.032,0.005324162879486427
10.036,0.005324619649802007
10.040000000000001,0.005322600244196285
10.044,0.005322528122567509
10.048,0.0053240667173147255
10.052,0.005323417622655744
10.056000000000001,0.005320316392618385
10.06,0.005321590541393424
10.064,0.00532125397379247
10.068,0.00532171074410805
10.072000000000001,0.005321061649449068
10.076,0.005321157811620769
10.08,0.005323129136140641
10.084,0.005322431960395808
10.088000000000001,0.005323682068627922
10.092,0.005322768527996762
10.096,0.005323706109170847
10.1,0.005324956217402961
10.104000000000001,0.005325076420117587
10.108,0.0053239945956859505
10.112,0.0053245475281732315
10.116,0.005327312190609636
10.120000000000001,0.005326807339208206
10.124,0.005326494812150177
10.128,0.005326038041834597
10.132,0.005327336231152562
10.136000000000001,0.00532810552852617
10.14,0.005329115231329031
10.144,0.005328321893412497
10.148,0.005327047744637458
10.152000000000001,0.005327288150066711
10.156,0.005329956650331416
10.16,0.0053315192856215575
10.164,0.005328850785356853
10.168000000000001,0.0053288267448139285
10.172,0.00532856229884175
10.176,0.005327672798753515
10.18,0.0053285863393846755
10.184000000000001,0.005330581704447473
10.188,0.005328658461013451
10.192,0.005325701474233644
10.196,0.0053288988664427035
10.200000000000001,0.005331062515305978
10.204,0.005332408785709793
10.208,0.005332528988424418
10.212,0.005330052812503116
10.216000000000001,0.005332504947881493
10.22,0.005336014867148582
10.224,0.00533901993501424
10.228,0.005338274678183557
10.232000000000001,0.005335702340090553
10.236,0.005335606177918852
10.24,0.005336423556378311
10.244,0.005335053245431571
10.248,0.0053312788801923045
10.252,0.005330461501732846
10.256,0.005331158677477679
10.26,0.005332336664081017
10.264,0.0053309663531342765
10.268,0.0053304134206469955
10.272,0.005330798069333799
10.276,0.005332096258651764
10.28,0.005330509582818697
10.284,0.005331687569422035
10.288,0.005333202123626326
10.292,0.005333442529055579
10.296,0.005333947380457009
10.3,0.005334836880545244
10.304,0.005334019502085785
10.308,0.005333610812856056
10.312,0.005334548394030141
10.316,0.005336183150949058
10.32,0.005335750421176404
10.324,0.005335197488689123
10.328,0.005335101326517422
10.332,0.0053338992993711585
10.336,0.005333418488512653
10.34,0.0053354138535754506
10.344,0.00533719285375192
10.348,0.005336471637464162
10.352,0.005335293650860824
10.356,0.005335149407603272
10.36,0.005335173448146198
10.364,0.005337337097009471
10.368,0.005336014867148582
10.372,0.00533582254280518
10.376,0.00533632739420661
10.38,0.005337553461895799
10.384,0.005339140137728866
10.388,0.005339140137728866
10.392,0.005338875691756688
10.396,0.005338274678183557
10.4,0.005339789232387848
10.404,0.005341399948763841
10.408,0.005342481773195479
10.412,0.005341856719079421
10.416,0.005340654691933158
10.42,0.005342601975910105
10.424,0.00534262601645303
10.428,0.005341880759622346
10.432,0.005341592273107243
10.436,0.005341279746049215
10.44,0.005338467002526958
10.444,0.005338539124155734
10.448,0.005338010232211378
10.452,0.005338827610670838
10.456,0.005339428624243969
10.46,0.005341592273107243
10.464,0.005342529854281329
10.468,0.005340366205418054
10.472,0.005340197921617578
10.476,0.005338226597097706
10.48,0.005339260340443492
10.484,0.005338467002526958
10.488,0.0053384189214411085
10.492,0.00533998155673125
10.496,0.0053428664218822825
10.5,0.0053425538948242545
10.504,0.005340750854104859
10.508000000000001,0.0053421211650516
10.512,0.005345222395088958
10.516,0.005344164611200247
10.52,0.00534394824631392
10.524000000000001,0.005340967218991186
10.528,0.005341183583877513
10.532,0.005343731881427592
10.536,0.005343635719255891
10.540000000000001,0.00534404440848562
10.544,0.005344525219344126
10.548,0.005343587638170041
10.552,0.0053434193543695635
10.556000000000001,0.005343275111112013
10.56,0.005342505813738404
10.564,0.005345150273460183
10.568,0.0053436597597988165
10.572000000000001,0.005340919137905335
10.576,0.005344308854457799
10.58,0.0053447656247733785
10.584,0.00534262601645303
10.588000000000001,0.0053453185572606594
10.592,0.005349405449557955
10.596,0.005349790098244759
10.6,0.005348612111641421
10.604000000000001,0.00534851594946972
10.608,0.005345895530290866
10.612,0.005345991692462567
10.616,0.005348491908926794
10.620000000000001,0.005351400814620751
10.624,0.005351016165933947
10.628,0.005349116963042851
10.632,0.005346256138434745
10.636000000000001,0.00534719371960883
10.64,0.005349693936073058
10.644,0.00535120849027735
10.648,0.0053515931389641535
10.652000000000001,0.005351400814620751
10.656,0.005352097990365584
10.66,0.005353107693168445
10.664,0.005350439192903741
10.668000000000001,0.005350703638875918
10.672,0.0053540452743425304
10.676,0.005351761422764631
10.68,0.005352795166110417
10.684000000000001,0.005355247301488794
10.688,0.005355944477233626
10.692,0.005356497409720907
10.696,0.005357963882839348
10.700000000000001,0.005359093788356835
10.704,0.0053599111668162945
10.708,0.0053549107338878394
10.712,0.005356401247549206
10.716000000000001,0.0053567378151501595
10.72,0.005358348531526153
10.724,0.005359526518129491
10.728,0.005359334193786088
10.732000000000001,0.005359238031614387
10.736,0.005359213991071462
10.74,0.0053581081260969
10.744,0.0053569782205794125
10.748000000000001,0.005357603274695469
10.752,0.005356617612435534
10.756,0.005355559828546822
10.76,0.005355920436690701
10.764,0.00535861297749833
10.768,0.005358324490983227
10.772,0.005358420653154929
10.776,0.005360343896588949
10.78,0.005360872788533305
10.784,0.005360343896588949
10.788,0.005361594004821063
10.792,0.005364310586171618
10.796,0.005364430788886244
10.8,0.00536262774816685
10.804,0.005362026734593718
10.808,0.005363709572598486
10.812,0.0053667386810070696
10.816,0.005365079883545226
10.82,0.005363012396853654
10.824,0.005363493207712159
10.828,0.005365632816032508
10.832,0.005366305951234414
10.836,0.005367363735123126
10.84,0.005365945343090536
10.844,0.005368229194668435
10.848,0.005367964748696258
10.852,0.0053706092084180364
10.856,0.005373085384339339
10.86,0.005371835276107225
10.864,0.005368878289327418
10.868,0.005367916667610407
10.872,0.005370272640817083
10.876,0.005369359100185923
10.88,0.005369767789415653
10.884,0.00536820515412551
10.888,0.005369479302900549
10.892,0.005370561127332186
10.896,0.005369863951587353
10.9,0.005367796464895781
10.904,0.005368108991953809
10.908,0.005368589802812315
10.912,0.005366762721549995
10.916,0.005367868586524557
10.92,0.0053686378838981655
10.924,0.005368589802812315
10.928,0.005368806167698642
10.932,0.005367868586524557
10.936,0.00536820515412551
10.94,0.005369479302900549
10.944,0.005371210221991168
10.948,0.005371282343619944
10.952,0.005376306817091324
10.956,0.005374359533114378
10.96,0.005375537519717716
10.964,0.005376595303606427
10.968,0.0053763308576342496
10.972,0.005374936506144584
10.976,0.005373518114111993
10.98,0.005373133465425189
10.984,0.0053740950871421994
10.988,0.005377484803694662
10.992,0.005378662790298
10.996,0.00538003310124474
11.0,0.005379672493100861
11.004,0.005377580965866363
11.008000000000001,0.0053806100742749465
11.012,0.005381211087848078
11.016,0.0053806100742749465
11.02,0.005378734911926776
11.024000000000001,0.005379600371472085
11.028,0.005381571695991957
11.032,0.005383783425941081
11.036,0.005385225858516597
11.040000000000001,0.005388182845296404
11.044,0.005389264669728041
11.048,0.005388230926382255
11.052,0.005386908696521365
11.056000000000001,0.005384672926029316
11.06,0.005383470898883053
11.064,0.005383615142140604
11.068,0.00538190826359291
11.072000000000001,0.00538145149327733
11.076,0.005380345628302768
11.08,0.005381980385221686
11.084,0.005383711304312305
11.088000000000001,0.005380465831017395
11.092,0.00538277372313822
11.096,0.0053835430205118285
11.1,0.005383711304312305
11.104000000000001,0.005384552723314689
11.108,0.005384264236799587
11.112,0.0053852018179736715
11.116,0.005383254533996725
11.120000000000001,0.005383110290739173
11.124,0.005384264236799587
11.128,0.0053840959529991095
11.132,0.005384168074627885
11.136000000000001,0.0053831343312820985
11.14,0.005382701601509444
11.144,0.005383254533996725
11.148,0.0053833026150825755
11.152000000000001,0.005383470898883053
11.156,0.005382052506850462
11.16,0.005381980385221686
11.164,0.005384793128743942
11.168000000000001,0.0053862355613194576
11.172,0.005385177777430746
11.176,0.005385778791003878
11.18,0.005386740412720888
11.184000000000001,0.005386067277518981
11.188,0.005384913331458568
11.192,0.005383975750284483
11.196,0.00538373534485523
11.200000000000001,0.005382797763681145
11.204,0.005382653520423593
11.208,0.0053835430205118285
11.212,0.0053868606154355144
11.216000000000001,0.005388182845296404
11.22,0.0053877981966096
11.224,0.005386644250549188
11.228,0.005387004858693066
11.232000000000001,0.005384793128743942
11.236,0.005385225858516597
11.24,0.0053873414262940195
11.244,0.005390322453616752
11.248000000000001,0.005388855980498312
11.252,0.005387702034437899
11.256,0.0053878222371525255
11.26,0.0053862355613194576
11.264,0.005386139399147756
11.268,0.005388447291268582
11.272,0.005388904061584162
11.276,0.0053903464941596774
11.28,0.005391428318591315
11.284,0.005395322886545207
11.288,0.005398977049069847
11.292,0.005398087548981613
11.296,0.005394529548628673
11.3,0.005395659454146161
11.304,0.00539556329197446
11.308,0.005396717238034873
11.312,0.005394313183742346
11.316,0.005395683494689087
11.32,0.005395851778489563
11.324,0.005394962278401329
11.328,0.005396572994777321
11.332,0.005395611373060311
11.336,0.00539688552183535
11.34,0.005396645116406097
11.344,0.0053951065216588795
11.348,0.00539688552183535
11.352,0.005396188346090517
11.356,0.005397606738123107
11.36,0.005399481900471278
11.364,0.005399722305900531
11.368,0.005400611805988765
11.372,0.005399481900471278
11.376,0.005397919265181136
11.38,0.005399409778842502
11.384,0.005401813833135028
11.388,0.005401934035849655
11.392,0.005402535049422786
11.396,0.005403472630596872
11.4,0.005401525346619925
11.404,0.005403184144081768
11.408,0.005402126360193057
11.412,0.005402126360193057
11.416,0.0054023186845364585
11.42,0.005402198481821833
11.424,0.005400804130332167
11.428,0.005400732008703391
11.432,0.005403640914397348
11.436,0.005405227590230416
11.44,0.0054085932662399526
11.444,0.005408040333752672
11.448,0.005408064374295597
11.452,0.005410468428588123
11.456,0.005410372266416422
11.46,0.0054081124553814475
11.464,0.005407511441808316
11.468,0.0054099395366437675
11.472,0.005408521144611177
11.476,0.005407295076921988
11.48,0.00540876155004043
11.484,0.005407775887780493
11.488,0.005408160536467298
11.492,0.00540926640144186
11.496,0.005406886387692259
11.5,0.005406189211947426
11.504,0.005407343158007839
11.508000000000001,0.005407030630949811
11.512,0.0054082807391819246
11.516,0.005409434685242337
11.52,0.005411982982792414
11.524000000000001,0.005414002388398137
11.528,0.005415180375001475
11.532,0.005416214118347261
11.536,0.0054152044155444
11.540000000000001,0.005414483199256642
11.544,0.0054153246182590264
11.548,0.0054156371453170545
11.552,0.005414723604685895
11.556000000000001,0.005413233091024528
11.56,0.0054134254153679305
11.564,0.005413353293739155
11.568,0.005412896523423575
11.572000000000001,0.005417824834723254
11.576,0.005418786456440264
11.58,0.0054158054291175315
11.584,0.005417271902235973
11.588000000000001,0.005418305645581759
11.592,0.005417776753637403
11.596,0.005418930699697816
11.6,0.005417416145493524
11.604000000000001,0.005415757348031681
11.608,0.00541652664540529
11.612,0.005419411510556321
11.616,0.005419651915985574
11.620000000000001,0.005416502604862364
11.624,0.005416646848119916
11.628,0.005418329686124684
11.632,0.0054200846457582285
11.636000000000001,0.005419892321414826
11.64,0.005420493334987958
11.644,0.005419603834899723
11.648,0.005418449888839311
11.652000000000001,0.005417512307665225
11.656,0.005419098983498293
11.66,0.005417969077980805
11.664,0.005418041199609581
11.668000000000001,0.005420445253902107
11.672,0.005421478997247894
11.676,0.005422873348737559
11.68,0.0054216713215912956
11.684000000000001,0.005421238591818641
11.688,0.005420998186389388
11.692,0.005422031929735175
11.696,0.005420252929558706
11.700000000000001,0.005422993551452185
11.704,0.005422536781136605
11.708,0.005425012957057908
11.712,0.005426359227461722
11.716000000000001,0.005425974578774918
11.72,0.005425493767916413
11.724,0.005423931132626271
11.728,0.005424051335340897
11.732000000000001,0.005424460024570627
11.736,0.005429797025100035
11.74,0.005427681457322611
11.744,0.005425613970631039
11.748000000000001,0.005425686092259815
11.752,0.00542525336248716
11.756,0.005424147497512598
11.76,0.00542794590329479
11.764000000000001,0.0054267438761485265
11.768,0.005427801660037238
11.772,0.0054299893494434365
11.776,0.005429075808812277
11.78,0.005430830768445821
11.784,0.005430542281930718
11.788,0.005426070740946619
11.792,0.005426407308547572
11.796,0.005423979213712121
11.8,0.005424219619141374
11.804,0.005425686092259815
11.808,0.005425445686830562
11.812,0.0054254697273734874
11.816,0.005426239024747096
11.82,0.0054243638623989255
11.824,0.005421959808106399
11.828,0.005423907092083346
11.832,0.005425830335517366
11.836,0.005424892754343281
11.84,0.00542429174077015
11.844,0.005427441051893359
11.848,0.00542982106564296
11.852,0.005432441484821813
11.856,0.0054349897823718915
11.86,0.005432417444278888
11.864,0.00543256168753644
11.868,0.005431095214417999
11.872,0.005431696227991131
11.876,0.005431431782018953
11.88,0.005431912592877458
11.884,0.005429652781842483
11.888,0.005429532579127857
11.892,0.005428282470895743
11.896,0.005427873781666014
11.9,0.005428066106009416
11.904,0.005428811362840099
11.908,0.005427681457322611
11.912,0.005429941268357587
11.916,0.00543027783595854
11.92,0.0054291238898981275
11.924,0.0054294364169561555
11.928,0.005432657849708141
11.932,0.005432802092965693
11.936,0.005432994417309094
11.94,0.005432585728079365
11.944,0.0054313356198472515
11.948,0.00543393199848318
11.952,0.00543114329550385
11.956,0.0054299893494434365
11.96,0.005428066106009416
11.964,0.005429556619670782
11.968,0.005430013389986362
11.972,0.0054318164307057566
11.976,0.00543571099865965
11.98,0.005435951404088903
11.984,0.005434220484998283
11.988,0.00543210491722086
11.992,0.005434028160654881
11.996,0.005433763714682703
12.0,0.005433499268710526
12.004,0.0054348214985714145
12.008000000000001,0.005435662917573799
12.012,0.005434965741828966
12.016,0.0054334031065388245
12.02,0.00543571099865965
12.024000000000001,0.005436528377119109
12.028,0.005435614836487948
12.032,0.005435951404088903
12.036,0.005437273633949791
12.040000000000001,0.005436191809518155
12.044,0.005435999485174752
12.048,0.0054380429313234
12.052,0.005440350823444225
12.056000000000001,0.005440206580186673
12.06,0.005438259296209728
12.064,0.005436913025805913
12.068,0.0054357831202884255
12.072000000000001,0.00543717747177809
12.076,0.0054371293906922405
12.08,0.005438115052952176
12.084,0.005437706363722447
12.088000000000001,0.005439124755755037
12.092,0.005439605566613542
12.096,0.005440951837017358
12.1,0.005440807593759807
12.104000000000001,0.005440591228873479
12.108,0.005445182972572204
12.112,0.0054460243915745886
12.116,0.005446745607862347
12.120000000000001,0.0054430914453377065
12.124,0.005440783553216881
12.128,0.005441120120817835
12.132,0.005444726202256624
12.136000000000001,0.005447514905235954
12.14,0.005445735905059485
12.144,0.005444557918456147
12.148,0.005444173269769343
12.152000000000001,0.00544434155356982
12.156,0.0054466494456906454
12.16,0.005445375296915606
12.164,0.0054463369186326166
12.168000000000001,0.005443019323708931
12.172,0.005444966607685877
12.176,0.00544393286434009
12.18,0.005445832067231186
12.184000000000001,0.005445928229402887
12.188,0.005445928229402887
12.192,0.005447250459263777
12.196,0.0054469619727486734
12.200000000000001,0.00544575994560241
12.204,0.005445904188859962
12.208,0.0054493660270412
12.212,0.00544840440532419
12.216000000000001,0.0054465773240618695
12.22,0.005447322580892553
12.224,0.005448139959352011
12.228,0.005449894918985556
12.232000000000001,0.005449630473013378
12.236,0.005447562986321805
12.24,0.005448332283695414
12.244,0.005445615702344859
12.248000000000001,0.005445880148317037
12.252,0.005447178337635001
12.256,0.00544758702686473
12.26,0.0054495823919275274
12.264000000000001,0.0054490294594402465
12.268,0.005448163999894937
12.272,0.005452371094906858
12.276,0.005453669284224822
12.280000000000001,0.0054493660270412
12.284,0.005448765013468068
12.288,0.005445519540173158
12.292,0.005446144594289215
12.296,0.005445207013115129
12.3,0.005445615702344859
12.304,0.005446384999718467
12.308,0.005445735905059485
12.312,0.005447659148493506
12.316,0.005446216715917991
12.32,0.00544845248641004
12.324,0.005448740972925143
12.328,0.005448019756637386
12.332,0.005447058134920375
12.336,0.005448091878266162
12.34,0.005449390067584125
12.344,0.005448572689124667
12.348,0.005448380364781264
12.352,0.0054458561077741115
12.356,0.005447899553922759
12.36,0.005447611067407656
12.364,0.005447058134920375
12.368,0.005446457121347243
12.372,0.005447250459263777
12.376,0.0054476831890364315
12.38,0.005450087243328958
12.384,0.005450928662331342
12.388,0.0054493660270412
12.392,0.005448308243152488
12.396,0.0054493660270412
12.4,0.005449245824326574
12.404,0.005448620770210517
12.408,0.005450519973101612
12.412,0.0054517220002478755
12.416,0.005450519973101612
12.42,0.00545073633798794
12.424,0.0054506161352733135
12.428,0.005448765013468068
12.432,0.005446000351031663
12.436,0.005447178337635001
12.44,0.005450592094730388
12.444,0.00545073633798794
12.448,0.005449221783783649
12.452,0.005448620770210517
12.456,0.005449053499983172
12.46,0.0054491977432407235
12.464,0.005449173702697798
12.468,0.0054493660270412
12.472,0.005448043797180311
12.476,0.005448500567495891
12.48,0.005450423810929912
12.484,0.005451072905588894
12.488,0.00545119310830352
12.492,0.005451625838076175
12.496,0.005453356757166794
12.5,0.005450760378530865
12.504,0.005450015121700182
12.508000000000001,0.005451385432646922
12.512,0.005449534310841677
12.516,0.005448957337811471
12.52,0.005451770081333726
12.524000000000001,0.005453188473366317
12.528,0.00545352504096727
12.532,0.00545342887879557
12.536,0.005454823230285235
12.540000000000001,0.0054548953519140105
12.544,0.005455736770916395
12.548,0.005455784852002246
12.552,0.005455832933088096
12.556000000000001,0.0054556165682017686
12.56,0.005454606865398908
12.564,0.005455472324944217
12.568,0.005454967473542786
12.572000000000001,0.005453621203138971
12.576,0.005453116351737541
12.58,0.0054540298923687015
12.584,0.005453933730197
12.588000000000001,0.005453693324767747
12.592,0.005455640608744694
12.596,0.005456842635890957
12.6,0.005455472324944217
12.604000000000001,0.0054554482844012915
12.608,0.005453693324767747
12.612,0.005454270297797954
12.616,0.005453933730197
12.620000000000001,0.005453981811282851
12.624,0.005453909689654075
12.628,0.005453981811282851
12.632,0.005455111716800338
12.636000000000001,0.005457299406206537
12.64,0.005455953135802722
12.644,0.005454919392456936
12.648,0.005456433946661228
12.652000000000001,0.005456313743946601
12.656,0.005457948500865519
12.66,0.005456097379060274
12.664,0.005457635973807491
12.668000000000001,0.005459991947014167
12.672,0.005462997014879825
12.676,0.005464679852884593
12.68,0.005465064501571397
12.684000000000001,0.005466819461204941
12.688,0.005468165731608756
12.692,0.005467468555863923
12.696,0.005467276231520522
12.700000000000001,0.005466987745005418
12.704,0.005464126920397312
12.708,0.005461963271534038
12.712,0.005461915190448188
12.716000000000001,0.005463237420309077
12.72,0.005462972974336899
12.724,0.005459222649640558
12.728,0.005458741838782053
12.732000000000001,0.005458188906294772
12.736,0.005456578189918779
12.74,0.005454630905941833
12.744,0.005454246257255028
12.748000000000001,0.005455376162772516
12.752,0.005454871311371085
12.756,0.005454150095083327
12.76,0.0054572753656636115
12.764000000000001,0.005457972541408444
12.768,0.005458477392809875
12.772,0.00545753981163579
12.776,0.005456578189918779
12.780000000000001,0.0054559290952597966
12.784,0.005458188906294772
12.788,0.005458813960410829
12.792,0.005460641041673149
12.796000000000001,0.005460424676786821
12.8,0.00545799658195137
12.804,0.005457419608921163
12.808,0.005458261027923548
12.812,0.005458838000953754
12.816,0.005459198609097633
12.82,0.005456025257431498
12.824,0.005453501000424346
12.828,0.00545535212222959
12.832,0.0054551357573432635
12.836,0.00545210664893468
12.84,0.005452587459793185
12.844,0.005454534743770132
12.848,0.005454823230285235
12.852,0.005457684054893342
12.856,0.005459246690183483
12.86,0.005457948500865519
12.864,0.005461578622847234
12.868,0.005462564285107169
12.872,0.005462444082392544
12.876,0.0054587899198679036
12.88,0.005458261027923548
12.884,0.00545987174429954
12.888,0.005461434379589682
12.892,0.005462131555334515
12.896,0.005461121852531654
12.9,0.005460232352443419
12.904,0.005462323879677917
12.908,0.0054630691365086005
12.912,0.005462251758049141
12.916,0.005462876812165198
12.92,0.005462468122935469
12.924,0.0054621075147915895
12.928,0.0054657616773162295
12.932,0.005464559650169966
12.936,0.005461987312076963
12.94,0.005462708528364721
12.944,0.005463910555510984
12.948,0.005462396001306693
12.952,0.005462299839134992
12.956,0.00546443944745534
12.96,0.0054655212718869774
12.964,0.005466194407088884
12.968,0.0054655212718869774
12.972,0.005466362690889361
12.976,0.0054665550152327635
12.98,0.005466747339576165
12.984,0.005467805123464877
12.988,0.0054689350289823645
12.992,0.00547032938047203
12.996,0.005470978475131011
13.0,0.005469055231696991
13.004,0.005467733001836101
13.008000000000001,0.005468526339752635
13.012,0.0054690071506111404
13.016,0.005467877245093653
13.02,0.00546443944745534
13.024000000000001,0.0054641750014831625
13.028,0.005466362690889361
13.032,0.0054633816635666285
13.036,0.0054655933935157525
13.040000000000001,0.005468141691065831
13.044,0.005467276231520522
13.048,0.005467612799121475
13.052,0.005468478258666785
13.056000000000001,0.00546677138011909
13.06,0.0054654491502582015
13.064,0.0054676368396644
13.068,0.005470257258843254
13.072000000000001,0.005471266961646115
13.076,0.005469367758755019
13.08,0.0054679734072653535
13.084,0.0054699206912423
13.088000000000001,0.0054702812993861795
13.092,0.005469776447984748
13.096,0.0054705938264442075
13.1,0.005470641907530058
13.104000000000001,0.005475257691771708
13.108,0.005476123151317018
13.112,0.0054744883943981006
13.116,0.005476099110774093
13.120000000000001,0.005474824961999054
13.124,0.005475474056658036
13.128,0.005475450016115111
13.132,0.005475810624258989
13.136000000000001,0.005473863340282044
13.14,0.005471964137390948
13.144,0.005472468988792378
13.148,0.00547403162408252
13.152000000000001,0.00547636355674627
13.156,0.005475714462087289
13.16,0.005475257691771708
13.164,0.005474993245799531
13.168000000000001,0.005476507800003822
13.172,0.005478382962351993
13.176,0.005477421340634983
13.18,0.005477541543349609
13.184000000000001,0.005477421340634983
13.188,0.005478743570495872
13.192,0.005479176300268527
13.196,0.005480450449043566
13.200000000000001,0.005481676516732754
13.204,0.005480258124700163
13.208,0.005479993678727985
13.212,0.005479897516556285
13.216000000000001,0.005482229449220035
13.22,0.005482061165419558
13.224,0.005483022787136568
13.228,0.005482950665507793
13.232000000000001,0.0054790560975539
13.236,0.005480859138273295
13.24,0.005485042192742291
13.244,0.005484272895368682
13.248000000000001,0.005485162395456917
13.252,0.005483311273651672
13.256,0.005483864206138953
13.26,0.0054842248142828315
13.264000000000001,0.005486075936088077
13.268,0.005486508665860732
13.272,0.00548727796323434
13.276,0.0054889127201532585
13.280000000000001,0.005489850301327344
13.284,0.005485210476542768
13.288,0.005482782381707316
13.292,0.005482950665507793
13.296000000000001,0.005482902584421943
13.3,0.005482998746593643
13.304,0.005484369057540383
13.308,0.005482229449220035
13.312000000000001,0.005480354286871865
13.316,0.005482421773563437
13.32,0.005485114314371067
13.324,0.005484849868398888
13.328,0.0054846335035125615
13.332,0.00548499411165644
13.336,0.005483840165596028
13.34,0.0054850181521993654
13.344,0.005485474922514945
13.348,0.005487590490292369
13.352,0.005486749071289984
13.356,0.005485330679257394
13.36,0.005484729665684263
13.364,0.005482157327591259
13.368,0.005482878543879017
13.372,0.005486749071289984
13.376,0.00548636442260318
13.38,0.005486676949661208
13.384,0.00548682119291876
13.388,0.0054866048280324325
13.392,0.005487374125406041
13.396,0.005487806855178696
13.4,0.005487181801062639
13.404,0.005486388463146106
13.408,0.0054851864359998425
13.412,0.005486099976631002
13.416,0.005486556746946583
13.42,0.005488047260607949
13.424,0.005490908085216056
13.428,0.005492086071819394
13.432,0.00549174950421844
13.436,0.005488576152552304
13.44,0.005485210476542768
13.444,0.005487229882148489
13.448,0.0054889848417820335
13.452,0.005488479990380603
13.456,0.005489129085039585
13.46,0.0054881915038655004
13.464,0.0054883597876659775
13.468,0.005488479990380603
13.472,0.005485715327944198
13.476,0.005488335747123052
13.48,0.005489369490468838
13.484,0.005493384261137358
13.488,0.005495692153258184
13.492,0.005495163261313827
13.496,0.0054958123559728095
13.5,0.0054973269101771015
13.504,0.005498288531894112
13.508000000000001,0.0055002598564139835
13.512,0.005501461883560247
13.516,0.005499562680669151
13.52,0.0054992261130681975
13.524000000000001,0.005500067532070581
13.528,0.005501101275416368
13.532,0.005501269559216844
13.536,0.0055002598564139835
13.540000000000001,0.0055000915726135064
13.544,0.005498697221123842
13.548,0.005497302869634176
13.552,0.0054997069239267025
13.556000000000001,0.005501461883560247
13.56,0.005503409167537193
13.564,0.005502976437764538
13.568,0.00550129359975977
13.572000000000001,0.005502183099848005
13.576,0.005504274627082502
13.58,0.005504466951425905
13.584,0.00550129359975977
13.588000000000001,0.005497783680492681
13.592,0.0055000194509847306
13.596,0.005501822491704125
13.6,0.005501942694418752
13.604000000000001,0.005504587154140531
13.608,0.00550494776228441
13.612,0.0055028802755928375
13.616,0.005498697221123842
13.620000000000001,0.005500860869987115
13.624,0.005502784113421136
13.628,0.005504659275769307
13.632,0.005504635235226382
13.636000000000001,0.005505308370428289
13.64,0.005504779478483933
13.644,0.005506221911059449
13.648,0.005506077667801897
13.652000000000001,0.005506462316488702
13.656,0.005508385559922722
13.66,0.005509275060010957
13.664,0.005509395262725584
13.668000000000001,0.005509082735667555
13.672,0.0055072316138623095
13.676,0.005508048992321769
13.68,0.0055077845463495905
13.684000000000001,0.005509034654581704
13.688,0.005508674046437826
13.692,0.005506173829973598
13.696,0.005507351816576936
13.700000000000001,0.0055102366817279674
13.704,0.005506702721917954
13.708,0.005506798884089655
13.712,0.005506846965175506
13.716000000000001,0.005507351816576936
13.72,0.005507856667978366
13.724,0.005509803951955313
13.728,0.005512087803533213
13.732000000000001,0.005512640736020494
13.736,0.005511486789960081
13.74,0.0055128571009068214
13.744,0.005510741533129398
13.748000000000001,0.005510765573672323
13.752,0.005510813654758174
13.756,0.005510765573672323
13.76,0.005511318506159605
13.764000000000001,0.005515525601171526
13.768,0.005516294898545134
13.772,0.005515189033570572
13.776,0.0055111983034449785
13.780000000000001,0.005511005979101576
13.784,0.005510717492586473
13.788,0.00551179931701811
13.792,0.005513770641537981
13.796000000000001,0.005513193668507775
13.8,0.005513121546879
13.804,0.005511342546702529
13.808,0.005510597289871847
13.812000000000001,0.005510044357384566
13.816,0.005512400330591242
13.82,0.005511005979101576
13.824,0.005510669411500623
13.828,0.005513770641537981
13.832,0.005513602357737505
13.836,0.005514011046967234
13.84,0.005511727195389334
13.844,0.005512328208962466
13.848,0.0055152371146564225
13.852,0.005517016114832892
13.856,0.005514107209138935
13.86,0.005513914884795533
13.864,0.005514636101083291
13.868,0.0055154775200856754
13.872,0.005514804384883768
13.876,0.005516847831032415
13.88,0.0055159583309441805
13.884,0.005515766006600778
13.888,0.005515838128229554
13.892,0.005516799749946564
13.896,0.005518338344693782
13.9,0.0055187229933805855
13.904,0.005516727628317789
13.908,0.005520261588127803
13.912,0.005517881574378202
13.916,0.005514179330767711
13.92,0.005516198736373433
13.924,0.005519636534011746
13.928,0.0055207904800721585
13.932,0.00552052603409998
13.936,0.005519083601524465
13.94,0.00551956441238297
13.944,0.0055213434125594395
13.948,0.005521920385589646
13.952,0.005519011479895689
13.956,0.005520189466499027
13.96,0.005520165425956102
13.964,0.005517761371663575
13.968,0.005516799749946564
13.972,0.005519732696183447
13.976,0.005522232912647674
13.98,0.0055221367504759734
13.984,0.005522329074819375
13.988,0.005521944426132571
13.992,0.005521030885501411
13.996,0.005522569480248628
14.0,0.005523651304680265
14.004,0.005524011912824143
14.008000000000001,0.005524901412912378
14.012,0.005525334142685033
14.016,0.005521800182875019
14.02,0.0055191316826103155
14.024000000000001,0.005522882007306656
14.028,0.005523242615450535
14.032,0.005522497358619852
14.036,0.005522256953190599
14.040000000000001,0.005523579183051489
14.044,0.005522737764049105
14.048,0.0055218963450467205
14.052,0.005523987872281218
14.056000000000001,0.005526536169831296
14.06,0.005524372520968023
14.064,0.005523987872281218
14.068,0.005527714156434634
14.072000000000001,0.005528363251093616
14.076,0.005527161223947353
14.08,0.0055256226292001364
14.084,0.005527666075348783
14.088000000000001,0.0055287238592374955
14.092,0.005528194967293139
14.096,0.005531368318959274
14.1,0.00553281075153479
14.104000000000001,0.005531272156787573
14.108,0.0055288681024950465
14.112,0.005529300832267702
14.116,0.0055285555754370184
14.120000000000001,0.005530190332355936
14.124,0.005530238413441787
14.128,0.005530358616156413
14.132,0.005529757602583282
14.136000000000001,0.005531993373075331
14.14,0.00553144044058805
14.144,0.005528844061952121
14.148,0.005531752967646079
14.152000000000001,0.005530767305386142
14.156,0.005529973967469608
14.16,0.005530719224300292
14.164,0.0055306951837573665
14.168000000000001,0.0055277622375204845
14.172,0.005530815386471993
14.176,0.005532113575789957
14.18,0.005528146886207289
14.184000000000001,0.0055319693325324056
14.188,0.005535310967999018
14.192,0.005532450143390911
14.196,0.00553007012964131
14.200000000000001,0.0055291085079242994
14.204,0.0055316568054743775
14.208,0.005536200468087252
14.212,0.005535911981572149
14.216000000000001,0.005536320670801878
14.22,0.005536753400574533
14.224,0.005537474616862291
14.228,0.005537138049261338
14.232000000000001,0.005537258251975963
14.236,0.005542042320018091
14.24,0.0055418019145888385
14.244,0.005541128779386931
14.248000000000001,0.0055383881574934506
14.252,0.005539542103553864
14.256,0.005540431603642098
14.26,0.005540647968528426
14.264000000000001,0.005541609590245436
14.268,0.005539469981925088
14.272,0.005540407563099173
14.276,0.005541176860472782
14.280000000000001,0.005540720090157202
14.284,0.005540936455043529
14.288,0.005540816252328902
14.292,0.00554153746861666
14.296000000000001,0.005541681711874212
14.3,0.00554336454987898
14.304,0.00554331646879313
14.308,0.005544710820282795
14.312000000000001,0.005544927185169123
14.316,0.005545359914941777
14.32,0.0055448069824544964
14.324,0.0055432203066214285
14.328000000000001,0.005541609590245436
14.332,0.005544494455396468
14.336,0.00555112964524384
14.34,0.0055496631721254
14.344,0.005550528631670709
14.348,0.00555295672650616
14.352,0.005550696915471186
14.356,0.005550095901898054
14.36,0.005551273888501392
14.364,0.005551009442529214
14.368,0.0055487736720371645
14.372,0.005546441739373414
14.376,0.005544951225712048
14.38,0.005544927185169123
14.384,0.0055456724419998054
14.388,0.005547283158375799
14.392,0.005550071861355129
14.396,0.005548533266607912
14.4,0.005546730225888518
14.404,0.005546826388060218
14.408,0.0055473793205475
14.412,0.005550384388413158
14.416,0.005551874902074524
14.42,0.005549927618097577
14.424,0.005550192064069755
14.428,0.005549446807239072
14.432,0.005546417698830489
14.436,0.005547307198918724
14.44,0.005546369617744638
14.444,0.005546778306974368
14.448,0.005548821753123015
14.452,0.005548869834208866
14.456,0.005548701550408389
14.46,0.00554697063131777
14.464,0.005546417698830489
14.468,0.005548533266607912
14.472,0.005549855496468801
14.476,0.005548557307150838
14.48,0.0055484611449791365
14.484,0.0055482928611786594
14.488,0.005548869834208866
14.492,0.00554930256398152
14.496,0.00554788417194893
14.5,0.005548581347693763
14.504,0.005549422766696147
14.508000000000001,0.0055473793205475
14.512,0.005548821753123015
14.516,0.005548917915294716
14.52,0.005550023780269278
14.524000000000001,0.0055513940912160185
14.528,0.005548990036923492
14.532,0.005548941955837642
14.536,0.005551033483072139
14.540000000000001,0.005549422766696147
14.544,0.005548581347693763
14.548,0.005550023780269278
14.552,0.005550576712756559
14.556000000000001,0.005551826820988673
14.56,0.005551898942617449
14.564,0.00555245187510473
14.568,0.005555793510571342
14.572000000000001,0.005555745429485491
14.576,0.005554230875281199
14.58,0.00555341349682174
14.584,0.005554543402339228
14.588000000000001,0.005553894307680246
14.592,0.005553629861708068
14.596,0.005551177726329691
14.6,0.0055503603478702325
14.604000000000001,0.005550937320900439
14.608,0.005551297929044317
14.612,0.005550961361443364
14.616,0.005551682577731121
14.620000000000001,0.00555295672650616
14.624,0.005552572077819356
14.628,0.00555382218605147
14.632,0.005552475915647655
14.636000000000001,0.005550216104612681
14.64,0.0055517787399028224
14.644,0.0055522595507613275
14.648,0.005555000172654808
14.652000000000001,0.005556827253917128
14.656,0.005555505024056238
14.66,0.005555961794371818
14.664,0.0055552646186269854
14.668000000000001,0.0055566108890308
14.672,0.005556466645773249
14.676,0.0055576446323765865
14.68,0.005556634929573726
14.684000000000001,0.005556923416088829
14.688,0.005555865632200117
14.692,0.005556899375545904
14.696,0.00555838988920727
14.700000000000001,0.005558774537894075
14.704,0.005558293727035569
14.708,0.0055583658486643445
14.712,0.005558197564863868
14.716000000000001,0.00555884665952285
14.72,0.0055591591865808785
14.724,0.005558245645949718
14.728,0.005558077362149242
14.732000000000001,0.005557788875634138
14.736,0.0055583658486643445
14.74,0.005559447673095981
14.744,0.005560072727212038
14.748000000000001,0.00555884665952285
14.752,0.005558678375722373
14.756,0.005560409294812992
14.76,0.00556067374078517
14.764000000000001,0.005558558173007747
14.768,0.005559351510924281
14.772,0.005559207267666729
14.776,0.005560241011012515
14.780000000000001,0.005562813349105519
14.784,0.00556295759236307
14.788,0.005565145281769269
14.792,0.005564952957425867
14.796000000000001,0.0055658184169711765
14.8,0.005565049119597568
14.804,0.0055648567952541654
14.808,0.005565217403398045
14.812000000000001,0.005567717619862272
14.816,0.0055711313769576595
14.82,0.0055731988636492326
14.824,0.005573823917765289
14.828000000000001,0.005573391187992634
14.832,0.005570939052614257
14.836,0.005571780471616642
14.84,0.005576492418029993
14.844000000000001,0.0055747855394823
14.848,0.005574665336767673
14.852,0.005576324134229516
14.856,0.0055761318098861146
14.86,0.005575506755770058
14.864,0.0055761318098861146
14.868,0.005575939485542712
14.872,0.005573391187992634
14.876,0.005572982498762905
14.88,0.005573992201565766
14.884,0.00557214107976052
14.888,0.005573270985278008
14.892,0.005575338471969581
14.896,0.005578319499292313
14.9,0.005579040715580071
14.904,0.005577862728976733
14.908,0.005576396255858292
14.912,0.005577381918118228
14.916,0.005580338904898036
14.92,0.005582117905074505
14.924,0.005580675472498989
14.928,0.005581949621274028
14.932,0.005580074458925857
14.936,0.00557940132372395
14.94,0.005579016675037146
14.944,0.0055788964723225195
14.948,0.005580146580554633
14.952,0.0055804110265268115
14.956,0.0055801706210975585
14.96,0.00557615585042904
14.964,0.005577333837032378
14.968,0.005580843756299466
14.972,0.0055815168915013735
14.976,0.005581300526615046
14.98,0.005579353242638099
14.984,0.005581084161728718
14.988,0.005580459107612661
14.992,0.005579978296754156
14.996,0.0055802427427263344
15.0,0.005581853459102327
15.004,0.005582766999733487
15.008000000000001,0.005583752661993423
15.012,0.005581925580731103
15.016,0.005579016675037146
15.02,0.0055786560668932665
15.024000000000001,0.005579257080466398
15.028,0.005581348607700896
15.032,0.005581805378016476
15.036,0.005580651431956064
15.040000000000001,0.005581877499645252
15.044,0.0055811082022716434
15.048,0.005580290823812185
15.052,0.005583199729506142
15.056000000000001,0.005585627824341593
15.06,0.00558437771610948
15.064,0.005582863161905188
15.068,0.005583031445705665
15.072000000000001,0.005586132675743024
15.076,0.005585964391942547
15.08,0.005586926013659558
15.084,0.0055906763383559
15.088000000000001,0.00558884925709358
15.092,0.005587310662346362
15.096,0.005587599148861465
15.1,0.0055888252165506545
15.104000000000001,0.005586974094745408
15.108,0.005586445202801053
15.112,0.0055892098652374584
15.116,0.005588296324606299
15.120000000000001,0.005588753094921879
15.124,0.005589402189580861
15.128,0.005587647229947316
15.132,0.005589858959896441
15.136000000000001,0.0055884886489497
15.14,0.005588055919177045
15.144,0.00558935410849501
15.148,0.005589161784151608
15.152000000000001,0.00558889733817943
15.156,0.005590988865413928
15.16,0.0055921428114743404
15.164,0.005592263014188967
15.168000000000001,0.005590532095098348
15.172,0.005590099365325694
15.176,0.005588777135464804
15.18,0.005589762797724739
15.184000000000001,0.0055907244194417505
15.188,0.005592214933103116
15.192,0.0055969028389735425
15.196,0.005599114568922667
15.200000000000001,0.005601446501586418
15.204,0.005602167717874176
15.208,0.005599114568922667
15.212,0.005597744257975927
15.216000000000001,0.005595869095627756
15.22,0.005595412325312177
15.224,0.005595604649655578
15.228,0.0055942102981659135
15.232000000000001,0.005595532528026803
15.236,0.0055945228252239415
15.24,0.005594859392824896
15.244,0.005594258379251764
15.248000000000001,0.005594498784681016
15.252,0.005595869095627756
15.256,0.005594186257622988
15.26,0.005592695743961621
15.264000000000001,0.005593056352105501
15.268,0.005593441000792305
15.272,0.0055943785819663906
15.276,0.005593609284592782
15.280000000000001,0.005593080392648426
15.284,0.005593176554820127
15.288,0.005593152514277202
15.292,0.005594090095451287
15.296000000000001,0.005595171919882924
15.3,0.005597744257975927
15.304,0.005595965257799458
15.308,0.0055954844469409525
15.312000000000001,0.0055978644606905536
15.316,0.0055971432444027955
15.32,0.005596109501057009
15.324,0.0055936573656786325
15.328000000000001,0.005596422028115037
15.332,0.00559803274449103
15.336,0.005600436798783556
15.34,0.005600028109553827
15.344000000000001,0.005601278217785941
15.348,0.005603441866649214
15.352,0.005602864893619008
15.356,0.005603129339591186
15.36,0.005602191758417101
15.364,0.005601542663758119
15.368,0.005601975393530773
15.372,0.005602023474616624
15.376,0.005600845488013286
15.38,0.005601879231359072
15.384,0.005601807109730296
15.388,0.005605605515512488
15.392,0.005606014204742217
15.396,0.0056056295560554135
15.4,0.005605148745196908
15.404,0.005603369745020439
15.408,0.005602792771990233
15.412,0.005605317028997385
15.416,0.005601638825929819
15.42,0.005600989731270838
15.424,0.005602768731447307
15.428,0.005602912974704858
15.432,0.005599138609465593
15.436,0.005596373947029187
15.44,0.005597191325488646
15.444,0.005598225068834432
15.448,0.005596566271372589
15.452,0.005599138609465593
15.456,0.0056007974069274356
15.46,0.005600436798783556
15.464,0.0055998357852104245
15.468,0.005599427095980695
15.472,0.00559711920385987
15.476,0.005600196393354304
15.48,0.005599186690551443
15.484,0.00559889820403634
15.488,0.005601999434073699
15.492,0.005599475177066546
15.496,0.0055973836498320485
15.5,0.005600965690727913
15.504,0.005602985096333634
15.508000000000001,0.005601302258328866
15.512,0.005601374379957642
15.516,0.005602119636788325
15.52,0.005601566704301044
15.524000000000001,0.00559985982575335
15.528,0.005602023474616624
15.532,0.005603465907192139
15.536,0.0056039707585935706
15.540000000000001,0.00560584592094174
15.544,0.005603105299048261
15.548,0.005604716015424253
15.552,0.005603850555878944
15.556000000000001,0.005602167717874176
15.56,0.005600653163669884
15.564,0.005603129339591186
15.568,0.0056046679343384025
15.572000000000001,0.005605605515512488
15.576,0.005601927312444923
15.58,0.005601879231359072
15.584,0.0056045958127096274
15.588000000000001,0.005606398853429022
15.592,0.005605557434426638
15.596,0.0056050766235681325
15.6,0.005605918042570516
15.604000000000001,0.005605196826282759
15.608,0.0056045236910808515
15.612,0.005604307326194524
15.616,0.005603105299048261
15.620000000000001,0.005602961055790709
15.624,0.005603898636964795
15.628,0.0056022879205888014
15.632,0.0056014224610434924
15.636000000000001,0.005602336001674652
15.64,0.005603201461219962
15.644,0.005602840853076082
15.648,0.005603826515336019
15.652000000000001,0.005603153380134111
15.656,0.005602504285475129
15.66,0.005602071555702475
15.664,0.005603874596421869
15.668000000000001,0.005606879664287527
15.672,0.0056072883535172565
15.676,0.005605413191169086
15.68,0.005606278650714396
15.684000000000001,0.005606014204742217
15.688,0.005607600880575285
15.692,0.005609091394236651
15.696,0.005606927745373378
15.700000000000001,0.005606110366913919
15.704,0.005607745123832836
15.708,0.005607889367090388
15.712,0.005608947150979099
15.716000000000001,0.005609524124009306
15.72,0.00560945200238053
15.724,0.005609283718580054
15.728,0.005607697042746986
15.732000000000001,0.005608730786092773
15.736,0.005610966556584822
15.74,0.00561219262427401
15.744,0.005609716448352708
15.748000000000001,0.005609211596951278
15.752,0.0056096683672668575
15.756,0.005609043313150801
15.76,0.00560716815080263
15.764000000000001,0.005606158447999769
15.768,0.0056070479480880035
15.772,0.005609644326723932
15.776,0.005609259678037128
15.780000000000001,0.005608682705006922
15.784,0.005611711813415505
15.788,0.005609379880751755
15.792,0.0056075287589465094
15.796000000000001,0.005610077056496587
15.8,0.005608514421206445
15.804,0.005606687339944125
15.808,0.005606879664287527
15.812000000000001,0.005609307759122979
15.816,0.005607961488719164
15.82,0.005608153813062566
15.824,0.005608129772519641
15.828000000000001,0.0056085625022922955
15.832,0.00560986069161026
15.836,0.00560950008346638
15.84,0.005608923110436174
15.844000000000001,0.005607889367090388
15.848,0.005612312826988637
15.852,0.0056152217326825935
15.856,0.005614885165081639
15.860000000000001,0.005617866192404372
15.864,0.005617409422088792
15.868,0.00561401970553633
15.872,0.005613250408162722
15.876,0.005614861124538714
15.88,0.0056176017464321945
15.884,0.005619068219550635
15.888,0.005617770030232672
15.892,0.005617890232947297
15.896,0.005620318327782749
15.9,0.00561813063837655
15.904,0.0056155342597406215
15.908,0.005617072854487839
15.912,0.0056170488139449136
15.916,0.005618899935750159
15.92,0.005617457503174643
15.924,0.005616904570687362
15.928,0.005618274881634102
15.932,0.00561945286823744
15.936,0.005623275314562556
15.94,0.00562539088233998
15.944,0.0056221934901309195
15.948,0.005619140341179411
15.952,0.005617962354576073
15.956,0.005619380746608664
15.96,0.005620678935926628
15.964,0.0056195009493232905
15.968,0.005620246206153973
15.972,0.005622818544246976
15.976,0.005621496314386087
15.98,0.005623467638905959
15.984,0.005625559166140457
15.988,0.005623948449764464
15.992,0.00562635250405699
15.996,0.005625270679625353
16.0,0.005625222598539503
16.004,0.00562676119328672
16.008,0.005625991895913111
16.012,0.005625150476910727
16.016000000000002,0.005625030274196101
16.02,0.0056259197742843355
16.024,0.005623996530850314
16.028,0.005622265611759695
16.032,0.005624140774107866
16.036,0.005626881396001346
16.04,0.0056306798017835375
16.044,0.005634309923765252
16.048000000000002,0.005633997396707224
16.052,0.005635776396883694
16.056,0.005636329329370975
16.06,0.005634814775166683
16.064,0.005634285883222327
16.068,0.00563229051815953
16.072,0.00563087212612694
16.076,0.005629597977351901
16.080000000000002,0.005629069085407545
16.084,0.005629910504409929
16.088,0.00563087212612694
16.092,0.005632987693904363
16.096,0.005630078788210406
16.1,0.005630559599068911
16.104,0.005633083856076064
16.108,0.005636329329370975
16.112000000000002,0.005639622883751736
16.116,0.0056391661134361564
16.12,0.005638012167375744
16.124,0.005637459234888463
16.128,0.005637146707830433
16.132,0.005635007099510085
16.136,0.005634382045394028
16.14,0.005634045477793075
16.144000000000002,0.0056341656805077005
16.148,0.005632675166846335
16.152,0.0056331319371619145
16.156,0.005633781031820897
16.16,0.0056355119509115155
16.164,0.00563762751868894
16.168,0.005637723680860641
16.172,0.005639382478322484
16.176000000000002,0.005637916005204043
16.18,0.005636377410456825
16.184,0.005635896599598319
16.188,0.005635079221138861
16.192,0.0056333723425911674
16.196,0.005635175383310562
16.2,0.0056370986267445826
16.204,0.005633444464219943
16.208000000000002,0.005633252139876541
16.212,0.005633228099333616
16.216,0.00563320405879069
16.22,0.005634934977881309
16.224,0.005635560031997366
16.228,0.005635247504939338
16.232,0.0056310644504703414
16.236,0.005635415788739814
16.240000000000002,0.005638877626921054
16.244,0.005637459234888463
16.248,0.005634694572452056
16.252,0.005633732950735046
16.256,0.005636281248285124
16.26,0.005639214194522007
16.264,0.005638661262034726
16.268,0.005642123100215964
16.272000000000002,0.005641498046099907
16.276,0.005640007532438541
16.28,0.005641113397413103
16.284,0.005640488343297046
16.288,0.005644358870708014
16.292,0.005647363938573672
16.296,0.005645777262740604
16.3,0.0056450320059099205
16.304000000000002,0.005645056046452846
16.308,0.005644623316680191
16.312,0.0056426519921603194
16.316,0.005643325127362227
16.32,0.005644503113965565
16.324,0.0056436136138773305
16.328,0.005643998262564134
16.332,0.005646979289886867
16.336000000000002,0.00564863808734871
16.34,0.0056505853713256565
16.344,0.005651426790328041
16.348,0.005650801736211984
16.352,0.0056529653850752575
16.356,0.00565270093910308
16.36,0.005648806371149187
16.364,0.005644046343649985
16.368000000000002,0.005642940478675423
16.372,0.005644743519394818
16.376,0.005642892397589572
16.38,0.005644430992336789
16.384,0.005644863722109444
16.388,0.005645705141111828
16.392,0.005646835046629315
16.396,0.005648157276490205
16.4,0.005648349600833607
16.404,0.005647700506174625
16.408,0.005648830411692112
16.412,0.005648109195404354
16.416,0.0056499603172096
16.42,0.0056515469930426675
16.424,0.005651474871413892
16.428,0.005653566398648389
16.432,0.0056516912363002185
16.436,0.0056489265738638135
16.44,0.005647003330429792
16.444,0.005651498911956817
16.448,0.005653325993219137
16.452,0.0056547924663375776
16.456,0.005654600141994176
16.46,0.005656403182713571
16.464,0.005655153074481457
16.468,0.0056548645879663535
16.472,0.0056572446017159545
16.476,0.005655201155567308
16.48,0.005652845182360631
16.484,0.005655153074481457
16.488,0.005654720344708802
16.492,0.005655393479910709
16.496,0.005658855318091947
16.5,0.005659480372208004
16.504,0.005659288047864602
16.508,0.00565726864225888
16.512,0.005658470669405143
16.516000000000002,0.005659792899266033
16.52,0.0056564512637994205
16.524,0.005656619547599898
16.528,0.005656715709771599
16.532,0.005656331061084795
16.536,0.005656475304342346
16.54,0.005658446628862218
16.544,0.005660369872296239
16.548000000000002,0.0056650096970808144
16.552,0.005666692535085583
16.556,0.005666380008027555
16.56,0.0056654183863105445
