0.0,-0.02132552420999895
0.004,-0.02132598098031453
0.008,-0.021326269466829632
0.012,-0.021326630074973513
0.016,-0.02132759169669052
0.02,-0.02132867352112216
0.024,-0.02133247192690435
0.028,-0.021333962440565717
0.032,-0.021331486264644414
0.036000000000000004,-0.021328216750806577
0.04,-0.02132622138574378
0.044,-0.02132470683153949
0.048,-0.02132602906140038
0.052000000000000005,-0.021329082210351888
0.056,-0.021331750710616593
0.06,-0.021332159399846323
0.064,-0.021330260196955227
0.068,-0.021328841804922637
0.07200000000000001,-0.021327808061576848
0.076,-0.021326149264115007
0.08,-0.021325043399140445
0.084,-0.02132581269651405
0.088,-0.021326005020857453
0.092,-0.021325139561312146
0.096,-0.021324177939595134
0.1,-0.021323312480049823
0.10400000000000001,-0.02132261530430499
0.108,-0.021320716101413898
0.112,-0.02131809568223504
0.116,-0.02131785527680579
0.12,-0.02132160560150213
0.124,-0.02132634158845841
0.128,-0.021330067872611824
0.132,-0.021332423845818498
0.136,-0.021334587494681773
0.14,-0.021336967508431375
0.14400000000000002,-0.021338530143721515
0.148,-0.021339107116751722
0.152,-0.02133725599494648
0.156,-0.02133631841377239
0.16,-0.021337159832774778
0.164,-0.021337472359832806
0.168,-0.021336150129971917
0.17200000000000001,-0.021333938400022793
0.176,-0.021333313345906733
0.18,-0.02133571740019926
0.184,-0.021337977211234236
0.188,-0.021338145495034714
0.192,-0.021337087711146
0.196,-0.02133744831928988
0.2,-0.021338554184264443
0.20400000000000001,-0.021338578224807368
0.20800000000000002,-0.021339155197837575
0.212,-0.02134009277901166
0.216,-0.021341174603443296
0.22,-0.02134059763041309
0.224,-0.021339852373582407
0.228,-0.021339203278923424
0.232,-0.021337881049062535
0.23600000000000002,-0.021336005886714363
0.24,-0.021334106683823267
0.244,-0.021335765481285112
0.248,-0.021337568522004507
0.252,-0.021338121454491786
0.256,-0.02133694346788845
0.26,-0.021336005886714363
0.264,-0.021334539413595924
0.268,-0.02133302485939163
0.272,-0.021330837169985434
0.276,-0.02132953898066747
0.28,-0.021328577358950458
0.28400000000000003,-0.021327519575061744
0.28800000000000003,-0.021327471493975896
0.292,-0.021327014723660314
0.296,-0.02132617330465793
0.3,-0.02132516360185507
0.304,-0.021325019358597517
0.308,-0.02132470683153949
0.312,-0.02132398561525173
0.316,-0.021324226020680986
0.32,-0.021324610669367788
0.324,-0.02132439430448146
0.328,-0.021323432682764452
0.332,-0.021322591263762066
0.336,-0.02132155752041628
0.34,-0.02132009104729784
0.34400000000000003,-0.021317206182146806
0.34800000000000003,-0.021315956073914694
0.352,-0.021316316682058575
0.356,-0.02131658112803075
0.36,-0.021316052236086395
0.364,-0.02131429727645285
0.368,-0.02131222978976128
0.372,-0.02131069119501406
0.376,-0.02131030654632726
0.38,-0.021311628776188148
0.384,-0.02131278272224856
0.388,-0.02131429727645285
0.392,-0.021316388803687348
0.396,-0.021317182141603882
0.4,-0.0213165330469449
0.404,-0.02131542718197034
0.40800000000000003,-0.021315090614369384
0.41200000000000003,-0.02131391262776605
0.41600000000000004,-0.021314441519710403
0.42,-0.021315883952285918
0.424,-0.02131667729020245
0.428,-0.021316196479343946
0.432,-0.021315282938712786
0.436,-0.021314441519710403
0.44,-0.02131391262776605
0.444,-0.021314273235909925
0.448,-0.02131506657382646
0.452,-0.02131542718197034
0.456,-0.021315643546856666
0.46,-0.021315186776541085
0.464,-0.02131388858722312
0.468,-0.021313191411478288
0.47200000000000003,-0.02131338373582169
0.47600000000000003,-0.02131533101979864
0.48,-0.021317326384861435
0.484,-0.02131744658757606
0.488,-0.021316869614545854
0.492,-0.021317037898346332
0.496,-0.021317326384861435
0.5,-0.02131761487137654
0.504,-0.021316316682058575
0.508,-0.021313407776364618
0.512,-0.021311773019445698
0.516,-0.021312999087134885
0.52,-0.021314489600796252
0.524,-0.021315451222513264
0.528,-0.0213163407226015
0.532,-0.02131739850649021
0.536,-0.021317518709204838
0.54,-0.02131684557400293
0.544,-0.02131708597943218
0.548,-0.021317975479520416
0.552,-0.021318792857979874
0.556,-0.021318840939065727
0.56,-0.02131799952006334
0.5640000000000001,-0.021317807195719938
0.5680000000000001,-0.02131725426323266
0.5720000000000001,-0.021316917695631706
0.5760000000000001,-0.021315451222513264
0.58,-0.021315306979255714
0.584,-0.02131451364133918
0.588,-0.021313527979079244
0.592,-0.021313696262879718
0.596,-0.021313527979079244
0.6,-0.021313023127677813
0.604,-0.02131114796532964
0.608,-0.02131030654632726
0.612,-0.021311989384332024
0.616,-0.02131441747916748
0.62,-0.02131617243880102
0.624,-0.021317037898346332
0.628,-0.021318071641692117
0.632,-0.021316725371288304
0.636,-0.02131511465491231
0.64,-0.02131328757364999
0.644,-0.021311989384332024
0.648,-0.0213119653437891
0.652,-0.02131323949256414
0.656,-0.021316268600972722
0.66,-0.021317422547033137
0.664,-0.021314128992652375
0.668,-0.02131059503284236
0.672,-0.021310859478814538
0.676,-0.021311748978902773
0.68,-0.021312542316819307
0.684,-0.02131232595193298
0.6880000000000001,-0.021313191411478288
0.6920000000000001,-0.021314273235909925
0.6960000000000001,-0.021314369398081626
0.7000000000000001,-0.02131465788459673
0.704,-0.021314730006225507
0.708,-0.021314489600796252
0.712,-0.021313311614192917
0.716,-0.021312205749218355
0.72,-0.02130953724895365
0.724,-0.02131004210035508
0.728,-0.021310162303069705
0.732,-0.021310378667956032
0.736,-0.02131155665455937
0.74,-0.021312926965506112
0.744,-0.0213140568710236
0.748,-0.02131439343862455
0.752,-0.02131374434396557
0.756,-0.02131242211410468
0.76,-0.02131078735718576
0.764,-0.0213097776543829
0.768,-0.02130886411375174
0.772,-0.0213075899649767
0.776,-0.021307181275746972
0.78,-0.021308142897463984
0.784,-0.021309393005696096
0.788,-0.02130972957329705
0.792,-0.02130744572171915
0.796,-0.021306099451315338
0.8,-0.021305618640456832
0.804,-0.02130542631611343
0.808,-0.0213050176268837
0.812,-0.021303406910507708
0.8160000000000001,-0.021301267302187357
0.8200000000000001,-0.02130258953204825
0.8240000000000001,-0.02130811885692106
0.8280000000000001,-0.021312926965506112
0.8320000000000001,-0.021315643546856666
0.836,-0.021317158101060957
0.84,-0.02131761487137654
0.844,-0.021318023560606268
0.848,-0.021319057303952053
0.852,-0.021319465993181783
0.856,-0.021318937101237428
0.86,-0.021318696695808173
0.864,-0.021319562155353484
0.868,-0.021320812263585596
0.872,-0.021321533479873356
0.876,-0.021321773885302608
0.88,-0.021321677723130907
0.884,-0.021322134493446488
0.888,-0.02132170176367383
0.892,-0.021321293074444102
0.896,-0.021321124790643627
0.9,-0.021320018925669065
0.904,-0.021319850641868587
0.908,-0.02132314419624935
0.912,-0.021326269466829632
0.916,-0.02132607714248623
0.92,-0.021324226020680986
0.924,-0.02132232681778989
0.928,-0.02132146135824458
0.932,-0.02132105266901485
0.936,-0.02132150943933043
0.9400000000000001,-0.021323625007107855
0.9440000000000001,-0.021326053101943306
0.9480000000000001,-0.0213278561426627
0.9520000000000001,-0.021327976345377326
0.9560000000000001,-0.021327759980491
0.96,-0.021328216750806577
0.964,-0.02132840907514998
0.968,-0.021327735939948075
0.972,-0.02132735129126127
0.976,-0.021326630074973513
0.98,-0.021325764615428202
0.984,-0.021324105817966357
0.988,-0.02132415389905221
0.992,-0.02132420198013806
0.996,-0.021323048034077648
1.0,-0.021322519142133293
1.004,-0.021321581560959205
1.008,-0.021320475695984643
1.012,-0.02131917750666668
1.016,-0.02131698981726048
1.02,-0.02131617243880102
1.024,-0.021316773452374153
1.028,-0.02131759083083361
1.032,-0.021317807195719938
1.036,-0.021319249628295456
1.04,-0.0213190092228662
1.044,-0.021317566790290687
1.048,-0.02131607627662932
1.052,-0.021315763749571292
1.056,-0.021317182141603882
1.06,-0.021317638911919463
1.064,-0.02131836012820722
1.068,-0.021318744776894025
1.072,-0.021318143763320894
1.076,-0.021318816898522802
1.08,-0.02132420198013806
1.084,-0.021324346223395612
1.088,-0.021324827034254118
1.092,-0.021324971277511668
1.096,-0.02132470683153949
1.1,-0.021324682790996564
1.104,-0.02132388945308003
1.108,-0.021322519142133293
1.112,-0.021320619939242197
1.116,-0.021319321749924233
1.12,-0.021319514074267635
1.124,-0.021319105385037902
1.1280000000000001,-0.02131809568223504
1.1320000000000001,-0.02131744658757606
1.1360000000000001,-0.021318384168750145
1.1400000000000001,-0.021319706398611034
1.1440000000000001,-0.02132095650684315
1.1480000000000001,-0.021322086412360636
1.1520000000000001,-0.021320884385214373
1.156,-0.021318432249835997
1.16,-0.021316917695631706
1.164,-0.02131785527680579
1.168,-0.02131953811481056
1.172,-0.021318480330921846
1.176,-0.021317326384861435
1.18,-0.02131694173617463
1.184,-0.02131708597943218
1.188,-0.021316821533460005
1.192,-0.021316773452374153
1.196,-0.02131744658757606
1.2,-0.021324370263938536
1.204,-0.02132583673705698
1.208,-0.021327327250718345
1.212,-0.021328745642750935
1.216,-0.02133045252129863
1.22,-0.02133119777812931
1.224,-0.021332279602560948
1.228,-0.021333866278394016
1.232,-0.021335236589340754
1.236,-0.021336390535401168
1.24,-0.021336414575944092
1.244,-0.021335525075855857
1.248,-0.021334323048709594
1.252,-0.0213348038595681
1.256,-0.021336246292143618
1.26,-0.02133516446771198
1.264,-0.021332039197131697
1.268,-0.021329082210351888
1.272,-0.02132735129126127
1.276,-0.02132552420999895
1.28,-0.021323769250365405
1.284,-0.021322855709734245
1.288,-0.021322447020504516
1.292,-0.021322807628648393
1.296,-0.021325860777599903
1.3,-0.021330212115869374
1.304,-0.021333962440565717
1.308,-0.02133663094083042
1.312,-0.021338433981549814
1.316,-0.02133901095458002
1.32,-0.021338385900463965
1.324,-0.02133824165720641
1.328,-0.021337929130148384
1.332,-0.02133836185992104
1.336,-0.02134009277901166
1.34,-0.02134095823855697
1.344,-0.021340765914213567
1.348,-0.021340477427698464
1.352,-0.021341294806157922
1.356,-0.021341727535930576
1.36,-0.02134261703601881
1.364,-0.021343338252306568
1.368,-0.021342641076561735
1.372,-0.02134237663058956
1.3760000000000001,-0.021342833400905138
1.3800000000000001,-0.021341415008872548
1.3840000000000001,-0.021339539846524376
1.3880000000000001,-0.021338458022092742
1.3920000000000001,-0.021338554184264443
1.3960000000000001,-0.02133826569774934
1.4000000000000001,-0.021337832967976682
1.4040000000000001,-0.02133816953557764
1.408,-0.021337832967976682
1.412,-0.0213368953868026
1.416,-0.02133631841377239
1.42,-0.021336462657029945
1.424,-0.02133530871096953
1.428,-0.021334924062282726
1.432,-0.021335116386626128
1.436,-0.02133622225160069
1.44,-0.02133831377883519
1.444,-0.021339852373582407
1.448,-0.021341487130501324
1.452,-0.021342256427874934
1.456,-0.021341294806157922
1.46,-0.021339900454668256
1.464,-0.021340044697925806
1.468,-0.021339611968153153
1.472,-0.021340621670956014
1.476,-0.021341294806157922
1.48,-0.02134059763041309
1.484,-0.02134045338715554
1.488,-0.021341655414301802
1.492,-0.021342592995475886
1.496,-0.021342496833304185
1.5,-0.021341126522357444
1.504,-0.021338746508607846
1.508,-0.021337881049062535
1.512,-0.021337472359832806
1.516,-0.021334972143368578
1.52,-0.021333265264820885
1.524,-0.021333193143192108
1.528,-0.021331678588987817
1.532,-0.021328962007637262
1.536,-0.02132867352112216
1.54,-0.021327784021033924
1.544,-0.021327110885832015
1.548,-0.0213278561426627
1.552,-0.021328937967094338
1.556,-0.02132937069686699
1.56,-0.021329394737409916
1.564,-0.021329442818495768
1.568,-0.02132886584546556
1.572,-0.021327735939948075
1.576,-0.021327543615604672
1.58,-0.021328553318407533
1.584,-0.02132951494012454
1.588,-0.021330308278041075
1.592,-0.021329731305010872
1.596,-0.021329755345553796
1.6,-0.021329899588811346
1.604,-0.021328697561665083
1.608,-0.021327976345377326
1.612,-0.021327759980491
1.616,-0.021328120588634876
1.62,-0.021328240791349505
1.624,-0.02132881776437971
1.6280000000000001,-0.021328721602208008
1.6320000000000001,-0.021329154331980665
1.6360000000000001,-0.021329106250894812
1.6400000000000001,-0.021330236156412302
1.6440000000000001,-0.02133196707550292
1.6480000000000001,-0.021332087278217546
1.6520000000000001,-0.02133247192690435
1.6560000000000001,-0.021331774751159518
1.6600000000000001,-0.021331798791702442
1.6640000000000001,-0.02133237576473265
1.668,-0.021333217183735032
1.672,-0.021334347089252522
1.676,-0.021335044264997355
1.68,-0.021335236589340754
1.684,-0.021335356792055383
1.688,-0.02133547699477001
1.692,-0.02133612608942899
1.696,-0.02133682326517382
1.7,-0.02133800125177716
1.704,-0.021338842670779543
1.708,-0.021337712765262057
1.712,-0.02133547699477001
1.716,-0.021333553751335988
1.72,-0.02133425092708082
1.724,-0.021335933765085587
1.728,-0.02133826569774934
1.732,-0.02134023702226921
1.736,-0.02134211218461738
1.74,-0.021343674819907524
1.744,-0.02134454027945283
1.748,-0.021345694225513245
1.752,-0.021346968374288285
1.756,-0.021347304941889238
1.76,-0.02134759342840434
1.764,-0.021347689590576042
1.768,-0.021348723333921828
1.772,-0.02134891565826523
1.776,-0.02134942050966666
1.78,-0.021349997482696868
1.784,-0.02135033405029782
1.788,-0.021350261928669043
1.792,-0.021350069604325644
1.796,-0.021351175469300206
1.8,-0.021351319712557756
1.804,-0.02135134375310068
1.808,-0.021350862942242175
1.812,-0.021350550415184147
1.816,-0.02134958879346714
1.82,-0.02134877141500768
1.824,-0.02134708857700291
1.828,-0.02134494896868256
1.832,-0.021343001684705615
1.836,-0.02134124672507207
1.84,-0.021340068738468734
1.844,-0.0213393715627239
1.848,-0.02134023702226921
1.852,-0.02134074187367064
1.856,-0.021339563887067304
1.86,-0.02133850610317859
1.864,-0.021338530143721515
1.868,-0.021337688724719132
1.872,-0.021337712765262057
1.8760000000000001,-0.021338385900463965
1.8800000000000001,-0.02133840994100689
1.8840000000000001,-0.021338650346436144
1.8880000000000001,-0.021338482062635666
1.8920000000000001,-0.021337304076032328
1.8960000000000001,-0.02133598184617144
1.9000000000000001,-0.02133506830554028
1.9040000000000001,-0.02133506830554028
1.9080000000000001,-0.021335693359656335
1.9120000000000001,-0.02133612608942899
1.9160000000000001,-0.02133672710300212
1.92,-0.021336390535401168
1.924,-0.021333914359479865
1.928,-0.021333313345906733
1.932,-0.021333361426992586
1.936,-0.021331678588987817
1.94,-0.0213300438320689
1.944,-0.021329659183382095
1.948,-0.02132876968329386
1.952,-0.021328481196778756
1.956,-0.021328024426463175
1.96,-0.021327303210175418
1.964,-0.02132634158845841
1.968,-0.02132533188565555
1.972,-0.0213255722910848
1.976,-0.021325788655971126
1.98,-0.021327158966917868
1.984,-0.02133018807532645
1.988,-0.02133362587296476
1.992,-0.021336438616487017
1.996,-0.02133867438697907
2.0,-0.021338433981549814
2.004,-0.02133759256254743
2.008,-0.021336606900287495
2.012,-0.02133663094083042
2.016,-0.021338554184264443
2.02,-0.021341030360185743
2.024,-0.021342328549503707
2.028,-0.021342496833304185
2.032,-0.021342809360362213
2.036,-0.021343722900993373
2.04,-0.02134475664433916
2.044,-0.021346848171573656
2.048,-0.02134867525283598
2.052,-0.021349997482696868
2.056,-0.021350261928669043
2.06,-0.021351632239615784
2.064,-0.021353555483049805
2.068,-0.021353074672191302
2.072,-0.021351295672014832
2.076,-0.021350021523239792
2.08,-0.021350959104413876
2.084,-0.021351824563959187
2.088,-0.021351127388214354
2.092,-0.02134927626640911
2.096,-0.021346776049944883
2.1,-0.02134420371185188
2.104,-0.021341294806157922
2.108,-0.02133951580598145
2.112,-0.021338049332863013
2.116,-0.021336462657029945
2.12,-0.021334106683823267
2.124,-0.02133292869721993
2.128,-0.02133384223785109
2.132,-0.02133634245431532
2.136,-0.021338842670779543
2.14,-0.021340525508784312
2.144,-0.0213439392658797
2.148,-0.021345766347142022
2.152,-0.02134521341465474
2.156,-0.021342905522533914
2.16,-0.021340116819554583
2.164,-0.021338385900463965
2.168,-0.021337568522004507
2.172,-0.021336919427345523
2.176,-0.02133607800834314
2.18,-0.02133566931911341
2.184,-0.021336053967800216
2.188,-0.021336654981373347
2.192,-0.021336366494858244
2.196,-0.021336919427345523
2.2,-0.021337784886890834
2.204,-0.02133816953557764
2.208,-0.021338602265350292
2.212,-0.02133877054915077
2.216,-0.021338458022092742
2.22,-0.02133764064363328
2.224,-0.02133744831928988
2.228,-0.02133631841377239
2.232,-0.02133571740019926
2.236,-0.021334274967623745
2.24,-0.02133324122427796
2.244,-0.021333577791878913
2.248,-0.02133292869721993
2.2520000000000002,-0.02133220748093217
2.2560000000000002,-0.021330885251071283
2.2600000000000002,-0.02132941877795284
2.2640000000000002,-0.02132809654809195
2.2680000000000002,-0.02132694260203154
2.2720000000000002,-0.021324778953168266
2.2760000000000002,-0.021323023993534723
2.2800000000000002,-0.02132232681778989
2.2840000000000003,-0.021322350858332815
2.2880000000000003,-0.02132201429073186
2.2920000000000003,-0.021320860344671448
2.2960000000000003,-0.021320403574355867
2.3000000000000003,-0.021320932466300225
2.3040000000000003,-0.02132374520982248
2.308,-0.0213255722910848
2.312,-0.021324947236968744
2.316,-0.021324322182852688
2.32,-0.02132374520982248
2.324,-0.021323721169279556
2.328,-0.021324370263938536
2.332,-0.021326365629001334
2.336,-0.021328240791349505
2.34,-0.021327784021033924
2.344,-0.021327110885832015
2.348,-0.021328240791349505
2.352,-0.02132850523732168
2.356,-0.02132749553451882
2.36,-0.021326774318231063
2.364,-0.021326389669544258
2.368,-0.02132583673705698
2.372,-0.021324947236968744
2.376,-0.021324370263938536
2.38,-0.021324346223395612
2.384,-0.021323360561135676
2.388,-0.021323625007107855
2.392,-0.02132607714248623
2.396,-0.02132759169669052
2.4,-0.02132759169669052
2.404,-0.02132809654809195
2.408,-0.021330933332157135
2.412,-0.02133379415676524
2.416,-0.02133374607567939
2.42,-0.021332327683646797
2.424,-0.021332592129618976
2.428,-0.02133328930536381
2.432,-0.02133362587296476
2.436,-0.02133297677830578
2.44,-0.021332712332333602
2.444,-0.021332135359303398
2.448,-0.021331822832245367
2.452,-0.021332159399846323
2.456,-0.021332039197131697
2.46,-0.02133211131876047
2.464,-0.021331991116045845
2.468,-0.021332688291790677
2.472,-0.021333193143192108
2.476,-0.02133506830554028
2.48,-0.0213369915489743
2.484,-0.02133932348163805
2.488,-0.02134069379258479
2.492,-0.021341126522357444
2.496,-0.021342496833304185
2.5,-0.02134288148199099
2.504,-0.021343169968506093
2.508,-0.02134379502262215
2.512,-0.021343963306422627
2.516,-0.02134475664433916
2.52,-0.02134547786062692
2.524,-0.02134658372560148
2.528,-0.0213485069690355
2.532,-0.02135018980704027
2.536,-0.021351271631471908
2.54,-0.021351223550386055
2.544,-0.02134966091509591
2.548,-0.02134805019871992
2.552,-0.021348026158176995
2.556,-0.021348795455550604
2.56,-0.021349348388037884
2.564,-0.02134886757717938
2.568,-0.02134826656360625
2.572,-0.021348482928492576
2.576,-0.021348579090664278
2.58,-0.02134905990152278
2.584,-0.021350069604325644
2.588,-0.021350382131383672
2.592,-0.021350382131383672
2.596,-0.021350165766497346
2.6,-0.02134937242858081
2.604,-0.02134749726623264
2.608,-0.021346271198543453
2.612,-0.021346271198543453
2.616,-0.021346752009401955
2.62,-0.021345934630942497
2.624,-0.02134420371185188
2.628,-0.02134454027945283
2.632,-0.02134506917139719
2.636,-0.021345646144427393
2.64,-0.02134607887420005
2.644,-0.021344107549680177
2.648,-0.021342136225160305
2.652,-0.0213414630899584
2.656,-0.021341823698102277
2.66,-0.021344780684882086
2.664,-0.02134817040143455
2.668,-0.02134918010423741
2.672,-0.021348963739351082
2.676,-0.021346655847230254
2.68,-0.02134506917139719
2.684,-0.02134530957682644
2.688,-0.021347184739174612
2.692,-0.021348026158176995
2.696,-0.02134915606369448
2.7,-0.021349805158353465
2.704,-0.02135033405029782
2.708,-0.021351223550386055
2.712,-0.021351944766673812
2.716,-0.02135228133427477
2.72,-0.021351728401787486
2.724,-0.0213507908206134
2.728,-0.021350550415184147
2.732,-0.021349564752924214
2.736,-0.021350045563782716
2.74,-0.021352305374817693
2.744,-0.021353868010107833
2.748,-0.021354108415537087
2.7520000000000002,-0.021354733469653144
2.7560000000000002,-0.021356512469829614
2.7600000000000002,-0.021357353888831997
2.7640000000000002,-0.02135850783489241
2.7680000000000002,-0.021358676118692885
2.7720000000000002,-0.021358099145662682
2.7760000000000002,-0.021358027024033905
2.7800000000000002,-0.021358748240321662
2.7840000000000003,-0.021358988645750917
2.7880000000000003,-0.021358628037607037
2.7920000000000003,-0.02135968582149575
2.7960000000000003,-0.021360142591811328
2.8000000000000003,-0.02135956561878112
2.8040000000000003,-0.021360046429639627
2.8080000000000003,-0.021361224416242965
2.8120000000000003,-0.02136184947035902
2.816,-0.021361993713616575
2.82,-0.02136353230836379
2.824,-0.021366296970800197
2.828,-0.02136872506563565
2.832,-0.021370263660382867
2.836,-0.02137117720101403
2.84,-0.021372162863273963
2.844,-0.021373773579649955
2.848,-0.021373581255306556
2.852,-0.021371754174044234
2.856,-0.021369566484638034
2.86,-0.021368412538577623
2.864,-0.021368100011519595
2.868,-0.021367018187087954
2.872,-0.02136632101134312
2.876,-0.02136737879523183
2.88,-0.021367931727719114
2.884,-0.02136954244409511
2.888,-0.021372523471417843
2.892,-0.021373461052591927
2.896,-0.02137355721476363
2.9,-0.021373220647162676
2.904,-0.02137209074164519
2.908,-0.021370383863097496
2.912,-0.02137014345766824
2.916,-0.021367619200661086
2.92,-0.021364157362479846
2.924,-0.02136120037570004
2.928,-0.021358868443036288
2.932,-0.021356055699514032
2.936,-0.021353868010107833
2.94,-0.02135201688830259
2.944,-0.021350141725954418
2.948,-0.02134809827980577
2.952,-0.02134420371185188
2.956,-0.02134033318444091
2.96,-0.021337520440918654
2.964,-0.021334347089252522
2.968,-0.021330308278041075
2.972,-0.02132800038592025
2.976,-0.021328841804922637
2.98,-0.021332399805275574
2.984,-0.0213347076973964
2.988,-0.02133562123802756
2.992,-0.021335020224454427
2.996,-0.021333697994593538
3.0,-0.021331438183558565
3.004,-0.0213299476698972
3.008,-0.02132881776437971
3.012,-0.021327423412890043
3.016,-0.02132622138574378
3.02,-0.02132530784511262
3.024,-0.02132489915588289
3.028,-0.021324081777423433
3.032,-0.021323817331451254
3.036,-0.02132247106104744
3.04,-0.021320403574355867
3.044,-0.021320475695984643
3.048,-0.021320716101413898
3.052,-0.02132013912838369
3.056,-0.021319802560782735
3.06,-0.021319321749924233
3.064,-0.021320211250012464
3.068,-0.02132211045290356
3.072,-0.021321942169103086
3.076,-0.02132078822304267
3.08,-0.021319874682411512
3.084,-0.0213187207363511
3.088,-0.021316509006401977
3.092,-0.021315379100884487
3.096,-0.021317013857803407
3.1,-0.02131795143897749
3.104,-0.02131799952006334
3.108,-0.021318239925492595
3.112,-0.02131761487137654
3.116,-0.021316917695631706
3.12,-0.0213165330469449
3.124,-0.02131648496585905
3.128,-0.021316292641515647
3.132,-0.02131501849274061
3.136,-0.021313431816907542
3.14,-0.021311941303246176
3.144,-0.021311099884243793
3.148,-0.021310354627413108
3.152,-0.021309200681352697
3.156,-0.021308743911037115
3.16,-0.021308239059635685
3.164,-0.021307638046062553
3.168,-0.021306724505431394
3.172,-0.021305738843171457
3.176,-0.021305786924257306
3.18,-0.02130633985674459
3.184,-0.02130831118126446
3.188,-0.021308840073208817
3.192,-0.021308743911037115
3.196,-0.021307998654206434
3.2,-0.021308912194837593
3.204,-0.021311268168044267
3.208,-0.021311773019445698
3.212,-0.021310835438271614
3.216,-0.021309344924610247
3.22,-0.021309296843524398
3.224,-0.021310066140898004
3.228,-0.02131028250578433
3.232,-0.021310667154471136
3.236,-0.021310162303069705
3.24,-0.02130989785709753
3.244,-0.021311797059988622
3.248,-0.02131388858722312
3.2520000000000002,-0.02131429727645285
3.2560000000000002,-0.021314321316995778
3.2600000000000002,-0.02131566758739959
3.2640000000000002,-0.021317013857803407
3.2680000000000002,-0.021318167803863818
3.2720000000000002,-0.021319922763497364
3.2760000000000002,-0.02132187004747431
3.2800000000000002,-0.02132201429073186
3.2840000000000003,-0.021321004587928998
3.2880000000000003,-0.021320884385214373
3.2920000000000003,-0.02132172580421676
3.2960000000000003,-0.021323120155706424
3.3000000000000003,-0.021322591263762066
3.3040000000000003,-0.021321942169103086
3.3080000000000003,-0.021320860344671448
3.3120000000000003,-0.021320018925669065
3.3160000000000003,-0.021320355493270018
3.3200000000000003,-0.02132045165544172
3.3240000000000003,-0.021318961141780352
3.3280000000000003,-0.021316965776717555
3.332,-0.02131684557400293
3.336,-0.0213163407226015
3.34,-0.021315956073914694
3.344,-0.021315859911742993
3.348,-0.021316316682058575
3.352,-0.02131689365508878
3.356,-0.021317662952462388
3.36,-0.02131799952006334
3.364,-0.02131811972277797
3.368,-0.021319057303952053
3.372,-0.02131936983101008
3.376,-0.021319417912095934
3.38,-0.02132078822304267
3.384,-0.021321533479873356
3.388,-0.02132242297996159
3.392,-0.021325139561312146
3.396,-0.021327014723660314
3.4,-0.021327423412890043
3.404,-0.021327158966917868
3.408,-0.02132631754791548
3.412,-0.021324634709910716
3.416,-0.021322182574532337
3.42,-0.021320740141956823
3.424,-0.021321677723130907
3.428,-0.021322134493446488
3.432,-0.021321004587928998
3.436,-0.02132045165544172
3.44,-0.021320379533812942
3.444,-0.021320619939242197
3.448,-0.021320475695984643
3.452,-0.02131826396603552
3.456,-0.021315715668485443
3.46,-0.021315691627942515
3.464,-0.021316653249659527
3.468,-0.021317686993005312
3.472,-0.021318312047121372
3.476,-0.021317061938889256
3.48,-0.021314994452197682
3.484,-0.02131297504659196
3.488,-0.021312999087134885
3.492,-0.0213140568710236
3.496,-0.02131456172242503
3.5,-0.02131475404676843
3.504,-0.02131547526305619
3.508,-0.02131542718197034
3.512,-0.02131547526305619
3.516,-0.02131475404676843
3.52,-0.021314273235909925
3.524,-0.021314946371111834
3.528,-0.02131598011445762
3.532,-0.02131598011445762
3.536,-0.021315715668485443
3.54,-0.021314633844053806
3.544,-0.02131347989799339
3.548,-0.021313191411478288
3.552,-0.021313672222336794
3.556,-0.021312686560076857
3.56,-0.021311244127501343
3.564,-0.02131114796532964
3.568,-0.021311484532930594
3.572,-0.0213120615059608
3.576,-0.02131247019519053
3.58,-0.021312758681705634
3.584,-0.021314128992652375
3.588,-0.021315090614369384
3.592,-0.02131501849274061
3.596,-0.021315355060341563
3.6,-0.021315956073914694
3.604,-0.02131694173617463
3.608,-0.02131809568223504
3.612,-0.021319105385037902
3.616,-0.021319802560782735
3.62,-0.0213187207363511
3.624,-0.021316220519886873
3.628,-0.021315234857626937
3.632,-0.02131511465491231
3.636,-0.021314994452197682
3.64,-0.021315210817084013
3.644,-0.0213165330469449
3.648,-0.021317037898346332
3.652,-0.021317374465947284
3.656,-0.021318239925492595
3.66,-0.021317542749747762
3.664,-0.02131648496585905
3.668,-0.02131547526305619
3.672,-0.02131465788459673
3.676,-0.02131511465491231
3.68,-0.021316292641515647
3.684,-0.02131667729020245
3.688,-0.021316100317172244
3.692,-0.02131607627662932
3.696,-0.021317879317348715
3.7,-0.021320980547386074
3.704,-0.021323625007107855
3.708,-0.02132492319642582
3.712,-0.02132648583171596
3.716,-0.021326005020857453
3.72,-0.021325091480226294
3.724,-0.021325019358597517
3.728,-0.02132516360185507
3.732,-0.021325115520769218
3.736,-0.02132364904765078
3.74,-0.021320740141956823
3.744,-0.02131953811481056
3.748,-0.021319105385037902
3.7520000000000002,-0.021319898722954436
3.7560000000000002,-0.021322134493446488
3.7600000000000002,-0.0213233846016786
3.7640000000000002,-0.021323048034077648
3.7680000000000002,-0.021322807628648393
3.7720000000000002,-0.02132263934484792
3.7760000000000002,-0.021321942169103086
3.7800000000000002,-0.021321653682587982
3.7840000000000003,-0.021322302777246963
3.7880000000000003,-0.021323673088193704
3.7920000000000003,-0.0213255722910848
3.7960000000000003,-0.02132725512908957
3.8000000000000003,-0.02132631754791548
3.8040000000000003,-0.021324346223395612
3.8080000000000003,-0.021321846006931384
3.8120000000000003,-0.021320427614898795
3.8160000000000003,-0.02131922558775253
3.8200000000000003,-0.021317735074091165
3.8240000000000003,-0.021314249195367
3.8280000000000003,-0.021311075843700865
3.8320000000000003,-0.021310570992299434
3.8360000000000003,-0.02131384050613727
3.84,-0.021318889020151575
3.844,-0.021322591263762066
3.848,-0.02132521168294092
3.852,-0.02132506743968337
3.856,-0.021322951871905946
3.86,-0.021322350858332815
3.864,-0.021322591263762066
3.868,-0.021322134493446488
3.872,-0.021322254696161114
3.876,-0.021321894088017233
3.88,-0.02132220661507526
3.884,-0.02132242297996159
3.888,-0.021322687425933767
3.892,-0.02132415389905221
3.896,-0.021325187642397995
3.9,-0.02132571653434235
3.904,-0.02132593289922868
3.908,-0.02132708684528909
3.912,-0.021328240791349505
3.916,-0.021329875548268422
3.92,-0.02133273637287653
3.924,-0.02133429900816667
3.928,-0.02133475577848225
3.932,-0.021335044264997355
3.936,-0.0213347076973964
3.94,-0.021333361426992586
3.944,-0.021331317980843936
3.948,-0.021330115953697673
3.952,-0.021329707264467944
3.956,-0.021331317980843936
3.96,-0.021332688291790677
3.964,-0.021331774751159518
3.968,-0.02133009191315475
3.972,-0.021329394737409916
3.976,-0.021328745642750935
3.98,-0.021328553318407533
3.984,-0.021329202413066514
3.988,-0.0213299476698972
3.992,-0.02132958706175332
3.996,-0.021328457156235832
4.0,-0.021327880183205625
4.0040000000000004,-0.02132749553451882
4.008,-0.02132759169669052
4.0120000000000005,-0.02132739937234712
4.016,-0.02132800038592025
4.0200000000000005,-0.02132876968329386
4.024,-0.021327976345377326
4.0280000000000005,-0.021326630074973513
4.032,-0.021324947236968744
4.0360000000000005,-0.02132333652059275
4.04,-0.021323913493622955
4.0440000000000005,-0.021324538547739014
4.048,-0.021323048034077648
4.0520000000000005,-0.021321004587928998
4.056,-0.021318696695808173
4.0600000000000005,-0.021319201547209603
4.064,-0.021321942169103086
4.0680000000000005,-0.021322951871905946
4.072,-0.021323456723307377
4.0760000000000005,-0.021323408642221525
4.08,-0.021323048034077648
4.0840000000000005,-0.021323264398963974
4.088,-0.021323023993534723
4.0920000000000005,-0.02132232681778989
4.096,-0.021321413277158727
4.1,-0.021320716101413898
4.104,-0.021321293074444102
4.108,-0.02132160560150213
4.112,-0.021321413277158727
4.116,-0.021320812263585596
4.12,-0.021320523777070496
4.124,-0.021319730439153962
4.128,-0.021320331452727093
4.132,-0.021320836304128524
4.136,-0.021320884385214373
4.14,-0.021322182574532337
4.144,-0.021322903790820094
4.148,-0.02132182196638846
4.152,-0.021320259331098317
4.156,-0.02132004296621199
4.16,-0.021321773885302608
4.164,-0.02132170176367383
4.168,-0.02132064397978512
4.172,-0.021320018925669065
4.176,-0.021320331452727093
4.18,-0.021319994885126137
4.184,-0.021318576493093547
4.188,-0.021316364763144423
4.192,-0.021313167370935363
4.196,-0.021310114221983856
4.2,-0.021309080478638068
4.204,-0.02131090755990039
4.208,-0.021312518276276383
4.212,-0.021313672222336794
4.216,-0.02131420111428115
4.22,-0.02131420111428115
4.224,-0.02131516273599816
4.228,-0.02131617243880102
4.232,-0.021316725371288304
4.236,-0.021316124357715172
4.24,-0.021314465560253328
4.244,-0.021313672222336794
4.248,-0.021313768384508495
4.252,-0.021314273235909925
4.256,-0.02131451364133918
4.26,-0.02131480212785428
4.264,-0.021313768384508495
4.268,-0.021312590397905156
4.272,-0.021311484532930594
4.276,-0.02130980169492583
4.28,-0.02130922472189562
4.284,-0.02131004210035508
4.288,-0.02131122008695842
4.292,-0.021312446154647606
4.296,-0.021311508573473522
4.3,-0.021310883519357463
4.304,-0.02131141241130182
4.308,-0.021311244127501343
4.312,-0.021310066140898004
4.316,-0.02130862370832249
4.32,-0.021308383302893235
4.324,-0.021308190978549833
4.328,-0.02130771016769133
4.332,-0.02130867178940834
4.336,-0.02130912855972392
4.34,-0.021308816032665892
4.344,-0.021307373600090374
4.348,-0.02130708511357527
4.352,-0.021307782289320103
4.356,-0.021308239059635685
4.36,-0.021307565924433777
4.364,-0.021306411978373366
4.368,-0.02130643601891629
4.372,-0.021306315816201665
4.376,-0.021305594599913907
4.38,-0.021305546518828055
4.384,-0.021306267735115812
4.388,-0.021306508140545067
4.392,-0.021306868748688944
4.396,-0.02130771016769133
4.4,-0.021308166938006908
4.404,-0.021309152600266845
4.408,-0.02130963341112535
4.412,-0.02131018634361263
4.416,-0.021311628776188148
4.42,-0.021313527979079244
4.424,-0.021313600100708017
4.428,-0.021314080911566523
4.432,-0.021314273235909925
4.436,-0.02131489829002598
4.44,-0.021316773452374153
4.444,-0.021317662952462388
4.448,-0.021318336087664296
4.452,-0.021320427614898795
4.456,-0.02132247106104744
4.46,-0.021323216317878122
4.464,-0.02132287975027717
4.468,-0.02132242297996159
4.472,-0.02132131711498703
4.476,-0.021320163168926615
4.48,-0.02131886497960865
4.484,-0.021320764182499747
4.488,-0.021323048034077648
4.492,-0.021323937534165883
4.496,-0.021324418345024385
4.5,-0.02132598098031453
4.5040000000000004,-0.021326918561488613
4.508,-0.02132675027768814
4.5120000000000005,-0.021327134926374943
4.516,-0.021328072507549027
4.5200000000000005,-0.021327279169632493
4.524,-0.02132562037217065
4.5280000000000005,-0.021325235723483847
4.532,-0.02132465875045364
4.5360000000000005,-0.021323625007107855
4.54,-0.021323552885479078
4.5440000000000005,-0.021323769250365405
4.548,-0.021322807628648393
4.5520000000000005,-0.021322182574532337
4.556,-0.021320860344671448
4.5600000000000005,-0.021320619939242197
4.564,-0.021320884385214373
4.5680000000000005,-0.02132114883118655
4.572,-0.02132105266901485
4.5760000000000005,-0.0213190092228662
4.58,-0.021317518709204838
4.5840000000000005,-0.02131790335789164
4.588,-0.021318840939065727
4.5920000000000005,-0.021318167803863818
4.596,-0.021317037898346332
4.6000000000000005,-0.021317182141603882
4.604,-0.02131840820929307
4.6080000000000005,-0.02131922558775253
4.612,-0.02131953811481056
4.616,-0.021319850641868587
4.62,-0.021320067006754914
4.624,-0.02132114883118655
4.628,-0.021322999952991795
4.632,-0.02132405773688051
4.636,-0.021326413710087182
4.64,-0.021327711899405147
4.644,-0.02132699068311739
4.648,-0.021326606034430585
4.652,-0.02132790422374855
4.656,-0.02132941877795284
4.66,-0.021330716967270805
4.664,-0.021331125656500534
4.668,-0.021330861210528358
4.672,-0.02133028423749815
4.676,-0.021331269899758087
4.68,-0.02133187091333122
4.684,-0.021332952737762857
4.688,-0.021334972143368578
4.692,-0.021335861643456813
4.696,-0.021334779819025176
4.7,-0.02133302485939163
4.704,-0.021332423845818498
4.708,-0.02133187091333122
4.712,-0.021332087278217546
4.716,-0.02133540487314123
4.72,-0.021338554184264443
4.724,-0.021340765914213567
4.728,-0.02134312188742024
4.732,-0.02134329017122072
4.736,-0.021343097846877317
4.74,-0.021345429779541066
4.744,-0.02134648756342978
4.748,-0.02134504513085426
4.752,-0.02134288148199099
4.756,-0.021341895819731053
4.76,-0.021341679454844727
4.764,-0.021341078441271595
4.768,-0.02134059763041309
4.772,-0.021341415008872548
4.776,-0.021342641076561735
4.78,-0.021342737238733436
4.784,-0.021341078441271595
4.788,-0.021340717833127715
4.792,-0.021343073806334392
4.796,-0.021344179671308954
4.8,-0.021343867144250926
4.804,-0.0213439392658797
4.808,-0.021344131590223102
4.812,-0.021344323914566504
4.816,-0.021344323914566504
4.82,-0.021343506536107046
4.824,-0.021342953603619767
4.828,-0.02134252087384711
4.832,-0.0213414630899584
4.836,-0.02134086207638527
4.84,-0.021339563887067304
4.844,-0.021337520440918654
4.848,-0.021337929130148384
4.852,-0.021338722468064918
4.856,-0.021340573589870165
4.86,-0.021342160265703233
4.864,-0.021342641076561735
4.868,-0.02134312188742024
4.872,-0.021343314211763643
4.876,-0.02134405946859433
4.88,-0.021344323914566504
4.884,-0.02134429987402358
4.888,-0.02134454027945283
4.892,-0.021345237455197664
4.896,-0.021345117252483038
4.9,-0.02134343441447827
4.904,-0.02134160733321595
4.908,-0.021341487130501324
4.912,-0.02134302572524854
4.916,-0.021345141293025963
4.92,-0.02134759342840434
4.924,-0.02134973303672469
4.928,-0.02135083890169925
4.932,-0.021351824563959187
4.936,-0.021351271631471908
4.94,-0.02134865121229305
4.944,-0.021345405738998142
4.948,-0.021341727535930576
4.952,-0.021339203278923424
4.956,-0.02133816953557764
4.96,-0.021338217616663487
4.964,-0.021338602265350292
4.968,-0.021338794589693694
4.972,-0.021339539846524376
4.976,-0.021338073373405937
4.98,-0.02133617417051484
4.984,-0.021337111751688925
4.988,-0.021338482062635666
4.992,-0.021338602265350292
4.996,-0.021337784886890834
5.0,-0.02133785700851961
5.0040000000000004,-0.021338073373405937
5.008,-0.021338385900463965
5.0120000000000005,-0.021338482062635666
5.016,-0.021337832967976682
5.0200000000000005,-0.02133773680580498
5.024,-0.02133740023820403
5.0280000000000005,-0.021337472359832806
5.032,-0.021337784886890834
5.0360000000000005,-0.02133776084634791
5.04,-0.021338482062635666
5.0440000000000005,-0.021339251360009276
5.048,-0.02134078995475649
5.0520000000000005,-0.021342352590046635
5.056,-0.021342496833304185
5.0600000000000005,-0.021342737238733436
5.064,-0.021344468157824058
5.0680000000000005,-0.021346776049944883
5.072,-0.02134800211763407
5.0760000000000005,-0.02134927626640911
5.08,-0.02134966091509591
5.0840000000000005,-0.021347160698631688
5.088,-0.021343314211763643
5.0920000000000005,-0.021343674819907524
5.096,-0.021346703928316106
5.1000000000000005,-0.02134881949609353
5.104,-0.021348579090664278
5.1080000000000005,-0.02134713665808876
5.112,-0.02134663180668733
5.1160000000000005,-0.021345742306599094
5.12,-0.021344275833480655
5.124,-0.021343097846877317
5.128,-0.021342328549503707
5.132,-0.021340717833127715
5.136,-0.021339876414125332
5.14,-0.02133941964380975
5.144,-0.02133901095458002
5.148,-0.021338602265350292
5.152,-0.021337424278746953
5.156,-0.02133723195440355
5.16,-0.021339227319466348
5.164,-0.02133951580598145
5.168,-0.02133790508960546
5.172,-0.021336799224630897
5.176,-0.02133725599494648
5.18,-0.02133840994100689
5.184,-0.02133749640037573
5.188,-0.021334443251424223
5.192,-0.02133333738644966
5.196,-0.02133292869721993
5.2,-0.021333601832421837
5.204,-0.02133403456219449
5.208,-0.021333986481108642
5.212,-0.02133324122427796
5.216,-0.021333313345906733
5.22,-0.02133415476490912
5.224,-0.021334948102825654
5.228,-0.02133506830554028
5.232,-0.021334347089252522
5.236,-0.021333505670250136
5.24,-0.0213325200079902
5.244,-0.021332279602560948
5.248,-0.021334082643280343
5.252,-0.021336005886714363
5.256,-0.021336150129971917
5.26,-0.021335284670426606
5.264,-0.021335452954227084
5.268,-0.021335837602913885
5.272,-0.021336198211057766
5.276,-0.021335693359656335
5.28,-0.021334779819025176
5.284,-0.02133379415676524
5.288,-0.021333265264820885
5.292,-0.021332183440389247
5.296,-0.021331125656500534
5.3,-0.021329659183382095
5.304,-0.021329851507725497
5.308,-0.02133155838627319
5.312,-0.021332423845818498
5.316,-0.02133333738644966
5.32,-0.021334467291967148
5.324,-0.02133540487314123
5.328,-0.021334996183911503
5.332,-0.021334924062282726
5.336,-0.02133540487314123
5.34,-0.02133675114354505
5.344,-0.021336871346259674
5.348,-0.021336558819201646
5.352,-0.02133557315694171
5.356,-0.02133634245431532
5.36,-0.021337328116575252
5.364,-0.021338145495034714
5.368,-0.021339034995122946
5.372,-0.021338289738292264
5.376,-0.02133612608942899
5.38,-0.02133384223785109
5.384,-0.02133362587296476
5.388,-0.02133374607567939
5.392,-0.02133374607567939
5.396,-0.02133384223785109
5.4,-0.021334948102825654
5.404,-0.02133547699477001
5.408,-0.021336198211057766
5.412,-0.02133566931911341
5.416,-0.02133540487314123
5.42,-0.0213347076973964
5.424,-0.021332712332333602
5.428,-0.021331125656500534
5.432,-0.021330668886184956
5.436,-0.021329875548268422
5.44,-0.021328144629177804
5.444,-0.021327519575061744
5.448,-0.021329346656324067
5.452,-0.02132982746718257
5.456,-0.021328697561665083
5.46,-0.021328793723836784
5.464,-0.021328625440036306
5.468,-0.021327832102119776
5.472,-0.02132809654809195
5.476,-0.021328553318407533
5.48,-0.021328745642750935
5.484,-0.02132836099406413
5.488,-0.02132886584546556
5.492,-0.021330260196955227
5.496,-0.021331077575414685
5.5,-0.021330115953697673
5.5040000000000004,-0.02132927453469529
5.508,-0.021328216750806577
5.5120000000000005,-0.02132648583171596
5.516,-0.021325187642397995
5.5200000000000005,-0.0213254761289131
5.524,-0.021326101183029154
5.5280000000000005,-0.021325788655971126
5.532,-0.021325596331627724
5.5360000000000005,-0.02132602906140038
5.54,-0.021325091480226294
5.5440000000000005,-0.02132170176367383
5.548,-0.021318937101237428
5.5520000000000005,-0.021316917695631706
5.556,-0.02131475404676843
5.5600000000000005,-0.021311773019445698
5.564,-0.021308936235380518
5.5680000000000005,-0.021307878451491805
5.572,-0.021307397640633302
5.5760000000000005,-0.021309561289496574
5.58,-0.021313768384508495
5.5840000000000005,-0.021317278303775583
5.588,-0.021319105385037902
5.5920000000000005,-0.02131968235806811
5.596,-0.021318937101237428
5.6000000000000005,-0.021317542749747762
5.604,-0.021315883952285918
5.6080000000000005,-0.021315042533283535
5.612,-0.021313672222336794
5.6160000000000005,-0.02131287888442026
5.62,-0.02131374434396557
5.6240000000000006,-0.02131388858722312
5.628,-0.021313527979079244
5.632,-0.021312181708675427
5.636,-0.02131054695175651
5.64,-0.02131028250578433
5.644,-0.021310234424698482
5.648,-0.02131059503284236
5.652,-0.0213097776543829
5.656,-0.021309994019269227
5.66,-0.021310667154471136
5.664,-0.021309753613839976
5.668,-0.02130903239755222
5.672,-0.02130886411375174
5.676,-0.021307974613663506
5.68,-0.021309080478638068
5.684,-0.021311123924786717
5.688,-0.021310883519357463
5.692,-0.02131045078958481
5.696,-0.02131059503284236
5.7,-0.021310763316642837
5.704,-0.02131028250578433
5.708,-0.021311099884243793
5.712,-0.02131328757364999
5.716,-0.021317206182146806
5.72,-0.02131936983101008
5.724,-0.021319898722954436
5.728,-0.021319802560782735
5.732,-0.02131968235806811
5.736,-0.02132069206087097
5.74,-0.02132220661507526
5.744,-0.021322543182676217
5.748,-0.02132220661507526
5.752,-0.021323625007107855
5.756,-0.02132542804782725
5.76,-0.021324466426110238
5.764,-0.021323504804393226
5.768,-0.021324514507196086
5.772,-0.021325379966741397
5.776,-0.021326461791173035
5.78,-0.021327231088546644
5.784,-0.021327663818319298
5.788,-0.021327615737233446
5.792,-0.021327880183205625
5.796,-0.02132682239931691
5.8,-0.021326125223572082
5.804,-0.0213256684532565
5.808,-0.02132617330465793
5.812,-0.02132675027768814
5.816,-0.02132749553451882
5.82,-0.02132850523732168
5.824,-0.021328625440036306
5.828,-0.021328986048180187
5.832,-0.021329394737409916
5.836,-0.021329995750983047
5.84,-0.021332183440389247
5.844,-0.02133384223785109
5.848,-0.021335236589340754
5.852,-0.02133540487314123
5.856,-0.02133557315694171
5.86,-0.021336390535401168
5.864,-0.02133809741394886
5.868,-0.021338602265350292
5.872,-0.02133773680580498
5.876,-0.02133740023820403
5.88,-0.021337424278746953
5.884,-0.021337111751688925
5.888,-0.021337472359832806
5.892,-0.02133809741394886
5.896,-0.0213393715627239
5.9,-0.021338722468064918
5.904,-0.021335549116398785
5.908,-0.02133420284599497
5.912,-0.021334274967623745
5.916,-0.021335909724542662
5.92,-0.021335356792055383
5.924,-0.02133521254879783
5.928,-0.021336198211057766
5.932,-0.02133648669757287
5.936,-0.021334371129795447
5.94,-0.021333770116222315
5.944,-0.02133314506210626
5.948,-0.02133201515658877
5.952,-0.02132958706175332
5.956,-0.021327976345377326
5.96,-0.02132826483189243
5.964,-0.021329058169808963
5.968,-0.021329202413066514
5.972,-0.02132881776437971
5.976,-0.021328793723836784
5.98,-0.021328937967094338
5.984,-0.021328601399493382
5.988,-0.021326654115516437
5.992,-0.021324875115339967
5.996,-0.021323360561135676
6.0,-0.02132232681778989
6.0040000000000004,-0.021322663385390843
6.008,-0.02132263934484792
6.0120000000000005,-0.021324274101766835
6.016,-0.02132530784511262
6.0200000000000005,-0.021324009655794656
6.024,-0.02132314419624935
6.0280000000000005,-0.02132263934484792
6.032,-0.021322807628648393
6.0360000000000005,-0.02132314419624935
6.04,-0.021323913493622955
6.0440000000000005,-0.02132429814230976
6.048,-0.021324322182852688
6.0520000000000005,-0.02132398561525173
6.056,-0.02132470683153949
6.0600000000000005,-0.02132530784511262
6.064,-0.021323937534165883
6.0680000000000005,-0.02132206237181771
6.072,-0.021320740141956823
6.0760000000000005,-0.021321244993358253
6.08,-0.02132273550701962
6.0840000000000005,-0.021324610669367788
6.088,-0.021327110885832015
6.0920000000000005,-0.021327567656147597
6.096,-0.021325908858685752
6.1000000000000005,-0.021324827034254118
6.104,-0.02132415389905221
6.1080000000000005,-0.02132287975027717
6.112,-0.021321581560959205
6.1160000000000005,-0.021320860344671448
6.12,-0.02131936983101008
6.1240000000000006,-0.021318167803863818
6.128,-0.02131749466866191
6.132000000000001,-0.021316965776717555
6.136,-0.021316292641515647
6.140000000000001,-0.021315643546856666
6.144,-0.02131374434396557
6.148,-0.021311508573473522
6.152,-0.02130994593818338
6.156,-0.021308743911037115
6.16,-0.021306652383802617
6.164,-0.02130475318091152
6.168,-0.021304993586340776
6.172,-0.02130708511357527
6.176,-0.02130876795158004
6.18,-0.02130795057312058
6.184,-0.02130744572171915
6.188,-0.021308791992122964
6.192,-0.021311508573473522
6.196,-0.021314633844053806
6.2,-0.02131775911463409
6.204,-0.021319417912095934
6.208,-0.021320307412184165
6.212,-0.02132105266901485
6.216,-0.021321244993358253
6.22,-0.02131912942558083
6.224,-0.02131850437146477
6.228,-0.021319730439153962
6.232,-0.021321244993358253
6.236,-0.02132273550701962
6.24,-0.021323528844936154
6.244,-0.02132374520982248
6.248,-0.02132398561525173
6.252,-0.021324105817966357
6.256,-0.021323552885479078
6.26,-0.021321341155529954
6.264,-0.021318384168750145
6.268,-0.021316797492917077
6.272,-0.021316292641515647
6.276,-0.02131607627662932
6.28,-0.021317326384861435
6.284,-0.021320163168926615
6.288,-0.021324947236968744
6.292,-0.021328048467006103
6.296,-0.021330668886184956
6.3,-0.021332423845818498
6.304,-0.021332423845818498
6.308,-0.021331245859215163
6.312,-0.02133264021070483
6.316,-0.02133420284599497
6.32,-0.021332904656677004
6.324,-0.021331486264644414
6.328,-0.021330668886184956
6.332,-0.021331269899758087
6.336,-0.02133206323767462
6.34,-0.021331654548444892
6.344,-0.02133211131876047
6.348,-0.021334274967623745
6.352,-0.02133816953557764
6.356,-0.02134059763041309
6.36,-0.021341126522357444
6.364,-0.021339972576297033
6.368,-0.02133776084634791
6.372,-0.021336390535401168
6.376,-0.021335957805628514
6.38,-0.021335789521828036
6.384,-0.021334996183911503
6.388,-0.021334827900111025
6.392,-0.021334996183911503
6.396,-0.02133405860273742
6.4,-0.021333048899934558
6.404,-0.0213304284807557
6.408,-0.021327231088546644
6.412,-0.021324466426110238
6.416,-0.021324009655794656
6.42,-0.021324226020680986
6.424,-0.021324682790996564
6.428,-0.02132631754791548
6.432,-0.021328553318407533
6.436,-0.021330981413242984
6.44,-0.02133516446771198
6.444,-0.021339203278923424
6.448,-0.02134059763041309
6.452,-0.021339443684352675
6.456,-0.021338602265350292
6.46,-0.021337159832774778
6.464,-0.021334587494681773
6.468,-0.021331582426816115
6.472,-0.021330741007813733
6.476,-0.02133160646735904
6.48,-0.021332135359303398
6.484,-0.021332399805275574
6.488,-0.02133187091333122
6.492,-0.021331342021386864
6.496,-0.021330981413242984
6.5,-0.021330861210528358
6.5040000000000004,-0.02133105353487176
6.508,-0.021329851507725497
6.5120000000000005,-0.021329106250894812
6.516,-0.02132816866972073
6.5200000000000005,-0.021328072507549027
6.524,-0.02132963514283917
6.5280000000000005,-0.0213304284807557
6.532,-0.021330236156412302
6.5360000000000005,-0.021329731305010872
6.54,-0.021328433115692907
6.5440000000000005,-0.021326702196602286
6.548,-0.02132593289922868
6.5520000000000005,-0.02132684643985984
6.556,-0.02132725512908957
6.5600000000000005,-0.021327327250718345
6.564,-0.02132694260203154
6.5680000000000005,-0.02132622138574378
6.572,-0.021324322182852688
6.5760000000000005,-0.02132242297996159
6.58,-0.02132242297996159
6.5840000000000005,-0.021324827034254118
6.588,-0.021326413710087182
6.5920000000000005,-0.02132525976402677
6.596,-0.02132429814230976
6.6000000000000005,-0.021324009655794656
6.604,-0.02132405773688051
6.6080000000000005,-0.02132425006122391
6.612,-0.021323456723307377
6.6160000000000005,-0.021323216317878122
6.62,-0.021322999952991795
6.6240000000000006,-0.021323552885479078
6.628,-0.02132324035842105
6.632000000000001,-0.02132232681778989
6.636,-0.02132136519607288
6.640000000000001,-0.021320307412184165
6.644,-0.0213190092228662
6.648000000000001,-0.02131876881743695
6.652,-0.02131968235806811
6.656000000000001,-0.02131968235806811
6.66,-0.021318696695808173
6.664,-0.02131790335789164
6.668,-0.02131809568223504
6.672,-0.0213187207363511
6.676,-0.021319057303952053
6.68,-0.021318696695808173
6.684,-0.021317879317348715
6.688,-0.02131811972277797
6.692,-0.0213187207363511
6.696,-0.02131876881743695
6.7,-0.021318648614722324
6.704,-0.021319081344494978
6.708,-0.021318985182323277
6.712,-0.02131809568223504
6.716,-0.02131876881743695
6.72,-0.021319898722954436
6.724,-0.021318648614722324
6.728,-0.021319201547209603
6.732,-0.021320307412184165
6.736,-0.021321894088017233
6.74,-0.021324009655794656
6.744,-0.021324586628824863
6.748,-0.021323600966564927
6.752,-0.021324177939595134
6.756,-0.021324322182852688
6.76,-0.021323769250365405
6.764,-0.02132273550701962
6.768,-0.02132196620964601
6.772,-0.02132206237181771
6.776,-0.02132273550701962
6.78,-0.021323408642221525
6.784,-0.021322495101590365
6.788,-0.021320523777070496
6.792,-0.021320235290555392
6.796,-0.021321172871729476
6.8,-0.021320475695984643
6.804,-0.021319249628295456
6.808,-0.02132013912838369
6.812,-0.021321004587928998
6.816,-0.02132237489887574
6.82,-0.021323865412537106
6.824,-0.02132658199388766
6.828,-0.021328240791349505
6.832,-0.021329154331980665
6.836,-0.0213278561426627
6.84,-0.021325235723483847
6.844,-0.021324009655794656
6.848,-0.02132533188565555
6.852,-0.021326702196602286
6.856,-0.021327207048003716
6.86,-0.021327183007460792
6.864,-0.021326798358773987
6.868,-0.021326413710087182
6.872,-0.021326365629001334
6.876,-0.02132542804782725
6.88,-0.02132581269651405
6.884,-0.021325908858685752
6.888,-0.021324514507196086
6.892,-0.021322687425933767
6.896,-0.021320764182499747
6.9,-0.021319610236439333
6.904,-0.021319874682411512
6.908,-0.02132013912838369
6.912,-0.021320716101413898
6.916,-0.0213211007501007
6.92,-0.021322134493446488
6.924,-0.021324778953168266
6.928,-0.021326606034430585
6.932,-0.021327808061576848
6.936,-0.021329082210351888
6.94,-0.021329659183382095
6.944,-0.02132881776437971
6.948,-0.021328024426463175
6.952,-0.021327687858862222
6.956,-0.021328889886008486
6.96,-0.02132941877795284
6.964,-0.02132963514283917
6.968,-0.021330115953697673
6.972,-0.021330380399669852
6.976,-0.02133155838627319
6.98,-0.021331750710616593
6.984,-0.02133211131876047
6.988,-0.021333914359479865
6.992,-0.021336654981373347
6.996,-0.021339443684352675
7.0,-0.021341390968329623
7.0040000000000004,-0.021342160265703233
7.008,-0.02134196794135983
7.0120000000000005,-0.021340886116928193
7.016,-0.021338650346436144
7.0200000000000005,-0.02133840994100689
7.024,-0.021339539846524376
7.0280000000000005,-0.021338962873494172
7.032,-0.021337832967976682
7.0360000000000005,-0.02133809741394886
7.04,-0.02133881863023662
7.0440000000000005,-0.021340140860097508
7.048,-0.02134078995475649
7.0520000000000005,-0.021340309143897986
7.056,-0.021339467724895603
7.0600000000000005,-0.021338890751865396
7.064,-0.0213369915489743
7.0680000000000005,-0.021335693359656335
7.072,-0.021335693359656335
7.0760000000000005,-0.021336799224630897
7.08,-0.021336270332686542
7.0840000000000005,-0.021334779819025176
7.088,-0.021333986481108642
7.0920000000000005,-0.021333265264820885
7.096,-0.02133343354862136
7.1000000000000005,-0.02133384223785109
7.104,-0.02133110161595761
7.1080000000000005,-0.021328072507549027
7.112,-0.021328986048180187
7.1160000000000005,-0.02133119777812931
7.12,-0.021332039197131697
7.1240000000000006,-0.021331918994417068
7.128,-0.021333601832421837
7.132000000000001,-0.021337087711146
7.136,-0.021339059035665874
7.140000000000001,-0.02133932348163805
7.144,-0.021338337819378113
7.148000000000001,-0.021335909724542662
7.152,-0.021336390535401168
7.156000000000001,-0.02133982833303948
7.16,-0.02134059763041309
7.164000000000001,-0.021339491765438527
7.168,-0.021338049332863013
7.172,-0.021337328116575252
7.176,-0.021336198211057766
7.18,-0.021335236589340754
7.184,-0.021336150129971917
7.188,-0.021338337819378113
7.192,-0.021338986914037097
7.196,-0.021339876414125332
7.2,-0.021342737238733436
7.204,-0.021345405738998142
7.208,-0.02134672796885903
7.212,-0.021346607766144405
7.216,-0.02134562210388447
7.22,-0.021342641076561735
7.224,-0.02133958792761023
7.228,-0.02133547699477001
7.232,-0.021331317980843936
7.236,-0.021327687858862222
7.24,-0.021326245426286708
7.244,-0.021324490466653162
7.248,-0.021321244993358253
7.252,-0.02131836012820722
7.256,-0.02131456172242503
7.26,-0.02131136433021597
7.264,-0.02131100372207209
7.268,-0.021313359695278766
7.272,-0.021317158101060957
7.276,-0.02132064397978512
7.28,-0.02132187004747431
7.284,-0.02132160560150213
7.288,-0.021322519142133293
7.292,-0.02132273550701962
7.296,-0.021320980547386074
7.3,-0.021318047601149193
7.304,-0.02131648496585905
7.308,-0.021317638911919463
7.312,-0.021317326384861435
7.316,-0.02131667729020245
7.32,-0.021317302344318508
7.324,-0.02131689365508878
7.328,-0.02131648496585905
7.332,-0.02131917750666668
7.336,-0.021321269033901177
7.34,-0.021321341155529954
7.344,-0.021321341155529954
7.348,-0.02132283166919132
7.352,-0.021324370263938536
7.356,-0.021325956939771604
7.36,-0.021326053101943306
7.364,-0.021325452088370174
7.368,-0.021325692493799425
7.372,-0.021326461791173035
7.376,-0.02132583673705698
7.38,-0.02132602906140038
7.384,-0.021326798358773987
7.388,-0.021327303210175418
7.392,-0.021325908858685752
7.396,-0.021324370263938536
7.4,-0.021324346223395612
7.404,-0.02132415389905221
7.408,-0.021324730872082417
7.412,-0.021326654115516437
7.416,-0.02132744745343297
7.42,-0.021329707264467944
7.424,-0.021331750710616593
7.428,-0.02133028423749815
7.432,-0.02132927453469529
7.436,-0.02133009191315475
7.44,-0.021330067872611824
7.444,-0.021328793723836784
7.448,-0.021328986048180187
7.452,-0.02133054868347033
7.456,-0.021332087278217546
7.46,-0.02133211131876047
7.464,-0.021331149697043462
7.468,-0.02133064484564203
7.472,-0.021330668886184956
7.476,-0.02132982746718257
7.48,-0.021330115953697673
7.484,-0.021330716967270805
7.488,-0.02133110161595761
7.492,-0.021331245859215163
7.496,-0.021330500602384478
7.5,-0.021330741007813733
7.5040000000000004,-0.021332231521475096
7.508,-0.021333361426992586
7.5120000000000005,-0.021333409508078435
7.516,-0.02133338546753551
7.5200000000000005,-0.02133420284599497
7.524,-0.02133521254879783
7.5280000000000005,-0.021336005886714363
7.532,-0.02133740023820403
7.5360000000000005,-0.021339034995122946
7.54,-0.021339083076208798
7.5440000000000005,-0.0213392754005522
7.548,-0.021339395603266826
7.5520000000000005,-0.02133881863023662
7.556,-0.021338722468064918
7.5600000000000005,-0.021339203278923424
7.564,-0.02133800125177716
7.5680000000000005,-0.02133506830554028
7.572,-0.021334539413595924
7.5760000000000005,-0.02133475577848225
7.58,-0.021334467291967148
7.5840000000000005,-0.021334371129795447
7.588,-0.021332423845818498
7.5920000000000005,-0.02133278445396238
7.596,-0.021336294373229467
7.6000000000000005,-0.02133877054915077
7.604,-0.021338962873494172
7.6080000000000005,-0.021338458022092742
7.612,-0.021336438616487017
7.6160000000000005,-0.021333914359479865
7.62,-0.021332808494505303
7.6240000000000006,-0.021332952737762857
7.628,-0.02133475577848225
7.632000000000001,-0.021335332751512455
7.636,-0.021335645278570486
7.640000000000001,-0.02133571740019926
7.644,-0.02133566931911341
7.648000000000001,-0.02133571740019926
7.652,-0.02133526062988368
7.656000000000001,-0.021334924062282726
7.66,-0.021334611535224698
7.664000000000001,-0.021333866278394016
7.668,-0.02133425092708082
7.672000000000001,-0.02133465961631055
7.676,-0.021334419210881295
7.68,-0.021336102048886064
7.684,-0.0213368953868026
7.688,-0.02133465961631055
7.692,-0.021332904656677004
7.696,-0.02133302485939163
7.7,-0.02133338546753551
7.704,-0.021334587494681773
7.708,-0.021336150129971917
7.712,-0.021336198211057766
7.716,-0.021335909724542662
7.72,-0.02133634245431532
7.724,-0.021336510738115794
7.728,-0.02133740023820403
7.732,-0.021338938832951244
7.736,-0.02133840994100689
7.74,-0.021337159832774778
7.744,-0.021337977211234236
7.748,-0.021340164900640436
7.752,-0.02134078995475649
7.756,-0.02134009277901166
7.76,-0.02133968408978193
7.764,-0.021339155197837575
7.768,-0.021338385900463965
7.772,-0.021337664684176208
7.776,-0.021337159832774778
7.78,-0.02133735215711818
7.784,-0.021336270332686542
7.788,-0.02133521254879783
7.792,-0.02133667902191627
7.796,-0.021338962873494172
7.8,-0.02134033318444091
7.804,-0.021341895819731053
7.808,-0.021343218049591942
7.812,-0.021344107549680177
7.816,-0.021344227752394803
7.82,-0.021344227752394803
7.824,-0.021343819063165074
7.828,-0.021343049765791464
7.832,-0.021343097846877317
7.836,-0.021343338252306568
7.84,-0.02134490088759671
7.844,-0.021346343320172226
7.848,-0.021345790387684947
7.852,-0.02134454027945283
7.856,-0.021343338252306568
7.86,-0.021342400671132484
7.864,-0.021341126522357444
7.868,-0.02134033318444091
7.872,-0.0213413669277867
7.876,-0.021344732603796233
7.88,-0.021346920293202433
7.884,-0.02134790595546237
7.888,-0.021346415441801003
7.892,-0.021344011387508476
7.896,-0.021342689157647587
7.9,-0.021342592995475886
7.904,-0.021342809360362213
7.908,-0.021342737238733436
7.912,-0.021342304508960783
7.916,-0.021339443684352675
7.92,-0.021336799224630897
7.924,-0.0213369915489743
7.928,-0.021338145495034714
7.932,-0.021338938832951244
7.936,-0.021338121454491786
7.94,-0.021336510738115794
7.944,-0.021335837602913885
7.948,-0.021334587494681773
7.952,-0.021332664251247753
7.956,-0.021331534345730267
7.96,-0.021330933332157135
7.964,-0.021331317980843936
7.968,-0.021331991116045845
7.972,-0.021331582426816115
7.976,-0.02133095737270006
7.98,-0.021330909291614207
7.984,-0.021332039197131697
7.988,-0.02133278445396238
7.992,-0.02133170262953074
7.996,-0.021331149697043462
8.0,-0.021332351724189725
8.004,-0.021333818197308164
8.008000000000001,-0.021335356792055383
8.012,-0.021336390535401168
8.016,-0.021337328116575252
8.02,-0.021338433981549814
8.024000000000001,-0.021339155197837575
8.028,-0.02134110248181452
8.032,-0.021344684522710385
8.036,-0.02134817040143455
8.040000000000001,-0.021349348388037884
8.044,-0.021348891617722306
8.048,-0.021348482928492576
8.052,-0.021348531009578425
8.056000000000001,-0.021348290604149174
8.06,-0.021346607766144405
8.064,-0.021344924928139636
8.068,-0.021343169968506093
8.072000000000001,-0.021340116819554583
8.076,-0.021336005886714363
8.08,-0.021332159399846323
8.084,-0.021330837169985434
8.088000000000001,-0.021330356359126928
8.092,-0.02133045252129863
8.096,-0.021332303643103873
8.1,-0.021335116386626128
8.104000000000001,-0.02133622225160069
8.108,-0.02133744831928988
8.112,-0.021337328116575252
8.116,-0.02133631841377239
8.120000000000001,-0.021336390535401168
8.124,-0.021335933765085587
8.128,-0.021334611535224698
8.132,-0.02133314506210626
8.136000000000001,-0.02133338546753551
8.14,-0.0213326161701619
8.144,-0.02133160646735904
8.148,-0.02133136606192979
8.152000000000001,-0.021331125656500534
8.156,-0.021330813129442506
8.16,-0.02133110161595761
8.164,-0.021331654548444892
8.168000000000001,-0.021331798791702442
8.172,-0.021332712332333602
8.176,-0.021335020224454427
8.18,-0.021336606900287495
8.184000000000001,-0.02133725599494648
8.188,-0.0213368953868026
8.192,-0.02133703963006015
8.196,-0.02133694346788845
8.2,-0.021335549116398785
8.204,-0.021335188508254905
8.208,-0.02133631841377239
8.212,-0.02133877054915077
8.216,-0.021339491765438527
8.22,-0.021340405306069687
8.224,-0.021342040062988604
8.228,-0.021343266130677795
8.232,-0.021343843103708
8.236,-0.021344684522710385
8.24,-0.021345646144427393
8.244,-0.02134571826605617
8.248,-0.021345405738998142
8.252,-0.021345694225513245
8.256,-0.02134571826605617
8.26,-0.02134415563076603
8.264,-0.0213418477386452
8.268,-0.02134009277901166
8.272,-0.02134023702226921
8.276,-0.02133968408978193
8.28,-0.02133978025195363
8.284,-0.021341126522357444
8.288,-0.02133951580598145
8.292,-0.021337929130148384
8.296,-0.021338193576120563
8.3,-0.021339611968153153
8.304,-0.021339131157294647
8.308,-0.02133809741394886
8.312,-0.021338698427521993
8.316,-0.021339563887067304
8.32,-0.021340501468241388
8.324,-0.021340813995299416
8.328,-0.0213413669277867
8.332,-0.02134201602244568
8.336,-0.021342136225160305
8.34,-0.021342160265703233
8.344,-0.021344011387508476
8.348,-0.021345381698455217
8.352,-0.02134439603619528
8.356,-0.02134434795510943
8.36,-0.02134466048216746
8.364,-0.021345357657912293
8.368,-0.02134547786062692
8.372,-0.021344924928139636
8.376,-0.02134571826605617
8.38,-0.0213461269552859
8.384,-0.02134434795510943
8.388,-0.02134429987402358
8.392,-0.021347256860803385
8.396,-0.02134886757717938
8.4,-0.0213484108068638
8.404,-0.02134800211763407
8.408,-0.021347665550033118
8.412,-0.021347016455374134
8.416,-0.02134704049591706
8.42,-0.02134942050966666
8.424,-0.021351127388214354
8.428,-0.021349396469123736
8.432,-0.021347377063518014
8.436,-0.021345646144427393
8.44,-0.021344973009225488
8.444,-0.02134379502262215
8.448,-0.02134312188742024
8.452,-0.021343097846877317
8.456,-0.02134312188742024
8.46,-0.021343362292849496
8.464,-0.021341415008872548
8.468,-0.021337087711146
8.472,-0.02133456345413885
8.476,-0.021335188508254905
8.48,-0.021336270332686542
8.484,-0.0213349000217398
8.488,-0.021332279602560948
8.492,-0.021331414143015637
8.496,-0.021330813129442506
8.5,-0.021329755345553796
8.504,-0.0213304284807557
8.508000000000001,-0.02133237576473265
8.512,-0.02133415476490912
8.516,-0.021334106683823267
8.52,-0.021332952737762857
8.524000000000001,-0.021332135359303398
8.528,-0.021331822832245367
8.532,-0.021331918994417068
8.536,-0.021331438183558565
8.540000000000001,-0.021329298575238215
8.544,-0.02132708684528909
8.548,-0.0213279523048344
8.552,-0.021329250494152366
8.556000000000001,-0.02132850523732168
8.56,-0.02132643775063011
8.564,-0.021325379966741397
8.568,-0.02132470683153949
8.572000000000001,-0.02132489915588289
8.576,-0.021327183007460792
8.58,-0.02133059676455618
8.584,-0.02133302485939163
8.588000000000001,-0.02133456345413885
8.592,-0.02133389031893694
8.596,-0.02133439517033837
8.6,-0.021336366494858244
8.604000000000001,-0.021338578224807368
8.608,-0.02134028510335506
8.612,-0.021341679454844727
8.616,-0.02134187177918813
8.620000000000001,-0.021340813995299416
8.624,-0.02134028510335506
8.628,-0.021340116819554583
8.632,-0.021339203278923424
8.636000000000001,-0.021337929130148384
8.64,-0.021337712765262057
8.644,-0.021337929130148384
8.648,-0.021338433981549814
8.652000000000001,-0.021339491765438527
8.656,-0.02133824165720641
8.66,-0.021336871346259674
8.664,-0.021334491332510072
8.668000000000001,-0.021332183440389247
8.672,-0.02133095737270006
8.676,-0.021329394737409916
8.68,-0.02132917837252359
8.684000000000001,-0.02132826483189243
8.688,-0.021327014723660314
8.692,-0.021327231088546644
8.696,-0.021329058169808963
8.700000000000001,-0.02132968322392502
8.704,-0.021329298575238215
8.708,-0.02132886584546556
8.712,-0.021328120588634876
8.716,-0.021327784021033924
8.72,-0.02132917837252359
8.724,-0.021329106250894812
8.728,-0.021327471493975896
8.732,-0.021325091480226294
8.736,-0.02132425006122391
8.74,-0.021323961574708807
8.744,-0.021322927831363022
8.748,-0.021321773885302608
8.752,-0.021323264398963974
8.756,-0.0213232884395069
8.76,-0.0213233846016786
8.764,-0.02132374520982248
8.768,-0.021323192277335198
8.772,-0.021322278736704038
8.776,-0.02132172580421676
8.78,-0.021322182574532337
8.784,-0.021322807628648393
8.788,-0.0213232884395069
8.792,-0.021322711466476692
8.796,-0.02132562037217065
8.8,-0.02132881776437971
8.804,-0.021330115953697673
8.808,-0.02133078908889958
8.812,-0.021329707264467944
8.816,-0.021328481196778756
8.82,-0.02132840907514998
8.824,-0.021328553318407533
8.828,-0.021328601399493382
8.832,-0.021328962007637262
8.836,-0.021329226453609438
8.84,-0.021330308278041075
8.844,-0.02133045252129863
8.848,-0.021330380399669852
8.852,-0.021330668886184956
8.856,-0.021331005453785908
8.86,-0.021331269899758087
8.864,-0.021329659183382095
8.868,-0.02132903412926604
8.872,-0.02132937069686699
8.876,-0.021330500602384478
8.88,-0.02133187091333122
8.884,-0.021333193143192108
8.888,-0.021333072940477482
8.892,-0.02133297677830578
8.896,-0.021331534345730267
8.9,-0.021329659183382095
8.904,-0.021327808061576848
8.908,-0.02132735129126127
8.912,-0.02132682239931691
8.916,-0.02132521168294092
8.92,-0.021323528844936154
8.924,-0.021319970844583213
8.928,-0.021321341155529954
8.932,-0.021328240791349505
8.936,-0.021334443251424223
8.94,-0.02133759256254743
8.944,-0.021338433981549814
8.948,-0.02133735215711818
8.952,-0.021336198211057766
8.956,-0.021334443251424223
8.96,-0.021335356792055383
8.964,-0.021336246292143618
8.968,-0.021336799224630897
8.972,-0.021336534778658718
8.976,-0.021337929130148384
8.98,-0.02133867438697907
8.984,-0.021338602265350292
8.988,-0.021338193576120563
8.992,-0.02133682326517382
8.996,-0.02133684730571675
9.0,-0.021337280035489403
9.004,-0.02133850610317859
9.008000000000001,-0.021340405306069687
9.012,-0.0213414630899584
9.016,-0.0213415592521301
9.02,-0.02134095823855697
9.024000000000001,-0.021339876414125332
9.028,-0.021339443684352675
9.032,-0.021337832967976682
9.036,-0.02133581356237096
9.040000000000001,-0.021336270332686542
9.044,-0.02133785700851961
9.048,-0.02133759256254743
9.052,-0.021337280035489403
9.056000000000001,-0.021336534778658718
9.06,-0.02133672710300212
9.064,-0.021337087711146
9.068,-0.021337376197661104
9.072000000000001,-0.021337207913860626
9.076,-0.02133566931911341
9.08,-0.021334467291967148
9.084,-0.021335789521828036
9.088000000000001,-0.021335765481285112
9.092,-0.0213348038595681
9.096,-0.021334082643280343
9.1,-0.02133264021070483
9.104000000000001,-0.021331005453785908
9.108,-0.021329731305010872
9.112,-0.0213304284807557
9.116,-0.021331630507901964
9.120000000000001,-0.021330476561841553
9.124,-0.021328937967094338
9.128,-0.021328793723836784
9.132,-0.021328697561665083
9.136000000000001,-0.02132826483189243
9.14,-0.02132831291297828
9.144,-0.021328385034607055
9.148,-0.021328336953521206
9.152000000000001,-0.021328745642750935
9.156,-0.02132891392655141
9.16,-0.0213299476698972
9.164,-0.02133160646735904
9.168000000000001,-0.021333193143192108
9.172,-0.021334996183911503
9.176,-0.02133622225160069
9.18,-0.021336919427345523
9.184000000000001,-0.021337087711146
9.188,-0.02133723195440355
9.192,-0.021338337819378113
9.196,-0.021341174603443296
9.200000000000001,-0.02134196794135983
9.204,-0.021339972576297033
9.208,-0.02133951580598145
9.212,-0.02134124672507207
9.216000000000001,-0.021343746941536297
9.22,-0.02134485280651086
9.224,-0.02134504513085426
9.228,-0.021344924928139636
9.232,-0.021344516238909907
9.236,-0.02134456431999576
9.24,-0.021344468157824058
9.244,-0.02134516533356889
9.248,-0.021346559685058556
9.252,-0.021346054833657122
9.256,-0.021345141293025963
9.26,-0.021344083509137253
9.264,-0.021343049765791464
9.268,-0.02134196794135983
9.272,-0.0213415592521301
9.276,-0.021342160265703233
9.28,-0.02134237663058956
9.284,-0.021341487130501324
9.288,-0.021339876414125332
9.292,-0.02133831377883519
9.296,-0.021337929130148384
9.3,-0.021337712765262057
9.304,-0.021336919427345523
9.308,-0.021335549116398785
9.312,-0.021334106683823267
9.316,-0.02133475577848225
9.32,-0.021335188508254905
9.324,-0.021335188508254905
9.328,-0.021334972143368578
9.332,-0.021334851940653952
9.336,-0.02133571740019926
9.34,-0.021337424278746953
9.344,-0.02134028510335506
9.348,-0.021342040062988604
9.352,-0.021340813995299416
9.356,-0.02133941964380975
9.36,-0.021339852373582407
9.364,-0.021340501468241388
9.368,-0.02134124672507207
9.372,-0.02134018894118336
9.376,-0.021339611968153153
9.38,-0.021338602265350292
9.384,-0.021334924062282726
9.388,-0.021334323048709594
9.392,-0.021335837602913885
9.396,-0.021336799224630897
9.4,-0.021339227319466348
9.404,-0.02134206410353153
9.408,-0.02134379502262215
9.412,-0.021344780684882086
9.416,-0.021345381698455217
9.42,-0.021347689590576042
9.424,-0.02134966091509591
9.428,-0.02134966091509591
9.432,-0.021348482928492576
9.436,-0.021347473225689716
9.44,-0.02134764150949019
9.444,-0.02134817040143455
9.448,-0.02134704049591706
9.452,-0.02134826656360625
9.456,-0.021349805158353465
9.46,-0.021349492631295437
9.464,-0.021349612834010063
9.468,-0.021350406171926597
9.472,-0.021350814861156326
9.476,-0.021351175469300206
9.48,-0.021349540712381286
9.484,-0.021347929996005294
9.488,-0.021347809793290668
9.492,-0.02134901182043693
9.496,-0.021349252225866183
9.5,-0.021347929996005294
9.504,-0.02134667988777318
9.508000000000001,-0.021346006752571273
9.512,-0.02134547786062692
9.516,-0.02134494896868256
9.52,-0.021344780684882086
9.524000000000001,-0.02134526149574059
9.528,-0.021345838468770795
9.532,-0.021346415441801003
9.536,-0.02134581442822787
9.540000000000001,-0.021344732603796233
9.544,-0.021343410373935345
9.548,-0.021342256427874934
9.552,-0.021341895819731053
9.556000000000001,-0.02134329017122072
9.56,-0.02134434795510943
9.564,-0.021342857441448065
9.568,-0.02134187177918813
9.572000000000001,-0.021341679454844727
9.576,-0.02134201602244568
9.58,-0.021342040062988604
9.584,-0.02134252087384711
9.588000000000001,-0.02134338633339242
9.592,-0.021343602698278747
9.596,-0.02134454027945283
9.6,-0.021345766347142022
9.604000000000001,-0.02134689625265951
9.608,-0.021348434847406724
9.612,-0.021349973442153943
9.616,-0.021350862942242175
9.620000000000001,-0.021351319712557756
9.624,-0.02135115142875728
9.628,-0.021352137091017215
9.632,-0.021353098712734227
9.636000000000001,-0.021352329415360617
9.64,-0.0213507908206134
9.644,-0.021351031226042653
9.648,-0.02135100718549973
9.652000000000001,-0.021350213847583194
9.656,-0.02134918010423741
9.66,-0.02134932434749496
9.664,-0.021349300306952035
9.668000000000001,-0.021348218482520397
9.672,-0.021349204144780334
9.676,-0.021351319712557756
9.68,-0.021352233253188916
9.684000000000001,-0.021351776482873338
9.688,-0.021353074672191302
9.692,-0.021355935496799407
9.696,-0.021356752875258865
9.700000000000001,-0.02135704136177397
9.704,-0.02135723368611737
9.708,-0.021358075105119754
9.712,-0.021358531875435335
9.716000000000001,-0.021358892483579216
9.72,-0.021358363591634857
9.724,-0.021356921159059343
9.728,-0.021355021956168247
9.732,-0.0213529785100196
9.736,-0.021350069604325644
9.74,-0.0213463192796293
9.744,-0.021345405738998142
9.748,-0.021347304941889238
9.752,-0.02134937242858081
9.756,-0.021349949401611015
9.76,-0.021352137091017215
9.764,-0.0213553585237692
9.768,-0.02135704136177397
9.772,-0.021356416307657913
9.776,-0.02135430073988049
9.78,-0.021353579523592733
9.784,-0.021354108415537087
9.788,-0.021354997915625323
9.792,-0.021355142158882873
9.796,-0.021354493064223892
9.8,-0.021352738104590346
9.804,-0.02135225729373184
9.808,-0.021353603564135657
9.812,-0.021353916091193685
9.816,-0.021353988212822462
9.82,-0.021354420942595116
9.824,-0.02135312275327715
9.828,-0.02135134375310068
9.832,-0.021349540712381286
9.836,-0.021348338685235023
9.84,-0.021348747374464752
9.844,-0.02134805019871992
9.848,-0.02134506917139719
9.852,-0.021342737238733436
9.856,-0.021341294806157922
9.86,-0.021340621670956014
9.864,-0.021340164900640436
9.868,-0.021340044697925806
9.872,-0.021339900454668256
9.876,-0.021340116819554583
9.88,-0.02133992449521118
9.884,-0.021338193576120563
9.888,-0.021335044264997355
9.892,-0.021332399805275574
9.896,-0.02133155838627319
9.9,-0.021331029494328833
9.904,-0.021331846872788295
9.908,-0.021332159399846323
9.912,-0.02133328930536381
9.916,-0.021332952737762857
9.92,-0.021330885251071283
9.924,-0.02132891392655141
9.928,-0.02132826483189243
9.932,-0.02132941877795284
9.936,-0.021331846872788295
9.94,-0.02133425092708082
9.944,-0.021334106683823267
9.948,-0.02133273637287653
9.952,-0.021331750710616593
9.956,-0.0213304284807557
9.96,-0.021329755345553796
9.964,-0.02132992362935427
9.968,-0.021330380399669852
9.972,-0.02133045252129863
9.976,-0.021330380399669852
9.98,-0.02132992362935427
9.984,-0.021328577358950458
9.988,-0.021327207048003716
9.992,-0.021327711899405147
9.996,-0.021329226453609438
10.0,-0.021329707264467944
10.004,-0.02132836099406413
10.008000000000001,-0.021327543615604672
10.012,-0.021327615737233446
10.016,-0.021328120588634876
10.02,-0.021328385034607055
10.024000000000001,-0.021327639777776373
10.028,-0.021327423412890043
10.032,-0.021327567656147597
10.036,-0.021327808061576848
10.040000000000001,-0.02132850523732168
10.044,-0.021328625440036306
10.048,-0.02132826483189243
10.052,-0.02132689452094569
10.056000000000001,-0.021325500169456023
10.06,-0.021326101183029154
10.064,-0.02132831291297828
10.068,-0.021328625440036306
10.072000000000001,-0.021327711899405147
10.076,-0.021327038764203242
10.08,-0.021327519575061744
10.084,-0.02132816866972073
10.088000000000001,-0.021328889886008486
10.092,-0.02132759169669052
10.096,-0.021324947236968744
10.1,-0.021324081777423433
10.104000000000001,-0.021323673088193704
10.108,-0.02132333652059275
10.112,-0.021324177939595134
10.116,-0.021325452088370174
10.120000000000001,-0.021325788655971126
10.124,-0.021324466426110238
10.128,-0.02132470683153949
10.132,-0.021326726237145214
10.136000000000001,-0.021326413710087182
10.14,-0.021325043399140445
10.144,-0.02132598098031453
10.148,-0.021327062804746166
10.152000000000001,-0.02132867352112216
10.156,-0.02132977938609672
10.16,-0.021331269899758087
10.164,-0.02133211131876047
10.168000000000001,-0.021332303643103873
10.172,-0.021333361426992586
10.176,-0.021334515373052997
10.18,-0.02133516446771198
10.184000000000001,-0.02133634245431532
10.188,-0.021337688724719132
10.192,-0.021337159832774778
10.196,-0.021336198211057766
10.200000000000001,-0.021334924062282726
10.204,-0.02133379415676524
10.208,-0.02133420284599497
10.212,-0.02133530871096953
10.216000000000001,-0.021335909724542662
10.22,-0.021336775184087973
10.224,-0.02133631841377239
10.228,-0.021334347089252522
10.232000000000001,-0.021334082643280343
10.236,-0.021334731737939323
10.24,-0.021334683656853475
10.244,-0.021334467291967148
10.248,-0.021335284670426606
10.252,-0.021335044264997355
10.256,-0.021333962440565717
10.26,-0.021332183440389247
10.264,-0.021330837169985434
10.268,-0.021330308278041075
10.272,-0.02132932261578114
10.276,-0.021329154331980665
10.28,-0.021328577358950458
10.284,-0.021327639777776373
10.288,-0.021328625440036306
10.292,-0.021331029494328833
10.296,-0.021333962440565717
10.3,-0.02133658285974457
10.304,-0.021338433981549814
10.308,-0.021339203278923424
10.312,-0.021340982279099894
10.316,-0.021343867144250926
10.32,-0.021343819063165074
10.324,-0.021342448752218333
10.328,-0.021343410373935345
10.332,-0.021344924928139636
10.336,-0.02134490088759671
10.34,-0.02134389118479385
10.344,-0.021342761279276364
10.348,-0.02134119864398622
10.352,-0.021338578224807368
10.356,-0.02133703963006015
10.36,-0.02133663094083042
10.364,-0.021337832967976682
10.368,-0.021339491765438527
10.372,-0.021338433981549814
10.376,-0.021335837602913885
10.38,-0.021332712332333602
10.384,-0.02132977938609672
10.388,-0.021327615737233446
10.392,-0.021327471493975896
10.396,-0.021327207048003716
10.4,-0.021328433115692907
10.404,-0.021330837169985434
10.408,-0.021332159399846323
10.412,-0.021332952737762857
10.416,-0.021333673954050614
10.42,-0.021333818197308164
10.424,-0.021333096981020407
10.428,-0.02133292869721993
10.432,-0.021332760413419454
10.436,-0.02133160646735904
10.44,-0.0213299476698972
10.444,-0.021328120588634876
10.448,-0.02132689452094569
10.452,-0.0213256684532565
10.456,-0.021326293507372557
10.46,-0.021328553318407533
10.464,-0.02133095737270006
10.468,-0.02133288061613408
10.472,-0.021332183440389247
10.476,-0.021331317980843936
10.48,-0.021331894953874143
10.484,-0.021331846872788295
10.488,-0.021331486264644414
10.492,-0.021330861210528358
10.496,-0.02132903412926604
10.5,-0.02132540400728432
10.504,-0.021322134493446488
10.508000000000001,-0.021321485398787504
10.512,-0.021320740141956823
10.516,-0.021319898722954436
10.52,-0.021319321749924233
10.524000000000001,-0.021317975479520416
10.528,-0.021316244560429798
10.532,-0.02131460980351088
10.536,-0.021313600100708017
10.540000000000001,-0.02131237403301883
10.544,-0.021310114221983856
10.548,-0.021307469762262075
10.552,-0.02130465701873982
10.556000000000001,-0.021303118423992604
10.56,-0.021304897424169075
10.564,-0.021308070775835207
10.568,-0.02131040270849896
10.572000000000001,-0.021311845141074474
10.576,-0.021312806762791486
10.58,-0.021313359695278766
10.584,-0.021313720303422646
10.588000000000001,-0.02131347989799339
10.592,-0.021312590397905156
10.596,-0.02131136433021597
10.6,-0.02130936896515317
10.604000000000001,-0.02130811885692106
10.608,-0.021307662086605478
10.612,-0.021306868748688944
10.616,-0.021306099451315338
10.620000000000001,-0.021305378235027577
10.624,-0.021305498437742206
10.628,-0.021305498437742206
10.632,-0.021305306113398804
10.636000000000001,-0.021304392572767644
10.64,-0.021303575194308182
10.644,-0.021302709734762875
10.648,-0.021301339423816134
10.652000000000001,-0.021300978815672254
10.656,-0.021301940437389266
10.66,-0.021302853978020425
10.664,-0.021302853978020425
10.668000000000001,-0.021302926099649202
10.672,-0.02130398388353791
10.676,-0.021304705099825672
10.68,-0.021304873383626147
10.684000000000001,-0.021303767518651585
10.688,-0.02130242124824777
10.692,-0.02130145962653076
10.696,-0.02130242124824777
10.700000000000001,-0.02130297418073505
10.704,-0.02130278185639165
10.708,-0.021301988518475118
10.712,-0.021300473964270823
10.716000000000001,-0.02130040184264205
10.72,-0.02130145962653076
10.724,-0.021301435585987835
10.728,-0.021300618207528377
10.732000000000001,-0.02129948830201089
10.736,-0.021296988085546663
10.74,-0.02129383877442345
10.744,-0.02129232422021916
10.748000000000001,-0.021292204017504535
10.752,-0.02129177128773188
10.756,-0.02129155492284555
10.76,-0.02129157896338848
10.764,-0.02129155492284555
10.768,-0.02129080966601487
10.772,-0.021289655719954455
10.776,-0.021289367233439355
10.78,-0.021288597936065745
10.784,-0.02128775651706336
10.788,-0.021286650652088797
10.792,-0.02128528034114206
10.796,-0.021284991854626956
10.8,-0.021285544787114235
10.804,-0.02128588135471519
10.808,-0.021286073679058593
10.812,-0.021285544787114235
10.816,-0.021285713070914713
10.82,-0.021286266003401996
10.824,-0.02128775651706336
10.828,-0.02128888642258085
10.832,-0.021290088449727112
10.836,-0.02129030481461344
10.84,-0.02128948743615398
10.844,-0.02128847773335112
10.848,-0.021289271071267653
10.852,-0.021289150868553024
10.856,-0.021290256733527586
10.86,-0.02129191553098943
10.864,-0.021292756949991814
10.868,-0.021292925233792292
10.872,-0.021293934936595153
10.876,-0.021294439787996583
10.88,-0.021292925233792292
10.884,-0.021291194314701674
10.888,-0.021291410679588
10.892,-0.021293165639221543
10.896,-0.0212935983689942
10.9,-0.02129309351759277
10.904,-0.02129258866619134
10.908,-0.021293069477049845
10.912,-0.02129177128773188
10.916,-0.021290569260585618
10.92,-0.02128963167941153
10.924,-0.021290088449727112
10.928,-0.02128979996321201
10.932,-0.021290593301128542
10.936,-0.02129136259850215
10.94,-0.02129054522004269
10.944,-0.021290064409184187
10.948,-0.02129064138221439
10.952,-0.02129064138221439
10.956,-0.02128963167941153
10.96,-0.021289415314525204
10.964,-0.02128979996321201
10.968,-0.02128857389552282
10.972,-0.021287371868376558
10.976,-0.021289703801040307
10.98,-0.021293045436506917
10.984,-0.0212936945311659
10.988,-0.021290617341671467
10.992,-0.021288141165750164
10.996,-0.02128989612538371
11.0,-0.02129299735542107
11.004,-0.02129528120699897
11.008000000000001,-0.021295762017857472
11.012,-0.021295810098943324
11.016,-0.02129684384228911
11.02,-0.021298406477579253
11.024000000000001,-0.02129953638309674
11.028,-0.021302012559018042
11.032,-0.021304176207881314
11.036,-0.021305738843171457
11.040000000000001,-0.02130653218108799
11.044,-0.021307373600090374
11.048,-0.021309008357009294
11.052,-0.02131095564098624
11.056000000000001,-0.021312133627589578
11.06,-0.021312085546503726
11.064,-0.021312710600619785
11.068,-0.021312542316819307
11.072000000000001,-0.021312806762791486
11.076,-0.021313191411478288
11.08,-0.021314249195367
11.084,-0.02131617243880102
11.088000000000001,-0.021317037898346332
11.092,-0.021316509006401977
11.096,-0.02131557142522789
11.1,-0.02131480212785428
11.104000000000001,-0.021311845141074474
11.108,-0.0213075899649767
11.112,-0.021306724505431394
11.116,-0.021309849776011677
11.120000000000001,-0.021312133627589578
11.124,-0.021311484532930594
11.128,-0.021309921897640454
11.132,-0.021309585330039498
11.136000000000001,-0.02130972957329705
11.14,-0.021308840073208817
11.144,-0.021308431383979087
11.148,-0.02130886411375174
11.152000000000001,-0.021309657451668275
11.156,-0.021309080478638068
11.16,-0.021308431383979087
11.164,-0.02130862370832249
11.168000000000001,-0.021308599667779565
11.172,-0.021307277437918673
11.176,-0.02130542631611343
11.18,-0.021304777221454445
11.184000000000001,-0.021303214586164305
11.188,-0.021301171140015656
11.192,-0.02130095477512933
11.196,-0.021301339423816134
11.200000000000001,-0.021301267302187357
11.204,-0.021300618207528377
11.208,-0.02130013739666987
11.212,-0.02129987295069769
11.216000000000001,-0.021300786491328855
11.22,-0.021301387504901986
11.224,-0.021300353761556198
11.228,-0.0212984545586651
11.232000000000001,-0.021298069909978297
11.236,-0.0212982622343217
11.24,-0.021296723639574484
11.244,-0.021295040801569715
11.248000000000001,-0.021295088882655567
11.252,-0.021297420815319316
11.256,-0.021299344058753337
11.26,-0.021300762450785927
11.264,-0.02130145962653076
11.268,-0.02130182023467464
11.272,-0.02130172407250294
11.276,-0.021302301045533146
11.28,-0.02130297418073505
11.284,-0.021303310748336007
11.288,-0.021303454991593557
11.292,-0.021303623275394035
11.296,-0.02130441661331057
11.3,-0.021304392572767644
11.304,-0.021303935802452063
11.308,-0.021304392572767644
11.312,-0.02130557055937098
11.316,-0.021305594599913907
11.32,-0.021305546518828055
11.324,-0.021305354194484653
11.328,-0.021304368532224716
11.332,-0.02130364731593696
11.336,-0.021303070342906752
11.34,-0.02130287801856335
11.344,-0.021303959842994987
11.348,-0.021304392572767644
11.352,-0.021302757815848724
11.356,-0.021299752747983066
11.36,-0.02129643515305938
11.364,-0.021295737977314547
11.368,-0.021298430518122177
11.372,-0.02130121922110151
11.376,-0.021303046302363828
11.38,-0.021304296410595943
11.384,-0.02130602732968656
11.388,-0.021308142897463984
11.392,-0.021308599667779565
11.396,-0.021307902492034732
11.4,-0.021308239059635685
11.404,-0.021308503505607864
11.408,-0.021308431383979087
11.412,-0.021309320884067322
11.416,-0.021309393005696096
11.42,-0.021309104519180996
11.424,-0.021308551586693713
11.428,-0.021308335221807386
11.432,-0.021309344924610247
11.436,-0.021310330586870183
11.44,-0.021311989384332024
11.444,-0.021313936668308973
11.448,-0.021315739709028367
11.452,-0.02131547526305619
11.456,-0.02131347989799339
11.46,-0.021312446154647606
11.464,-0.021312518276276383
11.468,-0.021313023127677813
11.472,-0.021312157668132502
11.476,-0.02131100372207209
11.48,-0.021311604735645223
11.484,-0.021311748978902773
11.488,-0.02131141241130182
11.492,-0.02131100372207209
11.496,-0.02131131624913012
11.5,-0.021311532614016446
11.504,-0.02131095564098624
11.508000000000001,-0.021310234424698482
11.512,-0.02130903239755222
11.516,-0.02130963341112535
11.52,-0.021309921897640454
11.524000000000001,-0.021309008357009294
11.528,-0.021306219654029963
11.532,-0.02130405600516669
11.536,-0.02130424832951009
11.540000000000001,-0.02130350307267941
11.544,-0.0213027337753058
11.548,-0.02130297418073505
11.552,-0.021304200248424242
11.556000000000001,-0.02130566672154268
11.56,-0.02130566672154268
11.564,-0.021305089748512477
11.568,-0.021304392572767644
11.572000000000001,-0.0213028299374775
11.576,-0.02130114709947273
11.58,-0.02130222892390437
11.584,-0.02130350307267941
11.588000000000001,-0.02130338286996478
11.592,-0.021302445288790696
11.596,-0.021301267302187357
11.6,-0.02130090669404348
11.604000000000001,-0.021300257599384496
11.608,-0.021300930734586405
11.612,-0.021302132761732668
11.616,-0.021302156802275592
11.620000000000001,-0.021301675991417086
11.624,-0.021301988518475118
11.628,-0.02130095477512933
11.632,-0.021300425883184974
11.636000000000001,-0.02129999315341232
11.64,-0.021299320018210412
11.644,-0.02129963254526844
11.648,-0.021300618207528377
11.652000000000001,-0.02130090669404348
11.656,-0.021300233558841572
11.66,-0.021300425883184974
11.664,-0.0213005460858996
11.668000000000001,-0.02130081053187178
11.672,-0.021302012559018042
11.676,-0.021302613572591174
11.68,-0.021302517410419473
11.684000000000001,-0.021300978815672254
11.688,-0.02129958446418259
11.692,-0.021299344058753337
11.696,-0.02129989699124062
11.700000000000001,-0.02130182023467464
11.704,-0.02130309438344968
11.708,-0.02130309438344968
11.712,-0.021302709734762875
11.716000000000001,-0.021301579829245385
11.72,-0.021300209518298648
11.724,-0.021301243261644433
11.728,-0.021302445288790696
11.732000000000001,-0.021301772153588788
11.736,-0.021300978815672254
11.74,-0.02130013739666987
11.744,-0.02129886324789483
11.748000000000001,-0.021299608504725516
11.752,-0.021301483667073687
11.756,-0.021300858612957628
11.76,-0.021300185477755723
11.764000000000001,-0.02129994507232647
11.768,-0.021299824869611843
11.772,-0.02129821415323585
11.776,-0.021297468896405165
11.78,-0.021296747680117408
11.784,-0.021295185044827268
11.788,-0.021294127260938555
11.792,-0.021292708868905965
11.796,-0.02129167512556018
11.8,-0.02129268482836304
11.804,-0.021295449490799444
11.808,-0.021297180409890065
11.812,-0.02129744485586224
11.816,-0.021296723639574484
11.82,-0.02129583413948625
11.824,-0.021294968679940938
11.828,-0.021293021395963993
11.832,-0.02128999228755541
11.836,-0.02128963167941153
11.84,-0.021292131895875758
11.844,-0.021294319585281957
11.848,-0.021295762017857472
11.852,-0.021297132328804213
11.856,-0.021298021828892448
11.86,-0.02129593030165795
11.864,-0.021291410679588
11.868,-0.021289006625295474
11.872,-0.021290208652441737
11.876,-0.02129227613913331
11.88,-0.021294295544739033
11.884,-0.021293910896052228
11.888,-0.021292853112163515
11.892,-0.021292252098590383
11.896,-0.021292372301305013
11.9,-0.021293045436506917
11.904,-0.02129374261225175
11.908,-0.021294391706910734
11.912,-0.02129465615288291
11.916,-0.02129364645008005
11.92,-0.021293790693337603
11.924,-0.02129547353134237
11.928,-0.02129638707197353
11.932,-0.021297132328804213
11.936,-0.021298502639750954
11.94,-0.0212982622343217
11.944,-0.02129653131523108
11.948,-0.021296050504372575
11.952,-0.02129619474763013
11.956,-0.021295088882655567
11.96,-0.02129333392302202
11.964,-0.021292252098590383
11.968,-0.021290713503843168
11.972,-0.02128888642258085
11.976,-0.02128638620611662
11.98,-0.02128350134096559
11.984,-0.021281481935359867
11.988,-0.0212799914216985
11.992,-0.021277947975549855
11.996,-0.021275904529401205
12.0,-0.021274293813025213
12.004,-0.021272971583164324
12.008000000000001,-0.021272707137192145
12.012,-0.02127273117773507
12.016,-0.021272009961447312
12.02,-0.02127157723167466
12.024000000000001,-0.021272899461535547
12.028,-0.021274678461712018
12.032,-0.021274942907684197
12.036,-0.02127501502931297
12.040000000000001,-0.021274942907684197
12.044,-0.02127460634008324
12.048,-0.021274798664426643
12.052,-0.02127554392125733
12.056000000000001,-0.021274341894111065
12.06,-0.02127496694822712
12.064,-0.021278645151294687
12.068,-0.021282034867847147
12.072000000000001,-0.02128241951653395
12.076,-0.021282395475991027
12.08,-0.02128278012467783
12.084,-0.021281986786761298
12.088000000000001,-0.0212821791111047
12.092,-0.021282106989475923
12.096,-0.021282347394905175
12.1,-0.02128222719219055
12.104000000000001,-0.021282611840877354
12.108,-0.02128374174639484
12.112,-0.021284679327568928
12.116,-0.021284679327568928
12.120000000000001,-0.021284631246483075
12.124,-0.021284583165397226
12.128,-0.02128323689499341
12.132,-0.021284438922139673
12.136000000000001,-0.021287876719777988
12.14,-0.021288141165750164
12.144,-0.02128410235453872
12.148,-0.021280424151471154
12.152000000000001,-0.021279654854097548
12.156,-0.021279342327039517
12.16,-0.021277779691749377
12.164,-0.021274990988770046
12.168000000000001,-0.021270711772129348
12.172,-0.02126806731240757
12.176,-0.02126756246100614
12.18,-0.02126984631258404
12.184000000000001,-0.021274341894111065
12.188,-0.021278044137721556
12.192,-0.021279414448668293
12.196,-0.02127939040812537
12.200000000000001,-0.021278741313466385
12.204,-0.021277322921433795
12.208,-0.0212777075701206
12.212,-0.021279318286496592
12.216000000000001,-0.021279101921610265
12.22,-0.021278284543150807
12.224,-0.021277491205234273
12.228,-0.021277731610663524
12.232000000000001,-0.021278404745865433
12.236,-0.021277371002519647
12.24,-0.021275952610487057
12.244,-0.021276265137545085
12.248000000000001,-0.021278861516181014
12.252,-0.021278284543150807
12.256,-0.021275976651029982
12.26,-0.02127386108325256
12.264000000000001,-0.021271601272217583
12.268,-0.021268956812495805
12.272,-0.021267754785349542
12.276,-0.02126806731240757
12.280000000000001,-0.02127015883964207
12.284,-0.02127208208307609
12.288,-0.021272130164161938
12.292,-0.02127136086678833
12.296,-0.021269317420639682
12.3,-0.02126811539349342
12.304,-0.02126972610986941
12.308,-0.0212708560153869
12.312,-0.021271072380273228
12.316,-0.02127172147493221
12.32,-0.02127273117773507
12.324,-0.021273644718366232
12.328,-0.02127273117773507
12.332,-0.021271048339730304
12.336,-0.021271529150588806
12.34,-0.021272202285790714
12.344,-0.021271649353303435
12.348,-0.02127217824524779
12.352,-0.021272659056106296
12.356,-0.02127241865067704
12.36,-0.021271697434389284
12.364,-0.02127131278570248
12.368,-0.021271216623530778
12.372,-0.02127232248850534
12.376,-0.021273813002166707
12.38,-0.02127436593465399
12.384,-0.02127511119148467
12.388,-0.021274822704969568
12.392,-0.021274702502254942
12.396,-0.02127395724542426
12.4,-0.021273260069679428
12.404,-0.021272298447962416
12.408,-0.02126972610986941
12.412,-0.021268500042180224
12.416,-0.02126705760960471
12.42,-0.021265062244541912
12.424,-0.021262393744277207
12.428,-0.021261985055047478
12.432,-0.02126111959550217
12.436,-0.021261071514416318
12.44,-0.02126244182536306
12.444,-0.021263139001107892
12.448,-0.021264918001284362
12.452,-0.021267081650147634
12.456,-0.0212684760016373
12.46,-0.021269269339553833
12.464,-0.021269822272041113
12.468,-0.021268091352950495
12.472,-0.021266264271688175
12.476,-0.02126450931205463
12.48,-0.021264341028254155
12.484,-0.02126318708219374
12.488,-0.021261744649618226
12.492,-0.021262297582105506
12.496,-0.021263667893052247
12.5,-0.02126587962300137
12.504,-0.02126604790680185
12.508000000000001,-0.02126496608237021
12.512,-0.021264292947168303
12.516,-0.021264124663367828
12.52,-0.021263619811966398
12.524000000000001,-0.021263403447080068
12.528,-0.02126258606862061
12.532,-0.021262802433506936
12.536,-0.021262826474049864
12.540000000000001,-0.02126349960925177
12.544,-0.021263066879479115
12.548,-0.021262249501019657
12.552,-0.021261384041474346
12.556000000000001,-0.021260470500843186
12.56,-0.021260037771070533
12.564,-0.021259364635868624
12.568,-0.021257176946462425
12.572000000000001,-0.02125729714917705
12.576,-0.02126008585215638
12.58,-0.021263908298481498
12.584,-0.02126513436617069
12.588000000000001,-0.021265206487799462
12.592,-0.02126688932580423
12.596,-0.02126898085303873
12.6,-0.02127049540724302
12.604000000000001,-0.021271072380273228
12.608,-0.021270567528871798
12.612,-0.021270735812672276
12.616,-0.021270375204528395
12.620000000000001,-0.021269653988240638
12.624,-0.02127015883964207
12.628,-0.021270447326157172
12.632,-0.021269798231498188
12.636000000000001,-0.021271961880361463
12.64,-0.021277346961976723
12.644,-0.021279198083781967
12.648,-0.021279294245953668
12.652000000000001,-0.02127984717844095
12.656,-0.021280376070385305
12.66,-0.02128085688124381
12.664,-0.021279342327039517
12.668000000000001,-0.021277346961976723
12.672,-0.021275904529401205
12.676,-0.021274245731939364
12.68,-0.02127176955601806
12.684000000000001,-0.021270182880184993
12.688,-0.02126898085303873
12.692,-0.02126943762335431
12.696,-0.021268764488152403
12.700000000000001,-0.02126655275820328
12.704,-0.021265038203998988
12.708,-0.021265951744630147
12.712,-0.021267586501549064
12.716000000000001,-0.021266985487975933
12.72,-0.021264485271511705
12.724,-0.0212640044606532
12.728,-0.02126523052834239
12.732000000000001,-0.021263307284908366
12.736,-0.021260927271158768
12.74,-0.021260590703557812
12.744,-0.02126150424418897
12.748000000000001,-0.021262706271335235
12.752,-0.021263667893052247
12.756,-0.021263523649794697
12.76,-0.021262345663191358
12.764000000000001,-0.021261912933418704
12.768,-0.02126227354156258
12.772,-0.021262802433506936
12.776,-0.02126304283893619
12.780000000000001,-0.021262874555135713
12.784,-0.021262754352421087
12.788,-0.021262225460476732
12.792,-0.02126167252798945
12.796000000000001,-0.02126244182536306
12.8,-0.021263211122736665
12.804,-0.021264244866082454
12.808,-0.02126422082553953
12.812,-0.02126422082553953
12.816,-0.0212641967849966
12.82,-0.021264581433683406
12.824,-0.021263475568708844
12.828,-0.02126140808201727
12.832,-0.02126008585215638
12.836,-0.02125816260872236
12.84,-0.02125655189234637
12.844,-0.021256624013975146
12.848,-0.02125765775732093
12.852,-0.021258258770894062
12.856,-0.021259004027724744
12.86,-0.021259028068267672
12.864,-0.021260470500843186
12.868,-0.021261480203646047
12.872,-0.021260951311701692
12.876,-0.021261335960388497
12.88,-0.021263283244365442
12.884,-0.0212641967849966
12.888,-0.021264124663367828
12.892,-0.0212637159741381
12.896,-0.021263884257938574
12.9,-0.021263475568708844
12.904,-0.021261311919845573
12.908,-0.0212594367574974
12.912,-0.02125938867641155
12.916,-0.02126030221704271
12.92,-0.0212614321225602
12.924,-0.02126318708219374
12.928,-0.021263307284908366
12.932,-0.021262922636221565
12.936,-0.02126285051459279
12.94,-0.021262417784820135
12.944,-0.02126176869016115
12.948,-0.021261311919845573
12.952,-0.02126203313613333
12.956,-0.02126354769033762
12.96,-0.02126318708219374
12.964,-0.02126136000093142
12.968,-0.021259677162926652
12.972,-0.021258763622295493
12.976,-0.02125873958175257
12.98,-0.021259100189896445
12.984,-0.021256816338318548
12.988,-0.021254123797510918
12.992,-0.021255590270629357
12.996,-0.021261720609075302
13.0,-0.02126811539349342
13.004,-0.021272562893934595
13.008000000000001,-0.021274582299540316
13.012,-0.02127537563745685
13.016,-0.02127578432668658
13.02,-0.0212756160428861
13.024000000000001,-0.02127501502931297
13.028,-0.021274654421169093
13.032,-0.02127564008342903
13.036,-0.02127614493483046
13.040000000000001,-0.021274822704969568
13.044,-0.02127638534025971
13.048,-0.021279414448668293
13.052,-0.021282058908390074
13.056000000000001,-0.021284823570826478
13.06,-0.021285857314172266
13.064,-0.02128561690874301
13.068,-0.021286867016975127
13.072000000000001,-0.02128852581443697
13.076,-0.02128999228755541
13.08,-0.02129126643633045
13.084,-0.021292612706734264
13.088000000000001,-0.021294535950168284
13.092,-0.021296651517945707
13.096,-0.021296122626001352
13.1,-0.02129566585568577
13.104000000000001,-0.021297084247718364
13.108,-0.021296915963917886
13.112,-0.021296627477402783
13.116,-0.021297012126089587
13.120000000000001,-0.021295737977314547
13.124,-0.021294848477226312
13.128,-0.021296218788173053
13.132,-0.021296459193602305
13.136000000000001,-0.021293983017681005
13.14,-0.021293574328451276
13.144,-0.021293454125736647
13.148,-0.021292612706734264
13.152000000000001,-0.021292444422933786
13.156,-0.021292155936418682
13.16,-0.021291843409360654
13.164,-0.02129167512556018
13.168000000000001,-0.021290977949815347
13.172,-0.021290160571355885
13.176,-0.021288045003578462
13.18,-0.02128583327362934
13.184000000000001,-0.021285640949285936
13.188,-0.021285184178970358
13.192,-0.021285184178970358
13.196,-0.021286217922316143
13.200000000000001,-0.021285953476343964
13.204,-0.02128491973299818
13.208,-0.021285328422227908
13.212,-0.021288549854979893
13.216000000000001,-0.02129040097678514
13.22,-0.02129145876067385
13.224,-0.02129157896338848
13.228,-0.02129136259850215
13.232000000000001,-0.021292131895875758
13.236,-0.02129222805804746
13.24,-0.021292348260762085
13.244,-0.02129383877442345
13.248000000000001,-0.021295978382743802
13.252,-0.021296964045003735
13.256,-0.021295737977314547
13.26,-0.02129383877442345
13.264000000000001,-0.02129299735542107
13.268,-0.02129455999071121
13.272,-0.02129725253151884
13.276,-0.021300858612957628
13.280000000000001,-0.021302902059106277
13.284,-0.021302036599560967
13.288,-0.021299848910154767
13.292,-0.0212983583964934
13.296000000000001,-0.0212984545586651
13.3,-0.021298166072149998
13.304,-0.021298045869435372
13.308,-0.021297372734233464
13.312000000000001,-0.02129684384228911
13.316,-0.021295954342200874
13.32,-0.0212958822205721
13.324,-0.021296675558488635
13.328,-0.021297420815319316
13.332,-0.021296266869258902
13.336,-0.021295329288084818
13.34,-0.021295954342200874
13.344,-0.021296146666544277
13.348,-0.021295713936771623
13.352,-0.021294295544739033
13.356,-0.021294632112339985
13.36,-0.021296002423286726
13.364,-0.0212958822205721
13.368,-0.02129465615288291
13.372,-0.021291891490446507
13.376,-0.021287419949462406
13.38,-0.021285136097884506
13.384,-0.02128770843597751
13.388,-0.021288790260409148
13.392,-0.021287780557606287
13.396,-0.021286217922316143
13.4,-0.021285544787114235
13.404,-0.02128537650331376
13.408,-0.02128491973299818
13.412,-0.021283813868023617
13.416,-0.02128278012467783
13.42,-0.021282395475991027
13.424,-0.021283309016622187
13.428,-0.021283910030195318
13.432,-0.021283813868023617
13.436,-0.02128318881390756
13.44,-0.02128273204359198
13.444,-0.021282900327392457
13.448,-0.021283765786937768
13.452,-0.021286314084487844
13.456,-0.02128816520629309
13.46,-0.02128871813878037
13.464,-0.02128888642258085
13.468,-0.021287588233262884
13.472,-0.021287419949462406
13.476,-0.021288285409007717
13.48,-0.021288237327921865
13.484,-0.02128746803054826
13.488,-0.021286722773717574
13.492,-0.02128679489534635
13.496,-0.021285713070914713
13.5,-0.021285905395258115
13.504,-0.021287636314348733
13.508000000000001,-0.02128847773335112
13.512,-0.02128729974674778
13.516,-0.021287275706204856
13.52,-0.021287227625119004
13.524000000000001,-0.0212870353007756
13.528,-0.021285544787114235
13.532,-0.02128364558422314
13.536,-0.021282900327392457
13.540000000000001,-0.021281938705675445
13.544,-0.021281193448844764
13.548,-0.02128025586767068
13.552,-0.02128003950278435
13.556000000000001,-0.021279558691925847
13.56,-0.021278140299893254
13.564,-0.0212799914216985
13.568,-0.02128350134096559
13.572000000000001,-0.02128588135471519
13.576,-0.02128794884140676
13.58,-0.021291434720130925
13.584,-0.021293886855509304
13.588000000000001,-0.021295305247541894
13.592,-0.021296964045003735
13.596,-0.02129876708572313
13.6,-0.021298959410066532
13.604000000000001,-0.021297925666720747
13.608,-0.021297012126089587
13.612,-0.02129542545025652
13.616,-0.02129400705822393
13.620000000000001,-0.021294487869082435
13.624,-0.02129780546400612
13.628,-0.02130030568047035
13.632,-0.021299416180382114
13.636000000000001,-0.02129720445043299
13.64,-0.021296218788173053
13.644,-0.021296242828715978
13.648,-0.021297180409890065
13.652000000000001,-0.02129847859920803
13.656,-0.021298743045180205
13.66,-0.02129770930183442
13.664,-0.02129542545025652
13.668000000000001,-0.021294079179852706
13.672,-0.021294680193425838
13.676,-0.02129775738292027
13.68,-0.02130081053187178
13.684000000000001,-0.021302445288790696
13.688,-0.021303430951050632
13.692,-0.021303815599737437
13.696,-0.0213051137890554
13.700000000000001,-0.021305546518828055
13.704,-0.021305282072855876
13.708,-0.02130643601891629
13.712,-0.021306916829774796
13.716000000000001,-0.0213071091541182
13.72,-0.02130658026217384
13.724,-0.021305714802628533
13.728,-0.021305354194484653
13.732000000000001,-0.021304440653853493
13.736,-0.0213028299374775
13.74,-0.021303430951050632
13.744,-0.0213050176268837
13.748000000000001,-0.02130684470814602
13.752,-0.021308431383979087
13.756,-0.021308743911037115
13.76,-0.021308695829951266
13.764000000000001,-0.021309320884067322
13.768,-0.02131059503284236
13.772,-0.021310835438271614
13.776,-0.021310114221983856
13.780000000000001,-0.02131078735718576
13.784,-0.021311941303246176
13.788,-0.021312806762791486
13.792,-0.02131283080333441
13.796000000000001,-0.021311941303246176
13.8,-0.021309152600266845
13.804,-0.021304825302540298
13.808,-0.02130206064010389
13.812000000000001,-0.021301435585987835
13.816,-0.0213027337753058
13.82,-0.021307061073032346
13.824,-0.02130994593818338
13.828,-0.021310426749041884
13.832,-0.021310426749041884
13.836,-0.021309080478638068
13.84,-0.02130619561348704
13.844,-0.02130441661331057
13.848,-0.021302493369876548
13.852,-0.021300978815672254
13.856,-0.021301772153588788
13.86,-0.021303214586164305
13.864,-0.021303671356479884
13.868,-0.02130405600516669
13.872,-0.021304873383626147
13.876,-0.021305498437742206
13.88,-0.02130593116751486
13.884,-0.021305786924257306
13.888,-0.021304632978196895
13.892,-0.02130364731593696
13.896,-0.02130359923485111
13.9,-0.02130314246453553
13.904,-0.0213005460858996
13.908,-0.021297084247718364
13.912,-0.021294367666367806
13.916,-0.02129383877442345
13.92,-0.02129593030165795
13.924,-0.021297661220748568
13.928,-0.021298142031607074
13.932,-0.021298911328980683
13.936,-0.021298502639750954
13.94,-0.021297420815319316
13.944,-0.021296483234145232
13.948,-0.021295641815142846
13.952,-0.021296218788173053
13.956,-0.02129684384228911
13.96,-0.021298045869435372
13.964,-0.02129994507232647
13.968,-0.021300666288614226
13.972,-0.021301243261644433
13.976,-0.021302301045533146
13.98,-0.02130222892390437
13.984,-0.021303070342906752
13.988,-0.02130338286996478
13.992,-0.02130323862670723
13.996,-0.021303815599737437
14.0,-0.02130415216733839
14.004,-0.021303214586164305
14.008000000000001,-0.021303022261820903
14.012,-0.021303791559194513
14.016,-0.021303671356479884
14.02,-0.021303719437565736
14.024000000000001,-0.02130374347810866
14.028,-0.021303671356479884
14.032,-0.021303935802452063
14.036,-0.02130374347810866
14.040000000000001,-0.021303719437565736
14.044,-0.021303262667250154
14.048,-0.021304176207881314
14.052,-0.02130542631611343
14.056000000000001,-0.021304945505254923
14.06,-0.02130547439719928
14.064,-0.021308070775835207
14.068,-0.02131004210035508
14.072000000000001,-0.021309200681352697
14.076,-0.021306219654029963
14.08,-0.021305089748512477
14.084,-0.021306868748688944
14.088000000000001,-0.021309056438095143
14.092,-0.021309969978726303
14.096,-0.02130972957329705
14.1,-0.021310426749041884
14.104000000000001,-0.02131129220858719
14.108,-0.021311508573473522
14.112,-0.021312349992475905
14.116,-0.02131328757364999
14.120000000000001,-0.02131328757364999
14.124,-0.021312518276276383
14.128,-0.021310715235556988
14.132,-0.021308984316466367
14.136000000000001,-0.021309465127324873
14.14,-0.02131069119501406
14.144,-0.02131054695175651
14.148,-0.021310426749041884
14.152000000000001,-0.021311244127501343
14.156,-0.021312686560076857
14.16,-0.021313431816907542
14.164,-0.02131460980351088
14.168000000000001,-0.021316004155000543
14.172,-0.021316316682058575
14.176,-0.021316244560429798
14.18,-0.021316412844230276
14.184000000000001,-0.021315956073914694
14.188,-0.02131533101979864
14.192,-0.021314369398081626
14.196,-0.021313672222336794
14.200000000000001,-0.02131222978976128
14.204,-0.02130980169492583
14.208,-0.021307541883890852
14.212,-0.02130734955954745
14.216000000000001,-0.021308431383979087
14.22,-0.021310474830127733
14.224,-0.021311628776188148
14.228,-0.021311027762615016
14.232000000000001,-0.021310162303069705
14.236,-0.0213073014784616
14.24,-0.021305209951227103
14.244,-0.02130525803231295
14.248000000000001,-0.021306508140545067
14.252,-0.021307782289320103
14.256,-0.0213073014784616
14.26,-0.021306267735115812
14.264000000000001,-0.021305185910684175
14.268,-0.021303791559194513
14.272,-0.021304031964623764
14.276,-0.021302853978020425
14.280000000000001,-0.021300185477755723
14.284,-0.021298286274864627
14.288,-0.021298406477579253
14.292,-0.021300065275041094
14.296000000000001,-0.021301627910331238
14.3,-0.021300978815672254
14.304,-0.02129862284246558
14.308,-0.021296651517945707
14.312000000000001,-0.021295978382743802
14.316,-0.02129761313966272
14.32,-0.021299247896581636
14.324,-0.021300738410243002
14.328000000000001,-0.021300762450785927
14.332,-0.02129912769386701
14.336,-0.021296675558488635
14.34,-0.021294896558312165
14.344,-0.02129528120699897
14.348,-0.021296579396316934
14.352,-0.02129730061260469
14.356,-0.021297324653147615
14.36,-0.021296867882832034
14.364,-0.021296579396316934
14.368,-0.0212957860584004
14.372,-0.02129451190962536
14.376,-0.02129475231505461
14.38,-0.021295209085370193
14.384,-0.02129528120699897
14.388,-0.02129475231505461
14.392,-0.02129424746365318
14.396,-0.02129441574745366
14.4,-0.02129492059885509
14.404,-0.021295545652971145
14.408,-0.021296218788173053
14.412,-0.02129730061260469
14.416,-0.02129619474763013
14.42,-0.021294704233968762
14.424,-0.021294896558312165
14.428,-0.02129477635559754
14.432,-0.0212961707070872
14.436,-0.02129542545025652
14.44,-0.0212935022068225
14.444,-0.021294127260938555
14.448,-0.02129566585568577
14.452,-0.021295449490799444
14.456,-0.021293213720307395
14.46,-0.021291242395787523
14.464,-0.021290328855156363
14.468,-0.02129064138221439
14.472,-0.021291627044474327
14.476,-0.021291386639045076
14.48,-0.02129044905787099
14.484,-0.021290785625471945
14.488,-0.02129217997696161
14.492,-0.021293213720307395
14.496,-0.021293021395963993
14.5,-0.021292853112163515
14.504,-0.021294584031254137
14.508000000000001,-0.021296651517945707
14.512,-0.02129922385603871
14.516,-0.021301339423816134
14.52,-0.02130258953204825
14.524000000000001,-0.021302950140192126
14.528,-0.021303911761909138
14.532,-0.021305378235027577
14.536,-0.0213073014784616
14.540000000000001,-0.021308046735292283
14.544,-0.021308407343436163
14.548,-0.021309393005696096
14.552,-0.021309994019269227
14.556000000000001,-0.021312109587046654
14.56,-0.021315210817084013
14.564,-0.02131698981726048
14.568,-0.021316364763144423
14.572000000000001,-0.02131347989799339
14.576,-0.021311508573473522
14.58,-0.02131114796532964
14.584,-0.021310859478814538
14.588000000000001,-0.021309753613839976
14.592,-0.021307277437918673
14.596,-0.021307012991946497
14.6,-0.021307229356832824
14.604000000000001,-0.02130597924860071
14.608,-0.021306387937830438
14.612,-0.021307469762262075
14.616,-0.021307541883890852
14.620000000000001,-0.021307782289320103
14.624,-0.0213071091541182
14.628,-0.021305859045886083
14.632,-0.021305041667426625
14.636000000000001,-0.02130347903213648
14.64,-0.021301579829245385
14.644,-0.021300089315584022
14.648,-0.021300329721013273
14.652000000000001,-0.02130206064010389
14.656,-0.021302252964447294
14.66,-0.021302950140192126
14.664,-0.021303214586164305
14.668000000000001,-0.0213027337753058
14.672,-0.02130090669404348
14.676,-0.021298142031607074
14.68,-0.0212957860584004
14.684000000000001,-0.021295209085370193
14.688,-0.021295762017857472
14.692,-0.021296122626001352
14.696,-0.02129653131523108
14.700000000000001,-0.021296771720660333
14.704,-0.02129669959903156
14.708,-0.02129633899088768
14.712,-0.021294055139309778
14.716000000000001,-0.02129222805804746
14.72,-0.021290473098413917
14.724,-0.021287900760320912
14.728,-0.021287275706204856
14.732000000000001,-0.021287516111634108
14.736,-0.021286362165573697
14.74,-0.021284703368111852
14.744,-0.021285664989828864
14.748000000000001,-0.021287588233262884
14.752,-0.02128888642258085
14.756,-0.021289607638868606
14.76,-0.021289848044297857
14.764000000000001,-0.021290689463300243
14.768,-0.02129172320664603
14.772,-0.02129167512556018
14.776,-0.021290280774070514
14.780000000000001,-0.021289920165926634
14.784,-0.021292444422933786
14.788,-0.02129299735542107
14.792,-0.02129196361207528
14.796000000000001,-0.021291410679588
14.8,-0.021290713503843168
14.804,-0.021290160571355885
14.808,-0.02129080966601487
14.812000000000001,-0.021291410679588
14.816,-0.021290593301128542
14.82,-0.021290016328098335
14.824,-0.02128871813878037
14.828000000000001,-0.021287876719777988
14.832,-0.021287227625119004
14.836,-0.021286217922316143
14.84,-0.021285400543856685
14.844000000000001,-0.021283789827480692
14.848,-0.02128282820576368
14.852,-0.021283621543680215
14.856,-0.021284222557253346
14.86,-0.021283717705851916
14.864,-0.0212842706383392
14.868,-0.02128364558422314
14.872,-0.021281746381332043
14.876,-0.021280736678529182
14.88,-0.02128015970549898
14.884,-0.021280207786584827
14.888,-0.02128268396250613
14.892,-0.021285568827657163
14.896,-0.021286314084487844
14.9,-0.021286097719601518
14.904,-0.021285352462770833
14.908,-0.02128491973299818
14.912,-0.021284703368111852
14.916,-0.021285544787114235
14.92,-0.02128720358457608
14.924,-0.02128857389552282
14.928,-0.021289367233439355
14.932,-0.021287828638692136
14.936,-0.02128696317914683
14.94,-0.02128643428720247
14.944,-0.021284703368111852
14.948,-0.021284390841053824
14.952,-0.021286073679058593
14.956,-0.021288501773894044
14.96,-0.02128948743615398
14.964,-0.021289848044297857
14.968,-0.021290184611898813
14.972,-0.021289415314525204
14.976,-0.021288742179323295
14.98,-0.021286626611545872
14.984,-0.021284438922139673
14.988,-0.021282635881420278
14.992,-0.021282443557076876
14.996,-0.021282708003049055
15.0,-0.02128335709770804
15.004,-0.021284438922139673
15.008000000000001,-0.021285352462770833
15.012,-0.021286121760144442
15.016,-0.021286915098060976
15.02,-0.021288838341494996
15.024000000000001,-0.021289439355068128
15.028,-0.02128816520629309
15.032,-0.021286314084487844
15.036,-0.02128278012467783
15.040000000000001,-0.021280376070385305
15.044,-0.021280183746041903
15.048,-0.021280712637986258
15.052,-0.02128177042187497
15.056000000000001,-0.02128181850296082
15.06,-0.021280592435271632
15.064,-0.021280015462241425
15.068,-0.021281073246130138
15.072000000000001,-0.021281602138074493
15.076,-0.021281385773188166
15.08,-0.02128090496232966
15.084,-0.021280111624413126
15.088000000000001,-0.02127963081355462
15.092,-0.021280111624413126
15.096,-0.021281650219160345
15.1,-0.021282515678705653
15.104000000000001,-0.02128114536775891
15.108,-0.021278044137721556
15.112,-0.02127689019166114
15.116,-0.021277827772835226
15.120000000000001,-0.021279174043239042
15.124,-0.0212778037322923
15.128,-0.02127689019166114
15.132,-0.021279174043239042
15.136000000000001,-0.021281025165044286
15.14,-0.02128085688124381
15.144,-0.02128054435418578
15.148,-0.021281457894816943
15.152000000000001,-0.021282058908390074
15.156,-0.021282467597619804
15.16,-0.021281890624589597
15.164,-0.02128085688124381
15.168000000000001,-0.021280327989299453
15.172,-0.02128177042187497
15.176,-0.021283982151824095
15.18,-0.021285328422227908
15.184000000000001,-0.021287876719777988
15.188,-0.02128898258475255
15.192,-0.02128907874692425
15.196,-0.021289968247012486
15.200000000000001,-0.021291651085017252
15.204,-0.021292300179676236
15.208,-0.02129227613913331
15.212,-0.021292973314878144
15.216000000000001,-0.02129424746365318
15.22,-0.02129309351759277
15.224,-0.02129105007144412
15.228,-0.02128852581443697
15.232000000000001,-0.0212847514491977
15.236,-0.02128131365155939
15.24,-0.021280977083958437
15.244,-0.02128318881390756
15.248000000000001,-0.021283885989652394
15.252,-0.021284078313995796
15.256,-0.021285184178970358
15.26,-0.021286674692631725
15.264000000000001,-0.021286073679058593
15.268,-0.021285063976255732
15.272,-0.021284535084311374
15.276,-0.0212822752732764
15.280000000000001,-0.02128157809753157
15.284,-0.021284438922139673
15.288,-0.021286001557429816
15.292,-0.021285039935712805
15.296000000000001,-0.021282611840877354
15.3,-0.021278284543150807
15.304,-0.02127405340759596
15.308,-0.021272250366876567
15.312000000000001,-0.02127140894787418
15.316,-0.02127080793430105
15.32,-0.021270783893758125
15.324,-0.021270928137015675
15.328000000000001,-0.021270519447785945
15.332,-0.02126888469086703
15.336,-0.02126782690697832
15.34,-0.02126720185286226
15.344000000000001,-0.02126761054209199
15.348,-0.02126934146118261
15.352,-0.021270831974843977
15.356,-0.02127150511004588
15.36,-0.021272490772305818
15.364,-0.02127263501556337
15.368,-0.021273163907507726
15.372,-0.021274558258997392
15.376,-0.021275712205057803
15.38,-0.021278428786408357
15.384,-0.02128030394875653
15.388,-0.021283116692278784
15.392,-0.021285664989828864
15.396,-0.021286626611545872
15.4,-0.021287588233262884
15.404,-0.021288020963035538
15.408,-0.02128888642258085
15.412,-0.02128972784158323
15.416,-0.021291290476873375
15.42,-0.02129323776085032
15.424,-0.021294463828539507
15.428,-0.021294079179852706
15.432,-0.021291603003931403
15.436,-0.02129155492284555
15.44,-0.021293862814966376
15.444,-0.021295088882655567
15.448,-0.021294584031254137
15.452,-0.021294175342024407
15.456,-0.021294175342024407
15.46,-0.02129333392302202
15.464,-0.02129044905787099
15.468,-0.021288934503666698
15.472,-0.021289367233439355
15.476,-0.021290256733527586
15.48,-0.021290425017328064
15.484,-0.021291506841759702
15.488,-0.021291747247188953
15.492,-0.021291386639045076
15.496,-0.02129227613913331
15.5,-0.02129299735542107
15.504,-0.02129222805804746
15.508000000000001,-0.021289679760497383
15.512,-0.0212868429764322
15.516,-0.021286241962859068
15.52,-0.021286867016975127
15.524000000000001,-0.021289559557782754
15.528,-0.021290352895699288
15.532,-0.02128845369280819
15.536,-0.021288597936065745
15.540000000000001,-0.02129013653081296
15.544,-0.021290160571355885
15.548,-0.021288237327921865
15.552,-0.021287323787290705
15.556000000000001,-0.021286482368288322
15.56,-0.02128770843597751
15.564,-0.021290208652441737
15.568,-0.021293309882479097
15.572000000000001,-0.02129465615288291
15.576,-0.02129552161242822
15.58,-0.021296867882832034
15.584,-0.021297541018033942
15.588000000000001,-0.021296723639574484
15.592,-0.02129643515305938
15.596,-0.021296242828715978
15.6,-0.021296050504372575
15.604000000000001,-0.021296867882832034
15.608,-0.021297685261291496
15.612,-0.021296122626001352
15.616,-0.021293213720307395
15.620000000000001,-0.021292540585105487
15.624,-0.021295449490799444
15.628,-0.021297685261291496
15.632,-0.021299824869611843
15.636000000000001,-0.021301796194131715
15.64,-0.021303911761909138
15.644,-0.021305618640456832
15.648,-0.021306556221630916
15.652000000000001,-0.021307421681176227
15.656,-0.021307926532577657
15.66,-0.02130831118126446
15.664,-0.0213075899649767
15.668000000000001,-0.02130694087031772
15.672,-0.021307878451491805
15.676,-0.021306243694572888
15.68,-0.02130383964028036
15.684000000000001,-0.021302950140192126
15.688,-0.02130374347810866
15.692,-0.02130256549150532
15.696,-0.021301796194131715
15.700000000000001,-0.021301123058929807
15.704,-0.021298694964094356
15.708,-0.021297372734233464
15.712,-0.021296122626001352
15.716000000000001,-0.021294343625824882
15.72,-0.021292636747277188
15.724,-0.021289319152353502
15.728,-0.021287588233262884
15.732000000000001,-0.021288838341494996
15.736,-0.021290088449727112
15.74,-0.021290280774070514
15.744,-0.021291987652618208
15.748000000000001,-0.021294800396140463
15.752,-0.021296651517945707
15.756,-0.021297973747806596
15.76,-0.021300377802099122
15.764000000000001,-0.021301243261644433
15.768,-0.021300762450785927
15.772,-0.021302397207704847
15.776,-0.021304368532224716
15.780000000000001,-0.02130456085656812
15.784,-0.021304897424169075
15.788,-0.02130602732968656
15.792,-0.02130667642434554
15.796000000000001,-0.02130619561348704
15.8,-0.02130506570796955
15.804,-0.02130287801856335
15.808,-0.02130121922110151
15.812000000000001,-0.02129977678852599
15.816,-0.021300522045356676
15.82,-0.021302277004990218
15.824,-0.02130268569421995
15.828000000000001,-0.021302180842818517
15.832,-0.021301627910331238
15.836,-0.021300017193955245
15.84,-0.021299055572238233
15.844000000000001,-0.02129831031540755
15.848,-0.021297420815319316
15.852,-0.021296363031430603
15.856,-0.021295401409713595
15.860000000000001,-0.02129424746365318
15.864,-0.021292155936418682
15.868,-0.02129004036864126
15.872,-0.02128766035489166
15.876,-0.02128542458439961
15.88,-0.02128386194910947
15.884,-0.021283429219336812
15.888,-0.021284631246483075
15.892,-0.021286602571002948
15.896,-0.021286818935889275
15.9,-0.021286362165573697
15.904,-0.021284318719425047
15.908,-0.021281025165044286
15.912,-0.021278861516181014
15.916,-0.021279318286496592
15.92,-0.02127852494858006
15.924,-0.02127705847546162
15.928,-0.021275856448315356
15.932,-0.02127477462388372
15.936,-0.021274486137368615
15.94,-0.021274654421169093
15.944,-0.021274341894111065
15.948,-0.021275135232027596
15.952,-0.02127568816451488
15.956,-0.02127633725917386
15.96,-0.02127547179962855
15.964,-0.021273813002166707
15.968,-0.021272610975020444
15.972,-0.02127395724542426
15.976,-0.02127441401573984
15.98,-0.021273981285967185
15.984,-0.021273139866964802
15.988,-0.02127136086678833
15.992,-0.021271529150588806
15.996,-0.021272490772305818
16.0,-0.02127258693447752
16.004,-0.021271697434389284
16.008,-0.021271336826245407
16.012,-0.021271024299187376
16.016000000000002,-0.021271865718189762
16.02,-0.021272202285790714
16.024,-0.021272106123619013
16.028,-0.021272058042533164
16.032,-0.02127241865067704
16.036,-0.021274990988770046
16.04,-0.021280111624413126
16.044,-0.02128434275996797
16.048000000000002,-0.021286602571002948
16.052,-0.021286314084487844
16.056,-0.02128451104376845
16.06,-0.021283669624766067
16.064,-0.021281938705675445
16.068,-0.02127806817826448
16.072,-0.021276625745688962
16.076,-0.02127888555672394
16.080000000000002,-0.021281217489387688
16.084,-0.021283260935536338
16.088,-0.02128395811128117
16.092,-0.02128419851671042
16.096,-0.021283982151824095
16.1,-0.021284991854626956
16.104,-0.021284991854626956
16.108,-0.021282900327392457
16.112000000000002,-0.02128013566495605
16.116,-0.02127924616486782
16.12,-0.021279462529754146
16.124,-0.021279366367582445
16.128,-0.021278332624236656
16.132,-0.021275976651029982
16.136,-0.02127369279945208
16.14,-0.021273139866964802
16.144000000000002,-0.021275183313113448
16.148,-0.021277226759262094
16.152,-0.021278188380979106
16.156,-0.02127902979998149
16.16,-0.021278861516181014
16.164,-0.02127765948903475
16.168,-0.02127628917808801
16.172,-0.021274341894111065
16.176000000000002,-0.02127273117773507
16.18,-0.021270615609957647
16.184,-0.02126922125846798
16.188,-0.021269052974667507
16.192,-0.021268403880008523
16.196,-0.0212684760016373
16.2,-0.021271889758732686
16.204,-0.021275087150941747
16.208000000000002,-0.021276986353832843
16.212,-0.021278020097178628
16.216,-0.021277996056635703
16.22,-0.021278260502607883
16.224,-0.021278404745865433
16.228,-0.021278332624236656
16.232,-0.02127705847546162
16.236,-0.021274750583340794
16.240000000000002,-0.021274798664426643
16.244,-0.02127614493483046
