time,channel2
0.0,-0.01617156837442339
0.004,-0.016167385319954392
0.008,-0.0161680584551563
0.012,-0.016167890171355823
0.016,-0.016168803711986982
0.02,-0.01616632753606568
0.024,-0.016167842090269974
0.028,-0.0161702461445625
0.032,-0.01616998169859032
0.036000000000000004,-0.016170582712163453
0.04,-0.016171736658223863
0.044,-0.01617207322582482
0.048,-0.01617298676645598
0.052000000000000005,-0.016169597049903516
0.056,-0.016169188360673787
0.06,-0.016168947955244536
0.064,-0.01616654390095201
0.068,-0.016167337238868543
0.07200000000000001,-0.016167072792896364
0.076,-0.016168923914701608
0.08,-0.016171279887908285
0.084,-0.01617221746908237
0.088,-0.01617012594184787
0.092,-0.01616678430638126
0.096,-0.016170198063476648
0.1,-0.016170510590534676
0.10400000000000001,-0.016168803711986982
0.108,-0.01616993361750447
0.112,-0.01616820269841385
0.116,-0.01616719299561099
0.12,-0.016165702481949623
0.124,-0.0161658707657501
0.128,-0.016164644698060913
0.132,-0.016163009941141993
0.136,-0.016163394589828798
0.14,-0.016164163887202408
0.14400000000000002,-0.016163154184399547
0.148,-0.016164019643944854
0.152,-0.016168539266014807
0.156,-0.016169236441759636
0.16,-0.016168779671444058
0.164,-0.016165606319777922
0.168,-0.016166231373893978
0.17200000000000001,-0.016168034414613373
0.176,-0.0161679622929846
0.18,-0.01616695259018174
0.184,-0.016165846725207177
0.188,-0.016166880468552962
0.192,-0.01616897199578746
0.196,-0.016170270185105425
0.2,-0.016165726522492548
0.20400000000000001,-0.016161831954538658
0.20800000000000002,-0.01616171175182403
0.212,-0.016163634995258053
0.216,-0.016163875400687304
0.22,-0.016163130143856622
0.224,-0.01616190407616743
0.228,-0.01616284165734152
0.232,-0.016163418630371722
0.23600000000000002,-0.016163466711457575
0.24,-0.016164572576432137
0.244,-0.01616510146837649
0.248,-0.016166351576608607
0.252,-0.016162144481596686
0.256,-0.016162384887025937
0.26,-0.016166351576608607
0.264,-0.016167529563211942
0.268,-0.016168659468729432
0.272,-0.01616632753606568
0.276,-0.01616221660322546
0.28,-0.016163634995258053
0.28400000000000003,-0.01616517359000527
0.28800000000000003,-0.01616627945497983
0.292,-0.016163803279058527
0.296,-0.016162865697884443
0.3,-0.0161636830763439
0.304,-0.01616382731960145
0.308,-0.016165582279234997
0.312,-0.016163707116886826
0.316,-0.0161635869141722
0.32,-0.016168755630901133
0.324,-0.016168827752529907
0.328,-0.016167409360497317
0.332,-0.016169260482302564
0.336,-0.016167914211898747
0.34,-0.01616760168484072
0.34400000000000003,-0.01616704875235344
0.34800000000000003,-0.016166087130636428
0.352,-0.01616651986040908
0.356,-0.01616526975217697
0.36,-0.016168683509272357
0.364,-0.016167072792896364
0.368,-0.01616375519797268
0.372,-0.01616303398168492
0.376,-0.016163875400687304
0.38,-0.01616399560340193
0.384,-0.016165726522492548
0.388,-0.016164885103490165
0.392,-0.016167313198325615
0.396,-0.016167890171355823
0.4,-0.01616692854963881
0.404,-0.01616536591434867
0.40800000000000003,-0.01616719299561099
0.41200000000000003,-0.016168130576785074
0.41600000000000004,-0.016167000671267587
0.42,-0.016165389954891595
0.424,-0.01616500530620479
0.428,-0.016166111171179352
0.432,-0.01616500530620479
0.436,-0.01616190407616743
0.44,-0.01616115881933675
0.444,-0.01616459661697506
0.448,-0.016164837022404316
0.452,-0.01616495722511894
0.456,-0.016166567941494934
0.46,-0.01616632753606568
0.464,-0.016162601251912264
0.468,-0.016161110738250897
0.47200000000000003,-0.016163106103313694
0.47600000000000003,-0.016164115806116555
0.48,-0.016164524495346284
0.484,-0.016164476414260436
0.488,-0.016164043684487782
0.492,-0.01616231276539716
0.496,-0.016162865697884443
0.5,-0.016160533765220694
0.504,-0.01616262529245519
0.508,-0.01616231276539716
0.512,-0.01616651986040908
0.516,-0.01616704875235344
0.52,-0.01616887583361576
0.524,-0.016168010374070448
0.528,-0.01616810653624215
0.532,-0.016167481482126093
0.536,-0.016165197630548193
0.54,-0.016164211968288256
0.544,-0.01616308206277077
0.548,-0.01616490914403309
0.552,-0.016163514792543424
0.556,-0.016163923481773153
0.56,-0.01616221660322546
0.5640000000000001,-0.016165149549462344
0.5680000000000001,-0.016163394589828798
0.5720000000000001,-0.01616382731960145
0.5760000000000001,-0.016162913778970292
0.58,-0.016163394589828798
0.584,-0.01616476490077554
0.588,-0.016163659035800977
0.592,-0.01616216852213961
0.596,-0.016161543468023554
0.6,-0.01616272145462689
0.604,-0.01616298590059907
0.608,-0.01616603904955058
0.612,-0.016167481482126093
0.616,-0.016165798644121324
0.62,-0.016167072792896364
0.624,-0.01616810653624215
0.628,-0.01616632753606568
0.632,-0.016165798644121324
0.636,-0.016164476414260436
0.64,-0.016162889738427368
0.644,-0.016163707116886826
0.648,-0.016164476414260436
0.652,-0.01616510146837649
0.656,-0.016164043684487782
0.66,-0.016164933184576017
0.664,-0.01616551015760622
0.668,-0.016166760265838336
0.672,-0.01616779400918412
0.676,-0.016168491184928954
0.68,-0.01616820269841385
0.684,-0.01616820269841385
0.6880000000000001,-0.01616495722511894
0.6920000000000001,-0.0161658707657501
0.6960000000000001,-0.016166471779323233
0.7000000000000001,-0.016166712184752484
0.704,-0.01617115968519366
0.708,-0.016172962725913054
0.712,-0.016172385752882847
0.716,-0.016173058888084756
0.72,-0.01617140009062291
0.724,-0.016167361279411468
0.728,-0.016167241076696842
0.732,-0.016164788941318464
0.736,-0.01616495722511894
0.74,-0.016165846725207177
0.744,-0.01616704875235344
0.748,-0.016166471779323233
0.752,-0.01616704875235344
0.756,-0.016168635428186504
0.76,-0.01616856330655773
0.764,-0.016169717252618142
0.768,-0.016169909576961544
0.772,-0.01616668814420956
0.776,-0.016166159252265205
0.78,-0.01616993361750447
0.784,-0.016167361279411468
0.788,-0.01616526975217697
0.792,-0.016167217036153914
0.796,-0.016168803711986982
0.8,-0.016170053820219098
0.804,-0.016171327968994134
0.808,-0.016170366347277126
0.812,-0.016168803711986982
0.8160000000000001,-0.016169164320130863
0.8200000000000001,-0.016170077860762022
0.8240000000000001,-0.016171592414966313
0.8280000000000001,-0.016173876266544214
0.8320000000000001,-0.01617531869911973
0.836,-0.01617476576663245
0.84,-0.01617426091523102
0.844,-0.016174333036859792
0.848,-0.01617065483379223
0.852,-0.016171784739309716
0.856,-0.016171736658223863
0.86,-0.016171376050079986
0.864,-0.0161706307932493
0.868,-0.016169861495875695
0.872,-0.016169236441759636
0.876,-0.016167072792896364
0.88,-0.016165486117063296
0.884,-0.016165966927921802
0.888,-0.016168034414613373
0.892,-0.016172049185281895
0.896,-0.01617156837442339
0.9,-0.01616952492827474
0.904,-0.016168755630901133
0.908,-0.016167361279411468
0.912,-0.01616861138764358
0.916,-0.01617089523922148
0.92,-0.016168851793072835
0.924,-0.01616897199578746
0.928,-0.016170198063476648
0.932,-0.016169404725560114
0.936,-0.01616947684718889
0.9400000000000001,-0.01616861138764358
0.9440000000000001,-0.01616632753606568
0.9480000000000001,-0.016166159252265205
0.9520000000000001,-0.01616642369823738
0.9560000000000001,-0.016166567941494934
0.96,-0.016166567941494934
0.964,-0.016165630360320846
0.968,-0.01616553419814915
0.972,-0.01616526975217697
0.976,-0.016165630360320846
0.98,-0.016166712184752484
0.984,-0.016167721887555345
0.988,-0.016166231373893978
0.992,-0.016166712184752484
0.996,-0.016168731590358205
1.0,-0.016167842090269974
1.004,-0.016167890171355823
1.008,-0.0161704384689059
1.012,-0.016168851793072835
1.016,-0.016168947955244536
1.02,-0.016167072792896364
1.024,-0.0161703423067342
1.028,-0.016171736658223863
1.032,-0.016169164320130863
1.036,-0.01616743340104024
1.04,-0.016167313198325615
1.044,-0.016169044117416237
1.048,-0.016169404725560114
1.052,-0.016166664103666635
1.056,-0.016167577644297795
1.06,-0.016168755630901133
1.064,-0.01616861138764358
1.068,-0.016167721887555345
1.072,-0.016167721887555345
1.076,-0.016169404725560114
1.08,-0.016169428766103038
1.084,-0.016168130576785074
1.088,-0.016168395022757253
1.092,-0.016167986333527524
1.096,-0.01616764976592657
1.1,-0.016168034414613373
1.104,-0.016167842090269974
1.108,-0.016167721887555345
1.112,-0.016166904509095886
1.116,-0.01616820269841385
1.12,-0.016168274820042627
1.124,-0.016169092198502086
1.1280000000000001,-0.016172554036683325
1.1320000000000001,-0.016172145347453596
1.1360000000000001,-0.01616998169859032
1.1400000000000001,-0.01617084715813563
1.1440000000000001,-0.0161702461445625
1.1480000000000001,-0.016168996036330385
1.1520000000000001,-0.016170174022933723
1.156,-0.01617079907704978
1.16,-0.016168154617328002
1.164,-0.016165990968464727
1.168,-0.01616601500900765
1.172,-0.01617012594184787
1.176,-0.016172457874511624
1.18,-0.016172049185281895
1.184,-0.016171928982567266
1.188,-0.016173972428715915
1.192,-0.01617399646925884
1.196,-0.016171688577138014
1.2,-0.016171279887908285
1.204,-0.01617240979342577
1.208,-0.016172049185281895
1.212,-0.016171327968994134
1.216,-0.01616837098221433
1.22,-0.016169092198502086
1.224,-0.01617002977967617
1.228,-0.016170606752706377
1.232,-0.01617120776627951
1.236,-0.016171327968994134
1.24,-0.0161706307932493
1.244,-0.01616779400918412
1.248,-0.0161680584551563
1.252,-0.016173659901657887
1.256,-0.016175222536948027
1.26,-0.01617464556391782
1.264,-0.016172962725913054
1.268,-0.01617240979342577
1.272,-0.016172890604284278
1.276,-0.016173515658400334
1.28,-0.01617375606382959
1.284,-0.016172794442112576
1.288,-0.0161727223204838
1.292,-0.016171135644650732
1.296,-0.016170414428362975
1.3,-0.01617065483379223
1.304,-0.016169837455332767
1.308,-0.016167361279411468
1.312,-0.016168226738956775
1.316,-0.016172049185281895
1.32,-0.016172914644827202
1.324,-0.01617140009062291
1.328,-0.016169404725560114
1.332,-0.016171231806822433
1.336,-0.016172001104196043
1.34,-0.016175799509978234
1.344,-0.016174621523374896
1.348,-0.016175535064006055
1.352,-0.016174308996316868
1.356,-0.016174020509801764
1.36,-0.016176472645180143
1.364,-0.01617724194255375
1.368,-0.016177314064182526
1.372,-0.016176448604637215
1.3760000000000001,-0.016174982131518776
1.3800000000000001,-0.016175438901834354
1.3840000000000001,-0.016173395455685708
1.3880000000000001,-0.016173659901657887
1.3920000000000001,-0.016172049185281895
1.3960000000000001,-0.016168899874158683
1.4000000000000001,-0.01616709683343929
1.4040000000000001,-0.01616704875235344
1.408,-0.0161701499823908
1.412,-0.016171448171708763
1.416,-0.016171015441936106
1.42,-0.016173804144915437
1.424,-0.01617368394220081
1.428,-0.016172097266367744
1.432,-0.016169284522845488
1.436,-0.016168491184928954
1.44,-0.016168082495699225
1.444,-0.016167986333527524
1.448,-0.016170005739133245
1.452,-0.01616974129316107
1.456,-0.016170775036506855
1.46,-0.016171135644650732
1.464,-0.016173395455685708
1.468,-0.016174212834145166
1.472,-0.0161728184826555
1.476,-0.01617257807722625
1.48,-0.016169813414789843
1.484,-0.016172842523198425
1.488,-0.016175126374776326
1.492,-0.016175294658576804
1.496,-0.01617524657749095
1.5,-0.01617536678020558
1.504,-0.016176568807351844
1.508,-0.016175294658576804
1.512,-0.01617226555016822
1.516,-0.016170222104019572
1.52,-0.016167337238868543
1.524,-0.016167890171355823
1.528,-0.016169404725560114
1.532,-0.016168996036330385
1.536,-0.016166904509095886
1.54,-0.016166712184752484
1.544,-0.016167818049727046
1.548,-0.01616906815795916
1.552,-0.0161706307932493
1.556,-0.016172001104196043
1.56,-0.01617317909079938
1.564,-0.016170558671620528
1.568,-0.016167241076696842
1.572,-0.0161658707657501
1.576,-0.016167313198325615
1.58,-0.016168395022757253
1.584,-0.016168635428186504
1.588,-0.016170702914878078
1.592,-0.01617207322582482
1.596,-0.016171880901481417
1.6,-0.016167769968641197
1.604,-0.016165462076520372
1.608,-0.01616861138764358
1.612,-0.016168923914701608
1.616,-0.016168803711986982
1.62,-0.01616856330655773
1.624,-0.01616947684718889
1.6280000000000001,-0.01616760168484072
1.6320000000000001,-0.016167168955068065
1.6360000000000001,-0.01616851522547188
1.6400000000000001,-0.016169548968817667
1.6440000000000001,-0.016169693212075217
1.6480000000000001,-0.016171376050079986
1.6520000000000001,-0.016170510590534676
1.6560000000000001,-0.01617065483379223
1.6600000000000001,-0.01617120776627951
1.6640000000000001,-0.016168923914701608
1.668,-0.016168346941671404
1.672,-0.016168226738956775
1.676,-0.016165293792719894
1.68,-0.01616281761679859
1.684,-0.016162024278882057
1.688,-0.016161735792366957
1.692,-0.01616207235996791
1.696,-0.016159355778617355
1.7,-0.01616207235996791
1.704,-0.01616435621154581
1.708,-0.016162745495169818
1.712,-0.01616298590059907
1.716,-0.0161636830763439
1.72,-0.016162793576255666
1.724,-0.01616394752231608
1.728,-0.016166880468552962
1.732,-0.0161679622929846
1.736,-0.016167577644297795
1.74,-0.016169548968817667
1.744,-0.016170366347277126
1.748,-0.016170510590534676
1.752,-0.016171135644650732
1.756,-0.01617048654999175
1.76,-0.016169573009360592
1.764,-0.0161702461445625
1.768,-0.016171376050079986
1.772,-0.016171448171708763
1.776,-0.016171928982567266
1.78,-0.01617240979342577
1.784,-0.01616964513098937
1.788,-0.016167842090269974
1.792,-0.016168683509272357
1.796,-0.016168635428186504
1.8,-0.01616887583361576
1.804,-0.016169332603931337
1.808,-0.016170823117592704
1.812,-0.01617048654999175
1.816,-0.016171616455509238
1.82,-0.0161701499823908
1.824,-0.01616760168484072
1.828,-0.016169957658047397
1.832,-0.01617089523922148
1.836,-0.016171015441936106
1.84,-0.016168755630901133
1.844,-0.016170318266191273
1.848,-0.01617298676645598
1.852,-0.016174573442289047
1.856,-0.016173780104372513
1.86,-0.016173563739486186
1.864,-0.01617409263143054
1.868,-0.01617527061803388
1.872,-0.016173299293514007
1.8760000000000001,-0.016171135644650732
1.8800000000000001,-0.016171520293337537
1.8840000000000001,-0.01617476576663245
1.8880000000000001,-0.01617517445586218
1.8920000000000001,-0.01617426091523102
1.8960000000000001,-0.016173203131342306
1.9000000000000001,-0.01617517445586218
1.9040000000000001,-0.016174693645003672
1.9080000000000001,-0.01617464556391782
1.9120000000000001,-0.01617517445586218
1.9160000000000001,-0.016170943320307333
1.92,-0.01616692854963881
1.924,-0.01616911623904501
1.928,-0.016172361712339923
1.932,-0.016173419496228632
1.936,-0.016172914644827202
1.94,-0.01617089523922148
1.944,-0.016170077860762022
1.948,-0.016168803711986982
1.952,-0.016170318266191273
1.956,-0.016173275252971082
1.96,-0.01617298676645598
1.964,-0.01616988553641862
1.968,-0.01616820269841385
1.972,-0.01616764976592657
1.976,-0.01616668814420956
1.98,-0.016169236441759636
1.984,-0.0161679622929846
1.988,-0.016168659468729432
1.992,-0.01616974129316107
1.996,-0.016169837455332767
2.0,-0.016172938685370127
2.004,-0.01617332333405693
2.008,-0.016170967360850257
2.012,-0.01616952492827474
2.016,-0.016170198063476648
2.02,-0.016170919279764405
2.024,-0.016172145347453596
2.028,-0.01617029422564835
2.032,-0.016169573009360592
2.036,-0.01617012594184787
2.04,-0.01616870754981528
2.044,-0.016169308563388413
2.048,-0.016171640496052162
2.052,-0.016172289590711146
2.056,-0.016170005739133245
2.06,-0.01617248191505455
2.064,-0.016171640496052162
2.068,-0.01617334737459986
2.072,-0.016171087563564883
2.076,-0.01617012594184787
2.08,-0.01617240979342577
2.084,-0.016174020509801764
2.088,-0.01617332333405693
2.092,-0.016171616455509238
2.096,-0.016171472212251688
2.1,-0.016170943320307333
2.104,-0.016170174022933723
2.108,-0.016170077860762022
2.112,-0.016168322901128476
2.116,-0.016169500887731815
2.12,-0.016168491184928954
2.124,-0.01617012594184787
2.128,-0.016170366347277126
2.132,-0.01616887583361576
2.136,-0.016170510590534676
2.14,-0.016169957658047397
2.144,-0.016168996036330385
2.148,-0.01616902007687331
2.152,-0.016168899874158683
2.156,-0.016169332603931337
2.16,-0.016168899874158683
2.164,-0.016169044117416237
2.168,-0.01617103948247903
2.172,-0.01617089523922148
2.176,-0.016171231806822433
2.18,-0.016173106969170604
2.184,-0.016174813847718298
2.188,-0.01617459748283197
2.192,-0.01617409263143054
2.196,-0.016173203131342306
2.2,-0.016173251212428158
2.204,-0.01617313100971353
2.208,-0.016171015441936106
2.212,-0.016169452806645966
2.216,-0.016174693645003672
2.22,-0.016174164753059318
2.224,-0.016172890604284278
2.228,-0.016173010806998903
2.232,-0.016173659901657887
2.236,-0.01617476576663245
2.24,-0.016174549401746122
2.244,-0.016175030212604625
2.248,-0.016174789807175374
2.2520000000000002,-0.016173251212428158
2.2560000000000002,-0.016171472212251688
2.2600000000000002,-0.016172049185281895
2.2640000000000002,-0.01616962109044644
2.2680000000000002,-0.016168755630901133
2.2720000000000002,-0.01617012594184787
2.2760000000000002,-0.016170366347277126
2.2800000000000002,-0.016170101901304947
2.2840000000000003,-0.0161704384689059
2.2880000000000003,-0.016170198063476648
2.2920000000000003,-0.016170558671620528
2.2960000000000003,-0.01616962109044644
2.3000000000000003,-0.016169957658047397
2.3040000000000003,-0.01617226555016822
2.308,-0.016172866563741353
2.312,-0.01617130392845121
2.316,-0.016169693212075217
2.32,-0.016167409360497317
2.324,-0.016164524495346284
2.328,-0.016167673806469496
2.332,-0.016168130576785074
2.336,-0.016167168955068065
2.34,-0.016168250779499703
2.344,-0.016167721887555345
2.348,-0.01616837098221433
2.352,-0.016167914211898747
2.356,-0.016168274820042627
2.36,-0.01616582268466425
2.364,-0.01617002977967617
2.368,-0.016169597049903516
2.372,-0.016168731590358205
2.376,-0.01616921240121671
2.38,-0.016173203131342306
2.384,-0.016169693212075217
2.388,-0.016166616022580783
2.392,-0.016167745928098273
2.396,-0.016166399657694456
2.4,-0.016164019643944854
2.404,-0.016164788941318464
2.408,-0.016167241076696842
2.412,-0.016164716819689687
2.416,-0.01616517359000527
2.42,-0.016167313198325615
2.424,-0.016166207333351054
2.428,-0.016166471779323233
2.432,-0.016168274820042627
2.436,-0.01616704875235344
2.44,-0.016165894806293025
2.444,-0.016165630360320846
2.448,-0.01616654390095201
2.452,-0.016165654400863774
2.456,-0.01616531783326282
2.46,-0.01616476490077554
2.464,-0.01616332246820002
2.468,-0.01616399560340193
2.472,-0.01616755360375487
2.476,-0.016167313198325615
2.48,-0.016165125508919416
2.484,-0.016164644698060913
2.488,-0.016167866130812898
2.492,-0.016168731590358205
2.496,-0.01617115968519366
2.5,-0.016169404725560114
2.504,-0.016168034414613373
2.508,-0.01616613521172228
2.512,-0.016164837022404316
2.516,-0.016165558238692073
2.52,-0.01616709683343929
2.524,-0.016165197630548193
2.528,-0.016164548535889212
2.532,-0.016163370549285874
2.536,-0.016164524495346284
2.54,-0.01616603904955058
2.544,-0.016166231373893978
2.548,-0.01616591884683595
2.552,-0.016166567941494934
2.556,-0.016162120441053758
2.56,-0.016161639630195256
2.564,-0.016161543468023554
2.568,-0.01616166367073818
2.572,-0.016161591549109403
2.576,-0.016160125075990964
2.58,-0.016160678008478244
2.584,-0.016161423265308925
2.588,-0.01616190407616743
2.592,-0.01616231276539716
2.596,-0.01616382731960145
2.6,-0.016160918413907495
2.604,-0.016159860630018785
2.608,-0.01616029335979144
2.612,-0.016157865264955988
2.616,-0.01615709596758238
2.62,-0.016160942454450423
2.624,-0.016158850927215924
2.628,-0.016155653535006864
2.632,-0.016156927683781904
2.636,-0.016156975764867753
2.64,-0.016156663237809725
2.644,-0.016158634562329598
2.648,-0.0161587307245013
2.652,-0.01615957214350368
2.656,-0.016161952157253284
2.66,-0.01616175983290988
2.664,-0.01616166367073818
2.668,-0.016162793576255666
2.672,-0.01616394752231608
2.676,-0.016163514792543424
2.68,-0.016162360846483013
2.684,-0.016160101035448036
2.688,-0.016160822251735794
2.692,-0.016160774170649945
2.696,-0.016159355778617355
2.7,-0.016160702049021168
2.704,-0.016161783873452806
2.708,-0.01616293781951322
2.712,-0.01616115881933675
2.716,-0.016161591549109403
2.72,-0.016160125075990964
2.724,-0.016158586481243745
2.728,-0.016158033548756466
2.732,-0.016156903643238976
2.736,-0.01615764890006966
2.74,-0.016158273954185717
2.744,-0.0161587307245013
2.748,-0.016160509724677766
2.7520000000000002,-0.016161110738250897
2.7560000000000002,-0.016161831954538658
2.7600000000000002,-0.016161375184223076
2.7640000000000002,-0.016160509724677766
2.7680000000000002,-0.016162120441053758
2.7720000000000002,-0.016158826886673
2.7760000000000002,-0.0161567353594385
2.7800000000000002,-0.016160197197619738
2.7840000000000003,-0.016159668305675383
2.7880000000000003,-0.01615957214350368
2.7920000000000003,-0.01616014911653389
2.7960000000000003,-0.016160437603048992
2.8000000000000003,-0.0161612069004226
2.8040000000000003,-0.01615846627852912
2.8080000000000003,-0.016157264251382857
2.8120000000000003,-0.016157721021698438
2.816,-0.016158802846130072
2.82,-0.0161612069004226
2.824,-0.0161636830763439
2.828,-0.016162144481596686
2.832,-0.016158754765044223
2.836,-0.016156663237809725
2.84,-0.016156254548579996
2.844,-0.01615522080523421
2.848,-0.016156759399981426
2.852,-0.016157576778440885
2.856,-0.016158778805587148
2.86,-0.01616084629227872
2.864,-0.01616075013010702
2.868,-0.01616038952196314
2.872,-0.016159091332645176
2.876,-0.016156615156723873
2.88,-0.016154427467317677
2.884,-0.01615623050803707
2.888,-0.016156110305322442
2.892,-0.016154836156547406
2.896,-0.016153610088858215
2.9,-0.016152768669855832
2.904,-0.016152912913113385
2.908,-0.016154643832204003
2.912,-0.016154138980802573
2.916,-0.016150725223707186
2.92,-0.016148489453215134
2.924,-0.01614957127764677
2.928,-0.016149523196560923
2.932,-0.016149763601990174
2.936,-0.01614690277738207
2.94,-0.016146758534124516
2.944,-0.016147167223354245
2.948,-0.01614836925050051
2.952,-0.01614937895330337
2.956,-0.016150220372305756
2.96,-0.01615385049428747
2.964,-0.016156879602696052
2.968,-0.016155461210663462
2.972,-0.01615334564288604
2.976,-0.016151951291396374
2.98,-0.01614846541267221
2.984,-0.016144426601460767
2.988,-0.016145051655576823
2.992,-0.016146854696296217
2.996,-0.01614613348000846
3.0,-0.01614680661521037
3.004,-0.016147215304440098
3.008,-0.01614800864235663
3.012,-0.0161476961152986
3.016,-0.016148249047785883
3.02,-0.016144691047432942
3.024,-0.01614421023657444
3.028,-0.016143320736486205
3.032,-0.016141830222824838
3.036,-0.01614344093920083
3.04,-0.01614267164182722
3.044,-0.01614175810119606
3.048,-0.01614622964218016
3.052,-0.016143873668973484
3.056,-0.016141710020110212
3.06,-0.01614348902028668
3.064,-0.01614459488526124
3.068,-0.016146830655753293
3.072,-0.0161452199393773
3.076,-0.01614317649322865
3.08,-0.0161429360877994
3.084,-0.016140267587534694
3.088,-0.01614151769576681
3.092,-0.01613983485776204
3.096,-0.016137695249441694
3.1,-0.016139762736133264
3.104,-0.016140532033506873
3.108,-0.016141710020110212
3.112,-0.016142046587711165
3.116,-0.016143753466258858
3.12,-0.016143513060829607
3.124,-0.01614425831766029
3.128,-0.016146325804351862
3.132,-0.01614368134463008
3.136,-0.016145171858291448
3.14,-0.016146421966523564
3.144,-0.016146494088152337
3.148,-0.016147431669326424
3.152,-0.016148537534300986
3.156,-0.016147215304440098
3.16,-0.016145099736662675
3.164,-0.016146854696296217
3.168,-0.016147215304440098
3.172,-0.016145941155665058
3.176,-0.016146085398922608
3.18,-0.016149210669502895
3.184,-0.01614957127764677
3.188,-0.016146926817924994
3.192,-0.016146446007066488
3.196,-0.016146590250324038
3.2,-0.016146446007066488
3.204,-0.01614603731783676
3.208,-0.016145820952950432
3.212,-0.016144739128518795
3.216,-0.01614755187204105
3.22,-0.01614829712887173
3.224,-0.01614805672344248
3.228,-0.016149811683076026
3.232,-0.016148273088328807
3.236,-0.01614673449358159
3.24,-0.01614822500724296
3.244,-0.016148249047785883
3.248,-0.016146998939553767
3.2520000000000002,-0.016145147817748524
3.2560000000000002,-0.01614673449358159
3.2600000000000002,-0.01614781631801323
3.2640000000000002,-0.016147431669326424
3.2680000000000002,-0.016145027615033898
3.2720000000000002,-0.016145820952950432
3.2760000000000002,-0.01614577287186458
3.2800000000000002,-0.016146854696296217
3.2840000000000003,-0.01614567670969288
3.2880000000000003,-0.0161474076287835
3.2920000000000003,-0.016148393291043433
3.2960000000000003,-0.016146974899010843
3.3000000000000003,-0.016148585615386835
3.3040000000000003,-0.016148850061359014
3.3080000000000003,-0.016146253682723086
3.3120000000000003,-0.01614613348000846
3.3160000000000003,-0.016148128845071257
3.3200000000000003,-0.01614882602081609
3.3240000000000003,-0.016147167223354245
3.3280000000000003,-0.016146854696296217
3.332,-0.016146325804351862
3.336,-0.016147119142268396
3.34,-0.016147984601813704
3.344,-0.01614714318281132
3.348,-0.016147167223354245
3.352,-0.01614872985864439
3.356,-0.016146205601637237
3.36,-0.016145965196207982
3.364,-0.016146085398922608
3.368,-0.016146494088152337
3.372,-0.016148898142444863
3.376,-0.016149210669502895
3.38,-0.016145604588064105
3.384,-0.01614459488526124
3.388,-0.016146566209781114
3.392,-0.016148777939730238
3.396,-0.0161498838047048
3.4,-0.016149138547874118
3.404,-0.016152456142797804
3.408,-0.016150268453391604
3.412,-0.016149811683076026
3.416,-0.016148850061359014
3.42,-0.01614796056127078
3.424,-0.016148080763985405
3.428,-0.016145796912407504
3.432,-0.01614603731783676
3.436,-0.016146566209781114
3.44,-0.016144282358203213
3.444,-0.016145171858291448
3.448,-0.01614836925050051
3.452,-0.01615106179130814
3.456,-0.01615115795347984
3.46,-0.01614964339927555
3.464,-0.016144907412319272
3.468,-0.01614211870933994
3.472,-0.016142960128342324
3.476,-0.01614409003385981
3.48,-0.016142743763455997
3.484,-0.016144691047432942
3.488,-0.016145051655576823
3.492,-0.016142286993140416
3.496,-0.01614243123639797
3.5,-0.016145195898834373
3.504,-0.016142767803998922
3.508,-0.01614435447983199
3.512,-0.016145820952950432
3.516,-0.01614421023657444
3.52,-0.016141445574138033
3.524,-0.01614421023657444
3.528,-0.01614627772326601
3.532,-0.016146446007066488
3.536,-0.016145700750235806
3.54,-0.01614745570986935
3.544,-0.01614613348000846
3.548,-0.016145003574490974
3.552,-0.01614622964218016
3.556,-0.016146205601637237
3.56,-0.01614526802046315
3.564,-0.016144498723089543
3.568,-0.016144162155488587
3.572,-0.016144378520374914
3.576,-0.016144691047432942
3.58,-0.016142407195855045
3.584,-0.016142767803998922
3.588,-0.016142551439112595
3.592,-0.016143224574314503
3.596,-0.016140964763279527
3.6,-0.016144426601460767
3.604,-0.016146349844894787
3.608,-0.016145436304263627
3.612,-0.01614435447983199
3.616,-0.016146013277293834
3.62,-0.016147840358556154
3.624,-0.016145075696119747
3.628,-0.01614344093920083
3.632,-0.016144378520374914
3.636,-0.016141878303910687
3.64,-0.016142407195855045
3.644,-0.01614411407440274
3.648,-0.016144041952773962
3.652,-0.016145003574490974
3.656,-0.01614495549340512
3.66,-0.01614829712887173
3.664,-0.016149499156017995
3.668,-0.016146758534124516
3.672,-0.0161452199393773
3.676,-0.016144186196031512
3.68,-0.016141493655223885
3.684,-0.016142815885084774
3.688,-0.016143248614857428
3.692,-0.016143248614857428
3.696,-0.016147359547697648
3.7,-0.016148681777558536
3.704,-0.016148681777558536
3.708,-0.01614887410190194
3.712,-0.016147215304440098
3.716,-0.01614526802046315
3.72,-0.016146446007066488
3.724,-0.01614680661521037
3.728,-0.01614892218298779
3.732,-0.016148753899187313
3.736,-0.016148753899187313
3.74,-0.016146998939553767
3.744,-0.01614627772326601
3.748,-0.01614637388543771
3.7520000000000002,-0.016147263385525946
3.7560000000000002,-0.01614897026407364
3.7600000000000002,-0.01615048481827793
3.7640000000000002,-0.016150580980449632
3.7680000000000002,-0.016150869466964736
3.7720000000000002,-0.016150941588593513
3.7760000000000002,-0.016148080763985405
3.7800000000000002,-0.016151951291396374
3.7840000000000003,-0.01615192725085345
3.7880000000000003,-0.016151638764338345
3.7920000000000003,-0.016152311899540254
3.7960000000000003,-0.016152191696825625
3.8000000000000003,-0.01615161472379542
3.8040000000000003,-0.016151975331939298
3.8080000000000003,-0.01614820096670003
3.8120000000000003,-0.016151783007595896
3.8160000000000003,-0.016155653535006864
3.8200000000000003,-0.016155917980979043
3.8240000000000003,-0.016154427467317677
3.8280000000000003,-0.016154307264603048
3.8320000000000003,-0.016153393723971888
3.8360000000000003,-0.016154042818630872
3.84,-0.016154066859173796
3.844,-0.016152215737368553
3.848,-0.01615091754805059
3.852,-0.016150364615563306
3.856,-0.016149210669502895
3.86,-0.016150821385878887
3.864,-0.01615394665645917
3.868,-0.016151855129224672
3.872,-0.016147479750412273
3.876,-0.016147672074755676
3.88,-0.01615202341302515
3.884,-0.016155845859350267
3.888,-0.01615695172432483
3.892,-0.016152600386055354
3.896,-0.016152095534653924
3.9,-0.01615161472379542
3.904,-0.016150220372305756
3.908,-0.0161521676562827
3.912,-0.01615298503474216
3.916,-0.016153658169944067
3.92,-0.01614964339927555
3.924,-0.016148850061359014
3.928,-0.016149090466788266
3.932,-0.016150701183164258
3.936,-0.01614964339927555
3.94,-0.01615125411565154
3.944,-0.01615048481827793
3.948,-0.016150941588593513
3.952,-0.01615084542642181
3.956,-0.016148441372129285
3.96,-0.016146205601637237
3.964,-0.01614637388543771
3.968,-0.016148585615386835
3.972,-0.016148080763985405
3.976,-0.01614687873683914
3.98,-0.016145195898834373
3.984,-0.016146614290866966
3.988,-0.016148946223530716
3.992,-0.016150532899363784
3.996,-0.016151855129224672
4.0,-0.016150701183164258
4.0040000000000004,-0.01614937895330337
4.008,-0.016148441372129285
4.0120000000000005,-0.016146926817924994
4.016,-0.01614800864235663
4.0200000000000005,-0.016148898142444863
4.024,-0.01614832116941466
4.0280000000000005,-0.016148080763985405
4.032,-0.016146614290866966
4.0360000000000005,-0.01614687873683914
4.04,-0.016147022980096695
4.0440000000000005,-0.01614820096670003
4.048,-0.01614714318281132
4.0520000000000005,-0.01614380154734471
4.056,-0.016145796912407504
4.0600000000000005,-0.016147071061182544
4.064,-0.016144474682546615
4.0680000000000005,-0.016142046587711165
4.072,-0.01614384962843056
4.0760000000000005,-0.01614459488526124
4.08,-0.016141181128165854
4.0840000000000005,-0.01614048395242102
4.088,-0.016141133047080005
4.0920000000000005,-0.016142383155312117
4.096,-0.01614298416888525
4.1,-0.01614207062825409
4.104,-0.016142407195855045
4.108,-0.016143969831145185
4.112,-0.01614370538517301
4.116,-0.01614156577685266
4.12,-0.016140411830792248
4.124,-0.016138632830615778
4.128,-0.016134401695060932
4.132,-0.016134185330174605
4.136,-0.01613649322229543
4.14,-0.016138512627901152
4.144,-0.0161361806952374
4.148,-0.016135074830262837
4.152,-0.016135411397863793
4.156,-0.016137190398040263
4.16,-0.016135339276235016
4.164,-0.016133512194972697
4.168,-0.016134738262661884
4.172,-0.016136348979037877
4.176,-0.016137863533242168
4.18,-0.016138632830615778
4.184,-0.016137094235868562
4.188,-0.016136252816866176
4.192,-0.016137623127812917
4.196,-0.016138993438759658
4.2,-0.01613687787098223
4.204,-0.016135507560035494
4.208,-0.01613690191152516
4.212,-0.016137358681840738
4.216,-0.0161383683846436
4.22,-0.016135026749176988
4.224,-0.016133416032800996
4.228,-0.016132598654341537
4.232,-0.016133656438230247
4.236,-0.016136445141209578
4.24,-0.01613822414138605
4.244,-0.016139810817219116
4.248,-0.016137238479126112
4.252,-0.016136324938494952
4.256,-0.016138392425186526
4.26,-0.01613923384418891
4.264,-0.01613937808744646
4.268,-0.01613755100618414
4.272,-0.01613740676292659
4.276,-0.01613887323604503
4.28,-0.016137623127812917
4.284,-0.016137863533242168
4.288,-0.01613815201975727
4.292,-0.016139305965817686
4.296,-0.01613923384418891
4.3,-0.016138392425186526
4.304,-0.016135820087093522
4.308,-0.016134906546462362
4.312,-0.0161363730195808
4.316,-0.016138176060300196
4.32,-0.01613750292509829
4.324,-0.016138103938671423
4.328,-0.016139906979390817
4.332,-0.016138608790072853
4.336,-0.016137671208898766
4.34,-0.016137382722383662
4.344,-0.01613663746555298
4.348,-0.01613755100618414
4.352,-0.016138031817042646
4.356,-0.016137382722383662
4.36,-0.016136060492522773
4.364,-0.016134738262661884
4.368,-0.016136156654694474
4.372,-0.0161384645468153
4.376,-0.01613947424961816
4.38,-0.016138801114416255
4.384,-0.016138584749529925
4.388,-0.016135555641121343
4.392,-0.01613639706012373
4.396,-0.016137767371070467
4.4,-0.016135098870805765
4.404,-0.01613694999261101
4.408,-0.016137671208898766
4.412,-0.016134065127459976
4.416,-0.016134233411260454
4.42,-0.01613226208674058
4.424,-0.01613060328927874
4.428,-0.016130531167649963
4.432,-0.016130579248735816
4.436,-0.016132093802940107
4.44,-0.01613673362772468
4.444,-0.016137599087269992
4.448,-0.01613613261415155
4.452,-0.01613658938446713
4.456,-0.016138031817042646
4.46,-0.016137791411613395
4.464,-0.016138272222471897
4.468,-0.016138031817042646
4.472,-0.01613531523569209
4.476,-0.01613531523569209
4.48,-0.016136324938494952
4.484,-0.01613699807369686
4.488,-0.016139137682017208
4.492,-0.01613947424961816
4.496,-0.016140580114592722
4.5,-0.016138704952244554
4.5040000000000004,-0.016138777073873328
4.508,-0.016139041519845507
4.5120000000000005,-0.01613622877632325
4.516,-0.016137190398040263
4.5200000000000005,-0.016138200100843124
4.524,-0.016138801114416255
4.5280000000000005,-0.016140267587534694
4.532,-0.016143248614857428
4.5360000000000005,-0.016142455276940894
4.54,-0.01613815201975727
4.5440000000000005,-0.016134017046374127
4.548,-0.016136421100666654
4.5520000000000005,-0.01613822414138605
4.556,-0.01613704615478271
4.5600000000000005,-0.016137695249441694
4.564,-0.01613882515495918
4.5680000000000005,-0.01613795969541387
4.572,-0.016134137249088753
4.5760000000000005,-0.01613690191152516
4.58,-0.01613639706012373
4.5840000000000005,-0.016136156654694474
4.588,-0.016136853830439307
4.5920000000000005,-0.016135579681664267
4.596,-0.016134017046374127
4.6000000000000005,-0.016134281492346306
4.604,-0.016134834424833586
4.6080000000000005,-0.016133223708457593
4.612,-0.01613127642448065
4.616,-0.01613344007334392
4.62,-0.01613567584383597
4.624,-0.01613545947894964
4.628,-0.016135579681664267
4.632,-0.01613714231695441
4.636,-0.016136757668267606
4.64,-0.016136469181752502
4.644,-0.016131949559682553
4.648,-0.016131396627195274
4.652,-0.01613329583008637
4.656,-0.01613127642448065
4.66,-0.016131348546109422
4.664,-0.01613069945145044
4.668,-0.016132502492169836
4.672,-0.016132238046197657
4.676,-0.01612928105941785
4.68,-0.01613101197850847
4.684,-0.016130435005478262
4.688,-0.0161294253026754
4.692,-0.016131973600225478
4.696,-0.016133151586828817
4.7,-0.0161338968436595
4.704,-0.016130435005478262
4.708,-0.016130362883849485
4.712,-0.01613283905977079
4.716,-0.016133055424657115
4.72,-0.016130795613622143
4.724,-0.016130050356791457
4.728,-0.016128511762044242
4.732,-0.016128800248559345
4.736,-0.016130218640591935
4.74,-0.01613110814068017
4.744,-0.016130627329821665
4.748,-0.016131853397510852
4.752,-0.016130675410907517
4.756,-0.016128391559329616
4.76,-0.01613024268113486
4.764,-0.0161294253026754
4.768,-0.01613110814068017
4.772,-0.016131829356967928
4.776,-0.016131805316425003
4.78,-0.016131492789366975
4.784,-0.01613317562737174
4.788,-0.016133608357144398
4.792,-0.016132334208369358
4.796,-0.01613252653271276
4.8,-0.016131300465023573
4.804,-0.01613334391117222
4.808,-0.016132911181399565
4.812,-0.01613485846537651
4.816,-0.016133824722030725
4.82,-0.01613394492474535
4.824,-0.01613288714085664
4.828,-0.016132983303028342
4.832,-0.016134377654518004
4.836,-0.016136661506095905
4.84,-0.01613740676292659
4.844,-0.01613750292509829
4.848,-0.016135988370894
4.852,-0.01613545947894964
4.856,-0.016135820087093522
4.86,-0.016134233411260454
4.864,-0.01613069945145044
4.868,-0.016129858032448055
4.872,-0.016130026316248533
4.876,-0.01613267077597031
4.88,-0.016132983303028342
4.884,-0.016135435438406717
4.888,-0.01613538735732087
4.892,-0.01613476230320481
4.896,-0.0161362768574091
4.9,-0.01613334391117222
4.904,-0.01613471422211896
4.908,-0.016135507560035494
4.912,-0.01613384876257365
4.916,-0.01613435361397508
4.92,-0.016133151586828817
4.924,-0.01613526715460624
4.928,-0.016136324938494952
4.932,-0.016133488154429772
4.936,-0.016133223708457593
4.94,-0.01613178127588208
4.944,-0.016131468748824047
4.948,-0.0161293291405037
4.952,-0.016127526099784305
4.956,-0.016127694383584783
4.96,-0.016126852964582397
4.964,-0.01612745397815553
4.968,-0.016127574180870158
4.972,-0.0161248575995196
4.976,-0.01612293435608558
4.98,-0.016124400829204022
4.984,-0.016126324072638042
4.988,-0.01612639619426682
4.992,-0.01612658851861022
4.996,-0.016125650937436134
5.0,-0.016124929721148377
5.0040000000000004,-0.016125602856350285
5.008,-0.01612247758577
5.0120000000000005,-0.01612343920748701
5.016,-0.01612800691064281
5.0200000000000005,-0.01612598750503709
5.024,-0.01612613174829464
5.0280000000000005,-0.016128656005301792
5.032,-0.016127934789014035
5.0360000000000005,-0.016127189532183353
5.04,-0.016126420234809744
5.0440000000000005,-0.016124232545403544
5.048,-0.01612572305906491
5.0520000000000005,-0.016127862667385258
5.056,-0.016128391559329616
5.0600000000000005,-0.016130819654165067
5.064,-0.01612896853235982
5.0680000000000005,-0.016126251951009266
5.072,-0.016127982870099887
5.0760000000000005,-0.016124088302145994
5.08,-0.016124521031918648
5.0840000000000005,-0.01612892045127397
5.088,-0.01613014651896316
5.0920000000000005,-0.016130531167649963
5.096,-0.016128848329645194
5.1000000000000005,-0.01612855984313009
5.104,-0.016129449343218326
5.1080000000000005,-0.01613101197850847
5.112,-0.01613267077597031
5.1160000000000005,-0.01613202168131133
5.12,-0.016128631964758867
5.124,-0.01612750205924138
5.128,-0.016128656005301792
5.132,-0.016130579248735816
5.136,-0.01613065137036459
5.14,-0.016131997640768406
5.144,-0.01613444977614678
5.148,-0.01613269481651324
5.152,-0.01612836751878669
5.156,-0.01612795882955696
5.16,-0.016129136816160298
5.164,-0.016129497424304178
5.168,-0.01612781458629941
5.172,-0.016125867302322464
5.176,-0.016125554775264433
5.18,-0.01612658851861022
5.184,-0.01612918489724615
5.188,-0.016128127113357437
5.192,-0.01612918489724615
5.196,-0.016127333775440903
5.2,-0.016126468315895596
5.204,-0.01612781458629941
5.208,-0.016126660640238995
5.212,-0.016126444275352668
5.216,-0.016127598221413082
5.22,-0.016127718424127708
5.224,-0.016127766505213557
5.228,-0.016127886707928186
5.232,-0.016126780842953624
5.236,-0.016127526099784305
5.24,-0.016124160423774767
5.244,-0.016122766072285105
5.248,-0.01612192465328272
5.252,-0.0161246652751762
5.256,-0.016124160423774767
5.26,-0.01612389597780259
5.264,-0.016121443842424213
5.268,-0.016118967666502913
5.272,-0.01612101111265156
5.276,-0.0161201937341921
5.28,-0.016119015747588762
5.284,-0.016118751301616583
5.288,-0.016119905247676997
5.292,-0.016118438774558555
5.296,-0.016119953328762846
5.3,-0.016119520598990193
5.304,-0.01612014565310625
5.308,-0.01612060242342183
5.312,-0.016118991707045838
5.316,-0.016118655139444885
5.32,-0.016117380990669845
5.324,-0.016117092504154742
5.328,-0.016120674545050607
5.332,-0.016121083234280336
5.336,-0.01611928019356094
5.34,-0.016120386058535503
5.344,-0.016121323639709587
5.348,-0.016125650937436134
5.352,-0.016126011545580014
5.356,-0.016122357383055372
5.36,-0.016120530301793053
5.364,-0.01611764543664202
5.368,-0.01611827049075808
5.372,-0.016121564045138842
5.376,-0.01611918403138924
5.38,-0.016119039788131687
5.384,-0.016120674545050607
5.388,-0.016121131315366185
5.392,-0.016120434139621352
5.396,-0.016119977369305774
5.4,-0.01612036201799258
5.404,-0.01612096303156571
5.408,-0.016125939423951238
5.412,-0.01612613174829464
5.416,-0.01612384789671674
5.42,-0.016120434139621352
5.424,-0.016118895544874137
5.428,-0.01611891958541706
5.432,-0.016120554342335978
5.436,-0.016119352315189715
5.44,-0.016120410099078428
5.444,-0.0161201937341921
5.448,-0.016118967666502913
5.452,-0.016122597788484627
5.456,-0.016122237180340747
5.46,-0.016122333342512448
5.464,-0.016121948693825643
5.468,-0.016119568680076045
5.472,-0.016119304234103866
5.476,-0.01611735695012692
5.48,-0.016114904814748542
5.484,-0.016118198369129304
5.488,-0.016120410099078428
5.492,-0.01611872726107366
5.496,-0.016118030085328826
5.5,-0.016120386058535503
5.5040000000000004,-0.016120049490934547
5.508,-0.016116972301440116
5.5120000000000005,-0.016116178963523582
5.516,-0.01611699634198304
5.5200000000000005,-0.016114856733662693
5.524,-0.016115866436465554
5.5280000000000005,-0.01611507309854902
5.532,-0.016116467450038686
5.5360000000000005,-0.016118222409672228
5.54,-0.01611735695012692
5.5440000000000005,-0.016118294531301005
5.548,-0.0161178137204425
5.5520000000000005,-0.016114399963347112
5.556,-0.0161133421794584
5.5600000000000005,-0.016112669044256494
5.564,-0.016114183598460785
5.5680000000000005,-0.016115193301263646
5.572,-0.016114520166061738
5.5760000000000005,-0.0161135345038018
5.58,-0.01611329409837255
5.5840000000000005,-0.016113822990316905
5.588,-0.016111947827968737
5.5920000000000005,-0.01611370278760228
5.596,-0.016113871071402757
5.6000000000000005,-0.01611262096317064
5.604,-0.016114255720089562
5.6080000000000005,-0.01611146701711023
5.612,-0.01611319793620085
5.6160000000000005,-0.016116443409495758
5.62,-0.016113822990316905
5.6240000000000006,-0.016109255287161107
5.628,-0.01611141893602438
5.632,-0.016114520166061738
5.636,-0.016113173895657924
5.64,-0.01611262096317064
5.644,-0.016113101774029148
5.648,-0.016113774909231056
5.652,-0.01610968801693376
5.656,-0.016108630233045047
5.66,-0.01611110640896635
5.664,-0.016115097139091945
5.668,-0.01611471249040514
5.672,-0.016113678747059355
5.676,-0.01611247671991309
5.68,-0.016112236314483837
5.684,-0.01611060155756492
5.688,-0.016113318138915474
5.692,-0.01611394319303153
5.696,-0.016111034287337574
5.7,-0.016111995909054586
5.704,-0.01611036115213567
5.708,-0.016112452679370167
5.712,-0.01611415955791786
5.716,-0.01611262096317064
5.72,-0.016113366220001327
5.724,-0.016115722193208
5.728,-0.01611512117963487
5.732,-0.01611141893602438
5.736,-0.016108461949244573
5.74,-0.016108101341100692
5.744,-0.016107428205898784
5.748,-0.016108534070873346
5.752,-0.016107884976214366
5.756,-0.016106298300381298
5.76,-0.016104038489346325
5.764,-0.016106033854409122
5.768,-0.01610923124661818
5.772,-0.01610942357096158
5.776,-0.016106105976037895
5.78,-0.016105865570608644
5.784,-0.01610613001658082
5.788,-0.016106682949068103
5.792,-0.016107740732956816
5.796,-0.016106706989611027
5.8,-0.016106827192325653
5.804,-0.016107620530242187
5.808,-0.016106057894952047
5.812,-0.016109111043903553
5.816,-0.016107957097843142
5.82,-0.016107884976214366
5.824,-0.016108461949244573
5.828,-0.016106298300381298
5.832,-0.016105456881378915
5.836,-0.016107788814042664
5.84,-0.01610973609801961
5.844,-0.016106658908525178
5.848,-0.01610262009731373
5.852,-0.016100528570079237
5.856,-0.01610252393514203
5.86,-0.01610274030002836
5.864,-0.016102067164826452
5.868,-0.016103485556859042
5.872,-0.01610136998908162
5.876,-0.016097884110357456
5.88,-0.016098653407731065
5.884,-0.01609699461026922
5.888,-0.016095552177693706
5.892,-0.016100167961935356
5.896,-0.016101706556682572
5.9,-0.01610262009731373
5.904,-0.016104375056947277
5.908,-0.01610237969188448
5.912,-0.016100985340394815
5.916,-0.01609927846184712
5.92,-0.016100288164649982
5.924,-0.016101538272882097
5.928,-0.016100720894422636
5.932,-0.016102043124283528
5.936,-0.01610060069170801
5.94,-0.01609913421858957
5.944,-0.016103100908172237
5.948,-0.016104086570432174
5.952,-0.016100167961935356
5.956,-0.01609999967813488
5.96,-0.016101898881025974
5.964,-0.016100937259308966
5.968,-0.016100216043021205
5.972,-0.01609908613750372
5.976,-0.016100408367364608
5.98,-0.016102043124283528
5.984,-0.016099350583475898
5.988,-0.016096970569726296
5.992,-0.01609447035326207
5.996,-0.016096970569726296
6.0,-0.016099494826733448
6.0040000000000004,-0.01609862936718814
6.008,-0.016098292799587185
6.0120000000000005,-0.01609858128610229
6.016,-0.016101562313425022
6.0200000000000005,-0.016103990408260473
6.024,-0.016103533637944895
6.0280000000000005,-0.016103822124459995
6.032,-0.0161018267593972
6.0360000000000005,-0.01610278838111421
6.04,-0.016103004746000536
6.0440000000000005,-0.01610141807016747
6.048,-0.01610288454328591
6.0520000000000005,-0.016102499894599106
6.056,-0.01610110554310944
6.0600000000000005,-0.016102812421657134
6.064,-0.01610161039451087
6.0680000000000005,-0.016100167961935356
6.072,-0.016099398664561747
6.0760000000000005,-0.01609985543487733
6.08,-0.016101129583652368
6.0840000000000005,-0.01610050452953631
6.088,-0.016098965934789093
6.0920000000000005,-0.016098557245559364
6.096,-0.016100528570079237
6.1000000000000005,-0.016100841097137265
6.104,-0.01610096129985189
6.1080000000000005,-0.016103076867629313
6.112,-0.016103942327174624
6.1160000000000005,-0.01610264413785666
6.12,-0.016100648772793862
6.1240000000000006,-0.016097595623842352
6.128,-0.016098725529359842
6.132000000000001,-0.016099566948362225
6.136,-0.01609812451578671
6.140000000000001,-0.01609709077244092
6.144,-0.01609471075869132
6.148,-0.016097210975155547
6.152,-0.01609822067795841
6.156,-0.016096321475067316
6.16,-0.01609689844809752
6.164,-0.01609689844809752
6.168,-0.016095215610092754
6.172,-0.016097331177870176
6.176,-0.016098821691531543
6.18,-0.016098461083387663
6.184,-0.01609624935343854
6.188,-0.016095960866923435
6.192,-0.016098461083387663
6.196,-0.01610213928645523
6.2,-0.016098989975332018
6.204,-0.016098076434700858
6.208,-0.016099615029448074
6.212,-0.016096153191266838
6.216,-0.016096201272352686
6.22,-0.01609694652918337
6.224,-0.016098701488816914
6.228,-0.016101129583652368
6.232,-0.016099302502390046
6.236,-0.016096537839953642
6.24,-0.01609557621823663
6.244,-0.01609608106963806
6.248,-0.01609701865081215
6.252,-0.016096922488640447
6.256,-0.016093869339688937
6.26,-0.016095456015522005
6.264,-0.016099326542932973
6.268,-0.01610019200247828
6.272,-0.016100023718677806
6.276,-0.0160972590562414
6.28,-0.01609543197497908
6.284,-0.016096682083211192
6.288,-0.016098076434700858
6.292,-0.01609502328574935
6.296,-0.016091561447568112
6.3,-0.016092811555800227
6.304,-0.01609442227217622
6.308,-0.01609492712357765
6.312,-0.01609502328574935
6.316,-0.016096032988552212
6.32,-0.016097451380584802
6.324,-0.016096561880496567
6.328,-0.01609584066420881
6.332,-0.016093989542403563
6.336,-0.01609480692086302
6.34,-0.016094782880320097
6.344,-0.01609574450203711
6.348,-0.016093965501860638
6.352,-0.016095191569549826
6.356,-0.01609502328574935
6.36,-0.016095552177693706
6.364,-0.016095552177693706
6.368,-0.016094903083034722
6.372,-0.016093027920686554
6.376,-0.01609374913697431
6.38,-0.01609451843434792
6.384,-0.01609584066420881
6.388,-0.016093989542403563
6.392,-0.01609451843434792
6.396,-0.016095648339865407
6.4,-0.016093989542403563
6.404,-0.01609338852883043
6.408,-0.016092883677429
6.412,-0.01609136912322471
6.416,-0.016094278028918666
6.42,-0.01609644167778194
6.424,-0.01609567238040833
6.428,-0.01609689844809752
6.432,-0.016096609961582416
6.436,-0.016098292799587185
6.44,-0.016100793016051412
6.444,-0.016099711191619775
6.448,-0.016099398664561747
6.452,-0.01609689844809752
6.456,-0.01609574450203711
6.46,-0.016097114812983846
6.464,-0.016097235015698475
6.468,-0.016095407934436153
6.472,-0.01609355681263091
6.476,-0.016092354785484646
6.48,-0.016091441244853486
6.484,-0.016092066298969542
6.488,-0.016092691353085598
6.492,-0.016092450947656347
6.496,-0.016091946096254917
6.5,-0.016090840231280355
6.5040000000000004,-0.01608843617698783
6.508,-0.01609233074494172
6.5120000000000005,-0.016092955799057777
6.516,-0.016091705690825662
6.5200000000000005,-0.016093268326115805
6.524,-0.016095960866923435
6.5280000000000005,-0.016093027920686554
6.532,-0.016093364488287507
6.5360000000000005,-0.01609502328574935
6.54,-0.016095359853350304
6.5440000000000005,-0.016094686718148395
6.548,-0.016092523069285124
6.5520000000000005,-0.01609379721806016
6.556,-0.01609329236665873
6.5600000000000005,-0.016091393163767634
6.564,-0.01608995073119212
6.5680000000000005,-0.01608995073119212
6.572,-0.016089902650106267
6.5760000000000005,-0.01608944587979069
6.58,-0.016089518001419466
6.5840000000000005,-0.016091537407025187
6.588,-0.016091537407025187
6.5920000000000005,-0.016090263258250147
6.596,-0.01608978244739164
6.6000000000000005,-0.01608903719056096
6.604,-0.01608684950115476
6.6080000000000005,-0.01608716202821279
6.612,-0.016088195771558574
6.6160000000000005,-0.01608670525789721
6.62,-0.01608620040649578
6.6240000000000006,-0.01608492625772074
6.628,-0.016086152325409928
6.632000000000001,-0.016087474555270816
6.636,-0.016086681217354282
6.640000000000001,-0.016085094541521214
6.644,-0.016085407068579246
6.648000000000001,-0.016083459784602298
6.652,-0.01608559939292265
6.656000000000001,-0.01608694566332646
6.66,-0.01608716202821279
6.664,-0.016087787082328844
6.668,-0.01608680142006891
6.672,-0.016085310906407545
6.676,-0.01608670525789721
6.68,-0.016086152325409928
6.684,-0.016085647474008497
6.688,-0.01608492625772074
6.692,-0.01608749859581374
6.696,-0.01608761879852837
6.7,-0.016087137987669864
6.704,-0.01608699374441231
6.708,-0.016087474555270816
6.712,-0.01608735435255619
6.716,-0.01608999881227797
6.72,-0.01609187397462614
6.724,-0.01608785920395762
6.728,-0.016084782014463186
6.732,-0.016083772311660326
6.736,-0.016087979406672247
6.74,-0.016088340014816127
6.744,-0.016087979406672247
6.748,-0.016085960001066525
6.752,-0.016082858771029166
6.756,-0.01608401271708958
6.76,-0.016086176365952852
6.764,-0.016085383028036318
6.768,-0.016085262825321692
6.772,-0.016083772311660326
6.776,-0.016084902217177816
6.78,-0.016082954933200867
6.784,-0.016082450081799437
6.788,-0.016083219379173046
6.792,-0.016083868473832027
6.796,-0.01608278664940039
6.8,-0.01608182502768338
6.804,-0.016083988676546652
6.808,-0.01608557535237972
6.812,-0.01608483009554904
6.816,-0.01607980562207766
6.82,-0.016080671081622967
6.824,-0.016082353919627736
6.828,-0.01608278664940039
6.832,-0.016083796352203254
6.836,-0.016084902217177816
6.84,-0.01608389251437495
6.844,-0.016082089473655557
6.848,-0.016083531906231074
6.852,-0.016079589257191333
6.856,-0.016081272095196098
6.86,-0.016080334514022014
6.864,-0.01607836318950214
6.868,-0.01607913248687575
6.872,-0.016077497729956834
6.876,-0.016078291067873368
6.88,-0.01607980562207766
6.884,-0.016077401567785133
6.888,-0.01607725732452758
6.892,-0.016077377527242205
6.896,-0.01607720924344173
6.9,-0.016078459351673843
6.904,-0.01607944501393378
6.908,-0.016077593892128535
6.912,-0.016078098743529966
6.916,-0.016080502797822492
6.92,-0.016077040959641253
6.924,-0.016075406202722336
6.928,-0.016076680351497372
6.932,-0.016077401567785133
6.936,-0.016077906419186563
6.94,-0.0160788920814465
6.944,-0.016079469054476703
6.948,-0.016078002581358265
6.952,-0.01607583893249499
6.956,-0.016077882378643635
6.96,-0.016079012284161125
6.964,-0.016082257757456035
6.968,-0.016082209676370186
6.972,-0.016081945230398006
6.976,-0.016078699757103097
6.98,-0.01607894016253235
6.984,-0.016076367824439344
6.988,-0.016075406202722336
6.992,-0.016075310040550635
6.996,-0.01607350699983124
7.0,-0.01607579085140914
7.0040000000000004,-0.01607720924344173
7.008,-0.016079060365246974
7.0120000000000005,-0.01608273856831454
7.016,-0.016082185635827258
7.0200000000000005,-0.0160813682573678
7.024,-0.016081007649223922
7.0280000000000005,-0.016080142189678612
7.032,-0.016079973905878134
7.0360000000000005,-0.016077882378643635
7.04,-0.016077690054300237
7.0440000000000005,-0.016076584189325675
7.048,-0.01607610337846717
7.0520000000000005,-0.01607456478371995
7.056,-0.01607516579729308
7.0600000000000005,-0.016076680351497372
7.064,-0.016074132053947296
7.0680000000000005,-0.016073386797116614
7.072,-0.016077593892128535
7.0760000000000005,-0.016078483392216767
7.08,-0.01607543024326526
7.0840000000000005,-0.016072280932142052
7.088,-0.016073170432230284
7.0920000000000005,-0.016075502364894037
7.096,-0.01607456478371995
7.1000000000000005,-0.01607629570281057
7.104,-0.016077065000184177
7.1080000000000005,-0.016073963770146818
7.112,-0.01607095870228116
7.1160000000000005,-0.01607425225666192
7.12,-0.016075213878378933
7.1240000000000006,-0.016076800554212
7.128,-0.016076776513669074
7.132000000000001,-0.016076127419010093
7.136,-0.016076055297381316
7.140000000000001,-0.016073386797116614
7.144,-0.016073723364717567
7.148000000000001,-0.016070694256308984
7.152,-0.016070598094137283
7.156000000000001,-0.01607305022951566
7.16,-0.016074805189149204
7.164000000000001,-0.016074372459376547
7.168,-0.01607826702733044
7.172,-0.016078098743529966
7.176,-0.01607528600000771
7.18,-0.016076031256838392
7.184,-0.01607761793267146
7.188,-0.01607776217592901
7.192,-0.01607802662190119
7.196,-0.016077882378643635
7.2,-0.016078242986787516
7.204,-0.016075622567608663
7.208,-0.016076536108239822
7.212,-0.016078002581358265
7.216,-0.01607913248687575
7.22,-0.016076584189325675
7.224,-0.01607547832435111
7.228,-0.016074733067520428
7.232,-0.016072449215942527
7.236,-0.016074372459376547
7.24,-0.016073987810689746
7.244,-0.01607482922969213
7.248,-0.01607497347294968
7.252,-0.016072569418657152
7.256,-0.016070838499566534
7.26,-0.01607374740526049
7.264,-0.016074228216118997
7.268,-0.016074492662091176
7.272,-0.0160722328510562
7.276,-0.016074035891775595
7.28,-0.01607528600000771
7.284,-0.016074300337747774
7.288,-0.016072954067343957
7.292,-0.016071752040197694
7.296,-0.016072040526712798
7.3,-0.016073843567432192
7.304,-0.016075646608151587
7.308,-0.01607785833810071
7.312,-0.01607547832435111
7.316,-0.016073867607975117
7.32,-0.01607167991856892
7.324,-0.016069516269705646
7.328,-0.016066222715324884
7.332,-0.016062953201487047
7.336,-0.01606487644492107
7.34,-0.016069059499390064
7.344,-0.01606999708056415
7.348,-0.016068169999301832
7.352,-0.01606802575604428
7.356,-0.016068867175046662
7.36,-0.016070838499566534
7.364,-0.016071703959111845
7.368,-0.016072545378114228
7.372,-0.01607155971585429
7.376,-0.01606990091839245
7.38,-0.016070429810336805
7.384,-0.01607155971585429
7.388,-0.016071151026624562
7.392,-0.016070285567079255
7.396,-0.01606836232364523
7.4,-0.01606848252635986
7.404,-0.01606872293178911
7.408,-0.016070646175223132
7.412,-0.016072401134856678
7.416,-0.016074805189149204
7.42,-0.016075237918921858
7.424,-0.016071126986081638
7.428,-0.016069323945362243
7.432,-0.016072761743000555
7.436,-0.016073314675487838
7.44,-0.01607218476997035
7.444,-0.016071199107710415
7.448,-0.0160723290132279
7.452,-0.01607305022951566
7.456,-0.016071295269882116
7.46,-0.016070670215766057
7.464,-0.016071295269882116
7.468,-0.016070622134680208
7.472,-0.016070477891422658
7.476,-0.016074492662091176
7.48,-0.01607533408109356
7.484,-0.01607552640543696
7.488,-0.01607528600000771
7.492,-0.016073362756573686
7.496,-0.016073362756573686
7.5,-0.016072761743000555
7.5040000000000004,-0.016070646175223132
7.508,-0.01607107890499579
7.5120000000000005,-0.016070237485993403
7.516,-0.01607122314825334
7.5200000000000005,-0.016069468188619793
7.524,-0.01606944414807687
7.5280000000000005,-0.016069011418304215
7.532,-0.016069155661561765
7.5360000000000005,-0.01607148759422552
7.54,-0.016073891648518045
7.5440000000000005,-0.016072521337571304
7.548,-0.016071126986081638
7.5520000000000005,-0.016070477891422658
7.556,-0.0160699489994783
7.5600000000000005,-0.016073386797116614
7.564,-0.0160743243782907
7.5680000000000005,-0.01607300214842981
7.572,-0.01607533408109356
7.5760000000000005,-0.01607360316200294
7.58,-0.016072377094313754
7.5840000000000005,-0.016073867607975117
7.588,-0.016072857905172256
7.5920000000000005,-0.016072449215942527
7.596,-0.016073987810689746
7.6000000000000005,-0.0160744205404624
7.604,-0.016075117716207232
7.6080000000000005,-0.01607264154028593
7.612,-0.01607410801340437
7.6160000000000005,-0.016076175500095942
7.62,-0.01607466094589165
7.6240000000000006,-0.01607259345920008
7.628,-0.016071776080740622
7.632000000000001,-0.01607391568906097
7.636,-0.016074132053947296
7.640000000000001,-0.016074276297204846
7.644,-0.016074757108063352
7.648000000000001,-0.016076175500095942
7.652,-0.016075766810866213
7.656000000000001,-0.01607711308127003
7.66,-0.016078916121989424
7.664000000000001,-0.016078916121989424
7.668,-0.016077786216471938
7.672000000000001,-0.016077281365070504
7.676,-0.01607802662190119
7.68,-0.01607838723004507
7.684,-0.016077978540815337
7.688,-0.01607624762172472
7.692,-0.016077641973214384
7.696,-0.016077690054300237
7.7,-0.016078651676017245
7.704,-0.016079204608504528
7.708,-0.016079925824792285
7.712,-0.016078916121989424
7.716,-0.016077930459729488
7.72,-0.016077810257014862
7.724,-0.016078098743529966
7.728,-0.016076536108239822
7.732,-0.01607547832435111
7.736,-0.016073266594401985
7.74,-0.016072016486169873
7.744,-0.01607268962137178
7.748,-0.016072040526712798
7.752,-0.01607259345920008
7.756,-0.016071848202369395
7.76,-0.016073891648518045
7.764,-0.01607324255385906
7.768,-0.016070646175223132
7.772,-0.016069420107533944
7.776,-0.016072208810513276
7.78,-0.01607355508091709
7.784,-0.01607391568906097
7.788,-0.016071800121283546
7.792,-0.0160701413238217
7.796,-0.01607158375639722
7.8,-0.016070694256308984
7.804,-0.016070766377937758
7.808,-0.016070766377937758
7.812,-0.016070477891422658
7.816,-0.016069468188619793
7.82,-0.016071511634768443
7.824,-0.01607324255385906
7.828,-0.01607259345920008
7.832,-0.016075406202722336
7.836,-0.016074901351320905
7.84,-0.016074492662091176
7.844,-0.01607552640543696
7.848,-0.0160745167026341
7.852,-0.016071126986081638
7.856,-0.016072930026801033
7.86,-0.016073218513316136
7.864,-0.016073026188972734
7.868,-0.016072040526712798
7.872,-0.016072545378114228
7.876,-0.016072064567255722
7.88,-0.0160721366888845
7.884,-0.016072857905172256
7.888,-0.016076007216295467
7.892,-0.016077137121812954
7.896,-0.016076367824439344
7.9,-0.016075502364894037
7.904,-0.016076391864982272
7.908,-0.016075213878378933
7.912,-0.016073482959288315
7.916,-0.016072569418657152
7.92,-0.016073458918745388
7.924,-0.01607415609449022
7.928,-0.016071776080740622
7.932,-0.016072208810513276
7.936,-0.016073170432230284
7.94,-0.016071655878025993
7.944,-0.01607305022951566
7.948,-0.016073771445803416
7.952,-0.016073314675487838
7.956,-0.01607305022951566
7.96,-0.016071439513139666
7.964,-0.016073314675487838
7.968,-0.016075358121636484
7.972,-0.016072040526712798
7.976,-0.016071030823909937
7.98,-0.01607324255385906
7.984,-0.016075598527065738
7.988,-0.016073026188972734
7.992,-0.01607259345920008
7.996,-0.01607365124308879
8.0,-0.016070093242735853
8.004,-0.01606578998555223
8.008000000000001,-0.01606821808038768
8.012,-0.016069564350791495
8.016,-0.016068097877673056
8.02,-0.01606807383713013
8.024000000000001,-0.016068314242559383
8.028,-0.01606836232364523
8.032,-0.016065140890893247
8.036,-0.016064611998948892
8.040000000000001,-0.016067424742471147
8.044,-0.016067544945185773
8.048,-0.016069323945362243
8.052,-0.016070237485993403
8.056000000000001,-0.01606853060744571
8.06,-0.01606872293178911
8.064,-0.016066150593696107
8.068,-0.01606578998555223
8.072000000000001,-0.016069684553506124
8.076,-0.016072449215942527
8.08,-0.016071439513139666
8.084,-0.016068746972332036
8.088000000000001,-0.016068746972332036
8.092,-0.016069876877849526
8.096,-0.016071030823909937
8.1,-0.016073434878202463
8.104000000000001,-0.016073795486346344
8.108,-0.016073314675487838
8.112,-0.016073434878202463
8.116,-0.01607355508091709
8.120000000000001,-0.016073627202545866
8.124,-0.01607305022951566
8.128,-0.016072665580828854
8.132,-0.016072665580828854
8.136000000000001,-0.016071920323998172
8.14,-0.01606980475622075
8.144,-0.016069083539932992
8.148,-0.016070525972508506
8.152000000000001,-0.01607040576979388
8.156,-0.016069828796763674
8.16,-0.01606879505341789
8.164,-0.0160675689857287
8.168000000000001,-0.016069227783190542
8.172,-0.016070381729250956
8.176,-0.016070694256308984
8.18,-0.016070670215766057
8.184000000000001,-0.016069756675134897
8.188,-0.01607167991856892
8.192,-0.016073579121460017
8.196,-0.016073122351144435
8.2,-0.016074132053947296
8.204,-0.016073122351144435
8.208,-0.01607035768870803
8.212,-0.01607300214842981
8.216,-0.016072208810513276
8.22,-0.016070477891422658
8.224,-0.016071607796940144
8.228,-0.016070670215766057
8.232,-0.016070333648165104
8.236,-0.016068169999301832
8.24,-0.016070501931965582
8.244,-0.01607247325648545
8.248,-0.016073939729603894
8.252,-0.016072040526712798
8.256,-0.0160722328510562
8.26,-0.01607071829685191
8.264,-0.0160676651479004
8.268,-0.016067544945185773
8.272,-0.016070237485993403
8.276,-0.016071247188796264
8.28,-0.016071391432053817
8.284,-0.016070501931965582
8.288,-0.016072040526712798
8.292,-0.016072954067343957
8.296,-0.01607324255385906
8.3,-0.016072280932142052
8.304,-0.016073218513316136
8.308,-0.016073338716030762
8.312,-0.016070237485993403
8.316,-0.01606999708056415
8.32,-0.01606963647242027
8.324,-0.01607131931042504
8.328,-0.016072761743000555
8.332,-0.016070742337394833
8.336,-0.01607196840508402
8.34,-0.01607218476997035
8.344,-0.016072401134856678
8.348,-0.01607167991856892
8.352,-0.01606990091839245
8.356,-0.016070165364364626
8.36,-0.0160701413238217
8.364,-0.016072521337571304
8.368,-0.016077473689413906
8.372,-0.016076728432583225
8.376,-0.016074612864805802
8.38,-0.01607309831060151
8.384,-0.016072569418657152
8.388,-0.01607055001305143
8.392,-0.016069227783190542
8.396,-0.01607055001305143
8.4,-0.01607259345920008
8.404,-0.01607401185123267
8.408,-0.016070934661738236
8.412,-0.016066631404554613
8.416,-0.016067929593872578
8.42,-0.01606898737776129
8.424,-0.016068314242559383
8.428,-0.016067160296498968
8.432,-0.01606670352618339
8.436,-0.0160676651479004
8.44,-0.016070886580652387
8.444,-0.016070934661738236
8.448,-0.016070742337394833
8.452,-0.016073170432230284
8.456,-0.016072545378114228
8.46,-0.016071295269882116
8.464,-0.016070646175223132
8.468,-0.016071151026624562
8.472,-0.016072449215942527
8.476,-0.016070886580652387
8.48,-0.01606889121558959
8.484,-0.01606944414807687
8.488,-0.016069347985905168
8.492,-0.016071030823909937
8.496,-0.016072112648341574
8.5,-0.016070069202192925
8.504,-0.016069973040021227
8.508000000000001,-0.01607146355368259
8.512,-0.016069708594049048
8.516,-0.016069468188619793
8.52,-0.016069203742647618
8.524000000000001,-0.016070189404907554
8.528,-0.016075718729780364
8.532,-0.016073771445803416
8.536,-0.016074444581005324
8.540000000000001,-0.016072449215942527
8.544,-0.01607122314825334
8.548,-0.016072449215942527
8.552,-0.016074444581005324
8.556000000000001,-0.01607405993231852
8.56,-0.016074853270235053
8.564,-0.016074877310777978
8.568,-0.01604903372713332
8.572000000000001,-0.01602679622492745
8.576,-0.0160219881163424
8.58,-0.016021555386569745
8.584,-0.0160220842785141
8.588000000000001,-0.016022012156885323
8.592,-0.01602268529208723
8.596,-0.016023430548917913
8.6,-0.016025473995066562
8.604000000000001,-0.01602643561678357
8.608,-0.016026916427642077
8.612,-0.016030065738765288
8.616,-0.01602670006275575
8.620000000000001,-0.016026147130268467
8.624,-0.01602787804935909
8.628,-0.016029608968449707
8.632,-0.016028166535874192
8.636000000000001,-0.016026267332983096
8.64,-0.016027036630356702
8.644,-0.01602787804935909
8.648,-0.01602710875198548
8.652000000000001,-0.016027397238500583
8.656,-0.016028238657502965
8.66,-0.016027733806101535
8.664,-0.01602725299524303
8.668000000000001,-0.016025714400495814
8.672,-0.016022204481228725
8.676,-0.016023791157061793
8.68,-0.016023887319233494
8.684000000000001,-0.016025449954523634
8.688,-0.01602609904918262
8.692,-0.016023935400319343
8.696,-0.01602282953534478
8.700000000000001,-0.016022204481228725
8.704,-0.01602299781914526
8.708,-0.01602492106257928
8.712,-0.01602670006275575
8.716,-0.016027325116871806
8.72,-0.016025810562667515
8.724,-0.016023310346203287
8.728,-0.016020954372996613
8.732,-0.016022348724486275
8.736,-0.01602191599471362
8.74,-0.0160220842785141
8.744,-0.016025113386922682
8.748,-0.016026267332983096
8.752,-0.01602660390058405
8.756,-0.016025714400495814
8.76,-0.01602811845478834
8.764,-0.01602797421153079
8.768,-0.016027397238500583
8.772,-0.01602364691380424
8.776,-0.016025401873437786
8.78,-0.01602643561678357
8.784,-0.01602588268429629
8.788,-0.016027589562843985
8.792,-0.016024993184208056
8.796,-0.016023694994890092
8.8,-0.01602552207615241
8.804,-0.016024368130092
8.808,-0.016024969143665132
8.812,-0.016023791157061793
8.816,-0.016021387102769267
8.82,-0.016025714400495814
8.824,-0.016025473995066562
8.828,-0.016025642278867037
8.832,-0.016025065305836833
8.836,-0.01602167558928437
8.84,-0.01602141114331219
8.844,-0.016021387102769267
8.848,-0.016022565089372606
8.852,-0.016022396805572128
8.856,-0.016021627508198518
8.86,-0.016019511940421095
8.864,-0.01602090629191076
8.868,-0.016018189710560207
8.872,-0.01601679535907054
8.876,-0.016016867480699318
8.88,-0.016019223453905992
8.884,-0.016019007089019665
8.888,-0.01602040144050933
8.892,-0.016020377399966406
8.896,-0.0160198004269362
8.9,-0.016018742643047486
8.904,-0.01601847819707531
8.908,-0.01601943981879232
8.912,-0.016019584062049872
8.916,-0.01602081012973906
8.92,-0.016024031562491044
8.924,-0.016023118021859885
8.928,-0.016023839238147642
8.932,-0.016021627508198518
8.936,-0.01602258912991553
8.94,-0.01602232468394335
8.944,-0.016021507305483892
8.948,-0.016018766683590414
8.952,-0.01601715596721442
8.956,-0.016017035764499792
8.96,-0.01602064184593858
8.964,-0.01602314206240281
8.968,-0.01602273337317308
8.972,-0.016024320049006148
8.976,-0.01602619521135432
8.98,-0.016024175805748598
8.984,-0.016023478630003765
8.988,-0.01602126690005464
8.992,-0.016021603467655594
8.996,-0.016022613170458454
9.0,-0.01602588268429629
9.004,-0.01602319014348866
9.008000000000001,-0.01602273337317308
9.012,-0.016024584494978327
9.016,-0.01602268529208723
9.02,-0.016021555386569745
9.024000000000001,-0.0160219881163424
9.028,-0.016021603467655594
9.032,-0.016021363062226342
9.036,-0.016022949738059407
9.040000000000001,-0.01602309398131696
9.044,-0.016026267332983096
9.048,-0.01602725299524303
9.052,-0.016028767549447324
9.056000000000001,-0.01602619521135432
9.06,-0.01602720491415718
9.064,-0.01602660390058405
9.068,-0.016026531778955272
9.072000000000001,-0.016026363495154797
9.076,-0.016025570157238263
9.08,-0.016026772184384527
9.084,-0.016027373197957658
9.088000000000001,-0.016027180873614256
9.092,-0.016025738441038738
9.096,-0.016025041265293905
9.1,-0.016025089346379758
9.104000000000001,-0.016027733806101535
9.108,-0.01602468065715003
9.112,-0.01602355075163254
9.116,-0.016024800859864654
9.120000000000001,-0.016025233589637308
9.124,-0.016022805494801857
9.128,-0.016017083845585645
9.132,-0.016018670521418713
9.136000000000001,-0.016021483264940968
9.14,-0.016020329318880554
9.144,-0.016020112953994227
9.148,-0.0160198004269362
9.152000000000001,-0.01601943981879232
9.156,-0.01601912729173429
9.16,-0.016023526711089614
9.164,-0.016022156400142876
9.168000000000001,-0.01602181983254192
9.172,-0.016019007089019665
9.176,-0.016018189710560207
9.18,-0.016018502237618235
9.184000000000001,-0.016019175372820143
9.188,-0.016019511940421095
9.192,-0.016019463859335246
9.196,-0.016019271534991844
9.200000000000001,-0.01602030527833763
9.204,-0.01602064184593858
9.208,-0.016021002454082462
9.212,-0.01602131498114049
9.216000000000001,-0.016019824467479123
9.22,-0.016019415778249394
9.224,-0.016016506872555437
9.228,-0.016016627075270063
9.232,-0.016018790724133338
9.236,-0.016018742643047486
9.24,-0.01601838203490361
9.244,-0.016018862845762115
9.248,-0.01602117073788294
9.252,-0.016020786089196135
9.256,-0.01601888688630504
9.26,-0.016019560021506948
9.264,-0.016016002021154007
9.268,-0.01601477595346482
9.272,-0.016011458358541134
9.276,-0.016011025628768476
9.28,-0.016012299777543516
9.284,-0.016011506439626982
9.288,-0.01601583373735353
9.292,-0.016019199413363067
9.296,-0.016018045467302656
9.3,-0.016018598399789936
9.304,-0.016017901224045103
9.308,-0.016017420413186597
9.312,-0.016019920629650825
9.316,-0.016019511940421095
9.32,-0.016020233156708853
9.324,-0.01601903112956259
9.328,-0.016021531346026817
9.332,-0.01601939173770647
9.336,-0.01601730021047197
9.34,-0.01601602606169693
9.344,-0.016018309913274832
9.348,-0.0160198965891079
9.352,-0.016017492534815374
9.356,-0.016018261832188983
9.36,-0.01601924749444892
9.364,-0.016017516575358298
9.368,-0.016017997386216804
9.372,-0.016022036197428247
9.376,-0.016020521643223956
9.38,-0.016019824467479123
9.384,-0.01601915133227722
9.388,-0.01601705980504272
9.392,-0.0160154250481238
9.396,-0.016014727872378967
9.4,-0.016014295142606313
9.404,-0.016014535548035565
9.408,-0.016013525845232704
9.412,-0.01601391049391951
9.416,-0.016015352926495027
9.42,-0.01601410281826291
9.424,-0.016013790291204883
9.428,-0.01601655495364129
9.432,-0.016017949305130955
9.436,-0.01601871860250456
9.44,-0.016016218386040334
9.444,-0.01601487211563652
9.448,-0.016014535548035565
9.452,-0.01601318927763175
9.456,-0.016011530480169907
9.46,-0.016011145831483106
9.464,-0.016014030696634134
9.468,-0.016013309480346377
9.472,-0.01601282866948787
9.476,-0.016015232723780398
9.48,-0.01601583373735353
9.484,-0.016014487466949716
9.488,-0.016013237358717604
9.492,-0.016014391304778015
9.496,-0.01601693960232809
9.5,-0.016017492534815374
9.504,-0.0160177088997017
9.508000000000001,-0.016018261832188983
9.512,-0.01601528080486625
9.516,-0.01601477595346482
9.52,-0.016017829102416326
9.524000000000001,-0.016017805061873402
9.528,-0.01601679535907054
9.532,-0.016017781021330477
9.536,-0.016019680224221573
9.540000000000001,-0.016021290940597566
9.544,-0.016021459224398044
9.548,-0.016020449521595183
9.552,-0.01601939173770647
9.556000000000001,-0.01601720404830027
9.56,-0.01601787718350218
9.564,-0.01602066588648151
9.568,-0.016020112953994227
9.572000000000001,-0.016020786089196135
9.576,-0.01602126690005464
9.58,-0.016020786089196135
9.584,-0.016018598399789936
9.588000000000001,-0.01601811758893143
9.592,-0.016018309913274832
9.596,-0.01601984850802205
9.6,-0.016019343656620617
9.604000000000001,-0.016021146697340012
9.608,-0.01602054568376688
9.612,-0.016020521643223956
9.616,-0.016021459224398044
9.620000000000001,-0.01602066588648151
9.624,-0.016017588696987075
9.628,-0.016017276169929047
9.632,-0.01602004083236545
9.636000000000001,-0.01602090629191076
9.64,-0.016019728305307422
9.644,-0.01602025719725178
9.648,-0.016019776386393274
9.652000000000001,-0.016020738008110283
9.656,-0.01601965618367865
9.66,-0.016018309913274832
9.664,-0.016018285872731908
9.668000000000001,-0.01601746849427245
9.672,-0.016017925264588027
9.676,-0.016019199413363067
9.68,-0.01602016103508008
9.684000000000001,-0.016019872548564976
9.688,-0.016021146697340012
9.692,-0.01601802142675973
9.696,-0.016018838805219187
9.700000000000001,-0.016021242859511713
9.704,-0.016021627508198518
9.708,-0.01602040144050933
9.712,-0.016017035764499792
9.716000000000001,-0.01601614626441156
9.72,-0.01601446342640679
9.724,-0.01601588181843938
9.728,-0.01601766081861585
9.732,-0.016018165670017282
9.736,-0.016017588696987075
9.74,-0.016019920629650825
9.744,-0.01601578565626768
9.748,-0.016014703831836043
9.752,-0.01601258826405862
9.756,-0.01601177088559916
9.76,-0.016012660385687397
9.764,-0.016015857777896457
9.768,-0.016018790724133338
9.772,-0.01601898304847674
9.776,-0.01601806950784558
9.78,-0.01601436726423509
9.784,-0.016015160602151624
9.788,-0.016017180007757346
9.792,-0.016015977980611083
9.796,-0.016014944237265297
9.8,-0.01601501635889407
9.804,-0.016015040399437
9.808,-0.016016074142782784
9.812,-0.016017925264588027
9.816,-0.01602107457571124
9.82,-0.016016675156355915
9.824,-0.016011626642341608
9.828,-0.01601350180468978
9.832,-0.01601487211563652
9.836,-0.01601386241283366
9.84,-0.016015112521065772
9.844,-0.01601386241283366
9.848,-0.01601203533157134
9.852,-0.01600989572325099
9.856,-0.016011530480169907
9.86,-0.016011891088313787
9.864,-0.01601410281826291
9.868,-0.01601614626441156
9.872,-0.016015208683237473
9.876,-0.016015617372467202
9.88,-0.016014992318351146
9.884,-0.016015953940068158
9.888,-0.016014295142606313
9.892,-0.016014631710207266
9.896,-0.01601451150749264
9.9,-0.016013141196545903
9.904,-0.01601181896668501
9.908,-0.01601131411528358
9.912,-0.016010280371937795
9.916,-0.01601131411528358
9.92,-0.01601232381808644
9.924,-0.01601191512885671
9.928,-0.01601198725048549
9.932,-0.01601410281826291
9.936,-0.01601537696703795
9.94,-0.016014703831836043
9.944,-0.01601643475092666
9.948,-0.01601811758893143
9.952,-0.016020112953994227
9.956,-0.016021339021683415
9.96,-0.01602213235959995
9.964,-0.016021843873084845
9.968,-0.01602131498114049
9.972,-0.01602222852177165
9.976,-0.016020593764852733
9.98,-0.01601912729173429
9.984,-0.01601710788612857
9.988,-0.016018550318704087
9.992,-0.016018237791646055
9.996,-0.016017180007757346
10.0,-0.016016218386040334
10.004,-0.016014968277808222
10.008000000000001,-0.01601912729173429
10.012,-0.016018862845762115
10.016,-0.016018670521418713
10.02,-0.016019103251191366
10.024000000000001,-0.016019511940421095
10.028,-0.016018237791646055
10.032,-0.016020521643223956
10.036,-0.016020593764852733
10.040000000000001,-0.01601761273753
10.044,-0.01601705980504272
10.048,-0.01601787718350218
10.052,-0.01601705980504272
10.056000000000001,-0.016019103251191366
10.06,-0.016022108319057024
10.064,-0.01602273337317308
10.068,-0.016025209549094383
10.072000000000001,-0.016023045900231108
10.076,-0.016023069940774036
10.08,-0.016024560454435403
10.084,-0.016024368130092
10.088000000000001,-0.016023478630003765
10.092,-0.016023166102945737
10.096,-0.01602172367037022
10.1,-0.016022156400142876
10.104000000000001,-0.016023815197604718
10.108,-0.016021940035256546
10.112,-0.016022420846115052
10.116,-0.01602268529208723
10.120000000000001,-0.016020185075623004
10.124,-0.01602054568376688
10.128,-0.01602167558928437
10.132,-0.01602167558928437
10.136000000000001,-0.016021242859511713
10.14,-0.016018766683590414
10.144,-0.016019223453905992
10.148,-0.016021555386569745
10.152000000000001,-0.01602319014348866
10.156,-0.01602285357588771
10.16,-0.016021387102769267
10.164,-0.016020281237794705
10.168000000000001,-0.016020112953994227
10.172,-0.016018261832188983
10.176,-0.016014150899348763
10.18,-0.016013069074917126
10.184000000000001,-0.016013429683061003
10.188,-0.016014150899348763
10.192,-0.01601501635889407
10.196,-0.016015593331924278
10.200000000000001,-0.0160155212102955
10.204,-0.016017396372643673
10.208,-0.016015160602151624
10.212,-0.01601427110206339
10.216000000000001,-0.016014559588578493
10.22,-0.016016266467126186
10.224,-0.01601715596721442
10.228,-0.016014583629121417
10.232000000000001,-0.0160133335208893
10.236,-0.016014944237265297
10.24,-0.01601451150749264
10.244,-0.016014535548035565
10.248,-0.016014896156179445
10.252,-0.016013934534462433
10.256,-0.01601501635889407
10.26,-0.016013694129033182
10.264,-0.016013646047947333
10.268,-0.016017636778072924
10.272,-0.016015593331924278
10.276,-0.016013429683061003
10.28,-0.0160154250481238
10.284,-0.016017180007757346
10.288,-0.016018430115989458
10.292,-0.016017949305130955
10.296,-0.01601518464269455
10.3,-0.016016266467126186
10.304,-0.01601802142675973
10.308,-0.01601588181843938
10.312,-0.016015857777896457
10.316,-0.01601643475092666
10.32,-0.01601410281826291
10.324,-0.016012612304601544
10.328,-0.01601222765591474
10.332,-0.016012155534285966
10.336,-0.016011482399084058
10.34,-0.01601143431799821
10.344,-0.0160128527100308
10.348,-0.01601427110206339
10.352,-0.01601234785862937
10.356,-0.016013670088490257
10.36,-0.016015304845409174
10.364,-0.016016074142782784
10.368,-0.016017781021330477
10.372,-0.016016482832012513
10.376,-0.016014751912921895
10.38,-0.01601359796686148
10.384,-0.01601198725048549
10.388,-0.01601172280451331
10.392,-0.016013429683061003
10.396,-0.016015977980611083
10.4,-0.016017348291557824
10.404,-0.016017829102416326
10.408,-0.016015064439979923
10.412,-0.01601395857500536
10.416,-0.016014439385863867
10.42,-0.016014992318351146
10.424,-0.016014174939891688
10.428,-0.016015401007580875
10.432,-0.01601487211563652
10.436,-0.016015088480522847
10.44,-0.016014535548035565
10.444,-0.0160106650206246
10.448,-0.01601090542605385
10.452,-0.01601181896668501
10.456,-0.016008597533933026
10.46,-0.016011867047770863
10.464,-0.01601309311546005
10.468,-0.016011626642341608
10.472,-0.016012612304601544
10.476,-0.016013069074917126
10.48,-0.016011891088313787
10.484,-0.01600912642587738
10.488,-0.0160107611827963
10.492,-0.016011458358541134
10.496,-0.01601172280451331
10.5,-0.016010833304425078
10.504,-0.016010544817909974
10.508000000000001,-0.01601177088559916
10.512,-0.016010424615195345
10.516,-0.01601016016922317
10.52,-0.016009054304248607
10.524000000000001,-0.01600821288524622
10.528,-0.016008861979905205
10.532,-0.016010328453023644
10.536,-0.01601234785862937
10.540000000000001,-0.016013790291204883
10.544,-0.016011458358541134
10.548,-0.016010616939538747
10.552,-0.016010785223339225
10.556000000000001,-0.016015256764323325
10.56,-0.016016074142782784
10.564,-0.01601441534532094
10.568,-0.016010785223339225
10.572000000000001,-0.016012708466773246
10.576,-0.01601436726423509
10.58,-0.016014655750750194
10.584,-0.016014992318351146
10.588000000000001,-0.016014078777719987
10.592,-0.016012251696457667
10.596,-0.016012660385687397
10.6,-0.016013814331747808
10.604000000000001,-0.01601391049391951
10.608,-0.016013694129033182
10.612,-0.016011458358541134
10.616,-0.01601157856125576
10.620000000000001,-0.016011097750397253
10.624,-0.016011241993654807
10.628,-0.016011290074740656
10.632,-0.016011097750397253
10.636000000000001,-0.01601030441248072
10.64,-0.01600989572325099
10.644,-0.016009727439450512
10.648,-0.016008789858276428
10.652000000000001,-0.01600934279076371
10.656,-0.016009679358364663
10.66,-0.01600929470967786
10.664,-0.016010833304425078
10.668000000000001,-0.01600797247981697
10.672,-0.01600568862823907
10.676,-0.016005424182266893
10.68,-0.016006025195840025
10.684000000000001,-0.01600705893918581
10.688,-0.016006169439097575
10.692,-0.016004895290322535
10.696,-0.016006433885069754
10.700000000000001,-0.01600705893918581
10.704,-0.01600487124977961
10.708,-0.016008164804160372
10.712,-0.016010977547682628
10.716000000000001,-0.01601107370985433
10.72,-0.01601181896668501
10.724,-0.016011746845056237
10.728,-0.016012972912745425
10.732000000000001,-0.01601487211563652
10.736,-0.01601441534532094
10.74,-0.016013982615548285
10.744,-0.016011121790940178
10.748000000000001,-0.016009679358364663
10.752,-0.016012299777543516
10.756,-0.016014319183149238
10.76,-0.016016627075270063
10.764,-0.016016122223868633
10.768,-0.0160133335208893
10.772,-0.016011097750397253
10.776,-0.016012059372114265
10.78,-0.016011338155826508
10.784,-0.01600862157447595
10.788,-0.016007924398731117
10.792,-0.01600862157447595
10.796,-0.016010015925965616
10.8,-0.01601090542605385
10.804,-0.016010112088137317
10.808,-0.016008861979905205
10.812,-0.016005977114754173
10.816,-0.01600268356037341
10.82,-0.016003020127974367
10.824,-0.01600912642587738
10.828,-0.01601345372360393
10.832,-0.016009535115107113
10.836,-0.01600588095258247
10.84,-0.016006313682355125
10.844,-0.01600076031693939
10.848,-0.01601107370985433
10.852,-0.01601730021047197
10.856,-0.016017636778072924
10.86,-0.015996673424642095
10.864,-0.016003573060461646
10.868,-0.016009871682708066
10.872,-0.016011530480169907
10.876,-0.01601249210188692
10.88,-0.01601309311546005
10.884,-0.016009871682708066
10.888,-0.01601030441248072
10.892,-0.01600780419601649
10.896,-0.016007131060814587
10.9,-0.016005929033668324
10.904,-0.01600552034443859
10.908,-0.016005255898466415
10.912,-0.016003981749691375
10.916,-0.016008285006874998
10.92,-0.01600773207438772
10.924,-0.01600821288524622
10.928,-0.016010616939538747
10.932,-0.01601254018297277
10.936,-0.01601282866948787
10.94,-0.016012780588402022
10.944,-0.01601203533157134
10.948,-0.0160129488722025
10.952,-0.016012468061343994
10.956,-0.016011698763970385
10.96,-0.01601191512885671
10.964,-0.01601016016922317
10.968,-0.01600924662859201
10.972,-0.01601121795311188
10.976,-0.016010376534109496
10.98,-0.016006097317468798
10.984,-0.016007683993301866
10.988,-0.0160062896418122
10.992,-0.01600588095258247
10.996,-0.01600564054715322
11.0,-0.01600487124977961
11.004,-0.016006866614842408
11.008000000000001,-0.016009559155650038
11.012,-0.016009871682708066
11.016,-0.01601025633139487
11.02,-0.016009006223162755
11.024000000000001,-0.016009607236735886
11.028,-0.01601049673682412
11.032,-0.016011602601798684
11.036,-0.01600984764216514
11.040000000000001,-0.01600874177719058
11.044,-0.01600989572325099
11.048,-0.016011746845056237
11.052,-0.01600802056090282
11.056000000000001,-0.016007419547329687
11.06,-0.016006530047241455
11.064,-0.016003573060461646
11.068,-0.01600285184417389
11.072000000000001,-0.01600253931711586
11.076,-0.016003212452317766
11.08,-0.016002563357658785
11.084,-0.016004150033491853
11.088000000000001,-0.016005568425524443
11.092,-0.01600395770914845
11.096,-0.016005448222809818
11.1,-0.016006818533756555
11.104000000000001,-0.01600833308796085
11.108,-0.01600552034443859
11.112,-0.016001866181913953
11.116,-0.016001794060285176
11.120000000000001,-0.01600249123603001
11.124,-0.016004438520006957
11.128,-0.01600527993900934
11.132,-0.016005760749867846
11.136000000000001,-0.016004438520006957
11.14,-0.016004486601092806
11.144,-0.016006169439097575
11.148,-0.016007683993301866
11.152000000000001,-0.01600552034443859
11.156,-0.016007491668958464
11.16,-0.016009919763793914
11.164,-0.01600934279076371
11.168000000000001,-0.01601030441248072
11.172,-0.016010929466596775
11.176,-0.016010232290851946
11.18,-0.01601217957482889
11.184000000000001,-0.01600898218261983
11.188,-0.01600833308796085
11.192,-0.016009919763793914
11.196,-0.016011290074740656
11.200000000000001,-0.016009583196192962
11.204,-0.01600888602044813
11.208,-0.016009535115107113
11.212,-0.016008453290675476
11.216000000000001,-0.016007010858099958
11.22,-0.016006409844526826
11.224,-0.016010208250309018
11.228,-0.01601309311546005
11.232000000000001,-0.016014968277808222
11.236,-0.016011626642341608
11.24,-0.016010689061167524
11.244,-0.016012395939715218
11.248000000000001,-0.016013141196545903
11.252,-0.01601116987202603
11.256,-0.016010881385510926
11.26,-0.01600912642587738
11.264,-0.016009559155650038
11.268,-0.016012468061343994
11.272,-0.016009054304248607
11.276,-0.016008765817733504
11.28,-0.0160083811690467
11.284,-0.016009054304248607
11.288,-0.016009006223162755
11.292,-0.016008765817733504
11.296,-0.016008597533933026
11.3,-0.01600645792561268
11.304,-0.016004967411951312
11.308,-0.016007251263529212
11.312,-0.01600564054715322
11.316,-0.016006890655385332
11.32,-0.01600821288524622
11.324,-0.016007251263529212
11.328,-0.016009414912392484
11.332,-0.016007852277102344
11.336,-0.016008910060991054
11.34,-0.016006938736471184
11.344,-0.01600578479041077
11.348,-0.016006097317468798
11.352,-0.01600645792561268
11.356,-0.016006073276925874
11.36,-0.01600655408778438
11.364,-0.0160063858039839
11.368,-0.01600564054715322
11.372,-0.016006097317468798
11.376,-0.016005328020095192
11.38,-0.016005303979552264
11.384,-0.016005808830953695
11.388,-0.01600645792561268
11.392,-0.016005255898466415
11.396,-0.016004558722721583
11.4,-0.016004991452494236
11.404,-0.01600564054715322
11.408,-0.016006481966155603
11.412,-0.016008188844703296
11.416,-0.016009318750220783
11.42,-0.01600518377683764
11.424,-0.01600359710100457
11.428,-0.016004438520006957
11.432,-0.016003693263176272
11.436,-0.016003645182090423
11.44,-0.016006025195840025
11.444,-0.016004654884893284
11.448,-0.01600513569575179
11.452,-0.016004751047064985
11.456,-0.01600761187167309
11.46,-0.01600821288524622
11.464,-0.016005616506610292
11.468,-0.016001842141371028
11.472,-0.01600253931711586
11.476,-0.016007179141900436
11.48,-0.016010376534109496
11.484,-0.016011338155826508
11.488,-0.016007443587872615
11.492,-0.016004895290322535
11.496,-0.016003524979375797
11.5,-0.01600285184417389
11.504,-0.016005496303895667
11.508000000000001,-0.016006938736471184
11.512,-0.016005760749867846
11.516,-0.01600501549303716
11.52,-0.016004534682178658
11.524000000000001,-0.01600436639837818
11.528,-0.01600412599294893
11.532,-0.01600268356037341
11.536,-0.016001890222456877
11.540000000000001,-0.016001745979199327
11.544,-0.016001529614313
11.548,-0.016002322952229534
11.552,-0.016002875884716813
11.556000000000001,-0.015999942938479932
11.56,-0.015999005357305845
11.564,-0.015999221722192175
11.568,-0.01599806777613176
11.572000000000001,-0.016000375668252586
11.576,-0.01600203446571443
11.58,-0.016002202749514905
11.584,-0.016003404776661168
11.588000000000001,-0.01600066415476769
11.592,-0.015999534249250203
11.596,-0.015999221722192175
11.6,-0.015998091816674685
11.604000000000001,-0.015999101519477546
11.608,-0.015998404343732713
11.612,-0.015997082113871824
11.616,-0.015998043735588836
11.620000000000001,-0.016001241127797897
11.624,-0.01600285184417389
11.628,-0.01600477508760791
11.632,-0.01600157769539885
11.636000000000001,-0.016000183343909184
11.64,-0.01600268356037341
11.644,-0.016001337289969598
11.648,-0.01599898131676292
11.652000000000001,-0.015999630411421904
11.656,-0.015998356262646864
11.66,-0.01599984677630823
11.664,-0.01600304416851729
11.668000000000001,-0.016001721938656403
11.672,-0.016004342357835256
11.676,-0.016006265601269276
11.68,-0.01600376538480505
11.684000000000001,-0.016002395073858307
11.688,-0.016002298911686606
11.692,-0.01600234699277246
11.696,-0.016003813465890897
11.700000000000001,-0.016004246195663555
11.704,-0.01600116900616912
11.708,-0.016001601735941774
11.712,-0.01599999101956578
11.716000000000001,-0.016001601735941774
11.72,-0.016003284573946543
11.724,-0.016005207817380563
11.728,-0.016002515276572933
11.732000000000001,-0.016000832438568167
11.736,-0.01600071223585354
11.74,-0.01600412599294893
11.744,-0.01600518377683764
11.748000000000001,-0.016005568425524443
11.752,-0.016004799128150834
11.756,-0.016002635479287562
11.76,-0.016005207817380563
11.764000000000001,-0.016005856912039547
11.768,-0.016004390438921105
11.772,-0.016004198114577702
11.776,-0.016004198114577702
11.78,-0.016002515276572933
11.784,-0.016003741344262124
11.788,-0.016002419114401235
11.792,-0.01600131324942667
11.796,-0.016006121358011723
11.8,-0.01600645792561268
11.804,-0.016005856912039547
11.808,-0.01600299608743144
11.812,-0.016003284573946543
11.816,-0.016002635479287562
11.82,-0.01600217870897198
11.824,-0.015999702533050678
11.828,-0.01600167385757055
11.832,-0.016002899925259738
11.836,-0.016003885587519674
11.84,-0.016004486601092806
11.844,-0.01600167385757055
11.848,-0.016002635479287562
11.852,-0.016004751047064985
11.856,-0.016005808830953695
11.86,-0.016006337722898053
11.864,-0.016004150033491853
11.868,-0.01600299608743144
11.872,-0.016002563357658785
11.876,-0.016003236492860694
11.88,-0.0160036211415475
11.884,-0.016003404776661168
11.888,-0.01600309224960314
11.892,-0.016002395073858307
11.896,-0.01600395770914845
11.9,-0.01600669833104193
11.904,-0.016003885587519674
11.908,-0.016002058506257355
11.912,-0.01600035162770966
11.916,-0.01599965445196483
11.92,-0.016005255898466415
11.924,-0.016004558722721583
11.928,-0.016001048803454494
11.932,-0.0160040057902343
11.936,-0.016004029830777228
11.94,-0.016002923965802666
11.944,-0.016003524979375797
11.948,-0.016001842141371028
11.952,-0.01600285184417389
11.956,-0.016004943371408387
11.96,-0.01600527993900934
11.964,-0.016004702965979133
11.968,-0.016006890655385332
11.972,-0.016003332655032395
11.976,-0.01599898131676292
11.98,-0.015999269803278024
11.984,-0.015998813032962446
11.988,-0.015998764951876594
11.992,-0.015998716870790745
11.996,-0.016000063141194558
12.0,-0.016002707600916335
12.004,-0.01599965445196483
12.008000000000001,-0.016000423749338438
12.012,-0.016002274871143682
12.016,-0.016003116290146065
12.02,-0.01599975061413653
12.024000000000001,-0.016000447789881363
12.028,-0.015999221722192175
12.032,-0.016001553654855925
12.036,-0.016002154668429056
12.040000000000001,-0.016000952641282793
12.044,-0.016000423749338438
12.048,-0.015999942938479932
12.052,-0.01600268356037341
12.056000000000001,-0.016005760749867846
12.06,-0.01600537610118104
12.064,-0.016004534682178658
12.068,-0.016002154668429056
12.072000000000001,-0.016000592033138913
12.076,-0.016003573060461646
12.08,-0.016004294276749403
12.084,-0.01600167385757055
12.088000000000001,-0.015999822735765307
12.092,-0.016000832438568167
12.096,-0.016002154668429056
12.1,-0.01600107284399742
12.104000000000001,-0.015999966979022857
12.108,-0.01599948616816435
12.112,-0.01599780333015958
12.116,-0.015996264735412366
12.120000000000001,-0.01600071223585354
12.124,-0.016000880519654016
12.128,-0.015999365965449725
12.132,-0.015999918897937008
12.136000000000001,-0.01599888515459122
12.14,-0.015997226357129378
12.144,-0.01599874091133367
12.148,-0.016001794060285176
12.152000000000001,-0.016001553654855925
12.156,-0.01600015930336626
12.16,-0.016000183343909184
12.164,-0.016003837506433825
12.168000000000001,-0.01600422215512063
12.172,-0.016004029830777228
12.176,-0.01600501549303716
12.18,-0.016004390438921105
12.184000000000001,-0.016001361330512522
12.188,-0.015999966979022857
12.192,-0.015999870816851156
12.196,-0.016000375668252586
12.200000000000001,-0.015998548586990267
12.204,-0.015997947573417135
12.208,-0.015998139897760538
12.212,-0.01600051991151014
12.216000000000001,-0.01600030354662381
12.22,-0.016001241127797897
12.224,-0.015999173641106323
12.228,-0.01599732251930108
12.232000000000001,-0.015999005357305845
12.236,-0.01600107284399742
12.24,-0.01599979869522238
12.244,-0.016002972046888515
12.248000000000001,-0.016000543952053064
12.252,-0.015998620708619044
12.256,-0.016002154668429056
12.26,-0.016002322952229534
12.264000000000001,-0.015998668789704892
12.268,-0.01600140941159837
12.272,-0.01600140941159837
12.276,-0.015995976248897262
12.280000000000001,-0.01599655322192747
12.284,-0.015998500505904414
12.288,-0.015997635046359107
12.292,-0.015996625343556246
12.296,-0.015997683127444956
12.3,-0.01599847646536149
12.304,-0.01599782737070251
12.308,-0.015998043735588836
12.312,-0.01599999101956578
12.316,-0.01600102476291157
12.32,-0.016000231424995036
12.324,-0.015999197681649247
12.328,-0.015996985951700123
12.332,-0.01599638493812699
12.336,-0.015998356262646864
12.34,-0.015998909195134144
12.344,-0.015996865748985498
12.348,-0.015998788992419518
12.352,-0.016000279506080885
12.356,-0.016000231424995036
12.36,-0.01599898131676292
12.364,-0.015995519478581684
12.368,-0.01599619261378359
12.372,-0.01599462997849345
12.376,-0.015992225924200923
12.38,-0.01599362027569059
12.384,-0.015996769586813796
12.388,-0.016000087181737482
12.392,-0.016000183343909184
12.396,-0.015999029397848773
12.4,-0.015999630411421904
12.404,-0.01599741868147278
12.408,-0.015996841708442573
12.412,-0.015999966979022857
12.416,-0.015999870816851156
12.42,-0.01599965445196483
12.424,-0.0159991496005634
12.428,-0.015997274438215227
12.432,-0.01599787545178836
12.436,-0.015998043735588836
12.44,-0.015999606370878976
12.444,-0.015999606370878976
12.448,-0.015997346559844004
12.452,-0.015995110789351955
12.456,-0.015993692397319362
12.46,-0.015993379870261334
12.464,-0.015991889356599967
12.468,-0.015991985518771668
12.472,-0.015994750181208075
12.476,-0.015996216654326517
12.48,-0.015997755249073733
12.484,-0.015996481100298693
12.488,-0.01599588008672556
12.492,-0.015998524546447342
12.496,-0.01599823605993224
12.5,-0.01599638493812699
12.504,-0.01599669746518502
12.508000000000001,-0.01599304330266038
12.512,-0.01599208168094337
12.516,-0.01599350007297596
12.52,-0.015992778856688202
12.524000000000001,-0.01599309138374623
12.528,-0.01598948530230744
12.532,-0.01598934105904989
12.536,-0.015989413180678667
12.540000000000001,-0.01598847559950458
12.544,-0.015987393775072946
12.548,-0.015990182478052273
12.552,-0.01599162491062779
12.556000000000001,-0.015989773788822544
12.56,-0.015988403477875807
12.564,-0.015987345693987094
12.568,-0.015989028531991863
12.572000000000001,-0.015988523680590432
12.576,-0.015988667923847982
12.58,-0.015990831572711257
12.584,-0.015988860248191385
12.588000000000001,-0.015986792761499814
12.592,-0.01598833135624703
12.596,-0.0159925865323448
12.6,-0.015991817234971194
12.604000000000001,-0.015990903694340034
12.608,-0.01598970166719377
12.612,-0.015988018829189002
12.616,-0.015987177410186616
12.620000000000001,-0.015987249531815392
12.624,-0.015989220856335265
12.628,-0.015989220856335265
12.632,-0.015989148734706488
12.636000000000001,-0.015989028531991863
12.64,-0.01599051904565323
12.644,-0.015991408545741465
12.648,-0.015991817234971194
12.652000000000001,-0.015992971181031605
12.656,-0.01599503866772318
12.66,-0.015993908762205692
12.664,-0.015992826937774055
12.668000000000001,-0.015992225924200923
12.672,-0.015992875018859903
12.676,-0.015993644316233513
12.68,-0.01599102389705466
12.684000000000001,-0.015992658653973577
12.688,-0.015991817234971194
12.692,-0.015991384505198537
12.696,-0.015988764086019683
12.700000000000001,-0.01598934105904989
12.704,-0.015989028531991863
12.708,-0.01598929297796404
12.712,-0.015991096018683433
12.716000000000001,-0.01599102389705466
12.72,-0.015991144099769285
12.724,-0.015991288343026835
12.728,-0.015992105721486297
12.732000000000001,-0.015991721072799493
12.736,-0.015992009559314596
12.74,-0.01599061520782493
12.744,-0.015987538018330496
12.748000000000001,-0.015988403477875807
12.752,-0.01598934105904989
12.756,-0.015988788126562608
12.76,-0.01598874004547676
12.764000000000001,-0.015985446491095998
12.768,-0.015987177410186616
12.772,-0.015988307315704105
12.776,-0.015986937004757364
12.780000000000001,-0.015983018396260547
12.784,-0.015985518612724774
12.788,-0.01598381173417708
12.792,-0.015980229693281216
12.796000000000001,-0.015978643017448148
12.8,-0.015978210287675494
12.804,-0.01597883534179155
12.808,-0.015978042003875016
12.812,-0.015975950476640518
12.816,-0.01597746503084481
12.82,-0.015975782192840043
12.824,-0.015976671692928275
12.828,-0.01597857089581937
12.832,-0.01597842665256182
12.836,-0.015978811301248626
12.84,-0.01597756119301651
12.844,-0.01597960463916516
12.848,-0.015977537152473586
12.852,-0.01597787372007454
12.856,-0.015978258368761343
12.86,-0.015975830273925892
12.864,-0.015977633314645287
12.868,-0.015981215355541152
12.872,-0.015978546855276447
12.876,-0.015976623611842426
12.88,-0.01597655149021365
12.884,-0.01597828240930427
12.888,-0.01597732078758726
12.892,-0.01597604663881222
12.896,-0.01597765735518821
12.9,-0.01597828240930427
12.904,-0.01597436380080745
12.908,-0.01597498885492351
12.912,-0.015975782192840043
12.916,-0.015976791895642904
12.92,-0.015978258368761343
12.924,-0.015976767855099976
12.928,-0.015974916733294733
12.932,-0.015975205219809836
12.936,-0.01597498885492351
12.94,-0.01597503693600936
12.944,-0.015977104422700932
12.948,-0.015976166841526845
12.952,-0.015974796530580107
12.956,-0.0159743157197216
12.96,-0.01597294540877486
12.964,-0.015971599138371047
12.968,-0.015969723976022875
12.972,-0.015969627813851174
12.976,-0.01597046923285356
12.98,-0.015971502976199346
12.984,-0.01597244055737343
12.988,-0.01597244055737343
12.992,-0.01597220015194418
12.996,-0.015972103989772477
13.0,-0.01597354642234799
13.004,-0.01597700826052923
13.008000000000001,-0.015976166841526845
13.012,-0.01597330601691874
13.016,-0.01597147893565642
13.02,-0.015971070246426692
13.024000000000001,-0.015967944975846405
13.028,-0.015969916300366278
13.032,-0.015973089652032414
13.036,-0.015971310651855943
13.040000000000001,-0.015972632881716832
13.044,-0.015974243598092824
13.048,-0.01597462824677963
13.052,-0.015972007827600776
13.056000000000001,-0.01597220015194418
13.06,-0.01597289732768901
13.064,-0.01597482057112303
13.068,-0.01597417147646405
13.072000000000001,-0.015975205219809836
13.076,-0.015975277341438613
13.08,-0.015978618976905223
13.084,-0.01597417147646405
13.088000000000001,-0.015974339760264526
13.092,-0.0159721280303154
13.096,-0.015970324989596007
13.1,-0.01597078175991159
13.104000000000001,-0.01596832962453321
13.108,-0.015968545989419537
13.112,-0.015971190449141318
13.116,-0.015976190882069773
13.120000000000001,-0.015976118760440996
13.124,-0.015975373503610314
13.128,-0.015974604206236705
13.132,-0.015973690665605545
13.136000000000001,-0.01597102216534084
13.14,-0.015969147002992668
13.144,-0.01596823346236151
13.148,-0.015970589435568186
13.152000000000001,-0.0159741233953782
13.156,-0.015976070679355144
13.16,-0.0159743157197216
13.164,-0.01597066155719696
13.168000000000001,-0.015970493273396485
13.172,-0.015970901962626214
13.176,-0.015970300949053082
13.18,-0.015971358732941792
13.184000000000001,-0.01597066155719696
13.188,-0.015970589435568186
13.192,-0.01597126257077009
13.196,-0.01597020478688138
13.200000000000001,-0.015967800732588855
13.204,-0.01596782477313178
13.208,-0.015965180313410002
13.212,-0.015965661124268508
13.216000000000001,-0.015960324123739097
13.22,-0.01596005967776692
13.224,-0.015961333826541958
13.228,-0.01596162231305706
13.232000000000001,-0.01596457929983687
13.236,-0.015968065178561034
13.24,-0.01596609385404116
13.244,-0.015965300516124627
13.248000000000001,-0.01596573324589728
13.252,-0.015964795664723197
13.256,-0.015963233029433054
13.26,-0.01596147806979951
13.264000000000001,-0.01596212716445849
13.268,-0.01596381000246326
13.272,-0.015965877489154835
13.276,-0.01596558900263973
13.280000000000001,-0.015962103123915567
13.284,-0.015960396245367874
13.288,-0.015963641718662783
13.292,-0.015964867786351974
13.296000000000001,-0.015963329191604755
13.3,-0.015965276475581703
13.304,-0.015964507178208093
13.308,-0.01596306474563258
13.312000000000001,-0.015964939907980747
13.316,-0.01596243969151652
13.32,-0.01596162231305706
13.324,-0.015960420285910798
13.328,-0.015960588569711276
13.332,-0.015961814637400464
13.336,-0.015961862718486316
13.34,-0.01596340131323353
13.344,-0.01596361767811986
13.348,-0.01596481970526612
13.352,-0.015965973651326536
13.356,-0.01596650254327089
13.36,-0.01596818538127566
13.364,-0.01596893063810634
13.368,-0.01596731992173035
13.372,-0.01596818538127566
13.376,-0.01596919508407852
13.38,-0.01596859407050539
13.384,-0.015966454462185038
13.388,-0.01596549284046803
13.392,-0.01596306474563258
13.396,-0.015960804934597603
13.4,-0.015962006961743866
13.404,-0.01596162231305706
13.408,-0.015962583934774073
13.412,-0.015963329191604755
13.416,-0.015964194651150065
13.42,-0.015963737880834484
13.424,-0.015966574664899667
13.428,-0.01596676698924307
13.432,-0.015967031435215245
13.436,-0.01596873831376294
13.44,-0.01596604577295531
13.444,-0.01596558900263973
13.448,-0.015966334259470413
13.452,-0.015966742948700142
13.456,-0.01596686315141477
13.46,-0.01596614193512701
13.464,-0.015964843745809046
13.468,-0.015965709205354357
13.472,-0.015967295881187425
13.476,-0.01596623809729871
13.48,-0.015964338894407615
13.484,-0.015964338894407615
13.488,-0.015966791029785994
13.492,-0.015968618111048313
13.496,-0.015968113259646883
13.5,-0.015965829408068982
13.504,-0.015963497475405233
13.508000000000001,-0.01596078089405468
13.512,-0.015963858083549113
13.516,-0.015965613043182655
13.52,-0.015964459097122245
13.524000000000001,-0.015965012029609524
13.528,-0.01596354555649108
13.532,-0.01596354555649108
13.536,-0.015966069813498237
13.540000000000001,-0.01596705547575817
13.544,-0.01596575728644021
13.548,-0.015962079083372643
13.552,-0.01595960290745134
13.556000000000001,-0.015961093421112706
13.56,-0.015962728178031623
13.564,-0.015963377272690607
13.568,-0.015963785961920336
13.572000000000001,-0.015963184948347205
13.576,-0.015958977853335284
13.58,-0.01595909805604991
13.584,-0.01595808835324705
13.588000000000001,-0.015959001893878208
13.592,-0.015958497042476778
13.596,-0.015958473001933853
13.6,-0.015957535420759766
13.604000000000001,-0.01595767966401732
13.608,-0.01595945866419379
13.612,-0.015961718475228762
13.616,-0.015965829408068982
13.620000000000001,-0.015963425353776456
13.624,-0.0159607087724259
13.628,-0.01596563708372558
13.632,-0.01597001246253798
13.636000000000001,-0.015968065178561034
13.64,-0.0159671756784728
13.644,-0.015966069813498237
13.648,-0.015966694867614293
13.652000000000001,-0.015967223759558648
13.656,-0.015965685164811432
13.66,-0.015967584367702528
13.664,-0.01596919508407852
13.668000000000001,-0.015970324989596007
13.672,-0.01596731992173035
13.676,-0.015965564962096807
13.68,-0.015967343962273273
13.684000000000001,-0.01596960377330825
13.688,-0.015969002759735118
13.692,-0.015969531651679473
13.696,-0.015969026800278042
13.700000000000001,-0.0159672718406445
13.704,-0.01596787285421763
13.708,-0.01596686315141477
13.712,-0.01596878639484879
13.716000000000001,-0.015971502976199346
13.72,-0.015972368435744656
13.724,-0.015972560760088055
13.728,-0.015967464164987902
13.732000000000001,-0.01596522839449585
13.736,-0.01596549284046803
13.74,-0.01596614193512701
13.744,-0.01596686315141477
13.748000000000001,-0.015969267205707297
13.752,-0.01597143085457057
13.756,-0.015968377705619062
13.76,-0.0159671756784728
13.764000000000001,-0.015967993056932257
13.768,-0.015968906597563417
13.772,-0.015971190449141318
13.776,-0.01597304157094656
13.780000000000001,-0.015974387841350378
13.784,-0.01597436380080745
13.788,-0.015973281976375816
13.792,-0.015970998124797915
13.796000000000001,-0.015969387408421923
13.8,-0.015966887191957695
13.804,-0.0159671756784728
13.808,-0.015967704570417154
13.812000000000001,-0.0159673680028162
13.816,-0.0159696518543941
13.82,-0.01597234439520173
13.824,-0.015968978719192194
13.828,-0.015968906597563417
13.832,-0.015971551057285194
13.836,-0.015972921368231936
13.84,-0.015969363367879
13.844,-0.015966983354129397
13.848,-0.01596883447593464
13.852,-0.015969122962449744
13.856,-0.015968473867790763
13.86,-0.015969267205707297
13.864,-0.015971310651855943
13.868,-0.015969267205707297
13.872,-0.015970228827424306
13.876,-0.015970998124797915
13.88,-0.01597330601691874
13.884,-0.01597462824677963
13.888,-0.015972055908686625
13.892,-0.01597198378705785
13.896,-0.015973161773661187
13.9,-0.015971911665429075
13.904,-0.01597229631411588
13.908,-0.015972680962802684
13.912,-0.015974604206236705
13.916,-0.015975277341438613
13.92,-0.015973113692575338
13.924,-0.015974291679178677
13.928,-0.01597549370632494
13.932,-0.015975012895466434
13.936,-0.015974291679178677
13.94,-0.015973931071034796
13.944,-0.015974508044065003
13.948,-0.015973907030491872
13.952,-0.015975157138723984
13.956,-0.015974700368408406
13.96,-0.01597162317891397
13.964,-0.01597508501709521
13.968,-0.01597604663881222
13.972,-0.01597700826052923
13.976,-0.015977729476816988
13.98,-0.015975830273925892
13.984,-0.01597330601691874
13.988,-0.015975012895466434
13.992,-0.01597486865220888
13.996,-0.015973642584519693
14.0,-0.015973738746691394
14.004,-0.015975205219809836
14.008000000000001,-0.01597436380080745
14.012,-0.015973738746691394
14.016,-0.015973594503433844
14.02,-0.01597244055737343
14.024000000000001,-0.01597335409800459
14.028,-0.01597496481438058
14.032,-0.015972368435744656
14.036,-0.015972680962802684
14.040000000000001,-0.015974003192663573
14.044,-0.015976190882069773
14.048,-0.015974291679178677
14.052,-0.015977705436274064
14.056000000000001,-0.01597765735518821
14.06,-0.015977849679531614
14.064,-0.015974147435921123
14.068,-0.015974940773837657
14.072000000000001,-0.015977128463243857
14.076,-0.015975325422524462
14.08,-0.015976791895642904
14.084,-0.015976527449670725
14.088000000000001,-0.01597777755790284
14.092,-0.0159785949363623
14.096,-0.015976936138900454
14.1,-0.015975661990125414
14.104000000000001,-0.015975421584696163
14.108,-0.01597289732768901
14.112,-0.015971911665429075
14.116,-0.015972152070858326
14.120000000000001,-0.015972680962802684
14.124,-0.01597270500334561
14.128,-0.01597147893565642
14.132,-0.015972993489860712
14.136000000000001,-0.015975710071211267
14.14,-0.015976118760440996
14.144,-0.015973666625062617
14.148,-0.01597162317891397
14.152000000000001,-0.01597345026017629
14.156,-0.015976190882069773
14.16,-0.01597614280098392
14.164,-0.01597664765238535
14.168000000000001,-0.015975830273925892
14.172,-0.015975445625239088
14.176,-0.015975157138723984
14.18,-0.01597345026017629
14.184000000000001,-0.015968666192134166
14.188,-0.01597056539502526
14.192,-0.015972320354658804
14.196,-0.015973426219633366
14.200000000000001,-0.015975661990125414
14.204,-0.015973834908863095
14.208,-0.015971719341085672
14.212,-0.01597046923285356
14.216000000000001,-0.01597147893565642
14.22,-0.015971358732941792
14.224,-0.01597034903013893
14.228,-0.015969940340909202
14.232000000000001,-0.015973233895289964
14.236,-0.01597371470614847
14.24,-0.01597554178741079
14.244,-0.015974147435921123
14.248000000000001,-0.015971070246426692
14.252,-0.01597075771936866
14.256,-0.01597340217909044
14.26,-0.01597806604441794
14.264000000000001,-0.01597806604441794
14.268,-0.01597700826052923
14.272,-0.01597828240930427
14.276,-0.015977753517359913
14.280000000000001,-0.015975277341438613
14.284,-0.015972873287146087
14.288,-0.01597426763863575
14.292,-0.01597347430071922
14.296000000000001,-0.015972103989772477
14.3,-0.01597280116551731
14.304,-0.01597573411175419
14.308,-0.015977609274102363
14.312000000000001,-0.015975325422524462
14.316,-0.015972464597916354
14.32,-0.01597503693600936
14.324,-0.015977272706501407
14.328000000000001,-0.015976166841526845
14.332,-0.015976864017271677
14.336,-0.015976599571299502
14.34,-0.015975878355011745
14.344,-0.01597539754415324
14.348,-0.015977080382158008
14.352,-0.015978210287675494
14.356,-0.015979027666134953
14.36,-0.01597746503084481
14.364,-0.015975565827953713
14.368,-0.015975181179266912
14.372,-0.015973594503433844
14.376,-0.015973065611489486
14.38,-0.015974003192663573
14.384,-0.015972079949229553
14.388,-0.015972248233030027
14.392,-0.015974652287322554
14.396,-0.015976888057814605
14.4,-0.01597756119301651
14.404,-0.015976767855099976
14.408,-0.015976671692928275
14.412,-0.01597893150396325
14.416,-0.015978811301248626
14.42,-0.015979268071564204
14.424,-0.015981359598798702
14.428,-0.015981696166399658
14.432,-0.015981840409657208
14.436,-0.015981696166399658
14.44,-0.015979628679708084
14.444,-0.01597796988224624
14.448,-0.015976767855099976
14.452,-0.015976719774014127
14.456,-0.01597818624713257
14.46,-0.015978210287675494
14.464,-0.015977993922789167
14.468,-0.015977032301072155
14.472,-0.015976719774014127
14.476,-0.01597782563898869
14.48,-0.01598176828802843
14.484,-0.015982561625944965
14.488,-0.01598212889617231
14.492,-0.015980950909568973
14.496,-0.015983090517889324
14.5,-0.015982922234088846
14.504,-0.0159810711122836
14.508000000000001,-0.015979941206766112
14.512,-0.015981095152826526
14.516,-0.015978522814733522
14.52,-0.015973907030491872
14.524000000000001,-0.0159764072469561
14.528,-0.015978546855276447
14.532,-0.015977993922789167
14.536,-0.01597732078758726
14.540000000000001,-0.015977272706501407
14.544,-0.015979796963508562
14.548,-0.015982970315174694
14.552,-0.015979556558079307
14.556000000000001,-0.015978811301248626
14.56,-0.015979027666134953
14.564,-0.015977272706501407
14.568,-0.015974796530580107
14.572000000000001,-0.015978546855276447
14.576,-0.015980229693281216
14.58,-0.01597929211210713
14.584,-0.015979436355364682
14.588000000000001,-0.015979821004051487
14.592,-0.015979051706677877
14.596,-0.01597806604441794
14.6,-0.015980638382510945
14.604000000000001,-0.01598212889617231
14.608,-0.015981311517712853
14.612,-0.015981311517712853
14.616,-0.015980542220339244
14.620000000000001,-0.015982369301601563
14.624,-0.01598217697725816
14.628,-0.015981359598798702
14.632,-0.015982657788116666
14.636000000000001,-0.015984172342320958
14.64,-0.015982104855629387
14.644,-0.015981696166399658
14.648,-0.015982994355717622
14.652000000000001,-0.015985350328924296
14.656,-0.015981215355541152
14.66,-0.01598162404477088
14.664,-0.015979556558079307
14.668000000000001,-0.015979965247309037
14.672,-0.015981479801513328
14.676,-0.0159811672744553
14.68,-0.01598340304494735
14.684000000000001,-0.01598285011246007
14.688,-0.015980397977081694
14.692,-0.015980806666311423
14.696,-0.01598239334214449
14.700000000000001,-0.015984172342320958
14.704,-0.01598681680204274
14.708,-0.01598681680204274
14.712,-0.015985326288381372
14.716000000000001,-0.015983258801689798
14.72,-0.01598268182865959
14.724,-0.015982369301601563
14.728,-0.015981335558255778
14.732000000000001,-0.015978955544506176
14.736,-0.01597796988224624
14.74,-0.01597732078758726
14.744,-0.015978811301248626
14.748000000000001,-0.015981191314998228
14.752,-0.01598193657182891
14.756,-0.01598167212585673
14.76,-0.015983186680061025
14.764000000000001,-0.01598422042340681
14.768,-0.015983739612548304
14.772,-0.015986023464126205
14.776,-0.015985566693810623
14.780000000000001,-0.01598578305869695
14.784,-0.015986840842585663
14.788,-0.01598446082883606
14.792,-0.015982777990831292
14.796000000000001,-0.015980422017624618
14.8,-0.01597929211210713
14.804,-0.01597777755790284
14.808,-0.015978042003875016
14.812000000000001,-0.015976383206413175
14.816,-0.015975758152297116
14.82,-0.01597604663881222
14.824,-0.01597756119301651
14.828000000000001,-0.01597496481438058
14.832,-0.015973017530403637
14.836,-0.015973257935832888
14.84,-0.015974556125150852
14.844000000000001,-0.01597498885492351
14.848,-0.015974796530580107
14.852,-0.015976022598269295
14.856,-0.015976383206413175
14.86,-0.015976287044241474
14.864,-0.015974243598092824
14.868,-0.015973281976375816
14.872,-0.015975661990125414
14.876,-0.01597436380080745
14.88,-0.015974748449494255
14.884,-0.015975686030668342
14.888,-0.015976479368584876
14.892,-0.01597700826052923
14.896,-0.01597768139573114
14.9,-0.015976791895642904
14.904,-0.015975710071211267
14.908,-0.015977224625415558
14.912,-0.01597792180116039
14.916,-0.01597756119301651
14.92,-0.01597765735518821
14.924,-0.01597496481438058
14.928,-0.01597549370632494
14.932,-0.01597486865220888
14.936,-0.015975277341438613
14.94,-0.0159764072469561
14.944,-0.015977705436274064
14.948,-0.015978643017448148
14.952,-0.015981143233912375
14.956,-0.015979772922965634
14.96,-0.015977080382158008
14.964,-0.01597787372007454
14.968,-0.015980446058167543
14.972,-0.015979412314821757
14.976,-0.015978715139076925
14.98,-0.015976070679355144
14.984,-0.015975710071211267
14.988,-0.015975325422524462
14.992,-0.015974772490037183
14.996,-0.01597549370632494
15.0,-0.015975950476640518
15.004,-0.015979003625592028
15.008000000000001,-0.01597960463916516
15.012,-0.015978114125503793
15.016,-0.015978643017448148
15.02,-0.015979532517536383
15.024000000000001,-0.015978402612018897
15.028,-0.01597732078758726
15.032,-0.015976479368584876
15.036,-0.01597768139573114
15.040000000000001,-0.01597751311193066
15.044,-0.015976527449670725
15.048,-0.01597604663881222
15.052,-0.01597539754415324
15.056000000000001,-0.015975926436097593
15.06,-0.015979316152650056
15.064,-0.01597924403102128
15.068,-0.015977489071387737
15.072000000000001,-0.01597818624713257
15.076,-0.0159790757472208
15.08,-0.015980686463596797
15.084,-0.015979003625592028
15.088000000000001,-0.015977729476816988
15.092,-0.01597806604441794
15.096,-0.015976671692928275
15.1,-0.01597563794958249
15.104000000000001,-0.015974892692751808
15.108,-0.015975878355011745
15.112,-0.015976070679355144
15.116,-0.01597604663881222
15.120000000000001,-0.01597354642234799
15.124,-0.015974748449494255
15.128,-0.01597486865220888
15.132,-0.015978402612018897
15.136000000000001,-0.015976118760440996
15.14,-0.01597234439520173
15.144,-0.01597376278723432
15.148,-0.01597354642234799
15.152000000000001,-0.015976599571299502
15.156,-0.015975205219809836
15.16,-0.015975109057638135
15.164,-0.015975469665782012
15.168000000000001,-0.01597496481438058
15.172,-0.015972272273572955
15.176,-0.01597188762488615
15.18,-0.015974556125150852
15.184000000000001,-0.015974387841350378
15.188,-0.01597335409800459
15.192,-0.015973113692575338
15.196,-0.015971935705972
15.200000000000001,-0.015972969449317788
15.204,-0.015972152070858326
15.208,-0.015973522381805067
15.212,-0.015975950476640518
15.216000000000001,-0.015975782192840043
15.22,-0.01597792180116039
15.224,-0.01597498885492351
15.228,-0.015973594503433844
15.232000000000001,-0.015975950476640518
15.236,-0.015973185814204115
15.24,-0.015970300949053082
15.244,-0.01597085388154036
15.248000000000001,-0.015971599138371047
15.252,-0.015971334692398868
15.256,-0.015970589435568186
15.26,-0.015969579732765325
15.264000000000001,-0.01597335409800459
15.268,-0.01597513309818106
15.272,-0.015976190882069773
15.276,-0.01597397915212065
15.280000000000001,-0.01597503693600936
15.284,-0.015974604206236705
15.288,-0.015975277341438613
15.292,-0.015970829840997437
15.296000000000001,-0.015968882557020492
15.3,-0.015971334692398868
15.304,-0.015968377705619062
15.308,-0.015965781326983133
15.312000000000001,-0.01596731992173035
15.316,-0.015965516881010954
15.32,-0.015966430421642114
15.324,-0.015968618111048313
15.328000000000001,-0.01596873831376294
15.332,-0.01596751224607375
15.336,-0.015965661124268508
15.34,-0.01596667082707137
15.344000000000001,-0.015968497908333688
15.348,-0.01596986821928043
15.352,-0.015968570029962464
15.356,-0.015969219124621445
15.36,-0.015972007827600776
15.364,-0.015972320354658804
15.368,-0.01596873831376294
15.372,-0.015967031435215245
15.376,-0.015967464164987902
15.38,-0.015970180746338457
15.384,-0.01597020478688138
15.388,-0.015966214056755787
15.392,-0.01596558900263973
15.396,-0.015966021732412385
15.4,-0.015966190016212863
15.404,-0.015967944975846405
15.408,-0.01596751224607375
15.412,-0.01596715163792987
15.416,-0.015964050407892512
15.42,-0.015964386975493468
15.424,-0.015965276475581703
15.428,-0.01596361767811986
15.432,-0.015965108191781225
15.436,-0.01596681507032892
15.44,-0.015966622745985516
15.444,-0.015967343962273273
15.448,-0.01596777669204593
15.452,-0.015966694867614293
15.456,-0.01596664678652844
15.46,-0.015966526583813815
15.464,-0.01596522839449585
15.468,-0.015965853448611907
15.472,-0.0159676564893313
15.476,-0.015965420718839253
15.48,-0.015965973651326536
15.484,-0.015966791029785994
15.488,-0.015966983354129397
15.492,-0.015970228827424306
15.496,-0.015970276908510158
15.5,-0.015971046205883764
15.504,-0.01596777669204593
15.508000000000001,-0.015966021732412385
15.512,-0.015967584367702528
15.516,-0.015967103556844022
15.52,-0.015966622745985516
15.524000000000001,-0.01596823346236151
15.528,-0.01596573324589728
15.532,-0.015966190016212863
15.536,-0.015965685164811432
15.540000000000001,-0.01596371384029156
15.544,-0.01596381000246326
15.548,-0.015965372637753404
15.552,-0.01596234352934482
15.556000000000001,-0.015962271407716045
15.56,-0.015963497475405233
15.564,-0.015964771624180273
15.568,-0.015965613043182655
15.572000000000001,-0.015965709205354357
15.576,-0.015964435056579317
15.58,-0.01596275221857455
15.584,-0.015964771624180273
15.588000000000001,-0.01596457929983687
15.592,-0.01596306474563258
15.596,-0.015963785961920336
15.6,-0.01596626213784164
15.604000000000001,-0.015964459097122245
15.608,-0.0159628964618321
15.612,-0.015965444759382177
15.616,-0.01596691123250062
15.620000000000001,-0.01596421869169299
15.624,-0.015964867786351974
15.628,-0.015963882124092037
15.632,-0.015962103123915567
15.636000000000001,-0.01596417061060714
15.64,-0.015966839110871843
15.644,-0.015965949610783608
15.648,-0.015964002326806663
15.652000000000001,-0.015962872421289177
15.656,-0.015963016664546727
15.66,-0.015966622745985516
15.664,-0.01596681507032892
15.668000000000001,-0.01596667082707137
15.672,-0.015969459530050696
15.676,-0.01596950761113655
15.68,-0.015969387408421923
15.684000000000001,-0.015966069813498237
15.688,-0.015964699502551496
15.692,-0.015965468799925105
15.696,-0.015966526583813815
15.700000000000001,-0.01596417061060714
15.704,-0.01596573324589728
15.708,-0.015968906597563417
15.712,-0.01597162317891397
15.716000000000001,-0.015971310651855943
15.72,-0.015969555692222397
15.724,-0.015968065178561034
15.728,-0.015967392043359126
15.732000000000001,-0.015965468799925105
15.736,-0.015964771624180273
15.74,-0.015965156272867077
15.744,-0.015966021732412385
15.748000000000001,-0.015966574664899667
15.752,-0.015964603340379795
15.756,-0.01596626213784164
15.76,-0.015969459530050696
15.764000000000001,-0.015968882557020492
15.768,-0.01596777669204593
15.772,-0.01596808921910396
15.776,-0.015969387408421923
15.780000000000001,-0.01597051731393941
15.784,-0.015969772057108728
15.788,-0.015968906597563417
15.792,-0.015970084584166756
15.796000000000001,-0.015971959746514924
15.8,-0.015972320354658804
15.804,-0.015971334692398868
15.808,-0.015971454895113493
15.812000000000001,-0.01597075771936866
15.816,-0.015968065178561034
15.82,-0.015964747583637345
15.824,-0.015966310218927488
15.828000000000001,-0.01596828154344736
15.832,-0.015968377705619062
15.836,-0.01596635830001334
15.84,-0.015963377272690607
15.844000000000001,-0.015964050407892512
15.848,-0.015963425353776456
15.852,-0.015965252435038775
15.856,-0.01596715163792987
15.860000000000001,-0.01596626213784164
15.864,-0.015968113259646883
15.868,-0.015967584367702528
15.872,-0.01596650254327089
15.876,-0.015968377705619062
15.88,-0.015968618111048313
15.884,-0.01596801709747518
15.888,-0.01596686315141477
15.892,-0.01596539667829633
15.896,-0.015968545989419537
15.9,-0.01596986821928043
15.904,-0.01597051731393941
15.908,-0.015969026800278042
15.912,-0.015967993056932257
15.916,-0.015967103556844022
15.92,-0.01597020478688138
15.924,-0.015968954678649266
15.928,-0.01596691123250062
15.932,-0.015969026800278042
15.936,-0.015968810435391716
15.94,-0.015969675894937026
15.944,-0.01596950761113655
15.948,-0.01596933932733607
15.952,-0.01596818538127566
15.956,-0.015967536286616676
15.96,-0.01596513223232415
15.964,-0.015962968583460878
15.968,-0.015963882124092037
15.972,-0.015962776259117475
15.976,-0.015964459097122245
15.98,-0.015964026367349587
15.984,-0.01596823346236151
15.988,-0.015970276908510158
15.992,-0.015969627813851174
15.996,-0.015969267205707297
16.0,-0.015969122962449744
16.004,-0.015967632448788377
16.008,-0.015966622745985516
16.012,-0.015964843745809046
16.016000000000002,-0.015966382340556265
16.02,-0.015964507178208093
16.024,-0.015964459097122245
16.028,-0.01596462738092272
16.032,-0.01596626213784164
16.036,-0.01596681507032892
16.04,-0.01596768052987423
16.044,-0.01596626213784164
16.048000000000002,-0.01596361767811986
16.052,-0.015966214056755787
16.056,-0.01596777669204593
16.06,-0.015969074881363895
16.064,-0.015966622745985516
16.068,-0.015967536286616676
16.072,-0.015969675894937026
16.076,-0.015967752651503003
16.080000000000002,-0.01596575728644021
16.084,-0.015965661124268508
16.088,-0.01596655062435674
16.092,-0.015965300516124627
16.096,-0.01596539667829633
16.1,-0.015966214056755787
16.104,-0.015967488205530827
16.108,-0.015966622745985516
16.112000000000002,-0.015966983354129397
16.116,-0.015966190016212863
16.12,-0.01596554092155388
16.124,-0.015967488205530827
16.128,-0.015967632448788377
16.132,-0.01596700739467232
16.136,-0.015965829408068982
16.14,-0.01596818538127566
16.144000000000002,-0.015966430421642114
16.148,-0.015965468799925105
16.152,-0.01596609385404116
16.156,-0.015966935273043544
16.16,-0.01596705547575817
16.164,-0.015967704570417154
16.168,-0.015966334259470413
16.172,-0.015962968583460878
16.176000000000002,-0.01596361767811986
16.18,-0.01596354555649108
16.184,-0.015965012029609524
16.188,-0.015967223759558648
16.192,-0.01596705547575817
16.196,-0.015964362934950543
16.2,-0.01596330515106183
16.204,-0.015965180313410002
16.208000000000002,-0.015966430421642114
16.212,-0.015966430421642114
16.216,-0.015965564962096807
16.22,-0.015965348597210476
16.224,-0.015965180313410002
16.228,-0.01596700739467232
16.232,-0.01596768052987423
16.236,-0.015964242732235914
