time,channel3
0.0,-0.01184458317493397
0.004,-0.011844511053305194
0.008,-0.011845184188507102
0.012,-0.01184595348588071
0.016,-0.011846698742711393
0.02,-0.011847155513026973
0.024,-0.011847107431941123
0.028,-0.011847131472484049
0.032,-0.011847395918456226
0.036000000000000004,-0.011846939148140646
0.04,-0.01184600156696656
0.044,-0.011845015904706624
0.048,-0.011845088026335401
0.052000000000000005,-0.011845184188507102
0.056,-0.011846217931852887
0.06,-0.011846025607509487
0.064,-0.011844559134391044
0.068,-0.01184371771538866
0.07200000000000001,-0.01184357347213111
0.076,-0.01184352539104526
0.08,-0.01184371771538866
0.084,-0.011843741755931586
0.088,-0.01184352539104526
0.092,-0.011844318728961791
0.096,-0.011845088026335401
0.1,-0.011846145810224112
0.10400000000000001,-0.011846674702168469
0.108,-0.011847251675198674
0.112,-0.011847131472484049
0.116,-0.011847131472484049
0.12,-0.01184741995899915
0.124,-0.01184732379682745
0.128,-0.011847299756284525
0.132,-0.011847828648228882
0.136,-0.011848357540173236
0.14,-0.011848838351031742
0.14400000000000002,-0.011850232702521408
0.148,-0.011851194324238418
0.152,-0.011851242405324269
0.156,-0.011851963621612026
0.16,-0.01185189149998325
0.164,-0.011851506851296446
0.168,-0.011851963621612026
0.17200000000000001,-0.011852276148670054
0.176,-0.0118518434188974
0.18,-0.01185088179718039
0.184,-0.011850184621435557
0.188,-0.011849631688948276
0.192,-0.011849054715918069
0.196,-0.011848525823973713
0.2,-0.011848309459087386
0.20400000000000001,-0.011847828648228882
0.20800000000000002,-0.011847804607685955
0.212,-0.011846506418367991
0.216,-0.011845881364251935
0.22,-0.011846434296739216
0.224,-0.011846193891309963
0.228,-0.011845256310135877
0.232,-0.01184458317493397
0.23600000000000002,-0.011844559134391044
0.24,-0.01184403024244669
0.244,-0.0118428041747575
0.248,-0.011842948418015052
0.252,-0.011843549431588184
0.256,-0.01184326094507308
0.26,-0.011842876296386277
0.264,-0.011842034877383893
0.268,-0.011840977093495181
0.272,-0.011840255877207422
0.276,-0.011839534660919665
0.28,-0.011839342336576263
0.28400000000000003,-0.011839270214947488
0.28800000000000003,-0.01183919809331871
0.292,-0.011838909606803607
0.296,-0.011838332633773402
0.3,-0.011838837485174832
0.304,-0.011839294255490412
0.308,-0.011838332633773402
0.312,-0.011837130606627139
0.316,-0.011836120903824278
0.32,-0.011835303525364818
0.324,-0.011835087160478491
0.328,-0.011835087160478491
0.332,-0.011835087160478491
0.336,-0.011834870795592164
0.34,-0.011834654430705837
0.34400000000000003,-0.011834606349619987
0.34800000000000003,-0.01183412553876148
0.352,-0.011834053417132706
0.356,-0.011833692808988825
0.36,-0.011833139876501544
0.364,-0.011832947552158142
0.368,-0.011832562903471339
0.372,-0.01183184168718358
0.376,-0.011830639660037317
0.38,-0.011829389551805203
0.384,-0.011828812578774998
0.388,-0.011828716416603297
0.392,-0.011828572173345745
0.396,-0.011828091362487239
0.4,-0.01182869237606037
0.404,-0.011828884700403773
0.40800000000000003,-0.011828836619317922
0.41200000000000003,-0.011829221268004727
0.41600000000000004,-0.011829846322120785
0.42,-0.011829653997777382
0.424,-0.011829894403206634
0.428,-0.01182996652483541
0.432,-0.011830134808635887
0.436,-0.011830447335693916
0.44,-0.011829653997777382
0.444,-0.011829702078863233
0.448,-0.011830014605921261
0.452,-0.011829653997777382
0.456,-0.011829101065290101
0.46,-0.011829365511262279
0.464,-0.011828812578774998
0.468,-0.011828668335517446
0.47200000000000003,-0.011828524092259894
0.47600000000000003,-0.011827850957057988
0.48,-0.011827754794886286
0.484,-0.011826961456969752
0.488,-0.011826552767740023
0.492,-0.011827442267828258
0.496,-0.011828451970631119
0.5,-0.011828163484116016
0.504,-0.011828115403030165
0.508,-0.011827923078686763
0.512,-0.011827466308371183
0.516,-0.011826168119053218
0.52,-0.01182539882167961
0.524,-0.011823499618788515
0.528,-0.011821792740240821
0.532,-0.011820590713094558
0.536,-0.011819845456263875
0.54,-0.011818979996718566
0.544,-0.011817898172286928
0.548,-0.011816888469484067
0.552,-0.011815590280166103
0.556,-0.011814460374648615
0.56,-0.011813907442161334
0.5640000000000001,-0.011813138144787726
0.5680000000000001,-0.011813210266416501
0.5720000000000001,-0.011813354509674053
0.5760000000000001,-0.011814532496277392
0.58,-0.011814628658449093
0.584,-0.011814123807047662
0.588,-0.011813787239446708
0.592,-0.011813570874560381
0.596,-0.011813378550216979
0.6,-0.01181438825301984
0.604,-0.011815109469307597
0.608,-0.011815830685595356
0.612,-0.011816527861340189
0.616,-0.011816503820797263
0.62,-0.01181626341536801
0.624,-0.011816335536996786
0.628,-0.01181626341536801
0.632,-0.011814869063878344
0.636,-0.011813138144787726
0.64,-0.011811719752755136
0.644,-0.011810998536467377
0.648,-0.011811623590583435
0.652,-0.011813378550216979
0.656,-0.011814820982792495
0.66,-0.01181626341536801
0.664,-0.011816503820797263
0.668,-0.011815950888309982
0.672,-0.011815974928852908
0.676,-0.011816696145140665
0.68,-0.011817297158713796
0.684,-0.011817056753284544
0.6880000000000001,-0.01181635957753971
0.6920000000000001,-0.011815710482880729
0.6960000000000001,-0.011815542199080252
0.7000000000000001,-0.011815205631479298
0.704,-0.011815013307135896
0.708,-0.01181484502333542
0.712,-0.01181397956379011
0.716,-0.011813739158360858
0.72,-0.011811912077098537
0.724,-0.011811599550040509
0.728,-0.011811094698639078
0.732,-0.011810686009409349
0.736,-0.011811094698639078
0.74,-0.011811214901353706
0.744,-0.011811815914926837
0.748,-0.01181215248252779
0.752,-0.011813090063701875
0.756,-0.01181393148270426
0.76,-0.01181438825301984
0.764,-0.01181434017193399
0.768,-0.01181438825301984
0.772,-0.011813811279989633
0.776,-0.011812729455557997
0.78,-0.011811623590583435
0.784,-0.011811359144611256
0.788,-0.011811767833840987
0.792,-0.011811671671669285
0.796,-0.011811383185154182
0.8,-0.011811262982439555
0.804,-0.011811383185154182
0.808,-0.011811022577010303
0.812,-0.011811022577010303
0.8160000000000001,-0.011810974495924453
0.8200000000000001,-0.011811094698639078
0.8240000000000001,-0.011810613887780574
0.8280000000000001,-0.011810421563437172
0.8320000000000001,-0.011810157117464993
0.836,-0.011810060955293291
0.84,-0.0118015025220119
0.844,-0.011801911211241628
0.848,-0.011802608386986461
0.852,-0.011803449805988844
0.856,-0.011802872832958639
0.86,-0.011801839089612852
0.864,-0.01180205545449918
0.868,-0.011802223738299656
0.872,-0.011801526562554824
0.876,-0.011802488184271834
0.88,-0.011802752630244013
0.884,-0.011802632427529386
0.888,-0.011802680508615236
0.892,-0.011802031413956254
0.896,-0.011800997670610469
0.9,-0.011800709184095365
0.904,-0.011800805346267066
0.908,-0.011801406359840198
0.912,-0.011803209400559593
0.916,-0.011803834454675649
0.92,-0.0118038825357615
0.924,-0.011803738292503948
0.928,-0.011803714251961023
0.932,-0.011803065157302041
0.936,-0.01180251222481476
0.9400000000000001,-0.011801983332870403
0.9440000000000001,-0.011802392022100133
0.9480000000000001,-0.011802175657213806
0.9520000000000001,-0.011802127576127955
0.9560000000000001,-0.011802199697756732
0.96,-0.011803449805988844
0.964,-0.011804747995306808
0.968,-0.011805132643993613
0.972,-0.011805036481821912
0.976,-0.011805228806165314
0.98,-0.011805685576480894
0.984,-0.01180611830625355
0.988,-0.011806767400912532
0.992,-0.011807656901000765
0.996,-0.011808858928147028
1.0,-0.011808858928147028
1.004,-0.011808618522717777
1.008,-0.01180895509031873
1.012,-0.011809147414662132
1.016,-0.011808858928147028
1.02,-0.011808402157831448
1.024,-0.011808161752402197
1.028,-0.011808065590230496
1.032,-0.011807801144258317
1.036,-0.011807969428058795
1.04,-0.011806959725255934
1.044,-0.011806887603627157
1.048,-0.011807152049599335
1.052,-0.011806478914397428
1.056,-0.011806358711682802
1.06,-0.011806695279283755
1.064,-0.011806046184624773
1.068,-0.011805781738652595
1.072,-0.011806238508968175
1.076,-0.011806454873854502
1.08,-0.011805252846708239
1.084,-0.011805084562907762
1.088,-0.011804555670963408
1.092,-0.011804002738476127
1.096,-0.011803834454675649
1.1,-0.0118038825357615
1.104,-0.011804243143905378
1.108,-0.01180438738716293
1.112,-0.011804555670963408
1.116,-0.011805036481821912
1.12,-0.011804579711506332
1.124,-0.011802993035673264
1.1280000000000001,-0.011802223738299656
1.1320000000000001,-0.011801983332870403
1.1360000000000001,-0.011801839089612852
1.1400000000000001,-0.011800877467895841
1.1440000000000001,-0.011799723521835429
1.1480000000000001,-0.011799579278577877
1.1520000000000001,-0.011799579278577877
1.156,-0.011799891805635905
1.16,-0.011800805346267066
1.164,-0.011800468778666112
1.168,-0.011799002305547672
1.172,-0.01179799260274481
1.176,-0.0117971271431995
1.18,-0.011796309764740042
1.184,-0.01179575683225276
1.188,-0.01179515581867963
1.192,-0.011794675007821123
1.196,-0.011794939453793302
1.2,-0.011794266318591394
1.204,-0.01179301621035928
1.208,-0.011791910345384718
1.212,-0.011791309331811587
1.216,-0.011790612156066754
1.22,-0.011790011142493622
1.224,-0.011789241845120015
1.228,-0.011787534966572321
1.232,-0.011786092533996805
1.236,-0.011784914547393466
1.24,-0.011784145250019858
1.244,-0.011783472114817952
1.248,-0.011782678776901418
1.252,-0.011782774939073119
1.256,-0.011783351912103324
1.26,-0.011783231709388699
1.264,-0.011782654736358492
1.268,-0.01178236624984339
1.272,-0.011782125844414137
1.276,-0.011781356547040527
1.28,-0.0117810440199825
1.284,-0.011780803614553246
1.288,-0.011780394925323517
1.292,-0.01177972179012161
1.296,-0.011779385222520656
1.3,-0.01177962562794991
1.304,-0.011779745830664535
1.308,-0.011779553506321132
1.312,-0.011780010276636712
1.316,-0.011780803614553246
1.32,-0.011781861398441958
1.324,-0.011782774939073119
1.328,-0.011783183628302848
1.332,-0.011783183628302848
1.336,-0.011782967263416521
1.34,-0.011783760601333054
1.344,-0.011784962628479317
1.348,-0.011786284858340207
1.352,-0.011787703250372797
1.356,-0.01178835234503178
1.36,-0.011788184061231303
1.364,-0.011788304263945929
1.368,-0.011788929318061987
1.372,-0.011789265885662939
1.3760000000000001,-0.011788785074804435
1.3800000000000001,-0.011788544669375182
1.3840000000000001,-0.011788977399147837
1.3880000000000001,-0.011789794777607296
1.3920000000000001,-0.011790540034437979
1.3960000000000001,-0.011791237210182812
1.4000000000000001,-0.011791669939955465
1.4040000000000001,-0.011790996804753559
1.408,-0.011789722655978519
1.412,-0.011788640831546883
1.416,-0.011788929318061987
1.42,-0.011789338007291716
1.424,-0.011788977399147837
1.428,-0.011788640831546883
1.432,-0.011788568709918106
1.436,-0.011788929318061987
1.44,-0.011789217804577088
1.444,-0.01178977073706437
1.448,-0.011789987101950698
1.452,-0.011790419831723352
1.456,-0.011790371750637501
1.46,-0.01179082852095308
1.464,-0.011791213169639886
1.468,-0.011791742061584242
1.472,-0.011791333372354513
1.476,-0.011790900642581858
1.48,-0.011791333372354513
1.484,-0.011790756399324306
1.488,-0.011790347710094577
1.492,-0.01179032366955165
1.496,-0.011789842858693146
1.5,-0.011788953358604911
1.504,-0.011788256182860078
1.508,-0.011787222439514291
1.512,-0.011786645466484086
1.516,-0.011786597385398235
1.52,-0.01178652526376946
1.524,-0.01178657334485531
1.528,-0.01178652526376946
1.532,-0.011787727290915723
1.536,-0.011789386088377566
1.54,-0.01179013134520825
1.544,-0.011789890939778997
1.548,-0.011791429534526212
1.552,-0.01179210266972812
1.556,-0.011792030548099344
1.56,-0.01179210266972812
1.564,-0.01179296812927343
1.568,-0.01179342489958901
1.572,-0.011793665305018262
1.576,-0.011793641264475338
1.58,-0.011793088331988057
1.584,-0.01179342489958901
1.588,-0.011792896007644655
1.592,-0.011792030548099344
1.596,-0.011791862264298868
1.6,-0.011791405493983288
1.604,-0.011790972764210633
1.608,-0.011791189129096961
1.612,-0.011790612156066754
1.616,-0.01178936204783464
1.62,-0.011788135980145453
1.624,-0.011787775372001574
1.6280000000000001,-0.011786885871913339
1.6320000000000001,-0.011785371317709048
1.6360000000000001,-0.011784602020335438
1.6400000000000001,-0.011783520195903802
1.6440000000000001,-0.011783496155360876
1.6480000000000001,-0.011783856763504755
1.6520000000000001,-0.011783760601333054
1.6560000000000001,-0.011783351912103324
1.6600000000000001,-0.011782726857987268
1.6640000000000001,-0.011782197966042912
1.668,-0.011781813317356107
1.672,-0.011781837357899033
1.676,-0.011781284425411752
1.68,-0.011781212303782975
1.684,-0.01178159695246978
1.688,-0.011781933520070734
1.692,-0.011781837357899033
1.696,-0.01178200564169951
1.7,-0.011782077763328286
1.704,-0.011781765236270258
1.708,-0.011781356547040527
1.712,-0.011781236344325902
1.716,-0.011780611290209844
1.72,-0.011778808249490449
1.724,-0.01177738985745786
1.728,-0.011777510060172487
1.732,-0.011777654303430037
1.736,-0.011777558141258337
1.74,-0.011777558141258337
1.744,-0.011778038952116841
1.748,-0.01177839956026072
1.752,-0.011778327438631945
1.756,-0.011777149452028606
1.76,-0.011776115708682821
1.764,-0.011775875303253568
1.768,-0.011775274289680436
1.772,-0.011775755100538942
1.776,-0.011776308033026223
1.78,-0.011776259951940373
1.784,-0.011775634897824315
1.788,-0.011775418532937988
1.792,-0.011776548438455475
1.796,-0.011777269654743234
1.8,-0.011777269654743234
1.804,-0.011777630262887112
1.808,-0.011778159154831469
1.812,-0.011777822587230515
1.816,-0.011777846627773439
1.82,-0.011777245614200307
1.824,-0.011776644600627176
1.828,-0.011776957127685206
1.832,-0.011777005208771054
1.836,-0.011778111073745618
1.84,-0.0117788563305763
1.844,-0.01177926501980603
1.848,-0.011779289060348955
1.852,-0.011778784208947525
1.856,-0.011778111073745618
1.86,-0.011777750465601738
1.864,-0.01177789470885929
1.868,-0.011777870668316365
1.872,-0.011777221573657383
1.8760000000000001,-0.011777630262887112
1.8800000000000001,-0.011778519762975347
1.8840000000000001,-0.011778736127861674
1.8880000000000001,-0.011779433303606507
1.8920000000000001,-0.011780322803694742
1.8960000000000001,-0.011781308465954677
1.9000000000000001,-0.011781380587583453
1.9040000000000001,-0.011780947857810798
1.9080000000000001,-0.011781308465954677
1.9120000000000001,-0.011781572911926856
1.9160000000000001,-0.011781837357899033
1.92,-0.011782606655272641
1.924,-0.011782149884957061
1.928,-0.011781452709212228
1.932,-0.011780611290209844
1.936,-0.011780923817267874
1.94,-0.011780803614553246
1.944,-0.01178058724966692
1.948,-0.011780274722608891
1.952,-0.011780394925323517
1.956,-0.011781164222697127
1.96,-0.011781837357899033
1.964,-0.011782678776901418
1.968,-0.011783640398618428
1.972,-0.011783255749931623
1.976,-0.011783231709388699
1.98,-0.011783760601333054
1.984,-0.01178424141219156
1.988,-0.01178428949327741
1.992,-0.01178433757436326
1.996,-0.011784049087848157
2.0,-0.011782847060701894
2.004,-0.011782582614729717
2.008,-0.011783087466131147
2.012,-0.011783424033732101
2.016,-0.011783616358075502
2.02,-0.011783496155360876
2.024,-0.011783520195903802
2.028,-0.011783520195903802
2.032,-0.011783928885133532
2.036,-0.011784962628479317
2.04,-0.01178611657453973
2.044,-0.011787414763857694
2.048,-0.0117878955747162
2.052,-0.011787150317885516
2.056,-0.011787342642228919
2.06,-0.011786885871913339
2.064,-0.011786501223226534
2.068,-0.01178616465562558
2.072,-0.011786020412368028
2.076,-0.01178570788531
2.08,-0.011785058790651018
2.084,-0.011784193331105709
2.088,-0.011783399993189175
2.092,-0.011783087466131147
2.096,-0.011783231709388699
2.1,-0.011783520195903802
2.104,-0.011783496155360876
2.108,-0.011783880804047681
2.112,-0.011783616358075502
2.116,-0.011783688479704279
2.12,-0.011783183628302848
2.124,-0.01178282302015897
2.128,-0.011781933520070734
2.132,-0.011781765236270258
2.136,-0.011781188263240051
2.14,-0.011780923817267874
2.144,-0.011781284425411752
2.148,-0.011780779574010322
2.152,-0.011779986236093788
2.156,-0.01177972179012161
2.16,-0.01177940926306358
2.164,-0.011778591884604122
2.168,-0.01177835147917487
2.172,-0.011778471681889497
2.176,-0.0117787601684046
2.18,-0.011777510060172487
2.184,-0.0117764763168267
2.188,-0.011775634897824315
2.192,-0.011773952059819548
2.196,-0.011772509627244031
2.2,-0.011771259519011918
2.204,-0.011770057491865655
2.208,-0.011768350613317961
2.212,-0.011766932221285368
2.216,-0.011765057058937198
2.22,-0.01176351846418998
2.224,-0.011762773207359297
2.228,-0.011761402896412558
2.232,-0.01176128269369793
2.236,-0.011761667342384735
2.24,-0.01176210007215739
2.244,-0.01176210007215739
2.248,-0.011762484720844193
2.2520000000000002,-0.01176301361278855
2.2560000000000002,-0.011763566545275831
2.2600000000000002,-0.011763806950705084
2.2640000000000002,-0.01176448008590699
2.2680000000000002,-0.011765057058937198
2.2720000000000002,-0.011765585950881553
2.2760000000000002,-0.011766186964454684
2.2800000000000002,-0.011766932221285368
2.2840000000000003,-0.011766836059113666
2.2880000000000003,-0.01176611484282591
2.2920000000000003,-0.01176529746436645
2.2960000000000003,-0.011764600288621618
2.3000000000000003,-0.011764167558848963
2.3040000000000003,-0.011764287761563588
2.308,-0.01176493685622257
2.312,-0.011765489788709851
2.316,-0.011765609991424479
2.32,-0.011766355248255162
2.324,-0.011766932221285368
2.328,-0.01176729282942925
2.332,-0.011767268788886323
2.336,-0.011767413032143875
2.34,-0.011767148586171694
2.344,-0.01176707646454292
2.348,-0.011767413032143875
2.352,-0.011767893843002381
2.356,-0.011768494856575513
2.36,-0.011768422734946736
2.364,-0.011768975667434017
2.368,-0.011768879505262316
2.372,-0.01176871122146184
2.376,-0.011768591018747212
2.38,-0.011767893843002381
2.384,-0.011766643734770264
2.388,-0.011765321504909375
2.392,-0.011764768572422094
2.396,-0.011763782910162158
2.4,-0.011762388558672492
2.404,-0.011761450977498408
2.408,-0.011761042288268679
2.412,-0.011759335409720984
2.416,-0.01175794105823132
2.42,-0.01175671499054213
2.424,-0.011756017814797298
2.428,-0.011756234179683626
2.432,-0.011755681247196345
2.436,-0.011754671544393483
2.44,-0.01175351759833307
2.444,-0.011752796382045313
2.448,-0.011751690517070751
2.452,-0.011750488489924488
2.456,-0.011749118178977747
2.46,-0.011748060395089036
2.464,-0.011747291097715428
2.468,-0.011746786246313997
2.472,-0.01174625735436964
2.476,-0.011744983205594603
2.48,-0.011743300367589833
2.484,-0.011742170462072347
2.488,-0.011741449245784588
2.492,-0.011741256921441188
2.496,-0.011741425205241664
2.5,-0.011740968434926084
2.504,-0.011740463583524654
2.508,-0.011739886610494446
2.512,-0.011738780745519884
2.516,-0.011737771042717024
2.52,-0.011738275894118454
2.524,-0.011739574083436418
2.528,-0.011740703988953905
2.532,-0.01174154540795629
2.536,-0.0117425070296733
2.54,-0.01174291571890303
2.544,-0.011743733097362489
2.548,-0.011744069664963443
2.552,-0.011744406232564395
2.556,-0.011744598556907798
2.56,-0.011744069664963443
2.564,-0.011743660975733714
2.568,-0.011743252286503983
2.572,-0.011743228245961058
2.576,-0.01174281955673133
2.58,-0.011741978137728945
2.584,-0.011741617529585066
2.588,-0.011742146421529421
2.592,-0.011742386826958674
2.596,-0.011742386826958674
2.6,-0.011742675313473777
2.604,-0.01174281955673133
2.608,-0.011742771475645479
2.612,-0.011742218543158198
2.616,-0.011741809853928468
2.62,-0.011740511664610504
2.624,-0.011740006813209074
2.628,-0.011740102975380773
2.632,-0.01173976640777982
2.636,-0.01173890094823451
2.64,-0.011738275894118454
2.644,-0.011737290231858518
2.648,-0.01173656901557076
2.652,-0.01173647285339906
2.656,-0.011735439110053272
2.66,-0.011733852434220206
2.664,-0.011733203339561224
2.668,-0.011732482123273465
2.672,-0.01173236192055884
2.676,-0.011731616663728156
2.68,-0.01173094352852625
2.684,-0.011730799285268698
2.688,-0.011730919487983323
2.692,-0.011730366555496042
2.696,-0.011729741501379986
2.7,-0.011729741501379986
2.704,-0.011729909785180462
2.708,-0.011729092406721004
2.712,-0.011728106744461068
2.716,-0.011727601893059637
2.72,-0.01172748169034501
2.724,-0.01172702492002943
2.728,-0.01172683259568603
2.732,-0.01172656814971385
2.736,-0.011725919055054868
2.74,-0.011725390163110513
2.744,-0.011724909352252007
2.748,-0.011725125717138334
2.7520000000000002,-0.011725245919852962
2.7560000000000002,-0.011725486325282215
2.7600000000000002,-0.011725750771254392
2.7640000000000002,-0.011725919055054868
2.7680000000000002,-0.01172606329831242
2.7720000000000002,-0.011725702690168541
2.7760000000000002,-0.011724741068451531
2.7800000000000002,-0.011723611162934043
2.7840000000000003,-0.011723346716961866
2.7880000000000003,-0.011723587122391119
2.7920000000000003,-0.011722769743931659
2.7960000000000003,-0.011722793784474585
2.8000000000000003,-0.011722024487100977
2.8040000000000003,-0.011720654176154236
2.8080000000000003,-0.011718995378692393
2.8120000000000003,-0.011717649108288578
2.816,-0.01171565374322578
2.82,-0.011715004648566799
2.824,-0.011713850702506386
2.828,-0.011714018986306864
2.832,-0.01171464404042292
2.836,-0.011714451716079518
2.84,-0.011714571918794145
2.844,-0.011714764243137547
2.848,-0.011715293135081902
2.852,-0.011714668080965846
2.856,-0.01171368241870591
2.86,-0.011713490094362507
2.864,-0.011713297770019105
2.868,-0.011713658378162984
2.872,-0.011713369891647882
2.876,-0.011713898783592237
2.88,-0.011713586256534209
2.884,-0.011712937161875226
2.888,-0.011712648675360123
2.892,-0.011712528472645497
2.896,-0.0117127207969889
2.9,-0.011713778580877611
2.904,-0.011714980608023874
2.908,-0.01171555758105408
2.912,-0.011716254756798912
2.916,-0.011716903851457895
2.92,-0.011716783648743269
2.924,-0.011716302837884763
2.928,-0.01171565374322578
2.932,-0.011714980608023874
2.936,-0.011713417972733732
2.94,-0.011712600594274272
2.944,-0.01171226402667332
2.948,-0.011710701391383176
2.952,-0.011709234918264736
2.956,-0.011709186837178885
2.96,-0.011708489661434052
2.964,-0.011707816526232146
2.968,-0.011708489661434052
2.972,-0.0117083454181765
2.976,-0.011708970472292558
2.98,-0.011709379161522288
2.984,-0.011709956134552495
2.988,-0.011710436945410999
2.992,-0.011710148458895895
2.996,-0.011710100377810045
3.0,-0.011710845634640728
3.004,-0.011711013918441206
3.008,-0.011711158161698758
3.012,-0.011711566850928487
3.016,-0.011711278364413383
3.02,-0.011712167864501619
3.024,-0.011712047661786991
3.028,-0.01171180725635774
3.032,-0.011711206242784608
3.036,-0.011710364823782224
3.04,-0.011709932094009569
3.044,-0.011709258958807662
3.048,-0.011708850269577931
3.052,-0.011709691688580316
3.056,-0.011710124418352971
3.06,-0.011710773513011953
3.064,-0.011711158161698758
3.068,-0.011711374526585085
3.072,-0.011712672715903049
3.076,-0.011713850702506386
3.08,-0.01171368241870591
3.084,-0.011713898783592237
3.088,-0.011714163229564416
3.092,-0.011713802621420535
3.096,-0.011713658378162984
3.1,-0.01171327372947618
3.104,-0.0117127207969889
3.108,-0.011712288067216244
3.112,-0.011712360188845021
3.116,-0.011713321810562031
3.12,-0.011713129486218629
3.124,-0.011713538175448358
3.128,-0.011714499797165368
3.132,-0.01171587010811211
3.136,-0.011716639405485717
3.14,-0.011716855770372044
3.144,-0.011716735567657418
3.148,-0.011716615364942793
3.152,-0.011716567283856942
3.156,-0.01171642304059939
3.16,-0.011716543243314016
3.164,-0.011717264459601773
3.168,-0.011717769311003205
3.172,-0.011718129919147084
3.176,-0.011718658811091439
3.18,-0.011719380027379198
3.184,-0.011719500230093823
3.188,-0.011718851135434841
3.192,-0.011718129919147084
3.196,-0.011717697189374428
3.2,-0.011717504865031026
3.204,-0.01171687981091497
3.208,-0.011717072135258372
3.212,-0.011717528905573952
3.216,-0.011717817392089056
3.22,-0.011717865473174905
3.224,-0.011717601027202727
3.228,-0.011717312540687624
3.232,-0.011716615364942793
3.236,-0.011716182635170137
3.24,-0.011715894148655034
3.244,-0.0117151008107385
3.248,-0.011714018986306864
3.2520000000000002,-0.01171363433762006
3.2560000000000002,-0.011713345851104956
3.2600000000000002,-0.011712961202418153
3.2640000000000002,-0.01171231210775917
3.2680000000000002,-0.011710917756269505
3.2720000000000002,-0.011710244621067597
3.2760000000000002,-0.011710412904868074
3.2800000000000002,-0.011710797553554878
3.2840000000000003,-0.01171094179681243
3.2880000000000003,-0.011711470688756786
3.2920000000000003,-0.01171175917527189
3.2960000000000003,-0.01171195149961529
3.3000000000000003,-0.011712047661786991
3.3040000000000003,-0.011711566850928487
3.3080000000000003,-0.011711566850928487
3.3120000000000003,-0.011711134121155832
3.3160000000000003,-0.011710677350840252
3.3200000000000003,-0.01170957148586569
3.3240000000000003,-0.011709403202065214
3.3280000000000003,-0.011709643607494465
3.332,-0.011709258958807662
3.336,-0.011708994512835483
3.34,-0.011708633904691604
3.344,-0.011708080972204323
3.348,-0.011708417539805277
3.352,-0.011708129053290174
3.356,-0.011707768445146295
3.36,-0.0117083454181765
3.364,-0.011708561783062829
3.368,-0.011707984810032622
3.372,-0.011708225215461875
3.376,-0.01170820117491895
3.38,-0.011707984810032622
3.384,-0.011707552080259968
3.388,-0.011707071269401462
3.392,-0.011706951066686837
3.396,-0.011706350053113705
3.4,-0.0117059654044269
3.404,-0.011705893282798124
3.408,-0.011705172066510366
3.412,-0.011704667215108936
3.416,-0.011704811458366488
3.42,-0.011703945998821179
3.424,-0.011703104579818794
3.428,-0.011702912255475392
3.432,-0.011703200741990495
3.436,-0.011703344985248047
3.44,-0.011702479525702737
3.444,-0.011702191039187635
3.448,-0.011701926593215456
3.452,-0.01170231124190226
3.456,-0.011702022755387157
3.46,-0.011701830431043754
3.464,-0.011701565985071577
3.468,-0.011700700525526268
3.472,-0.011700989012041372
3.476,-0.011701686187786203
3.48,-0.011702455485159812
3.484,-0.011702840133846615
3.488,-0.011701710228329129
3.492,-0.01170002739032436
3.496,-0.01169865707937762
3.5,-0.011697863741461086
3.504,-0.011697983944175714
3.508,-0.01169774353874646
3.512,-0.011698032025261563
3.516,-0.011697983944175714
3.52,-0.011696974241372851
3.524,-0.011696493430514347
3.528,-0.011696805957572375
3.532,-0.01169687807920115
3.536,-0.011697262727887955
3.54,-0.011697503133317208
3.544,-0.011696565552143122
3.548,-0.011695195241196383
3.552,-0.011694522105994474
3.556,-0.0116944499843657
3.56,-0.011694786551966653
3.564,-0.011694257660022297
3.568,-0.011693897051878418
3.572,-0.011694065335678894
3.576,-0.011694065335678894
3.58,-0.011693247957219436
3.584,-0.011692646943646304
3.588,-0.011692142092244874
3.592,-0.011691733403015145
3.596,-0.011691733403015145
3.6,-0.011691565119214667
3.604,-0.011690603497497657
3.608,-0.011690651578583507
3.612,-0.011690290970439629
3.616,-0.01169033905152548
3.62,-0.011691036227270312
3.624,-0.011690483294783031
3.628,-0.011689449551437244
3.632,-0.011688055199947579
3.636,-0.011687478226917373
3.64,-0.01168718974040227
3.644,-0.011686588726829138
3.648,-0.011685939632170156
3.652,-0.011685170334796548
3.656,-0.011684809726652668
3.66,-0.011684136591450761
3.664,-0.011683872145478584
3.668,-0.011684280834708313
3.672,-0.011684713564480968
3.676,-0.011684641442852192
3.68,-0.011684401037422939
3.684,-0.011683367294077153
3.688,-0.011681924861501637
3.692,-0.011681444050643131
3.696,-0.01167942464503741
3.7,-0.011677597563775089
3.704,-0.011676155131199574
3.708,-0.011674929063510385
3.712,-0.011673823198535823
3.716,-0.011673678955278271
3.72,-0.01167353471202072
3.724,-0.011673751076907048
3.728,-0.011674712698624058
3.732,-0.011674784820252833
3.736,-0.011674472293194805
3.74,-0.011674183806679702
3.744,-0.01167384723907875
3.748,-0.011674736739166983
3.7520000000000002,-0.011676131090656648
3.7560000000000002,-0.011677862009747268
3.7600000000000002,-0.011678943834178904
3.7640000000000002,-0.011679568888294961
3.7680000000000002,-0.011679761212638364
3.7720000000000002,-0.011679641009923736
3.7760000000000002,-0.011679616969380812
3.7800000000000002,-0.01168043434784027
3.7840000000000003,-0.011680193942411017
3.7880000000000003,-0.011679400604494483
3.7920000000000003,-0.01167952080720911
3.7960000000000003,-0.011679328482865708
3.8000000000000003,-0.011679376563951559
3.8040000000000003,-0.011679304442322784
3.8080000000000003,-0.011678342820605772
3.8120000000000003,-0.011677260996174136
3.8160000000000003,-0.01167750140160339
3.8200000000000003,-0.011677958171918969
3.8240000000000003,-0.011679136158522306
3.8280000000000003,-0.011680145861325167
3.8320000000000003,-0.01168084303707
3.8360000000000003,-0.011680698793812448
3.84,-0.01167988141535299
3.844,-0.011679665050466663
3.848,-0.01167952080720911
3.852,-0.011678799590921352
3.856,-0.011677765847575567
3.86,-0.011677477361060463
3.864,-0.011677309077259987
3.868,-0.011677429279974613
3.872,-0.011677429279974613
3.876,-0.011677573523232164
3.88,-0.011677405239431688
3.884,-0.01167728503671706
3.888,-0.01167673210422978
3.892,-0.011676107050113724
3.896,-0.011675481995997666
3.9,-0.011675554117626443
3.904,-0.011675433914911815
3.908,-0.011675506036540592
3.912,-0.01167531371219719
3.916,-0.011675241590568413
3.92,-0.01167531371219719
3.924,-0.011675794523055694
3.928,-0.011675746441969845
3.932,-0.01167536179328304
3.936,-0.011675409874368891
3.94,-0.011675602198712293
3.944,-0.01167622725282835
3.948,-0.01167774180703264
3.952,-0.011678583226035025
3.956,-0.01167851110440625
3.96,-0.011679112117979382
3.964,-0.011679400604494483
3.968,-0.011679328482865708
3.972,-0.01167901595580768
3.976,-0.011678078374633595
3.98,-0.011677477361060463
3.984,-0.011678102415176521
3.988,-0.011678823631464278
3.992,-0.011679352523408635
3.996,-0.011680217982953944
4.0,-0.011680266064039794
4.0040000000000004,-0.011679665050466663
4.008,-0.011680242023496868
4.0120000000000005,-0.011680722834355374
4.016,-0.011680482428926121
4.0200000000000005,-0.011680722834355374
4.024,-0.011680266064039794
4.0280000000000005,-0.011679496766666185
4.032,-0.011679256361236933
4.0360000000000005,-0.011679280401779858
4.04,-0.01167947272612326
4.0440000000000005,-0.011679184239608157
4.048,-0.01167851110440625
4.0520000000000005,-0.011678030293547744
4.056,-0.011677621604318015
4.0600000000000005,-0.011677092712373658
4.064,-0.011676419577171752
4.0680000000000005,-0.01167581856359862
4.072,-0.011676034928484947
4.0760000000000005,-0.011675962806856172
4.08,-0.011676419577171752
4.0840000000000005,-0.011676467658257602
4.088,-0.011676203212285425
4.0920000000000005,-0.011676515739343453
4.096,-0.011676635942058079
4.1,-0.011677164834002435
4.104,-0.011677212915088286
4.108,-0.011677381198888762
4.112,-0.011678102415176521
4.116,-0.011678102415176521
4.12,-0.01167718887454536
4.124,-0.011676756144772706
4.128,-0.011676179171742499
4.132,-0.011675674320341068
4.136,-0.01167531371219719
4.14,-0.011674664617538208
4.144,-0.011673702995821197
4.148,-0.011672909657904663
4.152,-0.011671948036187653
4.156,-0.011672356725417382
4.16,-0.011672957738990514
4.164,-0.01167317410387684
4.168,-0.011673823198535823
4.172,-0.011674159766136777
4.176,-0.011673294306591468
4.18,-0.011672837536275887
4.184,-0.011672765414647112
4.188,-0.01167257309030371
4.192,-0.01167257309030371
4.196,-0.01167317410387684
4.2,-0.011672789455190036
4.204,-0.011672933698447588
4.208,-0.01167384723907875
4.212,-0.011674111685050927
4.216,-0.011673775117449972
4.22,-0.011673342387677319
4.224,-0.011673005820076365
4.228,-0.011672452887589084
4.232,-0.011671515306414998
4.236,-0.011671731671301325
4.24,-0.011671539346957924
4.244,-0.011671563387500848
4.248,-0.01167125086044282
4.252,-0.011671226819899894
4.256,-0.011671899955101803
4.26,-0.011671779752387175
4.264,-0.011672500968674934
4.268,-0.011672549049760785
4.272,-0.0116717076307584
4.276,-0.011671948036187653
4.28,-0.011671972076730578
4.284,-0.011672500968674934
4.288,-0.011672428847046157
4.292,-0.01167125086044282
4.296,-0.011669375698094649
4.3,-0.01166800538714791
4.304,-0.01166668315728702
4.308,-0.011666202346428515
4.312,-0.011666538914029469
4.316,-0.011666899522173348
4.32,-0.011666154265342664
4.324,-0.011665144562539803
4.328,-0.011664543548966672
4.332,-0.011664567589509596
4.336,-0.011664495467880821
4.34,-0.011664976278739326
4.344,-0.011666538914029469
4.348,-0.011666851441087497
4.352,-0.011666466792400692
4.356,-0.01166613022479974
4.36,-0.011665457089597831
4.364,-0.011665240724711505
4.368,-0.011665336886883206
4.372,-0.011665264765254429
4.376,-0.011665168603082728
4.38,-0.011665000319282252
4.384,-0.011664495467880821
4.388,-0.011663750211050138
4.392,-0.011662836670418978
4.396,-0.011661971210873668
4.4,-0.011661947170330743
4.404,-0.011662235656845847
4.408,-0.011662235656845847
4.412,-0.011661971210873668
4.416,-0.011661562521643938
4.42,-0.011661995251416594
4.424,-0.01166317323801993
4.428,-0.011663654048878437
4.432,-0.011663413643449184
4.436,-0.011662692427161427
4.44,-0.011661730805444416
4.444,-0.011660576859384004
4.448,-0.011659807562010394
4.452,-0.011659446953866516
4.456,-0.011658581494321207
4.46,-0.011657018859031065
4.464,-0.01165526389939752
4.468,-0.011654422480395136
4.472,-0.011653797426279078
4.476,-0.0116534368181352
4.48,-0.011653508939763977
4.484,-0.011653460858678126
4.488,-0.011654061872251258
4.492,-0.011654566723652688
4.496,-0.011654326318223435
4.5,-0.011653749345193228
4.5040000000000004,-0.01165394166953663
4.508,-0.011653749345193228
4.5120000000000005,-0.011653508939763977
4.516,-0.011652691561304516
4.5200000000000005,-0.011652354993703562
4.524,-0.011652595399132815
4.5280000000000005,-0.011652643480218666
4.532,-0.011653004088362545
4.5360000000000005,-0.011653581061392752
4.54,-0.011653076209991321
4.5440000000000005,-0.011653172372163022
4.548,-0.011653196412705947
4.5520000000000005,-0.011652306912617713
4.556,-0.011651946304473833
4.5600000000000005,-0.011651994385559684
4.564,-0.011651946304473833
4.5680000000000005,-0.011652162669360162
4.572,-0.011651657817958731
4.5760000000000005,-0.011651032763842674
4.58,-0.011650600034070018
4.5840000000000005,-0.011650912561128048
4.588,-0.011651032763842674
4.5920000000000005,-0.011651705899044582
4.596,-0.011652835804562068
4.6000000000000005,-0.011652859845104994
4.604,-0.011652691561304516
4.6080000000000005,-0.011652859845104994
4.612,-0.011653052169448395
4.616,-0.011653917628993706
4.62,-0.01165466288582439
4.624,-0.011655432183197997
4.628,-0.011655864912970652
4.632,-0.011655961075142352
4.636,-0.01165668229143011
4.64,-0.011657283305003242
4.644,-0.011658004521291
4.648,-0.011658004521291
4.652,-0.011658196845634402
4.656,-0.011657716034775898
4.66,-0.011657187142831541
4.664,-0.011656802494144736
4.668,-0.011655504304826772
4.672,-0.011655239858854595
4.676,-0.011655384102112146
4.68,-0.011656033196771129
4.684,-0.011656514007629635
4.688,-0.011657379467174944
4.692,-0.011657740075318822
4.696,-0.011658485332149505
4.7,-0.011659062305179711
4.704,-0.011659687359295769
4.708,-0.011660480697212303
4.712,-0.011660721102641556
4.716,-0.011660769183727404
4.72,-0.011660624940469854
4.724,-0.011660889386442032
4.728,-0.011660937467527882
4.732,-0.011660192210697199
4.736,-0.011658293007806103
4.74,-0.011657283305003242
4.744,-0.01165749966988957
4.748,-0.01165759583206127
4.752,-0.011657956440205149
4.756,-0.011657619872604197
4.76,-0.01165668229143011
4.764,-0.011656754413058886
4.768,-0.011656009156228202
4.772,-0.011655071575054118
4.776,-0.011654494602023911
4.78,-0.011654470561480987
4.784,-0.011654614804738539
4.788,-0.011655095615597043
4.792,-0.011656033196771129
4.796,-0.011656393804915007
4.8,-0.01165663421034426
4.804,-0.011657283305003242
4.808,-0.011658124724005627
4.812,-0.011658341088891954
4.816,-0.011658268967263179
4.82,-0.011658028561833926
4.824,-0.011657836237490523
4.828,-0.011657764115861747
4.832,-0.011657764115861747
4.836,-0.011657571791518346
4.84,-0.011656706331973035
4.844,-0.011656033196771129
4.848,-0.011656538048172559
4.852,-0.011656562088715483
4.856,-0.01165617744002868
4.86,-0.01165658612925841
4.864,-0.011657163102288615
4.868,-0.01165617744002868
4.872,-0.011655792791341876
4.876,-0.011656465926543784
4.88,-0.011656826534687663
4.884,-0.01165709098065984
4.888,-0.011656562088715483
4.892,-0.011655504304826772
4.896,-0.011655143696682893
4.9,-0.011655744710256025
4.904,-0.011656441886000858
4.908,-0.011657451588803719
4.912,-0.011658076642919776
4.916,-0.01165850937269243
4.92,-0.01165901422409386
4.924,-0.011658845940293384
4.928,-0.011658605534864131
4.932,-0.011658845940293384
4.936,-0.011659711399838693
4.94,-0.0116602883728689
4.944,-0.011659615237666992
4.948,-0.011659086345722637
4.952,-0.01165831704834903
4.956,-0.011657475629346645
4.96,-0.011656465926543784
4.964,-0.011655937034599427
4.968,-0.01165663421034426
4.972,-0.011657259264460316
4.976,-0.01165709098065984
4.98,-0.011657908359119298
4.984,-0.011658725737578758
4.988,-0.01165891806192216
4.992,-0.01165901422409386
4.996,-0.011658365129434878
5.0,-0.011658581494321207
5.0040000000000004,-0.011658749778121683
5.008,-0.01165850937269243
5.0120000000000005,-0.011658653615949982
5.016,-0.011659110386265562
5.0200000000000005,-0.011659639278209918
5.024,-0.011660192210697199
5.0280000000000005,-0.011660168170154273
5.032,-0.011659182507894338
5.0360000000000005,-0.011657764115861747
5.04,-0.011656441886000858
5.0440000000000005,-0.011655864912970652
5.048,-0.011655912994056503
5.0520000000000005,-0.0116557206697131
5.056,-0.011654927331796567
5.0600000000000005,-0.011654542683109762
5.064,-0.011653340655963499
5.0680000000000005,-0.01165293196673377
5.072,-0.011652859845104994
5.0760000000000005,-0.011653244493791797
5.08,-0.011653196412705947
5.0840000000000005,-0.011652787723476218
5.088,-0.011652787723476218
5.0920000000000005,-0.01165252327750404
5.096,-0.011652354993703562
5.1000000000000005,-0.011653220453248873
5.104,-0.011654158034422957
5.1080000000000005,-0.011654879250710716
5.112,-0.011654518642566837
5.1160000000000005,-0.011654206115508808
5.12,-0.01165398975062248
5.124,-0.011654686926367314
5.128,-0.011653917628993706
5.132,-0.011652258831531863
5.136,-0.011651393371986552
5.14,-0.011650624074612944
5.144,-0.011650672155698795
5.148,-0.011651537615244104
5.152,-0.011650864480042197
5.156,-0.01164937396638083
5.16,-0.011647931533805314
5.164,-0.011647667087833137
5.168,-0.011647017993174155
5.172,-0.011646513141772724
5.176,-0.0116466814255732
5.18,-0.01164612849308592
5.184,-0.011644878384853806
5.188,-0.01164348403336414
5.192,-0.011642498371104206
5.196,-0.011641584830473044
5.2,-0.011641440587215494
5.204,-0.01164059916821311
5.208,-0.011639156735637594
5.212,-0.011638122992291807
5.216,-0.011637618140890376
5.22,-0.011637642181433303
5.224,-0.011638291276092285
5.228,-0.011639517343781472
5.232,-0.011640791492556512
5.236,-0.011641392506129644
5.24,-0.011641849276445224
5.244,-0.011642594533275907
5.248,-0.01164297918196271
5.252,-0.011642810898162234
5.256,-0.01164252241164713
5.26,-0.01164297918196271
5.264,-0.011643532114449991
5.268,-0.011644181209108973
5.272,-0.011643820600965095
5.276,-0.011643315749563664
5.28,-0.011642955141419786
5.284,-0.011642618573818831
5.288,-0.01164297918196271
5.292,-0.011643051303591487
5.296,-0.01164297918196271
5.3,-0.011642209884589102
5.304,-0.011641128060157465
5.308,-0.011640382803326781
5.312,-0.011639926033011202
5.316,-0.011639853911382426
5.32,-0.01163927693835222
5.324,-0.011639036532922968
5.328,-0.01163891633020834
5.332,-0.011639805830296576
5.336,-0.01164055108712726
5.34,-0.011640310681698006
5.344,-0.0116396375464961
5.348,-0.011639084614008819
5.352,-0.011640070276268753
5.356,-0.011640959776356988
5.36,-0.011640478965498482
5.364,-0.011641488668301345
5.368,-0.011641849276445224
5.372,-0.011641825235902297
5.376,-0.011640791492556512
5.38,-0.01164009431681168
5.384,-0.0116398298708395
5.388,-0.011639493303238548
5.392,-0.011639012492380042
5.396,-0.011638675924779088
5.4,-0.011638531681521536
5.404,-0.011638892289665416
5.408,-0.011639709668124875
5.412,-0.011640166438440454
5.416,-0.011640983816899913
5.42,-0.011642113722417401
5.424,-0.011643075344134411
5.428,-0.01164348403336414
5.432,-0.011643964844222646
5.436,-0.011644133128023123
5.44,-0.011644926465939657
5.444,-0.011645599601141565
5.448,-0.011645960209285443
5.452,-0.011646344857972247
5.456,-0.011646513141772724
5.46,-0.01164562364168449
5.464,-0.011643676357707543
5.468,-0.011642089681874477
5.472,-0.01164151270884427
5.476,-0.01164059916821311
5.48,-0.01164009431681168
5.484,-0.011640262600612156
5.488,-0.01164059916821311
5.492,-0.011641007857442839
5.496,-0.011641079979071614
5.5,-0.011641200181786241
5.5040000000000004,-0.011640791492556512
5.508,-0.011640575127670184
5.5120000000000005,-0.01164115210070039
5.516,-0.011642137762960325
5.5200000000000005,-0.011642883019791009
5.524,-0.011643652317164618
5.5280000000000005,-0.011643508073907067
5.532,-0.011642955141419786
5.5360000000000005,-0.011642450290018355
5.54,-0.01164196947915985
5.5440000000000005,-0.011641584830473044
5.548,-0.011642041600788626
5.5520000000000005,-0.01164160887101597
5.556,-0.01164064724929896
5.5600000000000005,-0.011640046235725829
5.564,-0.011639012492380042
5.5680000000000005,-0.011638050870663032
5.572,-0.011636848843516769
5.5760000000000005,-0.011636343992115338
5.58,-0.011636007424514384
5.5840000000000005,-0.01163475731628227
5.588,-0.01163420438379499
5.5920000000000005,-0.011633867816194035
5.596,-0.011633675491850634
5.6000000000000005,-0.011635069843340298
5.604,-0.011635574694741729
5.6080000000000005,-0.011636055505600235
5.612,-0.011636151667771936
5.6160000000000005,-0.011635526613655878
5.62,-0.011635430451484179
5.6240000000000006,-0.011636392073201189
5.628,-0.011637281573289424
5.632,-0.011637161370574797
5.636,-0.01163689692460262
5.64,-0.011636464194829964
5.644,-0.011635646816370505
5.648,-0.011634396708138392
5.652,-0.011633988018908662
5.656,-0.011633988018908662
5.66,-0.01163333892424968
5.664,-0.011633362964792605
5.668,-0.011634324586509615
5.672,-0.011634829437911047
5.676,-0.011634516910853017
5.68,-0.011634324586509615
5.684,-0.011634180343252065
5.688,-0.011634276505423766
5.692,-0.011634564991938868
5.696,-0.011635358329855402
5.7,-0.011636608438087516
5.704,-0.011637233492203573
5.708,-0.011637281573289424
5.712,-0.011637930667948404
5.716,-0.011637930667948404
5.72,-0.011637329654375273
5.724,-0.011637281573289424
5.728,-0.011637329654375273
5.732,-0.01163648823537289
5.736,-0.01163644015428704
5.74,-0.01163612762722901
5.744,-0.011635358329855402
5.748,-0.011635430451484179
5.752,-0.011635911262342683
5.756,-0.011636055505600235
5.76,-0.011636512275915814
5.764,-0.011636872884059693
5.768,-0.011637690262519153
5.772,-0.01163790662740548
5.776,-0.011637089248946022
5.78,-0.011636464194829964
5.784,-0.011636319951572412
5.788,-0.01163644015428704
5.792,-0.01163617570831486
5.796,-0.01163567085691343
5.8,-0.011634901559539822
5.804,-0.011634661154110569
5.808,-0.011635093883883224
5.812,-0.01163567085691343
5.816,-0.011636007424514384
5.82,-0.01163607954614316
5.824,-0.011635959343428533
5.828,-0.01163603146505731
5.832,-0.011636007424514384
5.836,-0.01163521408659785
5.84,-0.011635093883883224
5.844,-0.011634925600082746
5.848,-0.011634540951395943
5.852,-0.011634613073024718
5.856,-0.011634853478453971
5.86,-0.011635045802797374
5.864,-0.011635190046054926
5.868,-0.011635190046054926
5.872,-0.011635598735284655
5.876,-0.011636512275915814
5.88,-0.01163694500568847
5.884,-0.011637089248946022
5.888,-0.011637209451660647
5.892,-0.01163740177600405
5.896,-0.011636824802973842
5.9,-0.011636680559716292
5.904,-0.011636800762430918
5.908,-0.011636752681345067
5.912,-0.011637281573289424
5.916,-0.011638195113920584
5.92,-0.011638459559892761
5.924,-0.011638171073377657
5.928,-0.011637185411117723
5.932,-0.011635887221799758
5.936,-0.011634372667595465
5.94,-0.011633939937822812
5.944,-0.011632689829590698
5.948,-0.011631632045701987
5.952,-0.01163206477547464
5.956,-0.01163206477547464
5.96,-0.011632136897103417
5.964,-0.011632954275562876
5.968,-0.011634348627052541
5.972,-0.011634901559539822
5.976,-0.011635502573112954
5.98,-0.011635887221799758
5.984,-0.011636824802973842
5.988,-0.01163831531663521
5.992,-0.01163882016803664
5.996,-0.011639228857266369
6.0,-0.011639757749210725
6.0040000000000004,-0.011640238560069231
6.008,-0.011640983816899913
6.0120000000000005,-0.01164156078993012
6.016,-0.011641897357531074
6.0200000000000005,-0.01164156078993012
6.024,-0.011640959776356988
6.0280000000000005,-0.011640767452013586
6.032,-0.011641007857442839
6.0360000000000005,-0.011641729073730596
6.04,-0.011641801195359373
6.0440000000000005,-0.011640743411470662
6.048,-0.011640695330384811
6.0520000000000005,-0.011640695330384811
6.056,-0.011640310681698006
6.0600000000000005,-0.011640478965498482
6.064,-0.011641536749387194
6.0680000000000005,-0.011641656952101821
6.072,-0.011641536749387194
6.0760000000000005,-0.011641849276445224
6.08,-0.011642089681874477
6.0840000000000005,-0.011642810898162234
6.088,-0.011642666654904682
6.0920000000000005,-0.011641416546672568
6.096,-0.011640887654728213
6.1000000000000005,-0.011640935735814062
6.104,-0.011641536749387194
6.1080000000000005,-0.011641656952101821
6.112,-0.011641656952101821
6.1160000000000005,-0.011641680992644746
6.12,-0.011641801195359373
6.1240000000000006,-0.01164110401961454
6.128,-0.01164115210070039
6.132000000000001,-0.011641656952101821
6.136,-0.011640935735814062
6.140000000000001,-0.011640406843869707
6.144,-0.011640118357354604
6.148,-0.01163968562758195
6.152,-0.011640046235725829
6.156,-0.011640358762783857
6.16,-0.01164059916821311
6.164,-0.011640166438440454
6.168,-0.011639204816723444
6.172,-0.011638627843693237
6.176,-0.011639445222152697
6.18,-0.011640503006041409
6.184,-0.011641200181786241
6.188,-0.011641801195359373
6.192,-0.011641945438616925
6.196,-0.011641584830473044
6.2,-0.01164156078993012
6.204,-0.011641248262872092
6.208,-0.011640406843869707
6.212,-0.011639877951925351
6.216,-0.011639445222152697
6.22,-0.011639733708667799
6.224,-0.011639300978895145
6.228,-0.01163882016803664
6.232,-0.011639036532922968
6.236,-0.011639084614008819
6.24,-0.011638844208579566
6.244,-0.011638724005864938
6.248,-0.011638219154463508
6.252,-0.011638098951748882
6.256,-0.011638195113920584
6.26,-0.011638844208579566
6.264,-0.011639733708667799
6.268,-0.011640406843869707
6.272,-0.011640238560069231
6.276,-0.011639541384324398
6.28,-0.011638892289665416
6.284,-0.011638772086950789
6.288,-0.011638507640978612
6.292,-0.01163836339772106
6.296,-0.011638772086950789
6.3,-0.011638844208579566
6.304,-0.011638964411294191
6.308,-0.011639757749210725
6.312,-0.011639853911382426
6.316,-0.011639901992468277
6.32,-0.011639877951925351
6.324,-0.01164014239789753
6.328,-0.01164009431681168
6.332,-0.01164059916821311
6.336,-0.011641416546672568
6.34,-0.01164206564133155
6.344,-0.011642137762960325
6.348,-0.011641945438616925
6.352,-0.011642955141419786
6.356,-0.011643964844222646
6.36,-0.011644613938881629
6.364,-0.011644565857795778
6.368,-0.011644734141596254
6.372,-0.01164521495245476
6.376,-0.011645335155169386
6.38,-0.011645888087656667
6.384,-0.011644902425396732
6.388,-0.011644830303767955
6.392,-0.011644734141596254
6.396,-0.01164471010105333
6.4,-0.011644589898338702
6.404,-0.011643411911735365
6.408,-0.01164257049273298
6.412,-0.011642618573818831
6.416,-0.011643147465763188
6.42,-0.011644517776709927
6.424,-0.011646296776886398
6.428,-0.011647306479689258
6.432,-0.011647715168918988
6.436,-0.011647282439146332
6.44,-0.011646296776886398
6.444,-0.011645815966027892
6.448,-0.01164526303354061
6.452,-0.011645527479512788
6.456,-0.011645912128199593
6.46,-0.011646032330914219
6.464,-0.011646609303944426
6.468,-0.011647017993174155
6.472,-0.011646513141772724
6.476,-0.011647186276974631
6.48,-0.011647643047290211
6.484,-0.011648292141949193
6.488,-0.011648700831178924
6.492,-0.011648748912264773
6.496,-0.01164891719606525
6.5,-0.011649133560951578
6.5040000000000004,-0.011649470128552532
6.508,-0.011649854777239337
6.5120000000000005,-0.011650600034070018
6.516,-0.0116511529665573
6.5200000000000005,-0.011651633777415805
6.524,-0.011652354993703562
6.5280000000000005,-0.011652354993703562
6.532,-0.011653076209991321
6.5360000000000005,-0.011653677223564453
6.54,-0.011654422480395136
6.5440000000000005,-0.011654975412882417
6.548,-0.01165439843985221
6.5520000000000005,-0.011654879250710716
6.556,-0.011655552385912623
6.5600000000000005,-0.011655912994056503
6.564,-0.011657163102288615
6.5680000000000005,-0.011657667953690047
6.572,-0.011658004521291
6.5760000000000005,-0.011658894021379235
6.58,-0.011658725737578758
6.5840000000000005,-0.011657980480748075
6.588,-0.01165759583206127
6.5920000000000005,-0.011657619872604197
6.596,-0.011657788156404673
6.6000000000000005,-0.011658076642919776
6.604,-0.011657667953690047
6.6080000000000005,-0.01165754775097542
6.612,-0.011658293007806103
6.6160000000000005,-0.011660168170154273
6.62,-0.01166165868381564
6.6240000000000006,-0.011662452021732174
6.628,-0.0116626683866185
6.632000000000001,-0.011661899089244893
6.636,-0.011661105751328359
6.640000000000001,-0.011660624940469854
6.644,-0.01165882189975046
6.648000000000001,-0.011657812196947597
6.652,-0.011657259264460316
6.656000000000001,-0.011656802494144736
6.66,-0.011655119656139969
6.664,-0.011654254196594658
6.668,-0.011653557020849825
6.672,-0.011653532980306901
6.676,-0.01165394166953663
6.68,-0.011654759047996089
6.684,-0.011655311980483371
6.688,-0.011656273602200382
6.692,-0.011657211183374466
6.696,-0.011657932399662225
6.7,-0.011658605534864131
6.704,-0.011659567156581141
6.708,-0.011660504737755227
6.712,-0.011661274035128837
6.716,-0.011661634643272715
6.72,-0.011661947170330743
6.724,-0.011662596264989725
6.728,-0.011663413643449184
6.732,-0.011664014657022315
6.736,-0.0116648560760247
6.74,-0.011665937900456337
6.744,-0.011665937900456337
6.748,-0.01166663507620117
6.752,-0.011667837103347433
6.756,-0.011668173670948386
6.76,-0.01166800538714791
6.764,-0.011667452454660629
6.768,-0.011667212049231376
6.772,-0.011668534279092266
6.776,-0.01166896700886492
6.78,-0.011668365995291788
6.784,-0.011667981346604983
6.788,-0.011667909224976208
6.792,-0.011669087211579547
6.796,-0.011669159333208322
6.8,-0.011668534279092266
6.804,-0.011668173670948386
6.808,-0.011668293873663013
6.812,-0.011668365995291788
6.816,-0.011667957306062059
6.82,-0.011667524576289404
6.824,-0.01166668315728702
6.828,-0.011665721535570009
6.832,-0.011665120521996877
6.836,-0.011664783954395925
6.84,-0.011665384967969056
6.844,-0.011665961940999262
6.848,-0.011666106184256814
6.852,-0.011666466792400692
6.856,-0.011666298508600216
6.86,-0.011666250427514365
6.864,-0.011666370630228991
6.868,-0.011666803360001646
6.872,-0.011667380333031852
6.876,-0.011666923562716272
6.88,-0.011666394670771917
6.884,-0.011666394670771917
6.888,-0.011666875481630421
6.892,-0.011667620738461105
6.896,-0.011668894887236145
6.9,-0.011669111252122472
6.904,-0.011669568022438051
6.908,-0.011669904590039006
6.912,-0.011669784387324378
6.916,-0.011669399738637575
6.92,-0.011668870846693219
6.924,-0.011668774684521517
6.928,-0.011669543981895127
6.932,-0.011669279535922948
6.936,-0.01166901508995077
6.94,-0.011669087211579547
6.944,-0.011669568022438051
6.948,-0.01167043348198336
6.952,-0.011671010455013568
6.956,-0.011670938333384792
6.96,-0.01167079409012724
6.964,-0.011670890252298942
6.968,-0.011670914292841866
6.972,-0.011670529644155062
6.976,-0.011669952671124856
6.98,-0.011668726603435667
6.984,-0.011668702562892742
6.988,-0.011667909224976208
6.992,-0.01166750053574648
6.996,-0.011668029427690834
7.0,-0.011668991049407846
7.0040000000000004,-0.01166947186026635
7.008,-0.011670721968498464
7.0120000000000005,-0.011671467225329147
7.016,-0.011672284603788606
7.0200000000000005,-0.011672693293018337
7.024,-0.011672789455190036
7.0280000000000005,-0.011672861576818813
7.032,-0.011672525009217859
7.0360000000000005,-0.011673294306591468
7.04,-0.011674688658081132
7.0440000000000005,-0.011675409874368891
7.048,-0.011676155131199574
7.0520000000000005,-0.011676539779886377
7.056,-0.01167668402314393
7.0600000000000005,-0.011676924428573182
7.064,-0.011677357158345837
7.0680000000000005,-0.011677717766489716
7.072,-0.011677525442146314
7.0760000000000005,-0.01167764564486094
7.08,-0.011678655347663802
7.0840000000000005,-0.011679689091009587
7.088,-0.011680145861325167
7.0920000000000005,-0.011680145861325167
7.096,-0.011680025658610541
7.1000000000000005,-0.011679112117979382
7.104,-0.01167819857734822
7.1080000000000005,-0.011677862009747268
7.112,-0.011678030293547744
7.1160000000000005,-0.011677789888118491
7.12,-0.011677068671830734
7.1240000000000006,-0.011676996550201957
7.128,-0.011678799590921352
7.132000000000001,-0.011678847672007203
7.136,-0.011678631307120876
7.140000000000001,-0.011678222617891146
7.144,-0.011677429279974613
7.148000000000001,-0.011676635942058079
7.152,-0.011676058969027873
7.156000000000001,-0.011674087644508
7.16,-0.011672813495732962
7.164000000000001,-0.011672500968674934
7.168,-0.011672500968674934
7.172,-0.011672452887589084
7.176,-0.011671948036187653
7.18,-0.011672284603788606
7.184,-0.011672404806503233
7.188,-0.011672549049760785
7.192,-0.011672813495732962
7.196,-0.011673101982248066
7.2,-0.011672404806503233
7.204,-0.011671106617185269
7.208,-0.01167069792795554
7.212,-0.011670938333384792
7.216,-0.011671178738814044
7.22,-0.011671683590215474
7.224,-0.011673053901162215
7.228,-0.0116739914823363
7.232,-0.011675025225682086
7.236,-0.011675746441969845
7.24,-0.011675794523055694
7.244,-0.01167536179328304
7.248,-0.011675674320341068
7.252,-0.011675409874368891
7.256,-0.011675145428396714
7.26,-0.011674424212108955
7.264,-0.011673246225505618
7.268,-0.01167257309030371
7.272,-0.011671923995644727
7.276,-0.011671611468586699
7.28,-0.011672500968674934
7.284,-0.011673510671477795
7.288,-0.011673799157992899
7.292,-0.01167485694188161
7.296,-0.011675626239255218
7.3,-0.011676395536628826
7.304,-0.011677260996174136
7.308,-0.011678270698976997
7.312,-0.011678799590921352
7.316,-0.011679039996350605
7.32,-0.01167851110440625
7.324,-0.01167750140160339
7.328,-0.011677020590744883
7.332,-0.011677020590744883
7.336,-0.011677837969204342
7.34,-0.011677862009747268
7.344,-0.011677477361060463
7.348,-0.01167750140160339
7.352,-0.011678150496262371
7.356,-0.01167805433409067
7.36,-0.01167718887454536
7.364,-0.011675457955454742
7.368,-0.011674472293194805
7.372,-0.01167394340125045
7.376,-0.011673871279621674
7.38,-0.01167312602279099
7.384,-0.011672308644331532
7.388,-0.011671972076730578
7.392,-0.011671851874015952
7.396,-0.011672428847046157
7.4,-0.011673053901162215
7.404,-0.011673150063333916
7.408,-0.011673462590391944
7.412,-0.01167363087419242
7.416,-0.01167394340125045
7.42,-0.0116738953201646
7.424,-0.011673967441793375
7.428,-0.011674472293194805
7.432,-0.011674712698624058
7.436,-0.01167490502296746
7.44,-0.01167526563111134
7.444,-0.01167531371219719
7.448,-0.011676395536628826
7.452,-0.011677333117802911
7.456,-0.011678150496262371
7.46,-0.01167896787472183
7.464,-0.011679208280151083
7.468,-0.01167942464503741
7.472,-0.011679713131552513
7.476,-0.011679905455895916
7.48,-0.011680818996527075
7.484,-0.011682189307473815
7.488,-0.011683391334620078
7.492,-0.011683944267107359
7.496,-0.011684280834708313
7.5,-0.011686083875427708
7.5040000000000004,-0.011686636807914989
7.508,-0.011686925294430092
7.5120000000000005,-0.01168728590257397
7.516,-0.011687790753975401
7.5200000000000005,-0.01168819944320513
7.524,-0.011688343686462682
7.5280000000000005,-0.011688391767548533
7.532,-0.01168865621352071
7.5360000000000005,-0.01168892065949289
7.54,-0.011688872578407039
7.5440000000000005,-0.01168892065949289
7.548,-0.011689137024379216
7.5520000000000005,-0.011689209146007991
7.556,-0.011689281267636768
7.5600000000000005,-0.011689569754151872
7.564,-0.011689281267636768
7.5680000000000005,-0.011689569754151872
7.572,-0.011689810159581123
7.5760000000000005,-0.011690218848810852
7.58,-0.011690242889353778
7.5840000000000005,-0.01169033905152548
7.588,-0.011689954402838675
7.5920000000000005,-0.01168942551089432
7.596,-0.011688848537864113
7.6000000000000005,-0.011688319645919758
7.604,-0.011689281267636768
7.6080000000000005,-0.011690026524467451
7.612,-0.011691492997585892
7.6160000000000005,-0.011692526740931679
7.62,-0.011693103713961884
7.6240000000000006,-0.011693175835590661
7.628,-0.011692983511247259
7.632000000000001,-0.011693103713961884
7.636,-0.01169276714636093
7.640000000000001,-0.011692622903103378
7.644,-0.01169257482201753
7.648000000000001,-0.011692911389618482
7.652,-0.011693824930249641
7.656000000000001,-0.011693656646449165
7.66,-0.011693776849163793
7.664000000000001,-0.011694113416764745
7.668,-0.011694930795224205
7.672000000000001,-0.011694786551966653
7.676,-0.011694762511423727
7.68,-0.011695147160110532
7.684,-0.01169586837639829
7.688,-0.011696974241372851
7.692,-0.011697983944175714
7.696,-0.011698560917205919
7.7,-0.011698777282092246
7.704,-0.011699185971321977
7.708,-0.011699835065980957
7.712,-0.0117013015390994
7.716,-0.011702551647331513
7.72,-0.011702623768960288
7.724,-0.011703032458190018
7.728,-0.011703104579818794
7.732,-0.011702479525702737
7.736,-0.011701085174213071
7.74,-0.011699282133493676
7.744,-0.011698416673948367
7.748,-0.011697767579289385
7.752,-0.011697911822546937
7.756,-0.01169764737657476
7.76,-0.011697382930602582
7.764,-0.011697214646802104
7.768,-0.011697262727887955
7.772,-0.011697286768430881
7.776,-0.011696854038658226
7.78,-0.011696228984542168
7.784,-0.011695555849340261
7.788,-0.011695483727711486
7.792,-0.011696709795400674
7.796,-0.011697863741461086
7.8,-0.011697887782004012
7.804,-0.011698320511776666
7.808,-0.011698440714491293
7.812,-0.011698080106347413
7.816,-0.011697214646802104
7.82,-0.011697431011688431
7.824,-0.011698272430690815
7.828,-0.01169820030906204
7.832,-0.01169810414689034
7.836,-0.011697815660375236
7.84,-0.011697551214403058
7.844,-0.0116967338359436
7.848,-0.011696541511600198
7.852,-0.011696854038658226
7.856,-0.011696541511600198
7.86,-0.011695555849340261
7.864,-0.01169541160608271
7.868,-0.011695339484453934
7.872,-0.011695700092597813
7.876,-0.011696060700741692
7.88,-0.011696854038658226
7.884,-0.011697334849516731
7.888,-0.01169815222797619
7.892,-0.011699234052407826
7.896,-0.01170048416063994
7.9,-0.011700820728240894
7.904,-0.011701253458013549
7.908,-0.011700989012041372
7.912,-0.011700772647155043
7.916,-0.011700267795753613
7.92,-0.011700436079554089
7.924,-0.011699859106523883
7.928,-0.01169906576860735
7.932,-0.011698224349604965
7.936,-0.011697983944175714
7.94,-0.011698344552319592
7.944,-0.011699426376751228
7.948,-0.011700291836296539
7.952,-0.011701614066157428
7.956,-0.011701734268872053
7.96,-0.011701181336384772
7.964,-0.0117013015390994
7.968,-0.011701614066157428
7.972,-0.011702287201359334
7.976,-0.011703344985248047
7.98,-0.01170464317456601
7.984,-0.011705027823252815
7.988,-0.0117058692422552
7.992,-0.011707311674830715
7.996,-0.011708754107406232
8.0,-0.011710052296724194
8.004,-0.011710797553554878
8.008000000000001,-0.011710701391383176
8.012,-0.011710773513011953
8.016,-0.01171195149961529
8.02,-0.011712552513188422
8.024000000000001,-0.011712095742872842
8.028,-0.011711134121155832
8.032,-0.011710412904868074
8.036,-0.011710364823782224
8.040000000000001,-0.011711158161698758
8.044,-0.011711855337443589
8.048,-0.011711687053643113
8.052,-0.011710797553554878
8.056000000000001,-0.01171058118866855
8.06,-0.011709691688580316
8.064,-0.011709884012923718
8.068,-0.011710460985953925
8.072000000000001,-0.011710653310297326
8.076,-0.011710677350840252
8.08,-0.011709859972380793
8.084,-0.011709908053466644
8.088000000000001,-0.011710292702153447
8.092,-0.011710316742696373
8.096,-0.011709787850752017
8.1,-0.011709282999350586
8.104000000000001,-0.011709018553378409
8.108,-0.011708513701976979
8.112,-0.011708489661434052
8.116,-0.011707503999174118
8.120000000000001,-0.011706446215285405
8.124,-0.011705268228682068
8.128,-0.011704835498909412
8.132,-0.011705172066510366
8.136000000000001,-0.011705773080083498
8.14,-0.01170647025582833
8.144,-0.01170687894505806
8.148,-0.011707359755916566
8.152000000000001,-0.011708369458719427
8.156,-0.011708730066863305
8.16,-0.01170957148586569
8.164,-0.011710340783239298
8.168000000000001,-0.011711110080612907
8.172,-0.01171098987789828
8.176,-0.011710196539981746
8.18,-0.011709956134552495
8.184000000000001,-0.01170952340477984
8.188,-0.01170961956695154
8.192,-0.011710292702153447
8.196,-0.01171149472929971
8.2,-0.01171199958070114
8.204,-0.011712961202418153
8.208,-0.011714211310650266
8.212,-0.011715028689109725
8.216,-0.011715485459425305
8.22,-0.011715990310826735
8.224,-0.011716687486571568
8.228,-0.011717697189374428
8.232,-0.011718634770548514
8.236,-0.011719067500321168
8.24,-0.011719404067922122
8.244,-0.011719860838237702
8.248,-0.011719764676066
8.252,-0.011719644473351375
8.256,-0.01172002912203818
8.26,-0.011719788716608927
8.264,-0.011719091540864094
8.268,-0.01172007720312403
8.272,-0.01172099074375519
8.276,-0.01172144751407077
8.28,-0.011721687919500023
8.284,-0.011721880243843425
8.288,-0.011721062865383965
8.292,-0.011720606095068385
8.296,-0.011720654176154236
8.3,-0.011720101243666955
8.304,-0.011719957000409403
8.308,-0.011719692554437226
8.312,-0.011719740635523076
8.316,-0.011719740635523076
8.32,-0.01172002912203818
8.324,-0.011720365689639132
8.328,-0.011721519635699545
8.332,-0.011721976406015126
8.336,-0.011722745703388734
8.34,-0.011723442879133567
8.344,-0.01172332267641894
8.348,-0.011722889946646286
8.352,-0.011722433176330706
8.356,-0.01172190428438635
8.36,-0.011721207108641517
8.364,-0.011720774378868863
8.368,-0.011720702257240086
8.372,-0.01172094266266934
8.376,-0.011722024487100977
8.38,-0.01172317843316139
8.384,-0.011724212176507175
8.388,-0.0117241400548784
8.392,-0.01172418813596425
8.396,-0.011724500663022278
8.4,-0.011725534406368065
8.404,-0.011725943095597794
8.408,-0.011726159460484121
8.412,-0.011725750771254392
8.416,-0.011726303703741673
8.42,-0.011726952798400655
8.424,-0.011727818257945964
8.428,-0.011728226947175693
8.432,-0.011728900082377602
8.436,-0.011729525136493658
8.44,-0.011729092406721004
8.444,-0.011729068366178078
8.448,-0.011729404933779032
8.452,-0.011730029987895088
8.456,-0.0117309916096121
8.46,-0.011732073434043736
8.464,-0.011733011015217822
8.468,-0.011733732231505579
8.472,-0.01173387647476313
8.476,-0.011732530204359316
8.48,-0.011730919487983323
8.484,-0.011728515433690797
8.488,-0.011726207541569972
8.492,-0.011725269960395886
8.496,-0.01172464490627983
8.5,-0.011723995811620848
8.504,-0.011723971771077922
8.508000000000001,-0.011725221879310035
8.512,-0.011726279663198747
8.516,-0.01172733744708746
8.52,-0.011727409568716235
8.524000000000001,-0.01172738552817331
8.528,-0.011727265325458683
8.532,-0.011727361487630384
8.536,-0.011728010582289367
8.540000000000001,-0.011728611595862498
8.544,-0.011729525136493658
8.548,-0.011729332812150255
8.552,-0.011729837663551687
8.556000000000001,-0.011730486758210668
8.56,-0.011731424339384754
8.564,-0.011731568582642305
8.568,-0.011731232015041351
8.572000000000001,-0.011731111812326726
8.576,-0.011729837663551687
8.58,-0.011728226947175693
8.584,-0.011727313406544534
8.588000000000001,-0.011726544109170926
8.592,-0.01172733744708746
8.596,-0.011727818257945964
8.6,-0.011727505730887936
8.604000000000001,-0.01172683259568603
8.608,-0.011726327744284597
8.612,-0.011725798852340243
8.616,-0.01172601521722657
8.620000000000001,-0.01172560652799684
8.624,-0.011725870973969018
8.628,-0.011726928757857729
8.632,-0.01172738552817331
8.636000000000001,-0.011726904717314805
8.64,-0.011726952798400655
8.644,-0.011727265325458683
8.648,-0.011727313406544534
8.652000000000001,-0.01172779421740304
8.656,-0.011728683717491273
8.66,-0.011729404933779032
8.664,-0.011730318474410192
8.668000000000001,-0.0117310877717838
8.672,-0.011731111812326726
8.676,-0.011731929190786184
8.68,-0.011733131217932447
8.684000000000001,-0.011733732231505579
8.688,-0.011733612028790953
8.692,-0.011733732231505579
8.696,-0.011733804353134356
8.700000000000001,-0.011734477488336262
8.704,-0.011735847799283003
8.708,-0.011736689218285386
8.712,-0.011737121948058041
8.716,-0.011737290231858518
8.72,-0.011737458515658996
8.724,-0.011738323975204305
8.728,-0.011739285596921315
8.732,-0.011740415502438803
8.736,-0.011741857935014319
8.74,-0.01174209834044357
8.744,-0.01174154540795629
8.748,-0.011741016516011935
8.752,-0.011740343380810026
8.756,-0.011740367421352952
8.76,-0.011741785813385542
8.764,-0.011742146421529421
8.768,-0.011742074299900646
8.772,-0.011742218543158198
8.776,-0.011742170462072347
8.78,-0.011742386826958674
8.784,-0.01174205025935772
8.788,-0.011741449245784588
8.792,-0.011742242583701122
8.796,-0.011741617529585066
8.8,-0.01174063186732513
8.804,-0.011739526002350568
8.808,-0.011739093272577912
8.812,-0.011738852867148661
8.816,-0.011739021150949137
8.82,-0.011738636502262333
8.824,-0.011738973069863287
8.828,-0.01174058378623928
8.832,-0.011742146421529421
8.836,-0.0117424108675016
8.84,-0.011743011881074732
8.844,-0.011743805218991264
8.848,-0.011744911083965826
8.852,-0.011745992908397463
8.856,-0.011746449678713043
8.86,-0.01174647371925597
8.864,-0.011747339178801278
8.868,-0.011748348881604139
8.872,-0.011748276759975364
8.876,-0.011747723827488083
8.88,-0.011747315138258352
8.884,-0.011747916151831484
8.888,-0.011748060395089036
8.892,-0.011748228678889513
8.896,-0.011748469084318766
8.9,-0.011747603624773456
8.904,-0.011746954530114474
8.908,-0.0117469785706574
8.912,-0.011746305435455491
8.916,-0.011746185232740866
8.92,-0.01174625735436964
8.924,-0.011745488056996033
8.928,-0.011744550475821947
8.932,-0.011743901381162965
8.936,-0.01174382925953419
8.94,-0.011744213908220995
8.944,-0.011743973502791742
8.948,-0.011743468651390311
8.952,-0.011743108043246431
8.956,-0.011743204205418132
8.96,-0.011743468651390311
8.964,-0.01174378117844834
8.968,-0.01174382925953419
8.972,-0.011743516732476162
8.976,-0.011743949462248816
8.98,-0.011744646637993648
8.984,-0.01174474280016535
8.988,-0.011744069664963443
8.992,-0.011743468651390311
8.996,-0.011742987840531805
9.0,-0.011741978137728945
9.004,-0.01174154540795629
9.008000000000001,-0.011741617529585066
9.012,-0.011741737732299692
9.016,-0.01174154540795629
9.02,-0.011741569448499216
9.024000000000001,-0.011741954097186019
9.028,-0.011742531070216226
9.032,-0.01174209834044357
9.036,-0.011741473286327514
9.040000000000001,-0.011741713691756767
9.044,-0.011742170462072347
9.048,-0.011742338745872823
9.052,-0.0117424108675016
9.056000000000001,-0.01174245894858745
9.06,-0.011742170462072347
9.064,-0.01174209834044357
9.068,-0.011742194502615272
9.072000000000001,-0.011741329043069963
9.076,-0.011740752070039755
9.08,-0.01174118479981241
9.084,-0.011740968434926084
9.088000000000001,-0.011740703988953905
9.092,-0.011740343380810026
9.096,-0.011739285596921315
9.1,-0.01173875670497696
9.104000000000001,-0.011737843164345799
9.108,-0.011736040123626404
9.112,-0.011734717893765515
9.116,-0.011733972636934832
9.120000000000001,-0.011733756272048505
9.124,-0.011734044758563609
9.128,-0.011734213042364085
9.132,-0.011734309204535786
9.136000000000001,-0.01173483809648014
9.14,-0.011735775677654227
9.144,-0.011736304569598583
9.148,-0.011736496893941984
9.152000000000001,-0.011736208407426882
9.156,-0.011735871839825928
9.16,-0.011736280529055657
9.164,-0.011736737299371237
9.168000000000001,-0.011735823758740077
9.172,-0.011735174664081095
9.176,-0.011736256488512732
9.18,-0.011737506596744846
9.184000000000001,-0.011737602758916547
9.188,-0.01173789124543165
9.192,-0.011738420137376006
9.196,-0.011739117313120839
9.200000000000001,-0.011739237515835464
9.204,-0.011739381759093016
9.208,-0.011739453880721793
9.212,-0.011739622164522269
9.216000000000001,-0.011739574083436418
9.22,-0.011738660542805259
9.224,-0.011738372056290155
9.228,-0.011737698921088247
9.232,-0.011737145988600966
9.236,-0.011736857502085864
9.24,-0.011737121948058041
9.244,-0.011737097907515115
9.248,-0.011737338312944368
9.252,-0.011737963367060426
9.256,-0.011737915285974575
9.26,-0.011738684583348183
9.264,-0.011739045191492062
9.268,-0.011740054894294924
9.272,-0.011741112678183636
9.276,-0.011741761772842618
9.28,-0.011741881975557244
9.284,-0.01174255511075915
9.288,-0.011742795516188403
9.292,-0.011743011881074732
9.296,-0.01174342057030446
9.3,-0.011743468651390311
9.304,-0.011743228245961058
9.308,-0.011742987840531805
9.312,-0.011743204205418132
9.316,-0.011743516732476162
9.32,-0.01174382925953419
9.324,-0.011744766840708276
9.328,-0.011745992908397463
9.332,-0.011746185232740866
9.336,-0.011745608259710659
9.34,-0.01174625735436964
9.344,-0.011747675746402233
9.348,-0.011748156557260737
9.352,-0.011747459381515904
9.356,-0.01174702665174325
9.36,-0.011746449678713043
9.364,-0.011746137151655015
9.368,-0.011746401597627193
9.372,-0.01174529573265263
9.376,-0.011744694719079499
9.38,-0.011745776543511137
9.384,-0.011746497759798894
9.388,-0.011747146854457876
9.392,-0.011747795949116858
9.396,-0.011748517165404615
9.4,-0.011748276759975364
9.404,-0.011746786246313997
9.408,-0.011745271692109706
9.412,-0.011744983205594603
9.416,-0.011744382192021471
9.42,-0.011744310070392694
9.424,-0.011744814921794126
9.428,-0.01174474280016535
9.432,-0.011745343813738481
9.436,-0.011745127448852154
9.44,-0.011745127448852154
9.444,-0.011745584219167734
9.448,-0.011746617962513521
9.452,-0.011747194935543727
9.456,-0.011748204638346587
9.46,-0.011748997976263121
9.464,-0.011749526868207478
9.468,-0.011749983638523058
9.472,-0.011750752935896665
9.476,-0.011751065462954693
9.48,-0.011751522233270273
9.484,-0.011752147287386331
9.488,-0.011751906881957078
9.492,-0.011752267490100957
9.496,-0.011752267490100957
9.5,-0.011752147287386331
9.504,-0.011751834760328303
9.508000000000001,-0.011750873138611293
9.512,-0.011749791314179655
9.516,-0.011748493124861691
9.52,-0.011748348881604139
9.524000000000001,-0.011749118178977747
9.528,-0.011749623030379179
9.532,-0.01175036828720986
9.536,-0.011751113544040544
9.540000000000001,-0.011751954963042929
9.544,-0.011753661841590622
9.548,-0.01175474366602226
9.552,-0.011755392760681242
9.556000000000001,-0.011755825490453896
9.56,-0.011755585085024644
9.564,-0.011755440841767092
9.568,-0.011755801449910971
9.572000000000001,-0.011756186098597776
9.576,-0.011756282260769477
9.58,-0.011756642868913356
9.584,-0.011756258220226551
9.588000000000001,-0.011755945693168523
9.592,-0.011756594787827505
9.596,-0.01175767661225914
9.6,-0.011758686315062003
9.604000000000001,-0.011759912382751191
9.608,-0.011760898045011127
9.612,-0.01176205199107154
9.616,-0.011763446342561205
9.620000000000001,-0.011764215639934813
9.624,-0.011765225342737674
9.628,-0.011766379288798087
9.632,-0.011766643734770264
9.636000000000001,-0.011765994640111282
9.64,-0.011765946559025431
9.644,-0.011765730194139104
9.648,-0.011765513829252778
9.652000000000001,-0.011765369585995226
9.656,-0.011765417667081076
9.66,-0.011766090802282983
9.664,-0.011766739896941965
9.668000000000001,-0.011768110207888708
9.672,-0.011769576681007149
9.676,-0.011769744964807627
9.68,-0.011769937289151027
9.684000000000001,-0.011770153654037356
9.688,-0.011770778708153412
9.692,-0.011771067194668515
9.696,-0.011771211437926067
9.700000000000001,-0.011772028816385526
9.704,-0.011772629829958657
9.708,-0.011773687613847368
9.712,-0.011774529032849753
9.716000000000001,-0.011774889640993632
9.72,-0.011774673276107305
9.724,-0.011774889640993632
9.728,-0.011775322370766287
9.732,-0.011776235911397447
9.736,-0.011777125411485682
9.74,-0.011778255317003168
9.744,-0.011778327438631945
9.748,-0.011777966830488066
9.752,-0.011777798546687588
9.756,-0.011777726425058813
9.76,-0.011777053289856905
9.764,-0.01177601954651112
9.768,-0.01177606762759697
9.772,-0.01177652439791255
9.776,-0.011776308033026223
9.78,-0.011775731059996016
9.784,-0.011775081965337034
9.788,-0.011774865600450707
9.792,-0.011774985803165333
9.796,-0.011775009843708259
9.8,-0.011774673276107305
9.804,-0.011773735694933219
9.808,-0.01177282215430206
9.812,-0.011772317302900629
9.816,-0.011772653870501583
9.82,-0.011772437505615255
9.824,-0.011771620127155796
9.828,-0.0117719086136709
9.832,-0.011772461546158181
9.836,-0.011771788410956273
9.84,-0.011771187397383141
9.844,-0.01177094699195389
9.848,-0.011770297897294908
9.852,-0.011769456478292523
9.856,-0.011769744964807627
9.86,-0.011769985370236878
9.864,-0.011769841126979326
9.868,-0.011769552640464224
9.872,-0.011768566978204288
9.876,-0.011766691815856115
9.88,-0.011765177261651823
9.884,-0.011763806950705084
9.888,-0.011762580883015895
9.892,-0.011761883707271062
9.896,-0.011761066328811604
9.9,-0.011761162490983305
9.904,-0.011761475018041333
9.908,-0.011761138450440379
9.912,-0.011760056626008743
9.916,-0.011760681680124799
9.92,-0.0117607778422965
9.924,-0.011760248950352145
9.928,-0.011759960463837042
9.932,-0.011760128747637518
9.936,-0.011760898045011127
9.94,-0.011761763504556436
9.944,-0.011762148153243241
9.948,-0.011762821288445148
9.952,-0.01176347038310413
9.956,-0.011763951193962636
9.96,-0.011763782910162158
9.964,-0.011763350180389504
9.968,-0.011763734829076307
9.972,-0.011763542504732905
9.976,-0.0117630616938744
9.98,-0.01176205199107154
9.984,-0.011761499058584259
9.988,-0.011761402896412558
9.992,-0.01176205199107154
9.996,-0.01176255684247297
10.0,-0.011763326139846578
10.004,-0.011764504126449917
10.008000000000001,-0.011765537869795702
10.012,-0.011766932221285368
10.016,-0.011767509194315576
10.02,-0.011767605356487278
10.024000000000001,-0.011767004342914144
10.028,-0.011766595653684413
10.032,-0.011766235045540535
10.036,-0.011766403329341013
10.040000000000001,-0.011765682113053254
10.044,-0.01176565807251033
10.048,-0.011765730194139104
10.052,-0.011765513829252778
10.056000000000001,-0.01176570615359618
10.06,-0.011766403329341013
10.064,-0.011766451410426863
10.068,-0.01176666777531319
10.072000000000001,-0.011766499491512714
10.076,-0.011767581315944351
10.08,-0.011768062126802857
10.084,-0.011768494856575513
10.088000000000001,-0.01176820637006041
10.092,-0.011767509194315576
10.096,-0.011767388991600949
10.1,-0.011768014045717007
10.104000000000001,-0.011767461113229726
10.108,-0.011766787978027816
10.112,-0.011766259086083461
10.116,-0.011766066761740059
10.120000000000001,-0.011766499491512714
10.124,-0.011766691815856115
10.128,-0.011766018680654208
10.132,-0.011765417667081076
10.136000000000001,-0.011764816653507945
10.14,-0.01176448008590699
10.144,-0.011763806950705084
10.148,-0.011763326139846578
10.152000000000001,-0.011764263721020664
10.156,-0.011765008977851347
10.16,-0.011765105140023048
10.164,-0.01176493685622257
10.168000000000001,-0.011765105140023048
10.172,-0.01176539362653815
10.176,-0.011765970599568357
10.18,-0.011766066761740059
10.184000000000001,-0.01176621100499761
10.188,-0.011765609991424479
10.192,-0.011765369585995226
10.196,-0.011763734829076307
10.200000000000001,-0.011762268355957867
10.204,-0.011761931788356913
10.208,-0.01176128269369793
10.212,-0.011760513396324323
10.216000000000001,-0.011760633599038948
10.22,-0.01176036915306677
10.224,-0.01175976813949364
10.228,-0.011759046923205882
10.232000000000001,-0.011757532369001589
10.236,-0.011756931355428457
10.24,-0.011756306301312401
10.244,-0.01175616205805485
10.248,-0.011756089936426075
10.252,-0.01175616205805485
10.256,-0.011756354382398252
10.26,-0.011756835193256758
10.264,-0.011757051558143085
10.268,-0.011757748733887918
10.272,-0.01175844590963275
10.276,-0.011759575815150237
10.28,-0.011760561477410173
10.284,-0.01176082592338235
10.288,-0.011760465315238472
10.292,-0.011760801882839426
10.296,-0.01176128269369793
10.3,-0.011761378855869632
10.304,-0.011760753801753576
10.308,-0.011760008544922892
10.312,-0.011759167125920508
10.316,-0.011758325706918123
10.32,-0.011758037220403021
10.324,-0.01175794105823132
10.328,-0.011757195801400637
10.332,-0.011756883274342609
10.336,-0.011757604490630366
10.34,-0.011758590152890302
10.344,-0.01175935945026391
10.348,-0.011760970166639902
10.352,-0.011762220274872016
10.356,-0.011762460680301269
10.36,-0.011762917450616849
10.364,-0.011763157856046102
10.368,-0.01176351846418998
10.372,-0.011764239680477738
10.376,-0.011764864734593795
10.38,-0.0117653455454523
10.384,-0.0117653455454523
10.388,-0.011765105140023048
10.392,-0.011765946559025431
10.396,-0.011766812018570742
10.4,-0.011766451410426863
10.404,-0.01176621100499761
10.408,-0.011766090802282983
10.412,-0.011765417667081076
10.416,-0.011764672410250393
10.42,-0.011763662707447532
10.424,-0.011763494423647056
10.428,-0.011762845328988074
10.432,-0.011761571180213034
10.436,-0.011760922085554052
10.44,-0.011761138450440379
10.444,-0.011762316437043717
10.448,-0.011763326139846578
10.452,-0.011763157856046102
10.456,-0.01176342230201828
10.46,-0.011763326139846578
10.464,-0.011763566545275831
10.468,-0.011763374220932429
10.472,-0.011762749166816373
10.476,-0.01176154713967011
10.48,-0.011760417234152621
10.484,-0.01175981622057949
10.488,-0.011759503693521462
10.492,-0.011758806517776629
10.496,-0.011758710355604928
10.5,-0.011759070963748806
10.504,-0.011758782477233703
10.508000000000001,-0.011758325706918123
10.512,-0.01175794105823132
10.516,-0.011758566112347376
10.52,-0.011759119044834657
10.524000000000001,-0.011759936423294115
10.528,-0.01176082592338235
10.532,-0.011761258653155006
10.536,-0.011762460680301269
10.540000000000001,-0.011763302099303654
10.544,-0.011763302099303654
10.548,-0.01176397523450556
10.552,-0.011764624329164542
10.556000000000001,-0.011764744531879168
10.56,-0.01176438392373529
10.564,-0.011763686747990457
10.568,-0.011764263721020664
10.572000000000001,-0.011764504126449917
10.576,-0.011764768572422094
10.58,-0.011764624329164542
10.584,-0.011764528166992841
10.588000000000001,-0.011764528166992841
10.592,-0.011764335842649439
10.596,-0.011764095437220188
10.6,-0.011764215639934813
10.604000000000001,-0.011764095437220188
10.608,-0.01176402331559141
10.612,-0.011764864734593795
10.616,-0.011764984937308421
10.620000000000001,-0.01176443200482114
10.624,-0.011764672410250393
10.628,-0.011765441707624
10.632,-0.011766066761740059
10.636000000000001,-0.011766427369883937
10.64,-0.011767316869972174
10.644,-0.011767869802459455
10.648,-0.01176875930254769
10.652000000000001,-0.011769384356663746
10.656,-0.011769841126979326
10.66,-0.011770273856751981
10.664,-0.011770297897294908
10.668000000000001,-0.0117697209242647
10.672,-0.011768062126802857
10.676,-0.011767268788886323
10.68,-0.011767893843002381
10.684000000000001,-0.011768591018747212
10.688,-0.011768687180918913
10.692,-0.011768735262004764
10.696,-0.011769071829605718
10.700000000000001,-0.011769456478292523
10.704,-0.011770105572951505
10.708,-0.01177113931629729
10.712,-0.011771716289327498
10.716000000000001,-0.011771548005527021
10.72,-0.011771283559554842
10.724,-0.011771788410956273
10.728,-0.011771740329870422
10.732000000000001,-0.011771019113582665
10.736,-0.011770754667610487
10.74,-0.011770153654037356
10.744,-0.011770033451322728
10.748000000000001,-0.011770153654037356
10.752,-0.011770033451322728
10.756,-0.011770610424352936
10.76,-0.011771019113582665
10.764,-0.011770802748696338
10.768,-0.011770850829782189
10.772,-0.011770466181095384
10.776,-0.011770057491865655
10.78,-0.011770466181095384
10.784,-0.011770922951410964
10.788,-0.011771067194668515
10.792,-0.011771211437926067
10.796,-0.011771836492042123
10.8,-0.011771668208241647
10.804,-0.011771716289327498
10.808,-0.01177145184335532
10.812,-0.011771259519011918
10.816,-0.011771211437926067
10.82,-0.011771620127155796
10.824,-0.011771764370413348
10.828,-0.011771572046069946
10.832,-0.011770394059466607
10.836,-0.011770153654037356
10.84,-0.011770514262181234
10.844,-0.011770778708153412
10.848,-0.011771355681183619
10.852,-0.011772197100186002
10.856,-0.011772966397559611
10.86,-0.011773567411132743
10.864,-0.011773519330046892
10.868,-0.011773928019276621
10.872,-0.011774673276107305
10.876,-0.01177505792479411
10.88,-0.011774985803165333
10.884,-0.011775130046422885
10.888,-0.011775586816738464
10.892,-0.011775466614023839
10.896,-0.01177479347882193
10.9,-0.011774456911220978
10.904,-0.011774480951763902
10.908,-0.011774841559907781
10.912,-0.01177551469510969
10.916,-0.011775009843708259
10.92,-0.011775226208594586
10.924,-0.011776235911397447
10.928,-0.011776043587054044
10.932,-0.011776043587054044
10.936,-0.011776091668139895
10.94,-0.011775995505968194
10.944,-0.011776091668139895
10.948,-0.011775827222167717
10.952,-0.01177551469510969
10.956,-0.011774144384162948
10.96,-0.011773230843531789
10.964,-0.011772750032673284
10.968,-0.011772245181271852
10.972,-0.011772557708329882
10.976,-0.011773543370589817
10.98,-0.011774865600450707
10.984,-0.011776668641170102
10.988,-0.011777510060172487
10.992,-0.011777798546687588
10.996,-0.011778519762975347
11.0,-0.011778543803518272
11.004,-0.011778567844061198
11.008000000000001,-0.011779240979263104
11.012,-0.011779962195550863
11.016,-0.011780611290209844
11.02,-0.011781428668669304
11.024000000000001,-0.011781741195727332
11.028,-0.01178291918233067
11.032,-0.011784217371648633
11.036,-0.011785395358251972
11.040000000000001,-0.011786356979968982
11.044,-0.011787366682771843
11.048,-0.011787727290915723
11.052,-0.011787775372001574
11.056000000000001,-0.01178748688548647
11.06,-0.011786813750284562
11.064,-0.01178662142594116
11.068,-0.011787054155713815
11.072000000000001,-0.011787462844943544
11.076,-0.011787919615259124
11.08,-0.011788304263945929
11.084,-0.011789001439690762
11.088000000000001,-0.011789578412720969
11.092,-0.011790107304665324
11.096,-0.01179063619660968
11.1,-0.011790972764210633
11.104000000000001,-0.011792896007644655
11.108,-0.01179347298067486
11.112,-0.011793352777960234
11.116,-0.011794530764563571
11.120000000000001,-0.011795949156596163
11.124,-0.011796478048540518
11.128,-0.011797030981027799
11.132,-0.011797415629714604
11.136000000000001,-0.011797223305371201
11.14,-0.011797800278401408
11.144,-0.011798208967631138
11.148,-0.011798473413603315
11.152000000000001,-0.011797319467542903
11.156,-0.011795348143023032
11.16,-0.011794146115876768
11.164,-0.011794146115876768
11.168000000000001,-0.011794458642934796
11.172,-0.011794891372707452
11.176,-0.011794410561848946
11.18,-0.011793665305018262
11.184000000000001,-0.011792150750813971
11.188,-0.011791886304841794
11.192,-0.011792030548099344
11.196,-0.01179082852095308
11.200000000000001,-0.011790467912809202
11.204,-0.011789698615435594
11.208,-0.011788977399147837
11.212,-0.011789025480233686
11.216000000000001,-0.011789434169463417
11.22,-0.01178931396674879
11.224,-0.011788953358604911
11.228,-0.011789073561319537
11.232000000000001,-0.01178941012892049
11.236,-0.011789746696521445
11.24,-0.011790083264122399
11.244,-0.011790660237152605
11.248000000000001,-0.011790972764210633
11.252,-0.0117902755884658
11.256,-0.011789578412720969
11.26,-0.011788568709918106
11.264,-0.011787703250372797
11.268,-0.011786789709741638
11.272,-0.011785924250196329
11.276,-0.011786861831370413
11.28,-0.011786693547569936
11.284,-0.011786260817797281
11.288,-0.011786260817797281
11.292,-0.011786308898883132
11.296,-0.01178597233128218
11.3,-0.011785443439337823
11.304,-0.01178525111499442
11.308,-0.01178565980422415
11.312,-0.011786332939426058
11.316,-0.011787462844943544
11.32,-0.01178794365580205
11.324,-0.011787823453087423
11.328,-0.011786813750284562
11.332,-0.011786453142140683
11.336,-0.011786765669198711
11.34,-0.011787102236799666
11.344,-0.011787414763857694
11.348,-0.011787534966572321
11.352,-0.011787847493630349
11.356,-0.011787967696344975
11.36,-0.011788087899059602
11.364,-0.011788280223403004
11.368,-0.01178981881815022
11.372,-0.011791934385927644
11.376,-0.011791838223755943
11.38,-0.011790924683124782
11.384,-0.011790612156066754
11.388,-0.0117901794262941
11.392,-0.011789506291092192
11.396,-0.011790035183036549
11.4,-0.011790900642581858
11.404,-0.0117902755884658
11.408,-0.011789578412720969
11.412,-0.01178977073706437
11.416,-0.01179058811552383
11.42,-0.011791621858869615
11.424,-0.011792270953528597
11.428,-0.011792367115700298
11.432,-0.011792655602215402
11.436,-0.011792463277872
11.44,-0.011792150750813971
11.444,-0.011792535399500776
11.448,-0.011792343075157374
11.452,-0.01179306429144513
11.456,-0.01179306429144513
11.46,-0.011793112372530981
11.464,-0.011792703683301252
11.468,-0.011792920048187579
11.472,-0.011793280656331458
11.476,-0.011793689345561189
11.48,-0.011793857629361665
11.484,-0.011794218237505543
11.488,-0.01179469904836405
11.492,-0.0117947471294499
11.496,-0.011795011575422077
11.5,-0.011795420264651807
11.504,-0.01179520389976548
11.508000000000001,-0.01179469904836405
11.512,-0.011795348143023032
11.516,-0.011795516426823508
11.52,-0.011795131778136703
11.524000000000001,-0.011794458642934796
11.528,-0.011794146115876768
11.532,-0.011794362480763095
11.536,-0.011794458642934796
11.540000000000001,-0.01179429035913432
11.544,-0.011795276021394255
11.548,-0.011796021278224938
11.552,-0.011795468345737657
11.556000000000001,-0.011794867332164526
11.56,-0.011795804913338611
11.564,-0.011796886737770247
11.568,-0.011796285724197116
11.572000000000001,-0.01179570875116691
11.576,-0.011794939453793302
11.58,-0.011793953791533366
11.584,-0.011793376818503159
11.588000000000001,-0.011792871967101728
11.592,-0.011792703683301252
11.596,-0.011792391156243224
11.6,-0.01179200650755642
11.604000000000001,-0.011792439237329075
11.608,-0.011792823886015878
11.612,-0.01179347298067486
11.616,-0.0117947471294499
11.620000000000001,-0.01179515581867963
11.624,-0.011795804913338611
11.628,-0.011796429967454667
11.632,-0.01179667037288392
11.636000000000001,-0.011796718453969771
11.64,-0.011796502089083444
11.644,-0.011796141480939566
11.648,-0.011795396224108882
11.652000000000001,-0.011794386521306021
11.656,-0.011794098034790918
11.66,-0.01179397783207629
11.664,-0.01179443460239187
11.668000000000001,-0.011795227940308404
11.672,-0.011795372183565956
11.676,-0.011795684710623984
11.68,-0.011795276021394255
11.684000000000001,-0.011794073994247992
11.688,-0.011792126710271045
11.692,-0.011790948723667708
11.696,-0.011790756399324306
11.700000000000001,-0.011790467912809202
11.704,-0.01179013134520825
11.708,-0.011789842858693146
11.712,-0.011789674574892668
11.716000000000001,-0.011789554372178043
11.72,-0.011789193764034164
11.724,-0.011789530331635118
11.728,-0.011789987101950698
11.732000000000001,-0.011790540034437979
11.736,-0.011790972764210633
11.74,-0.01179114104801111
11.744,-0.011791405493983288
11.748000000000001,-0.011792294994071523
11.752,-0.011793256615788533
11.756,-0.011793689345561189
11.76,-0.011794915413250376
11.764000000000001,-0.011796357845825892
11.768,-0.011796598251255145
11.772,-0.011795973197139088
11.776,-0.011795828953881536
11.78,-0.01179667037288392
11.784,-0.011797439670257528
11.788,-0.011798257048716988
11.792,-0.0117994109947774
11.796,-0.011800204332693935
11.8,-0.01180118999495387
11.804,-0.011801214035496796
11.808,-0.011801045751696318
11.812,-0.011801670805812375
11.816,-0.011802271819385507
11.82,-0.01180256030590061
11.824,-0.011803353643817144
11.828,-0.011803666170875173
11.832,-0.011804195062819527
11.836,-0.011804339306077079
11.84,-0.011804291224991229
11.844,-0.011804483549334631
11.848,-0.011804411427705856
11.852,-0.011804603752049258
11.856,-0.011804411427705856
11.86,-0.011805060522364838
11.864,-0.01180570961702382
11.868,-0.011806478914397428
11.872,-0.011806743360369605
11.876,-0.011806238508968175
11.88,-0.011805998103538922
11.884,-0.011806767400912532
11.888,-0.01180707992797056
11.892,-0.011807680941543691
11.896,-0.011808281955116823
11.9,-0.01180905125249043
11.904,-0.011809291657919684
11.908,-0.011808618522717777
11.912,-0.011808426198374375
11.916,-0.011809267617376759
11.92,-0.011809604184977712
11.924,-0.01180936377954846
11.928,-0.01180945994172016
11.932,-0.011809532063348937
11.936,-0.01180977246877819
11.94,-0.011809580144434787
11.944,-0.011809628225520638
11.948,-0.011809940752578666
11.952,-0.011810541766151797
11.956,-0.011811527428411734
11.96,-0.011812945820444324
11.964,-0.011813955523247184
11.968,-0.011814292090848139
11.972,-0.011814171888133513
11.976,-0.011814556536820316
11.98,-0.011814869063878344
11.984,-0.011815181590936374
11.988,-0.011815710482880729
11.992,-0.011815902807224131
11.996,-0.011815494117994402
12.0,-0.011814772901706645
12.004,-0.011814268050305212
12.008000000000001,-0.011813907442161334
12.012,-0.01181366703673208
12.016,-0.01181397956379011
12.02,-0.011813450671845754
12.024000000000001,-0.011813041982616025
12.028,-0.011812849658272622
12.032,-0.011813186225873577
12.036,-0.01181260925284337
12.040000000000001,-0.01181169571221221
12.044,-0.011811383185154182
12.048,-0.011811719752755136
12.052,-0.011812489050128744
12.056000000000001,-0.011811984198727313
12.06,-0.011811094698639078
12.064,-0.011811118739182004
12.068,-0.011811431266240032
12.072000000000001,-0.01181215248252779
12.076,-0.011812176523070716
12.08,-0.01181169571221221
12.084,-0.011811118739182004
12.088000000000001,-0.011810036914750367
12.092,-0.011809892671492815
12.096,-0.011810181158007919
12.1,-0.011810854293209825
12.104000000000001,-0.011811142779724929
12.108,-0.011811046617553228
12.112,-0.011811575509497584
12.116,-0.011812008239270238
12.120000000000001,-0.011811575509497584
12.124,-0.011811719752755136
12.128,-0.011812392887957043
12.132,-0.01181224864469949
12.136000000000001,-0.011812537131214594
12.14,-0.011813378550216979
12.144,-0.01181484502333542
12.148,-0.011814580577363242
12.152000000000001,-0.011814195928676437
12.156,-0.011813642996189156
12.16,-0.011812128441984865
12.164,-0.0118107340904952
12.168000000000001,-0.011810758131038124
12.172,-0.011810686009409349
12.176,-0.011810661968866423
12.18,-0.011810493685065947
12.184000000000001,-0.011810493685065947
12.188,-0.011810541766151797
12.192,-0.011810493685065947
12.196,-0.011811262982439555
12.200000000000001,-0.011812344806871192
12.204,-0.011812224604156566
12.208,-0.011812897739358473
12.212,-0.011813546834017455
12.216000000000001,-0.011814051685418886
12.22,-0.011813787239446708
12.224,-0.011814580577363242
12.228,-0.011815037347678822
12.232000000000001,-0.011814652698992017
12.236,-0.011815205631479298
12.24,-0.01181681634785529
12.244,-0.011817345239799647
12.248000000000001,-0.011818186658802032
12.252,-0.011819028077804416
12.256,-0.011819701213006323
12.26,-0.011820446469837006
12.264000000000001,-0.01182119172666769
12.268,-0.011821672537526194
12.272,-0.011821600415897419
12.276,-0.011821456172639867
12.280000000000001,-0.011821480213182791
12.284,-0.011821143645581839
12.288,-0.011821624456440343
12.292,-0.011822033145670074
12.296,-0.011822634159243206
12.3,-0.01182164849698327
12.304,-0.011820133942778978
12.308,-0.011819677172463397
12.312,-0.011819100199433191
12.316,-0.01181849918586006
12.32,-0.011817705847943526
12.324,-0.011816455739711412
12.328,-0.011816071091024607
12.332,-0.011816023009938758
12.336,-0.011815494117994402
12.34,-0.011814580577363242
12.344,-0.011813763198903782
12.348,-0.01181265733392922
12.352,-0.011812224604156566
12.356,-0.011812681374472146
12.36,-0.011814075725961812
12.364,-0.011814869063878344
12.368,-0.011814652698992017
12.372,-0.011814508455734465
12.376,-0.011814532496277392
12.38,-0.011814460374648615
12.384,-0.01181434017193399
12.388,-0.011815205631479298
12.392,-0.011815494117994402
12.396,-0.011815470077451476
12.4,-0.011815830685595356
12.404,-0.011815830685595356
12.408,-0.011815590280166103
12.412,-0.011815494117994402
12.416,-0.011815109469307597
12.42,-0.011815085428764673
12.424,-0.01181443633410569
12.428,-0.01181366703673208
12.432,-0.011812729455557997
12.436,-0.01181296986098725
12.44,-0.011813282388045278
12.444,-0.011814412293562764
12.448,-0.011815998969395832
12.452,-0.011818354942602508
12.456,-0.011819797375178024
12.46,-0.011819989699521426
12.464,-0.01182037434820823
12.468,-0.011820831118523811
12.472,-0.011820758996895034
12.476,-0.011820133942778978
12.48,-0.01182023010495068
12.484,-0.011820254145493604
12.488,-0.011820807077980885
12.492,-0.011821167686124763
12.496,-0.011820999402324287
12.5,-0.011820831118523811
12.504,-0.011821480213182791
12.508000000000001,-0.01182169657806912
12.512,-0.011822465875442728
12.516,-0.011822537997071505
12.52,-0.011821840821326672
12.524000000000001,-0.011820710915809184
12.528,-0.011819605050834622
12.532,-0.011819436767034145
12.536,-0.011819316564319518
12.540000000000001,-0.01181941272649122
12.544,-0.011818907875089789
12.548,-0.01181859534803176
12.552,-0.011818715550746386
12.556000000000001,-0.011819148280519042
12.56,-0.011819100199433191
12.564,-0.011818571307488835
12.568,-0.011818475145317133
12.572000000000001,-0.011817249077627946
12.576,-0.011816215334282159
12.58,-0.01181662402351189
12.584,-0.011817393320885498
12.588000000000001,-0.011818715550746386
12.592,-0.011819172321061966
12.596,-0.01181946080757707
12.6,-0.011820037780607277
12.604000000000001,-0.011820807077980885
12.608,-0.01182210526729885
12.612,-0.011822994767387084
12.616,-0.01182270628087198
12.620000000000001,-0.011822634159243206
12.624,-0.011822922645758308
12.628,-0.011822826483586606
12.632,-0.01182316305118756
12.636000000000001,-0.011822321632185176
12.64,-0.011821504253725718
12.644,-0.011821480213182791
12.648,-0.01182210526729885
12.652000000000001,-0.011823403456616813
12.656,-0.01182402851073287
12.66,-0.011823715983674842
12.664,-0.01182412467290457
12.668000000000001,-0.011825567105480087
12.672,-0.01182676913262635
12.676,-0.01182773075434336
12.68,-0.011828331767916492
12.684000000000001,-0.011828259646287717
12.688,-0.011827201862399005
12.692,-0.011825927713623965
12.696,-0.011824918010821105
12.700000000000001,-0.01182412467290457
12.704,-0.011823307294445112
12.708,-0.011822033145670074
12.712,-0.011821023442867212
12.716000000000001,-0.011820951321238437
12.72,-0.011821432132096943
12.724,-0.01182210526729885
12.728,-0.011821840821326672
12.732000000000001,-0.011821600415897419
12.736,-0.011822369713271027
12.74,-0.011823139010644636
12.744,-0.011823403456616813
12.748000000000001,-0.011822273551099325
12.752,-0.01182164849698327
12.756,-0.01182169657806912
12.76,-0.011822057186212999
12.764000000000001,-0.011822297591642252
12.768,-0.01182210526729885
12.772,-0.011821576375354493
12.776,-0.011821143645581839
12.780000000000001,-0.011820590713094558
12.784,-0.011819605050834622
12.788,-0.011819076158890265
12.792,-0.011818451104774209
12.796000000000001,-0.011817513523600123
12.8,-0.011816960591112842
12.804,-0.011816479780254338
12.808,-0.011816335536996786
12.812,-0.011816215334282159
12.816,-0.011817032712741619
12.82,-0.011817393320885498
12.824,-0.011817609685771824
12.828,-0.011817874131744002
12.832,-0.011817922212829853
12.836,-0.011818234739887882
12.84,-0.011819076158890265
12.844,-0.01182023010495068
12.848,-0.01182119172666769
12.852,-0.011821912942955447
12.856,-0.011823235172816337
12.86,-0.011824172753990421
12.864,-0.011824316997247973
12.868,-0.011825374781136684
12.872,-0.0118267210515405
12.876,-0.01182676913262635
12.88,-0.011826793173169276
12.884,-0.0118267210515405
12.888,-0.011827394186742408
12.892,-0.01182799520031554
12.896,-0.011827394186742408
12.9,-0.011826697010997575
12.904,-0.011825062254078656
12.908,-0.011823475578245589
12.912,-0.011822826483586606
12.916,-0.011822778402500756
12.92,-0.01182210526729885
12.924,-0.01182164849698327
12.928,-0.011820903240152586
12.932,-0.011820061821150201
12.936,-0.011820326267122379
12.94,-0.011820542632008707
12.944,-0.01182042242929408
12.948,-0.011820662834723333
12.952,-0.011821143645581839
12.956,-0.011821071523953062
12.96,-0.011821480213182791
12.964,-0.011821456172639867
12.968,-0.011821432132096943
12.972,-0.011821143645581839
12.976,-0.011820951321238437
12.98,-0.011820951321238437
12.984,-0.011820206064407753
12.988,-0.011819364645405369
12.992,-0.011818907875089789
12.996,-0.011818715550746386
13.0,-0.011817441401971348
13.004,-0.011816696145140665
13.008000000000001,-0.01181681634785529
13.012,-0.011815974928852908
13.016,-0.011815494117994402
13.02,-0.011815446036908551
13.024000000000001,-0.011814628658449093
13.028,-0.011813691077275007
13.032,-0.01181342663130283
13.036,-0.011813210266416501
13.040000000000001,-0.011812945820444324
13.044,-0.011812945820444324
13.048,-0.011813691077275007
13.052,-0.011813306428588202
13.056000000000001,-0.011813138144787726
13.06,-0.011813090063701875
13.064,-0.011813041982616025
13.068,-0.011812320766328268
13.072000000000001,-0.011811335104068331
13.076,-0.011810974495924453
13.08,-0.011810541766151797
13.084,-0.011810109036379142
13.088000000000001,-0.011810637928323498
13.092,-0.011810806212123975
13.096,-0.011810926414838602
13.1,-0.011811455306782957
13.104000000000001,-0.011812296725785341
13.108,-0.011811984198727313
13.112,-0.011811960158184387
13.116,-0.011812176523070716
13.120000000000001,-0.01181270541501507
13.124,-0.01181352279347453
13.128,-0.0118131141042448
13.132,-0.011812344806871192
13.136000000000001,-0.011810445603980096
13.14,-0.011809171455205058
13.144,-0.011808330036202673
13.148,-0.01180717609014226
13.152000000000001,-0.011806983765798858
13.156,-0.011806959725255934
13.16,-0.0118061663873394
13.164,-0.011805805779195521
13.168000000000001,-0.011806406792768653
13.172,-0.01180667123874083
13.176,-0.011806406792768653
13.18,-0.011805974062995998
13.184000000000001,-0.01180611830625355
13.188,-0.011806959725255934
13.192,-0.011807945387515869
13.196,-0.011807464576657364
13.200000000000001,-0.011806863563084233
13.204,-0.011806839522541307
13.208,-0.01180758477937199
13.212,-0.01180849832000315
13.216000000000001,-0.011809075293033357
13.22,-0.011809724387692339
13.224,-0.011809652266063562
13.228,-0.011809387820091385
13.232000000000001,-0.011809123374119207
13.236,-0.011808882968689954
13.24,-0.011808762765975329
13.244,-0.01180808963077342
13.248000000000001,-0.011807464576657364
13.252,-0.011807296292856886
13.256,-0.011806478914397428
13.26,-0.011806070225167699
13.264000000000001,-0.011805469211594567
13.268,-0.011805805779195521
13.272,-0.011805565373766268
13.276,-0.011805421130508717
13.280000000000001,-0.011805589414309193
13.284,-0.011806286590054026
13.288,-0.0118061663873394
13.292,-0.011806478914397428
13.296000000000001,-0.011806791441455456
13.3,-0.011806647198197904
13.304,-0.011807248211771036
13.308,-0.011807224171228111
13.312000000000001,-0.011808257914573897
13.316,-0.011809844590406965
13.32,-0.011810950455381527
13.324,-0.011811839955469762
13.328,-0.011812032279813164
13.332,-0.011812104401441939
13.336,-0.011811863996012686
13.34,-0.01181174379329806
13.344,-0.011811791874383911
13.348,-0.011811046617553228
13.352,-0.011810181158007919
13.356,-0.011810012874207442
13.36,-0.011809724387692339
13.364,-0.011809700347149413
13.368,-0.011810133076922068
13.372,-0.011811166820267855
13.376,-0.011811960158184387
13.38,-0.011812729455557997
13.384,-0.01181296986098725
13.388,-0.011813090063701875
13.392,-0.011813090063701875
13.396,-0.011813787239446708
13.4,-0.011814652698992017
13.404,-0.011814989266592971
13.408,-0.011815085428764673
13.412,-0.011814051685418886
13.416,-0.011812825617729698
13.42,-0.0118130179420731
13.424,-0.01181342663130283
13.428,-0.011813811279989633
13.432,-0.011814003604333035
13.436,-0.011813306428588202
13.44,-0.011812224604156566
13.444,-0.011810926414838602
13.448,-0.011809700347149413
13.452,-0.011808858928147028
13.456,-0.011809700347149413
13.46,-0.01181032540126547
13.464,-0.011810589847237648
13.468,-0.0118107340904952
13.472,-0.011810469644523022
13.476,-0.011810613887780574
13.48,-0.011810133076922068
13.484,-0.011810205198550843
13.488,-0.011809676306606488
13.492,-0.011809964793121592
13.496,-0.011809435901177235
13.5,-0.011807753063172466
13.504,-0.011807248211771036
13.508000000000001,-0.011807344373942737
13.512,-0.011806887603627157
13.516,-0.011806382752225727
13.52,-0.011806094265710623
13.524000000000001,-0.011806094265710623
13.528,-0.011806526995483279
13.532,-0.011806647198197904
13.536,-0.011807921346972944
13.540000000000001,-0.01180945994172016
13.544,-0.011810469644523022
13.548,-0.011810661968866423
13.552,-0.011810253279636694
13.556000000000001,-0.011810084995836218
13.56,-0.011809892671492815
13.564,-0.011809892671492815
13.568,-0.011809940752578666
13.572000000000001,-0.011810036914750367
13.576,-0.011809988833664516
13.58,-0.011809964793121592
13.584,-0.011810878333752751
13.588000000000001,-0.011811479347325883
13.592,-0.011812296725785341
13.596,-0.011812585212300445
13.6,-0.011812104401441939
13.604000000000001,-0.01181123894189663
13.608,-0.01181128702298248
13.612,-0.01181220056361364
13.616,-0.01181215248252779
13.620000000000001,-0.011812104401441939
13.624,-0.011811767833840987
13.628,-0.011811407225697106
13.632,-0.011811166820267855
13.636000000000001,-0.011810902374295676
13.64,-0.011811503387868807
13.644,-0.011811551468954658
13.648,-0.011811888036555612
13.652000000000001,-0.01181224864469949
13.656,-0.011812585212300445
13.66,-0.011811767833840987
13.664,-0.011810541766151797
13.668000000000001,-0.011809700347149413
13.672,-0.011808402157831448
13.676,-0.011807560738829066
13.68,-0.011808017509144645
13.684000000000001,-0.01180753669828614
13.688,-0.01180804154968757
13.692,-0.011808858928147028
13.696,-0.01180936377954846
13.700000000000001,-0.011809532063348937
13.704,-0.011809604184977712
13.708,-0.011810301360722544
13.712,-0.011810613887780574
13.716000000000001,-0.011811022577010303
13.72,-0.011811407225697106
13.724,-0.011810758131038124
13.728,-0.01180950802280601
13.732000000000001,-0.011809435901177235
13.736,-0.011809267617376759
13.74,-0.011809147414662132
13.744,-0.011808161752402197
13.748000000000001,-0.011806887603627157
13.752,-0.011805493252137492
13.756,-0.011805589414309193
13.76,-0.011806358711682802
13.764000000000001,-0.011806767400912532
13.768,-0.011806719319826681
13.772,-0.011806839522541307
13.776,-0.011807969428058795
13.780000000000001,-0.011808642563260701
13.784,-0.011808161752402197
13.788,-0.011808161752402197
13.792,-0.011808305995659747
13.796000000000001,-0.011808209833488048
13.8,-0.011807464576657364
13.804,-0.011807560738829066
13.808,-0.011808354076745598
13.812000000000001,-0.011808402157831448
13.816,-0.01180808963077342
13.82,-0.011807416495571514
13.824,-0.011807200130685185
13.828,-0.011807248211771036
13.832,-0.011807801144258317
13.836,-0.011807777103715392
13.84,-0.011808137711859271
13.844,-0.011808618522717777
13.848,-0.011808907009232879
13.852,-0.011808931049775805
13.856,-0.011808618522717777
13.86,-0.011808378117288524
13.864,-0.011807488617200289
13.868,-0.011805925981910147
13.872,-0.01180520476562239
13.876,-0.011804868198021436
13.88,-0.011804723954763884
13.884,-0.011804916279107286
13.888,-0.011804627792592183
13.892,-0.011804219103362453
13.896,-0.011804195062819527
13.9,-0.011804531630420481
13.904,-0.011804772035849734
13.908,-0.011805276887251165
13.912,-0.011804747995306808
13.916,-0.011805517292680418
13.92,-0.01180662315765498
13.924,-0.011807608819914916
13.928,-0.011808354076745598
13.932,-0.011809099333576281
13.936,-0.011809219536290909
13.94,-0.011808666603803628
13.944,-0.011808642563260701
13.948,-0.01180905125249043
13.952,-0.011809219536290909
13.956,-0.011809435901177235
13.96,-0.011809796509321114
13.964,-0.011810253279636694
13.968,-0.011809916712035741
13.972,-0.011809940752578666
13.976,-0.011810806212123975
13.98,-0.011811094698639078
13.984,-0.011811166820267855
13.988,-0.011811262982439555
13.992,-0.011811070658096154
13.996,-0.01181032540126547
14.0,-0.011810565806694723
14.004,-0.011811094698639078
14.008000000000001,-0.011811118739182004
14.012,-0.0118107340904952
14.016,-0.011811094698639078
14.02,-0.011811335104068331
14.024000000000001,-0.011810926414838602
14.028,-0.011810493685065947
14.032,-0.01181078217158105
14.036,-0.011810950455381527
14.040000000000001,-0.011810854293209825
14.044,-0.011811142779724929
14.048,-0.011811335104068331
14.052,-0.011811575509497584
14.056000000000001,-0.011811335104068331
14.06,-0.011811335104068331
14.064,-0.01181174379329806
14.068,-0.011812465009585818
14.072000000000001,-0.011813402590759903
14.076,-0.011814748861163718
14.08,-0.011815109469307597
14.084,-0.011815566239623177
14.088000000000001,-0.01181580664505243
14.092,-0.011815830685595356
14.096,-0.011815301793651
14.1,-0.011814412293562764
14.104000000000001,-0.011814364212476914
14.108,-0.011814604617906167
14.112,-0.011814171888133513
14.116,-0.01181438825301984
14.120000000000001,-0.011814508455734465
14.124,-0.011814147847590587
14.128,-0.011814580577363242
14.132,-0.011815974928852908
14.136000000000001,-0.01181727311817087
14.14,-0.011817465442514273
14.144,-0.011817297158713796
14.148,-0.011816864428941141
14.152000000000001,-0.011816095131567533
14.156,-0.011815614320709027
14.16,-0.011815301793651
14.164,-0.011816095131567533
14.168000000000001,-0.011815662401794878
14.172,-0.011814989266592971
14.176,-0.011814532496277392
14.18,-0.01181443633410569
14.184000000000001,-0.011814027644875961
14.188,-0.011812849658272622
14.192,-0.011811960158184387
14.196,-0.011810998536467377
14.200000000000001,-0.011809676306606488
14.204,-0.011808931049775805
14.208,-0.011808834887604104
14.212,-0.011808305995659747
14.216000000000001,-0.011807248211771036
14.22,-0.011806502954940352
14.224,-0.011805877900824296
14.228,-0.011805685576480894
14.232000000000001,-0.011805805779195521
14.236,-0.011805493252137492
14.24,-0.011805998103538922
14.244,-0.011806406792768653
14.248000000000001,-0.011806286590054026
14.252,-0.011806286590054026
14.256,-0.011806502954940352
14.26,-0.011806358711682802
14.264000000000001,-0.011806935684713008
14.268,-0.011806791441455456
14.272,-0.011805637495395043
14.276,-0.011804483549334631
14.280000000000001,-0.01180347384653177
14.284,-0.011803113238387892
14.288,-0.011802632427529386
14.292,-0.011802392022100133
14.296000000000001,-0.0118015986841836
14.3,-0.011800468778666112
14.304,-0.01179977160292128
14.308,-0.011799338873148624
14.312000000000001,-0.011799627359663728
14.316,-0.011799987967807606
14.32,-0.011799218670433998
14.324,-0.011798184927088212
14.328000000000001,-0.011798112805459436
14.332,-0.011797824318944333
14.336,-0.011796502089083444
14.34,-0.011795468345737657
14.344,-0.01179515581867963
14.348,-0.01179570875116691
14.352,-0.011796862697227323
14.356,-0.01179763199460093
14.36,-0.011798160886545287
14.364,-0.011798160886545287
14.368,-0.011797463710800454
14.372,-0.011796838656684397
14.376,-0.011797439670257528
14.38,-0.011798136846002361
14.384,-0.01179804068383066
14.388,-0.011798329170345763
14.392,-0.01179880998120427
14.396,-0.011799218670433998
14.4,-0.01180032453540856
14.404,-0.01180128615712557
14.408,-0.011801670805812375
14.412,-0.011801045751696318
14.416,-0.01180022837323686
14.42,-0.011800012008350532
14.424,-0.01179977160292128
14.428,-0.011799386954234475
14.432,-0.011798689778489642
14.436,-0.011798257048716988
14.44,-0.011798257048716988
14.444,-0.011797968562201885
14.448,-0.011797607954058006
14.452,-0.011797319467542903
14.456,-0.011796766535055622
14.46,-0.011797271386457052
14.464,-0.011798233008174062
14.468,-0.011798954224461821
14.472,-0.011798882102833044
14.476,-0.011799002305547672
14.48,-0.011798761900118419
14.484,-0.011799122508262297
14.488,-0.011799915846178831
14.492,-0.011800396657037337
14.496,-0.011800372616494411
14.5,-0.011800348575951487
14.504,-0.0118015025220119
14.508000000000001,-0.011802776670786937
14.512,-0.01180352192761762
14.516,-0.011804050819561976
14.52,-0.011804579711506332
14.524000000000001,-0.01180484415747851
14.528,-0.011804675873678033
14.532,-0.011804146981733677
14.536,-0.011804122941190752
14.540000000000001,-0.011804315265534155
14.544,-0.011804411427705856
14.548,-0.011804603752049258
14.552,-0.011805036481821912
14.556000000000001,-0.011805421130508717
14.56,-0.01180534900887994
14.564,-0.01180566153593797
14.568,-0.011805925981910147
14.572000000000001,-0.011805541333223342
14.576,-0.011804267184448304
14.58,-0.011803570008703471
14.584,-0.011802848792415712
14.588000000000001,-0.011802319900471358
14.592,-0.01180155060309775
14.596,-0.011800853427352917
14.6,-0.01179981968400713
14.604000000000001,-0.011800156251608084
14.608,-0.011799915846178831
14.612,-0.011799627359663728
14.616,-0.011799122508262297
14.620000000000001,-0.01179880998120427
14.624,-0.0117994109947774
14.628,-0.01179986776509298
14.632,-0.01180027645432271
14.636000000000001,-0.011800204332693935
14.64,-0.011800997670610469
14.644,-0.0118015025220119
14.648,-0.011801791008527001
14.652000000000001,-0.011801358278754347
14.656,-0.011800084129979307
14.66,-0.011799507156949102
14.664,-0.011799507156949102
14.668000000000001,-0.011799435035320325
14.672,-0.011799723521835429
14.676,-0.01179977160292128
14.68,-0.011799459075863251
14.684000000000001,-0.011799002305547672
14.688,-0.011799098467719373
14.692,-0.011799122508262297
14.696,-0.011799266751519849
14.700000000000001,-0.011799507156949102
14.704,-0.011799507156949102
14.708,-0.011799915846178831
14.712,-0.01180032453540856
14.716000000000001,-0.011800588981380738
14.72,-0.01180032453540856
14.724,-0.01180032453540856
14.728,-0.011799915846178831
14.732000000000001,-0.011798834021747194
14.736,-0.01179794452165896
14.74,-0.011797872400030184
14.744,-0.011797463710800454
14.748000000000001,-0.01179753583242923
14.752,-0.011798425332517464
14.756,-0.011798160886545287
14.76,-0.011797463710800454
14.764000000000001,-0.011797343508085829
14.768,-0.011797872400030184
14.772,-0.011799218670433998
14.776,-0.011799651400206654
14.780000000000001,-0.011800516859751963
14.784,-0.011800300494865636
14.788,-0.011799915846178831
14.792,-0.011799699481292504
14.796000000000001,-0.011799507156949102
14.8,-0.011799290792062773
14.804,-0.011799747562378355
14.808,-0.011799699481292504
14.812000000000001,-0.011799603319120803
14.816,-0.011800108170522234
14.82,-0.011800588981380738
14.824,-0.011800180292151009
14.828000000000001,-0.011799603319120803
14.832,-0.0117994109947774
14.836,-0.011799146548805223
14.84,-0.011799074427176447
14.844000000000001,-0.011799290792062773
14.848,-0.011799939886721756
14.852,-0.011799747562378355
14.856,-0.011798761900118419
14.86,-0.011797439670257528
14.864,-0.011796982899941948
14.868,-0.011796237643111265
14.872,-0.011795492386280583
14.876,-0.011795612588995209
14.88,-0.01179570875116691
14.884,-0.011794867332164526
14.888,-0.011793953791533366
14.892,-0.011793256615788533
14.896,-0.011792871967101728
14.9,-0.011793280656331458
14.904,-0.011792944088730505
14.908,-0.011793112372530981
14.912,-0.011793232575245607
14.916,-0.011793569142846561
14.92,-0.01179347298067486
14.924,-0.01179378550773289
14.928,-0.011793400859046085
14.932,-0.011792871967101728
14.936,-0.01179301621035928
14.94,-0.011792944088730505
14.944,-0.011792871967101728
14.948,-0.011792896007644655
14.952,-0.01179352106176071
14.956,-0.011793713386104113
14.96,-0.011793905710447515
14.964,-0.01179397783207629
14.968,-0.011793160453616832
14.972,-0.011792367115700298
14.976,-0.01179104488583941
14.98,-0.011788953358604911
14.984,-0.011787559007115245
14.988,-0.01178621273671143
14.992,-0.011785419398794897
14.996,-0.011785299196080271
15.0,-0.011784722223050065
15.004,-0.011784986669022243
15.008000000000001,-0.011785275155537346
15.012,-0.011785106871736869
15.016,-0.011785010709565167
15.02,-0.011784722223050065
15.024000000000001,-0.01178428949327741
15.028,-0.01178378464187598
15.032,-0.011783808682418904
15.036,-0.01178428949327741
15.040000000000001,-0.011783856763504755
15.044,-0.011782943222873595
15.048,-0.011782414330929239
15.052,-0.011781572911926856
15.056000000000001,-0.011780971898353724
15.06,-0.011780923817267874
15.064,-0.011780875736182023
15.068,-0.011780515128038144
15.072000000000001,-0.01178068341183862
15.076,-0.011781284425411752
15.08,-0.011781524830841005
15.084,-0.011780851695639097
15.088000000000001,-0.011780563209123995
15.092,-0.011780370884780593
15.096,-0.01177940926306358
15.1,-0.011779144817091403
15.104000000000001,-0.011779289060348955
15.108,-0.011779048654919702
15.112,-0.011778303398089019
15.116,-0.01177748601962956
15.120000000000001,-0.01177738985745786
15.124,-0.011777654303430037
15.128,-0.011777822587230515
15.132,-0.011777798546687588
15.136000000000001,-0.01177799087103099
15.14,-0.01177743793854371
15.144,-0.011776644600627176
15.148,-0.011776380154654998
15.152000000000001,-0.011776235911397447
15.156,-0.011776163789768672
15.16,-0.011776332073569148
15.164,-0.011776187830311596
15.168000000000001,-0.011775226208594586
15.172,-0.011774192465248799
15.176,-0.011773759735476145
15.18,-0.011773567411132743
15.184000000000001,-0.011773735694933219
15.188,-0.01177424054633465
15.192,-0.011774577113935604
15.196,-0.011773158721903014
15.200000000000001,-0.01177287023538791
15.204,-0.011773158721903014
15.208,-0.011773519330046892
15.212,-0.011773639532761518
15.216000000000001,-0.011773351046246416
15.22,-0.011773254884074715
15.224,-0.011774456911220978
15.228,-0.01177551469510969
15.232000000000001,-0.011775274289680436
15.236,-0.011773952059819548
15.24,-0.011772557708329882
15.244,-0.01177145184335532
15.248000000000001,-0.011771307600097768
15.252,-0.01177063446489586
15.256,-0.011769288194492045
15.26,-0.011768230410603334
15.264000000000001,-0.01176774959974483
15.268,-0.0117675332348585
15.272,-0.011768086167345782
15.276,-0.011767701518658979
15.280000000000001,-0.011766547572598563
15.284,-0.011765874437396656
15.288,-0.011765417667081076
15.292,-0.011764359883192365
15.296000000000001,-0.011763446342561205
15.3,-0.011762797247902223
15.304,-0.011761402896412558
15.308,-0.011760537436867247
15.312000000000001,-0.01176036915306677
15.316,-0.011760657639581874
15.32,-0.011760994207182828
15.324,-0.011761378855869632
15.328000000000001,-0.011761402896412558
15.332,-0.011761835626185211
15.336,-0.011761162490983305
15.34,-0.011760898045011127
15.344000000000001,-0.011760537436867247
15.348,-0.01176082592338235
15.352,-0.011762148153243241
15.356,-0.011763326139846578
15.36,-0.011763686747990457
15.364,-0.0117652493832806
15.368,-0.011766427369883937
15.372,-0.011767196667257548
15.376,-0.011767773640287754
15.38,-0.01176799000517408
15.384,-0.011768230410603334
15.388,-0.011769023748519868
15.392,-0.01176916799177742
15.396,-0.011769552640464224
15.4,-0.011770033451322728
15.404,-0.011770874870325113
15.408,-0.01177186053258505
15.412,-0.011773062559731312
15.416,-0.011773807816561996
15.42,-0.011774192465248799
15.424,-0.011773952059819548
15.428,-0.011774144384162948
15.432,-0.011774216505791725
15.436,-0.011774144384162948
15.44,-0.011773302965160565
15.444,-0.011773014478645462
15.448,-0.011773062559731312
15.452,-0.011772533667786956
15.456,-0.011772990438102536
15.46,-0.011772990438102536
15.464,-0.011772100938014302
15.468,-0.011771259519011918
15.472,-0.01177068254598171
15.476,-0.01177022577566613
15.48,-0.011769552640464224
15.484,-0.011768542937661363
15.488,-0.01176799000517408
15.492,-0.011767629397030202
15.496,-0.011767869802459455
15.5,-0.011768663140375989
15.504,-0.011769937289151027
15.508000000000001,-0.01177063446489586
15.512,-0.01177149992444117
15.516,-0.011772341343443554
15.52,-0.011772846194844984
15.524000000000001,-0.011773182762445938
15.528,-0.011773663573304444
15.532,-0.011774096303077098
15.536,-0.011774048221991247
15.540000000000001,-0.011773591451675667
15.544,-0.011773182762445938
15.548,-0.011772076897471376
15.552,-0.011772076897471376
15.556000000000001,-0.01177159608661287
15.56,-0.011771331640640693
15.564,-0.011771067194668515
15.568,-0.011770706586524637
15.572000000000001,-0.011770538302724159
15.576,-0.01177094699195389
15.58,-0.011771235478468992
15.584,-0.011770778708153412
15.588000000000001,-0.011769985370236878
15.592,-0.011769071829605718
15.596,-0.011768230410603334
15.6,-0.011766908180742443
15.604000000000001,-0.011766018680654208
15.608,-0.011765826356310806
15.612,-0.011765898477939582
15.616,-0.011766307167169312
15.620000000000001,-0.011766571613141489
15.624,-0.011766956261828294
15.628,-0.011766595653684413
15.632,-0.011765826356310806
15.636000000000001,-0.011765537869795702
15.64,-0.011765369585995226
15.644,-0.0117653455454523
15.648,-0.01176493685622257
15.652000000000001,-0.011764960896765497
15.656,-0.011765465748166927
15.66,-0.011764960896765497
15.664,-0.01176438392373529
15.668000000000001,-0.01176351846418998
15.672,-0.011763590585818755
15.676,-0.011762917450616849
15.68,-0.011762364518129568
15.684000000000001,-0.011762220274872016
15.688,-0.011762460680301269
15.692,-0.01176260492355882
15.696,-0.0117629655317027
15.700000000000001,-0.011762917450616849
15.704,-0.011762725126273446
15.708,-0.011763157856046102
15.712,-0.011762869369530998
15.716000000000001,-0.011762941491159773
15.72,-0.011762725126273446
15.724,-0.011763494423647056
15.728,-0.01176402331559141
15.732000000000001,-0.011763806950705084
15.736,-0.011763662707447532
15.74,-0.011762821288445148
15.744,-0.01176164330184181
15.748000000000001,-0.011761210572069155
15.752,-0.011761018247725753
15.756,-0.011760898045011127
15.76,-0.0117607778422965
15.764000000000001,-0.011760152788180444
15.768,-0.011760200869266295
15.772,-0.011760489355781398
15.776,-0.011760489355781398
15.780000000000001,-0.01176032107198092
15.784,-0.01176036915306677
15.788,-0.011760080666551667
15.792,-0.011759984504379966
15.796000000000001,-0.011760080666551667
15.8,-0.011759936423294115
15.804,-0.011759744098950715
15.808,-0.01175885459886248
15.812000000000001,-0.0117583978285469
15.816,-0.01175748428791574
15.82,-0.011756931355428457
15.824,-0.01175666690945628
15.828000000000001,-0.011756450544569953
15.832,-0.011756570747284579
15.836,-0.011757195801400637
15.84,-0.01175813338257472
15.844000000000001,-0.011758518031261525
15.848,-0.011759287328635135
15.852,-0.011759792180036565
15.856,-0.011760417234152621
15.860000000000001,-0.011761378855869632
15.864,-0.011761955828899839
15.868,-0.011761354815326707
15.872,-0.011760417234152621
15.876,-0.011759335409720984
15.88,-0.01175895076103418
15.884,-0.011758686315062003
15.888,-0.01175976813949364
15.892,-0.011761354815326707
15.896,-0.011761835626185211
15.9,-0.01176260492355882
15.904,-0.011763566545275831
15.908,-0.01176402331559141
15.912,-0.011763446342561205
15.916,-0.011763542504732905
15.92,-0.011763903112876785
15.924,-0.011763566545275831
15.928,-0.011763326139846578
15.932,-0.011763181896589026
15.936,-0.011763734829076307
15.94,-0.011764047356134337
15.944,-0.01176438392373529
15.948,-0.011764672410250393
15.952,-0.011765634031967403
15.956,-0.011766090802282983
15.96,-0.01176661969422734
15.964,-0.01176661969422734
15.968,-0.011766812018570742
15.972,-0.011767316869972174
15.976,-0.011767388991600949
15.98,-0.011767701518658979
15.984,-0.011768086167345782
15.988,-0.011768374653860885
15.992,-0.011768350613317961
15.996,-0.011768615059290138
16.0,-0.011769192032320344
16.004,-0.011769095870148644
16.008,-0.011768542937661363
16.012,-0.011767965964631156
16.016000000000002,-0.01176707646454292
16.02,-0.011766042721197132
16.024,-0.011764119477763112
16.028,-0.011762917450616849
16.032,-0.011762292396500793
16.036,-0.011761138450440379
16.04,-0.01176072976121065
16.044,-0.011760970166639902
16.048000000000002,-0.011761162490983305
16.052,-0.01176128269369793
16.056,-0.011762628964101745
16.06,-0.0117630616938744
16.064,-0.011764311802106514
16.068,-0.01176529746436645
16.072,-0.0117653455454523
16.076,-0.011765129180565973
16.080000000000002,-0.011765465748166927
16.084,-0.011766427369883937
16.088,-0.011767316869972174
16.092,-0.011768110207888708
16.096,-0.011768014045717007
16.1,-0.011767461113229726
16.104,-0.011768014045717007
16.108,-0.011768951626891093
16.112000000000002,-0.011770105572951505
16.116,-0.01177022577566613
16.12,-0.011769793045893475
16.124,-0.011769240113406194
16.128,-0.011768374653860885
16.132,-0.01176799000517408
16.136,-0.011767388991600949
