time,channel1
0.0,0.005610077056496587
0.004,0.005611206962014075
0.008,0.005616832449058586
0.012,0.005623876328135688
0.016,0.005619765395295468
0.02,0.005611375245814551
0.024,0.005606278650714396
0.028,0.005607961488719164
0.032,0.0056064950156007225
0.036000000000000004,0.005604716015424253
0.04,0.005603754393707243
0.044,0.005612577272960814
0.048,0.005615918908427426
0.052000000000000005,0.00561534193539722
0.056,0.0056202221656110486
0.06,0.005623804206506913
0.064,0.005619933679095945
0.068,0.005620029841267646
0.07200000000000001,0.005624717747138072
0.076,0.005624116733564941
0.08,0.005623323395648407
0.084,0.005621664598186564
0.088,0.0056171209355736895
0.092,0.005617337300460016
0.096,0.005618419124891654
0.1,0.005621303990042685
0.10400000000000001,0.0056232272334767065
0.108,0.005627097760887673
0.112,0.005629718180066527
0.116,0.005622337733388471
0.12,0.005614596678566537
0.124,0.005614284151508508
0.128,0.005616616084172259
0.132,0.005621808841444116
0.136,0.005620077922353497
0.14,0.005619717314209617
0.14400000000000002,0.005619741354752543
0.148,0.005612577272960814
0.152,0.005609524124009306
0.156,0.0056075287589465094
0.16,0.0056038024747930935
0.164,0.00560620652908562
0.168,0.0056203664088685995
0.17200000000000001,0.005635704275254918
0.176,0.0056385410593200996
0.18,0.005638372775519623
0.184,0.005638204491719146
0.188,0.00563681014022948
0.192,0.005631521220785922
0.196,0.005628756558349516
0.2,0.0056259197742843355
0.20400000000000001,0.005625631287769233
0.20800000000000002,0.005628444031291488
0.212,0.00562589573374141
0.216,0.005628516152920264
0.22,0.005628564234006115
0.224,0.005625487044511681
0.228,0.005621568436014863
0.232,0.0056240205713932396
0.23600000000000002,0.005625559166140457
0.24,0.005626064017541887
0.244,0.005628155544776385
0.248,0.005625463003968756
0.252,0.0056235397605347345
0.256,0.005620558733212002
0.26,0.005617649827518045
0.264,0.0056145005163948354
0.268,0.005615918908427426
0.272,0.005618178719462401
0.276,0.005619164381722336
0.28,0.0056205346926690766
0.28400000000000003,0.005622481976646023
0.28800000000000003,0.005618010435661924
0.292,0.005613322529791498
0.296,0.005616063151684977
0.3,0.005623058949676229
0.304,0.005624044611936165
0.308,0.005623828247049838
0.312,0.005626400585142841
0.316,0.005625559166140457
0.32,0.005629357571922648
0.324,0.0056237080443352115
0.328,0.005621015503527582
0.332,0.00561858740869213
0.336,0.0056152217326825935
0.34,0.005611567570157953
0.34400000000000003,0.005615077489425042
0.34800000000000003,0.00561447647585191
0.352,0.005609932813239036
0.356,0.005615702543541099
0.36,0.005622554098274799
0.364,0.005619933679095945
0.368,0.005617096895030764
0.372,0.005619284584436963
0.376,0.005618058516747774
0.38,0.005615894867884501
0.384,0.005617697908603896
0.388,0.005617577705889269
0.392,0.00561447647585191
0.396,0.005618539327606279
0.4,0.005620270246696898
0.404,0.005614524556937761
0.40800000000000003,0.005612577272960814
0.41200000000000003,0.005616471840914707
0.41600000000000004,0.005617024773401988
0.42,0.005615678502998173
0.424,0.0056174334626317175
0.428,0.005618851854664308
0.432,0.005615678502998173
0.436,0.0056155342597406215
0.44,0.005614548597480686
0.444,0.005616519922000558
0.448,0.005621712679272414
0.452,0.005619621152037917
0.456,0.005619332665522813
0.46,0.005623419557820108
0.464,0.005621183787328059
0.468,0.005616808408515661
0.47200000000000003,0.005618226800548251
0.47600000000000003,0.005614067786622181
0.48,0.005609091394236651
0.484,0.0056128417189329925
0.488,0.005617337300460016
0.492,0.005618250841091177
0.496,0.00562173671981534
0.5,0.005625703409398008
0.504,0.005619164381722336
0.508,0.0056144283947660596
0.512,0.005614404354223134
0.516,0.005613899502821704
0.52,0.005610557867355093
0.524,0.005609572205095156
0.528,0.005615966989513277
0.532,0.005617000732859063
0.536,0.005612769597304217
0.54,0.0056170488139449136
0.544,0.005617481543717568
0.548,0.00561168777287258
0.552,0.005612553232417889
0.556,0.005619885598010094
0.56,0.005624789868766848
0.5640000000000001,0.0056221934901309195
0.5680000000000001,0.005621664598186564
0.5720000000000001,0.005619717314209617
0.5760000000000001,0.005625342801254129
0.58,0.005627121801430599
0.584,0.005622794503704051
0.588,0.005619837516924244
0.592,0.005619693273666692
0.596,0.005616904570687362
0.6,0.005612913840561768
0.604,0.005613082124362245
0.608,0.005612889800018843
0.612,0.005615293854311369
0.616,0.0056135629352207506
0.62,0.005612961921647619
0.624,0.005616543962543483
0.628,0.005621712679272414
0.632,0.00562127994949976
0.636,0.005617457503174643
0.64,0.005619284584436963
0.644,0.00562310703076208
0.648,0.005622025206330443
0.652,0.005620943381898806
0.656,0.00561310616490517
0.66,0.005613322529791498
0.664,0.005617577705889269
0.668,0.005619308624979888
0.672,0.005617890232947297
0.676,0.005619981760181796
0.68,0.0056183950843487285
0.684,0.005617481543717568
0.6880000000000001,0.005617577705889269
0.6920000000000001,0.005616808408515661
0.6960000000000001,0.005618178719462401
0.7000000000000001,0.00561762578697512
0.704,0.005617770030232672
0.708,0.005616736286886885
0.712,0.005615125570510892
0.716,0.0056135629352207506
0.72,0.005612072421559384
0.724,0.005609379880751755
0.728,0.005610702110612644
0.732,0.0056052208668256834
0.736,0.005602792771990233
0.74,0.005603610150449691
0.744,0.005601037812356688
0.748,0.005600124271725528
0.752,0.005609644326723932
0.756,0.005615149611053818
0.76,0.005614861124538714
0.764,0.005614043746079256
0.768,0.005619693273666692
0.772,0.005620630854840778
0.776,0.005619981760181796
0.78,0.005618851854664308
0.784,0.00561676032742981
0.788,0.005619981760181796
0.792,0.005621015503527582
0.796,0.005613755259564152
0.8,0.005614212029879733
0.804,0.005617000732859063
0.808,0.005619404787151589
0.812,0.005620174084525198
0.8160000000000001,0.005617024773401988
0.8200000000000001,0.00561813063837655
0.8240000000000001,0.005620991462984656
0.8280000000000001,0.0056232993551054815
0.8320000000000001,0.00562041448995445
0.836,0.005617890232947297
0.84,0.00561214454318816
0.844,0.005614091827165106
0.848,0.0056163275976571555
0.852,0.005613538894677825
0.856,0.005612096462102309
0.86,0.005610293421382914
0.864,0.005608201894148417
0.868,0.005601614785386894
0.872,0.005603321663934588
0.876,0.0056107742322414195
0.88,0.005624789868766848
0.884,0.0056341656805077005
0.888,0.005640296018953644
0.892,0.00563726691054506
0.896,0.005630800004498164
0.9,0.005625318760711204
0.904,0.005621856922529966
0.908,0.005623179152390856
0.912,0.005621424192757312
0.916,0.005620630854840778
0.92,0.005623395517277183
0.924,0.005621015503527582
0.928,0.005620150043982273
0.932,0.005621953084701667
0.936,0.005621424192757312
0.9400000000000001,0.005617577705889269
0.9440000000000001,0.005613442732506124
0.9480000000000001,0.005613899502821704
0.9520000000000001,0.005614644759652387
0.9560000000000001,0.005616976692316138
0.96,0.005617890232947297
0.964,0.00561858740869213
0.968,0.005619164381722336
0.972,0.005618515287063354
0.976,0.00561726517883124
0.98,0.005615510219197696
0.984,0.005616856489601511
0.988,0.005619284584436963
0.992,0.005618106597833625
0.996,0.005618178719462401
1.0,0.0056135629352207506
1.004,0.005608923110436174
1.008,0.005610918475498971
1.012,0.005610533826812167
1.016,0.005609091394236651
1.02,0.005610918475498971
1.024,0.005613659097392451
1.028,0.005620270246696898
1.032,0.005615582340826472
1.036,0.005610437664640466
1.04,0.005614380313680209
1.044,0.005616039111142052
1.048,0.005611519489072103
1.052,0.005611759894501356
1.056,0.005609716448352708
1.06,0.005602432163846353
1.064,0.005601927312444923
1.068,0.0056059420831134415
1.072,0.00560671138048705
1.076,0.005609812610524409
1.08,0.005610389583554616
1.084,0.005608153813062566
1.088,0.005611351205271626
1.092,0.005611928178301832
1.096,0.005612481110789113
1.1,0.005614043746079256
1.104,0.0056083220968630425
1.108,0.005608249975234267
1.112,0.005611928178301832
1.116,0.005614356273137284
1.12,0.005615678502998173
1.124,0.005604932380310581
1.1280000000000001,0.005600004069010902
1.1320000000000001,0.005602576407103905
1.1360000000000001,0.005608586542835221
1.1400000000000001,0.005609620286181007
1.1440000000000001,0.00560940392129468
1.1480000000000001,0.005613250408162722
1.1520000000000001,0.005614909205624565
1.156,0.005613034043276394
1.16,0.005618731651949682
1.164,0.005615486178654771
1.168,0.0056157746651698745
1.172,0.005615149611053818
1.176,0.005614380313680209
1.18,0.005617577705889269
1.184,0.005616784367972735
1.188,0.005615245773225519
1.192,0.005611832016130131
1.196,0.005614404354223134
1.2,0.005612937881104694
1.204,0.005619164381722336
1.208,0.00561214454318816
1.212,0.00560716815080263
1.216,0.005611928178301832
1.22,0.005615918908427426
1.224,0.00561310616490517
1.228,0.005615510219197696
1.232,0.00561904417900771
1.236,0.005617217097745391
1.24,0.005615005367796266
1.244,0.005611519489072103
1.248,0.005610966556584822
1.252,0.005611206962014075
1.256,0.005611110799842374
1.26,0.005613418691963199
1.264,0.00561726517883124
1.268,0.005616543962543483
1.272,0.005615462138111846
1.276,0.005619693273666692
1.28,0.005617000732859063
1.284,0.0056112550430999246
1.288,0.005610245340297064
1.292,0.005614620719109462
1.296,0.005618178719462401
1.3,0.0056183950843487285
1.304,0.005612384948617413
1.308,0.005612673435132515
1.312,0.005615462138111846
1.316,0.005613298489248572
1.32,0.0056112550430999246
1.324,0.005609644326723932
1.328,0.005618539327606279
1.332,0.005619717314209617
1.336,0.005612384948617413
1.34,0.0056131542459910205
1.344,0.005614620719109462
1.348,0.005617577705889269
1.352,0.005618851854664308
1.356,0.005620943381898806
1.36,0.005626184220256514
1.364,0.0056242609768224925
1.368,0.005619332665522813
1.372,0.005617770030232672
1.3760000000000001,0.005616664165258109
1.3800000000000001,0.005616495881457633
1.3840000000000001,0.005618250841091177
1.3880000000000001,0.005619164381722336
1.3920000000000001,0.0056206068142978525
1.3960000000000001,0.005622506017188948
1.4000000000000001,0.00562452542279467
1.4040000000000001,0.00562310703076208
1.408,0.005621832881987041
1.412,0.005618371043805803
1.416,0.005618779733035532
1.42,0.005623587841620585
1.424,0.005622313692845546
1.428,0.005618731651949682
1.432,0.005616183354399604
1.436,0.0056142601109655825
1.44,0.005618058516747774
1.444,0.00561264939458959
1.448,0.005613899502821704
1.452,0.00561726517883124
1.456,0.005614067786622181
1.46,0.005614043746079256
1.464,0.005613731219021227
1.468,0.005616808408515661
1.472,0.0056128417189329925
1.476,0.0056093558402088295
1.48,0.005611591610700879
1.484,0.005616856489601511
1.488,0.005616135273313753
1.492,0.005620029841267646
1.496,0.005622650260446499
1.5,0.00562082317918418
1.504,0.005624886030938549
1.508,0.005625174517453652
1.512,0.005619861557467169
1.516,0.005625198557996577
1.52,0.005632530923588783
1.524,0.0056224338955601725
1.528,0.005614452435308985
1.532,0.005618539327606279
1.536,0.005620630854840778
1.54,0.0056214722738431614
1.544,0.0056248139093097735
1.548,0.005623515719991809
1.552,0.005619621152037917
1.556,0.00561813063837655
1.56,0.005618731651949682
1.564,0.005619068219550635
1.568,0.005625054314739026
1.572,0.005625703409398008
1.576,0.005624717747138072
1.58,0.005623491679448884
1.584,0.005616688205801034
1.588,0.005610509786269242
1.592,0.005615293854311369
1.596,0.005612961921647619
1.6,0.005604547731623777
1.604,0.005597239406574497
1.608,0.005598225068834432
1.612,0.005606038245285143
1.616,0.005624861990395624
1.62,0.005636569734800227
1.624,0.005642940478675423
1.6280000000000001,0.005645777262740604
1.6320000000000001,0.005640464302754121
1.6360000000000001,0.0056367860996865546
1.6400000000000001,0.0056301989909250325
1.6440000000000001,0.005626064017541887
1.6480000000000001,0.005622794503704051
1.6520000000000001,0.005623034909133304
1.6560000000000001,0.005624621584966371
1.6600000000000001,0.0056270256392588975
1.6640000000000001,0.0056272660446881504
1.668,0.005624621584966371
1.672,0.005625511085054606
1.676,0.005619669233123767
1.68,0.00562442926062297
1.684,0.005628323828576862
1.688,0.00562589573374141
1.692,0.005620438530497375
1.696,0.0056166401247151835
1.7,0.00561493324616749
1.704,0.005620101962896422
1.708,0.005621760760358265
1.712,0.005619188422265262
1.716,0.005619693273666692
1.72,0.005625559166140457
1.724,0.005626304422971139
1.728,0.0056221934901309195
1.732,0.0056242609768224925
1.736,0.005624381179537119
1.74,0.005625174517453652
1.744,0.005621520354929012
1.748,0.005618683570863831
1.752,0.005616952651773212
1.756,0.005617481543717568
1.76,0.005622842584789902
1.764,0.005623996530850314
1.768,0.005624789868766848
1.772,0.005623515719991809
1.776,0.005615414057025996
1.78,0.005616664165258109
1.784,0.005624453301165894
1.788,0.005622385814474322
1.792,0.005621015503527582
1.796,0.005619380746608664
1.8,0.005618827814121383
1.804,0.005617770030232672
1.808,0.0056163275976571555
1.812,0.005615462138111846
1.816,0.005614452435308985
1.82,0.005616471840914707
1.824,0.0056157987057128
1.828,0.005618899935750159
1.832,0.00562269834153235
1.836,0.005616976692316138
1.84,0.005619332665522813
1.844,0.005625511085054606
1.848,0.005624789868766848
1.852,0.005617697908603896
1.856,0.005615870827341576
1.86,0.0056152217326825935
1.864,0.005612865759475918
1.868,0.005616592043629334
1.872,0.005618371043805803
1.8760000000000001,0.005615414057025996
1.8800000000000001,0.005615582340826472
1.8840000000000001,0.005617938314033148
1.8880000000000001,0.005619789435838393
1.8920000000000001,0.005623058949676229
1.8960000000000001,0.005622794503704051
1.9000000000000001,0.005620126003439347
1.9040000000000001,0.005621231868413909
1.9080000000000001,0.005619308624979888
1.9120000000000001,0.005618659530320906
1.9160000000000001,0.00562406865247909
1.92,0.005621712679272414
1.924,0.005622578138817724
1.928,0.005620077922353497
1.932,0.005624044611936165
1.936,0.005629670098980677
1.94,0.005629477774637274
1.944,0.005618731651949682
1.948,0.005616928611230287
1.952,0.005619885598010094
1.956,0.005620943381898806
1.96,0.005622457936103098
1.964,0.005623347436191332
1.968,0.005622914706418678
1.972,0.005619380746608664
1.976,0.00562178480090119
1.98,0.005621135706242208
1.984,0.0056209193413558805
1.988,0.0056251264363678015
1.992,0.005622794503704051
1.996,0.005623876328135688
2.0,0.005625102395824876
2.004,0.005623876328135688
2.008,0.005626665031115019
2.012,0.005623900368678613
2.016,0.0056181546789194755
2.02,0.005619789435838393
2.024,0.0056235397605347345
2.028,0.005628035342061759
2.032,0.005626953517630122
2.036,0.005617024773401988
2.04,0.0056183950843487285
2.044,0.005626905436544271
2.048,0.005628948882692919
2.052,0.005623275314562556
2.056,0.005621111665699283
2.06,0.0056256793688550825
2.064,0.005626424625685766
2.068,0.005627290085231076
2.072,0.005623347436191332
2.076,0.005621303990042685
2.08,0.0056270256392588975
2.084,0.005629910504409929
2.088,0.005630607680154762
2.092,0.005625559166140457
2.096,0.0056256793688550825
2.1,0.005623395517277183
2.104,0.005622481976646023
2.108,0.005623876328135688
2.112,0.005622554098274799
2.116,0.00562635250405699
2.12,0.00563087212612694
2.124,0.005626953517630122
2.128,0.00562173671981534
2.132,0.005622866625332827
2.136,0.005624357138994194
2.14,0.005625270679625353
2.144,0.005616784367972735
2.148,0.005614236070422657
2.152,0.005622842584789902
2.156,0.005625631287769233
2.16,0.005626136139170663
2.164,0.005622457936103098
2.168,0.005621953084701667
2.172,0.005625463003968756
2.176,0.005627362206859852
2.18,0.005621303990042685
2.184,0.005621015503527582
2.188,0.005626136139170663
2.192,0.005630775963955239
2.196,0.005629670098980677
2.2,0.005626689071657944
2.204,0.005626448666228691
2.208,0.005622145409045069
2.212,0.0056160871922279025
2.216,0.005613851421735853
2.22,0.005616495881457633
2.224,0.005617794070775597
2.228,0.0056210876251563575
2.232,0.005624236936279567
2.236,0.0056272660446881504
2.24,0.005623635922706436
2.244,0.005624188855193717
2.248,0.005628347869119787
2.2520000000000002,0.005631713545129324
2.2560000000000002,0.005631809707301025
2.2600000000000002,0.005634478207565729
2.2640000000000002,0.005632843450646812
2.2680000000000002,0.005634814775166683
2.2720000000000002,0.005633516585848718
2.2760000000000002,0.005633348302048242
2.2800000000000002,0.005635656194169067
2.2840000000000003,0.005635055180595936
2.2880000000000003,0.005632723247932185
2.2920000000000003,0.005629309490836797
2.2960000000000003,0.005628083423147609
2.3000000000000003,0.005626929477087196
2.3040000000000003,0.005631665464043473
2.308,0.005631352936985445
2.312,0.005624188855193717
2.316,0.005626184220256514
2.32,0.005630800004498164
2.324,0.005631160612642043
2.328,0.005633420423677018
2.332,0.0056323385992453805
2.336,0.005630727882869388
2.34,0.005632314558702455
2.344,0.0056306798017835375
2.348,0.005628924842149993
2.352,0.005624164814650791
2.356,0.005617745989689746
2.36,0.005613418691963199
2.364,0.005615582340826472
2.368,0.00562676119328672
2.372,0.005645729181654753
2.376,0.00565630702054187
2.38,0.0056544799392795496
2.384,0.005651667195757293
2.388,0.005644214627450462
2.392,0.00565087385784076
2.396,0.005649743952323273
2.4,0.005641594208271608
2.404,0.005635728315797843
2.408,0.005633588707477494
2.412,0.00563543982928274
2.416,0.005638324694433773
2.42,0.005634862856252533
2.424,0.005627073720344748
2.428,0.005629622017894826
2.432,0.005632867491189736
2.436,0.005630295153096734
2.44,0.00563137697752837
2.444,0.0056351994238534875
2.448,0.005631304855899594
2.452,0.005627554531203253
2.456,0.005628564234006115
2.46,0.005628636355634891
2.464,0.005629237369208022
2.468,0.005629477774637274
2.472,0.0056307519234123134
2.476,0.005630848085584015
2.48,0.00563498305896716
2.484,0.005632434761417082
2.488,0.00563229051815953
2.492,0.005630992328841566
2.496,0.00563219435598783
2.5,0.005628804639435367
2.504,0.00562452542279467
2.508,0.005629333531379723
2.512,0.005638012167375744
2.516,0.0056386131809488755
2.52,0.005637050545658733
2.524,0.005632362639788306
2.528,0.005630271112553808
2.532,0.005632410720874156
2.536,0.005634574369737431
2.54,0.005631641423500549
2.544,0.005630319193639659
2.548,0.005628419990748563
2.552,0.005626232301342364
2.556,0.005624741787680998
2.56,0.005622337733388471
2.564,0.00562452542279467
2.568,0.005627963220432983
2.572,0.0056274343284886275
2.576,0.005628468071834414
2.58,0.005629838382781154
2.584,0.005631905869472726
2.588,0.0056323385992453805
2.592,0.0056271939230593745
2.596,0.005623972490307389
2.6,0.005625318760711204
2.604,0.005628347869119787
2.608,0.00563000666658163
2.612,0.0056264727067716165
2.616,0.005628948882692919
2.62,0.005632386680331231
2.624,0.005633805072363822
2.628,0.005633035774990213
2.632,0.0056259197742843355
2.636,0.005626112098627738
2.64,0.005629285450293872
2.644,0.005631425058614221
2.648,0.005634910937338384
2.652,0.005636593775343152
2.656,0.005633252139876541
2.66,0.005632314558702455
2.664,0.005630655761240612
2.668,0.005631593342414698
2.672,0.005633228099333616
2.676,0.005632098193816128
2.68,0.0056296460584377515
2.684,0.00563269920738926
2.688,0.005642579870531544
2.692,0.005642892397589572
2.696,0.005633781031820897
2.7,0.005628828679978292
2.704,0.0056307519234123134
2.708,0.005633516585848718
2.712,0.005635151342767637
2.716,0.005629766261152378
2.72,0.005626039976998962
2.724,0.0056256793688550825
2.728,0.00562904504486462
2.732,0.005627698774460805
2.736,0.00563000666658163
2.74,0.005629838382781154
2.744,0.005632218396530755
2.748,0.00563183374784395
2.7520000000000002,0.005635415788739814
2.7560000000000002,0.005639526721580036
2.7600000000000002,0.0056398873297239145
2.7640000000000002,0.005640007532438541
2.7680000000000002,0.0056336127480204196
2.7720000000000002,0.005631809707301025
2.7760000000000002,0.0056314731397000715
2.7800000000000002,0.005634622450823281
2.7840000000000003,0.0056360648833987965
2.7880000000000003,0.005636377410456825
2.7920000000000003,0.005640848951440925
2.7960000000000003,0.005634694572452056
2.8000000000000003,0.005632074153273203
2.8040000000000003,0.00563000666658163
2.8080000000000003,0.005628996963778769
2.8120000000000003,0.005628708477263666
2.816,0.00563452628865158
2.82,0.005642075019130113
2.824,0.005643709776049032
2.828,0.0056390939918073806
2.832,0.005638180451176221
2.836,0.005637699640317716
2.84,0.005636930342944106
2.844,0.005640536424382897
2.848,0.005638252572804997
2.852,0.005637194788916284
2.856,0.005635055180595936
2.86,0.005631713545129324
2.864,0.005629333531379723
2.868,0.00562772281500373
2.872,0.005630944247755716
2.876,0.00563315597770484
2.88,0.005635920640141245
2.884,0.005635728315797843
2.888,0.0056417865326150105
2.892,0.005639670964837587
2.896,0.005632795369560961
2.9,0.005632266477616605
2.904,0.005636497613171451
2.908,0.005639069951264455
2.912,0.005641401883928206
2.916,0.005640897032526775
2.92,0.005640271978410718
2.924,0.005633781031820897
2.928,0.0056312327342708185
2.932,0.005627602612289104
2.936,0.005622073287416293
2.94,0.005625943814827261
2.944,0.005637290951087985
2.948,0.005628924842149993
2.952,0.005620799138641255
2.956,0.005618491246520429
2.96,0.0056207750980983295
2.964,0.00561990963855302
2.968,0.00561995771963887
2.972,0.005629357571922648
2.976,0.0056246456255092964
2.98,0.005619765395295468
2.984,0.0056173613410029416
2.988,0.00561813063837655
2.992,0.005618106597833625
2.996,0.005621424192757312
3.0,0.005626665031115019
3.004,0.0056274343284886275
3.008,0.005629790301695303
3.012,0.005628107463690534
3.016,0.0056253668417970545
3.02,0.00562539088233998
3.024,0.005629597977351901
3.028,0.005631809707301025
3.032,0.005630631720697687
3.036,0.005635055180595936
3.04,0.005631497180242997
3.044,0.0056267131122008695
3.048,0.005625823612112634
3.052,0.005621712679272414
3.056,0.005618539327606279
3.06,0.005622578138817724
3.064,0.005622914706418678
3.068,0.005624453301165894
3.072,0.0056224338955601725
3.076,0.005624501382251745
3.08,0.005628948882692919
3.084,0.005633588707477494
3.088,0.005627794936632506
3.092,0.005620270246696898
3.096,0.005619284584436963
3.1,0.005617794070775597
3.104,0.005619212462808187
3.108,0.005612336867531562
3.112,0.005606759461572901
3.116,0.00561264939458959
3.12,0.0056224338955601725
3.124,0.005635896599598319
3.128,0.005643349167905152
3.132,0.0056468590871722405
3.136,0.005648854452235038
3.14,0.005645633019483052
3.144,0.005640175816239018
3.148,0.005634358004851103
3.152,0.005627121801430599
3.156,0.005627386247402777
3.16,0.005629309490836797
3.164,0.005630631720697687
3.168,0.005631184653184968
3.172,0.005629429693551424
3.176,0.005626881396001346
3.18,0.005628155544776385
3.184,0.005623876328135688
3.188,0.005621832881987041
3.192,0.005625318760711204
3.196,0.005628347869119787
3.2,0.0056298143422382286
3.204,0.005629285450293872
3.208,0.0056249341120244
3.212,0.005627794936632506
3.216,0.005630487477440135
3.22,0.005626929477087196
3.224,0.00562767473391788
3.228,0.005626520787857467
3.232,0.005622866625332827
3.236,0.005623347436191332
3.24,0.005626544828400392
3.244,0.0056279872609759085
3.248,0.005622890665875752
3.2520000000000002,0.005614380313680209
3.2560000000000002,0.005611928178301832
3.2600000000000002,0.005612937881104694
3.2640000000000002,0.005617409422088792
3.2680000000000002,0.005621977125244593
3.2720000000000002,0.005622457936103098
3.2760000000000002,0.005619380746608664
3.2800000000000002,0.005622001165787518
3.2840000000000003,0.005624501382251745
3.2880000000000003,0.005625246639082428
3.2920000000000003,0.005622385814474322
3.2960000000000003,0.0056237080443352115
3.3000000000000003,0.005618827814121383
3.3040000000000003,0.005620943381898806
3.3080000000000003,0.0056218809630728915
3.3120000000000003,0.005617481543717568
3.3160000000000003,0.005606999867002154
3.3200000000000003,0.005606687339944125
3.3240000000000003,0.005613611016306601
3.3280000000000003,0.005623034909133304
3.332,0.005623034909133304
3.336,0.005620582773754927
3.34,0.005620174084525198
3.344,0.005617697908603896
3.348,0.005616616084172259
3.352,0.005616423759828857
3.356,0.005620342368325674
3.36,0.005620294287239824
3.364,0.005620991462984656
3.368,0.0056192605438940375
3.372,0.00561716901665954
3.376,0.00562173671981534
3.38,0.005625078355281951
3.384,0.005628275747491011
3.388,0.005627626652832029
3.392,0.005629766261152378
3.396,0.005621856922529966
3.4,0.005615582340826472
3.404,0.005620150043982273
3.408,0.005630054747667481
3.412,0.0056296460584377515
3.416,0.0056259197742843355
3.42,0.005627794936632506
3.424,0.005631641423500549
3.428,0.005632506883045858
3.432,0.005630487477440135
3.436,0.005630992328841566
3.44,0.005630535558525986
3.444,0.005626424625685766
3.448,0.005627314125774001
3.452,0.005630247072010883
3.456,0.005636088923941722
3.46,0.005632963653361437
3.464,0.0056317856667580995
3.468,0.005634622450823281
3.472,0.00563224243707368
3.476,0.005632362639788306
3.48,0.0056380602484615945
3.484,0.00563548791036859
3.488,0.0056312327342708185
3.492,0.0056288527205212175
3.496,0.005630607680154762
3.5,0.005629718180066527
3.504,0.005629718180066527
3.508,0.005635415788739814
3.512,0.005635896599598319
3.516,0.005626015936456037
3.52,0.005623251274019631
3.524,0.005633877193992598
3.528,0.0056390939918073806
3.532,0.005636137005027572
3.536,0.005634093558878925
3.54,0.0056385410593200996
3.544,0.005641425924471131
3.548,0.005635656194169067
3.552,0.005635343667111038
3.556,0.005635560031997366
3.56,0.005637242870002134
3.564,0.005635968721227095
3.568,0.0056370986267445826
3.572,0.005636016802312946
3.576,0.005638565099863025
3.58,0.005641810573157936
3.584,0.005640007532438541
3.588,0.005634141639964775
3.592,0.005633444464219943
3.596,0.005638252572804997
3.6,0.005639695005380512
3.604,0.005636209126656348
3.608,0.005630391315268435
3.612,0.005630848085584015
3.616,0.005640921073069701
3.62,0.005647796668346326
3.624,0.005642219262387665
3.628,0.005635247504939338
3.632,0.005636473572628526
3.636,0.00563548791036859
3.64,0.005640055613524392
3.644,0.005643541492248555
3.648,0.005641257640670655
3.652,0.005638252572804997
3.656,0.005636689937514853
3.66,0.0056370265051158075
3.664,0.0056378198430323415
3.668,0.005641401883928206
3.672,0.005639863289180989
3.676,0.005642964519218348
3.68,0.005640728748726299
3.684,0.005635151342767637
3.688,0.005637940045746968
3.692,0.0056417865326150105
3.696,0.005641642289357459
3.7,0.005641690370443309
3.704,0.005639622883751736
3.708,0.0056378198430323415
3.712,0.005631665464043473
3.716,0.005626665031115019
3.72,0.005632002031644427
3.724,0.005638396816062548
3.728,0.005633756991277971
3.732,0.005628011301518834
3.736,0.005631521220785922
3.74,0.005639598843208811
3.744,0.005640945113612626
3.748,0.005637218829459209
3.7520000000000002,0.005634213761593551
3.7560000000000002,0.005637699640317716
3.7600000000000002,0.0056377477214035665
3.7640000000000002,0.005640704708183374
3.7680000000000002,0.005651042141641236
3.7720000000000002,0.005646690803371764
3.7760000000000002,0.005645777262740604
3.7800000000000002,0.005647123533144419
3.7840000000000003,0.005648878492777963
3.7880000000000003,0.005654407817650774
3.7920000000000003,0.005650705574040283
3.7960000000000003,0.005647027370972718
3.8000000000000003,0.005646258073599109
3.8040000000000003,0.005646258073599109
3.8080000000000003,0.00565046516861103
3.8120000000000003,0.005650320925353479
3.8160000000000003,0.00564671484391469
3.8200000000000003,0.005644983924824071
3.8240000000000003,0.00564859000626286
3.8280000000000003,0.005649215060378916
3.8320000000000003,0.0056426519921603194
3.8360000000000003,0.0056422673434735155
3.84,0.005640608546011673
3.844,0.0056393343972366335
3.848,0.005637795802489416
3.852,0.005630607680154762
3.856,0.005629309490836797
3.86,0.005635079221138861
3.864,0.005647147573687344
3.868,0.005661091088583997
3.872,0.005667533954087967
3.876,0.005674193184478265
3.88,0.005671813170728664
3.884,0.0056644567645935335
3.888,0.005668423454176202
3.892,0.005666067480969526
3.896,0.005659937142523584
3.9,0.0056539991284210445
3.904,0.005656186817827243
3.908,0.00565498479068098
3.912,0.005651402749785116
3.916,0.00564584938436938
3.92,0.0056497199117803475
3.924,0.005650849817297835
3.928,0.005644695438308967
3.932,0.005648253438661906
3.936,0.005650200722638853
3.94,0.005657533088231058
3.944,0.005657148439544253
3.948,0.0056561387367413925
3.952,0.005651162344355863
3.956,0.00564676292500054
3.96,0.005646618681742988
3.964,0.005648277479204831
3.968,0.005649864155037898
3.972,0.005649215060378916
3.976,0.0056500324388383755
3.98,0.005651354668699265
3.984,0.005656547425971122
3.988,0.005658086020718339
3.992,0.005661187250755698
3.996,0.0056590716829782745
4.0,0.005643733816591957
4.0040000000000004,0.005641666329900384
4.008,0.005646690803371764
4.0120000000000005,0.005646113830341558
4.016,0.005646474438485437
4.0200000000000005,0.005649287182007692
4.024,0.005649359303636468
4.0280000000000005,0.005647964952146803
4.032,0.005652724979646005
4.0360000000000005,0.005650681533497358
4.04,0.00564671484391469
4.0440000000000005,0.0056470994926014935
4.048,0.005648421722462383
4.0520000000000005,0.005650657492954432
4.056,0.005649191019835992
4.0600000000000005,0.0056458253438264544
4.064,0.005647580303459999
4.0680000000000005,0.005651715276843144
4.072,0.005654143371678595
4.0760000000000005,0.0056532057905045105
4.08,0.005648902533320888
4.0840000000000005,0.005644310789622163
4.088,0.0056377477214035665
4.0920000000000005,0.005636930342944106
4.096,0.0056391661134361564
4.1,0.005643277046276376
4.104,0.005645633019483052
4.108,0.005646234033056184
4.112,0.005643902100392433
4.116,0.0056431087624759
4.12,0.005644094424735836
4.124,0.005645488776225501
4.128,0.005644671397766042
4.132,0.005646113830341558
4.136,0.005652724979646005
4.14,0.005652388412045051
4.144,0.00564671484391469
4.148,0.0056519316417294714
4.152,0.005660826642611819
4.156,0.005660201588495762
4.16,0.005645633019483052
4.164,0.0056439261409353585
4.168,0.0056547924663375776
4.172,0.005658326426147591
4.176,0.005657557128773983
4.18,0.005655609844797037
4.184,0.005653422155390837
4.188,0.005650657492954432
4.192,0.005650897898383685
4.196,0.005651811439014845
4.2,0.005653710641905941
4.204,0.00565315770941866
4.208,0.005652989425618183
4.212,0.005654600141994176
4.216,0.005658254304518815
4.22,0.005657292682801805
4.224,0.005656739750314524
4.228,0.005661499777813726
4.232,0.0056614516967278756
4.236,0.005660682399354267
4.24,0.005661043007498146
4.244,0.005661764223785904
4.248,0.005651354668699265
4.252,0.005651450830870966
4.256,0.005654359736564923
4.26,0.005658566831576844
4.264,0.005660297750667463
4.268,0.0056622450346444095
4.272,0.005660850683154744
4.276,0.005655802169140439
4.28,0.005656956115200852
4.284,0.005664817372737413
4.288,0.005666981021600686
4.292,0.005661259372384473
4.296,0.005658783196463172
4.3,0.005662269075187335
4.304,0.005665250102510067
4.308,0.005670034170552195
4.312,0.00566873598123423
4.316,0.005665778994454423
4.32,0.005667702237888444
4.324,0.005669433156979063
4.328,0.005667173345944089
4.332,0.00567097175172628
4.336,0.005671236197698458
4.34,0.005670226494895597
4.344,0.005666019399883676
4.348,0.005660994926412296
4.352,0.005660345831753314
4.356,0.005664408683507683
4.36,0.005666596372913882
4.364,0.005663038372560943
4.368,0.005664360602421832
4.372,0.005667413751373341
4.376,0.0056676301162596684
4.38,0.005669288913721511
4.384,0.0056659472782549
4.388,0.005663182615818494
4.392,0.005665610710653946
4.396,0.005667029102686537
4.4,0.005664865453823263
4.404,0.005674024900677788
4.408,0.005670394778696073
4.412,0.005661259372384473
4.416,0.00566553858902517
4.42,0.005666788697257284
4.424,0.005665322224138843
4.428,0.0056612834129273985
4.432,0.0056627979671316905
4.436,0.005662028669758082
4.44,0.005659889061437734
4.444,0.005656475304342346
4.448,0.005656835912486225
4.452,0.005657557128773983
4.456,0.005656234898913094
4.46,0.005655994493483841
4.464,0.005658446628862218
4.468,0.005659744818180182
4.472,0.00566229311573026
4.476,0.0056651779808812915
4.48,0.005663062413103868
4.484,0.005664769291651562
4.488,0.005666812737800209
4.492,0.00566229311573026
4.496,0.005668038805489398
4.5,0.005670346697610223
4.5040000000000004,0.005665586670111021
4.508,0.005661619980528353
4.5120000000000005,0.005662966250932168
4.516,0.00565996118306651
4.5200000000000005,0.00566178826432883
4.524,0.0056678705216889206
4.5280000000000005,0.005665298183595918
4.532,0.00565863895320562
4.5360000000000005,0.005654912669052204
4.54,0.005656715709771599
4.5440000000000005,0.005659215926235826
4.548,0.00565777349366031
4.5520000000000005,0.005660538156096716
4.556,0.005653398114847913
4.5600000000000005,0.005654383777107848
4.564,0.005658446628862218
4.5680000000000005,0.005666500210742181
4.572,0.005662413318444887
4.5760000000000005,0.005653398114847913
4.58,0.005649671830694497
4.5840000000000005,0.005647460100745372
4.588,0.005641570167728683
4.5920000000000005,0.0056368582213153304
4.596,0.00564681100608639
4.6000000000000005,0.005662533521159512
4.604,0.005675900063025959
4.6080000000000005,0.005679794630979852
4.612,0.005678977252520393
4.616,0.0056769818874575955
4.62,0.005673904697963162
4.624,0.005669409116436138
4.628,0.0056636634266769995
4.632,0.0056633508996189715
4.636,0.005658158142347115
4.64,0.005658783196463172
4.644,0.005666788697257284
4.648,0.005667966683860622
4.652,0.005659191885692901
4.656,0.0056583504666905165
4.66,0.005663543223962374
4.664,0.005662052710301007
4.668,0.00566005734523821
4.672,0.005659768858723107
4.676,0.0056583504666905165
4.68,0.005659720777637257
4.684,0.0056660434404266005
4.688,0.005667846481145995
4.692,0.0056681109271181735
4.696,0.005669481238064914
4.7,0.0056646250483940105
4.704,0.005657677331488609
4.708,0.005655008831223905
4.712,0.005655850250226289
4.716,0.0056572446017159545
4.72,0.005659696737094331
4.724,0.005657629250402758
4.728,0.005654912669052204
4.732,0.005654720344708802
4.736,0.005658662993748545
4.74,0.00565914380460705
4.744,0.005661644021071278
4.748,0.005661860385957605
4.752,0.005653975087878119
4.756,0.005655249236653157
4.76,0.005657388844973506
4.764,0.00566092280478352
4.768,0.005667341629744565
4.772,0.005665322224138843
4.776,0.005659937142523584
4.78,0.005656018534026766
4.784,0.005655778128597514
4.788,0.0056598650208948085
4.792,0.005660105426324061
4.796,0.005655056912309756
4.8,0.005657364804430581
4.804,0.005658086020718339
4.808,0.005658927439720723
4.812,0.00565996118306651
4.816,0.00565731672334473
4.82,0.005656883993572076
4.824,0.0056612834129273985
4.828,0.005660225629038687
4.832,0.005658494709948068
4.836,0.005662269075187335
4.84,0.005665851116083199
4.844,0.005664649088936936
4.848,0.005655874290769214
4.852,0.005651234465984639
4.856,0.005659047642435349
4.86,0.00566686081888606
4.864,0.005667485873002117
4.868,0.005663543223962374
4.872,0.005664769291651562
4.876,0.005671524684213561
4.88,0.0056726305491881235
4.884,0.005669096589378109
4.888,0.005663735548305775
4.892,0.005662437358987811
4.896,0.005663086453646793
4.9,0.005662028669758082
4.904,0.005663543223962374
4.908,0.005664985656537889
4.912,0.00567005821109512
4.916,0.005674842279137247
4.92,0.005671091954440906
4.924,0.005667582035173818
4.928,0.005670587103039476
4.932,0.005672269941044244
4.936,0.005670659224668252
4.94,0.005671260238241383
4.944,0.005669817805665867
4.948,0.005676356833341539
4.952,0.005679578266093524
4.956,0.005676525117142016
4.96,0.0056766693603995675
4.964,0.005679097455235019
4.968,0.00567832815786141
4.972,0.0056801552391237305
4.976,0.005677895428088756
4.98,0.005679866752608627
4.984,0.005681092820297815
4.988,0.005682655455587958
4.992,0.005677510779401951
4.996,0.005677294414515624
5.0,0.005679169576863795
5.0040000000000004,0.00567878492817699
5.008,0.0056780877524321574
5.0120000000000005,0.005679530185007674
5.016,0.0056819342393002
5.0200000000000005,0.005685973050511644
5.024,0.005678039671346308
5.0280000000000005,0.005677655022659503
5.032,0.00567914553632087
5.0360000000000005,0.005677029968543446
5.04,0.0056793619012071965
5.0440000000000005,0.005679698468808151
5.048,0.005678159874060933
5.0520000000000005,0.005674746116965546
5.056,0.005671957413986216
5.0600000000000005,0.00567513076565235
5.064,0.0056788089687199155
5.0680000000000005,0.005681237063555367
5.072,0.005682463131244556
5.0760000000000005,0.00568279969884551
5.08,0.0056819342393002
5.0840000000000005,0.005679337860664271
5.088,0.005674385508821668
5.0920000000000005,0.005673928738506087
5.096,0.005675226927824051
5.1000000000000005,0.0056819823203860505
5.104,0.005680251401295432
5.1080000000000005,0.005688136699374918
5.112,0.005695445024424198
5.1160000000000005,0.005686670226256477
5.12,0.005689026199463152
5.124,0.005685684563996541
5.128,0.005683208388075239
5.132,0.00568243909070163
5.136,0.005678712806548214
5.14,0.00567828007677556
5.144,0.005680347563467133
5.148,0.005677078049629297
5.152,0.005675371171081603
5.156,0.005676308752255688
5.16,0.005680732212153937
5.164,0.005680732212153937
5.168,0.005680299482381282
5.172,0.005675924103568884
5.176,0.0056788089687199155
5.18,0.005685227793680961
5.184,0.005681693833870947
5.188,0.005681237063555367
5.192,0.005677054009086371
5.196,0.005671332359870159
5.2,0.0056694571975219885
5.204,0.005680756252696862
5.208,0.005692632280901942
5.212,0.005688425185890021
5.216,0.00568609325322627
5.22,0.005685275874766811
5.224,0.0056894348886928825
5.228,0.005694026632391607
5.232,0.005687175077657907
5.236,0.0056806360499822356
5.24,0.005687824172316889
5.244,0.005693425618818476
5.248,0.0056950603757373935
5.252,0.005693521780990177
5.256,0.005691502375384455
5.26,0.005685684563996541
5.264,0.005689074280549003
5.268,0.005690348429324042
5.272,0.005691189848326427
5.276,0.005693185213389223
5.28,0.0056937862269623545
5.284,0.00569467572705059
5.288,0.0056953007811666465
5.292,0.005692584199816091
5.296,0.005692055307871736
5.3,0.005689963780637238
5.304,0.005686766388428178
5.308,0.005678929171434542
5.312,0.005676068346826436
5.316,0.0056771501712580726
5.32,0.005672654589731048
5.324,0.005672558427559348
5.328,0.005688160739917843
5.332,0.005704676592907499
5.336,0.005712465728815284
5.34,0.005714989985822437
5.344,0.005710782890810516
5.348,0.005701094552011635
5.352,0.005695420983881273
5.356,0.005687439523630085
5.36,0.005686165374855046
5.364,0.00569198318624296
5.368,0.005689771456293836
5.372,0.0056915744970132305
5.376,0.005691141767240576
5.38,0.0056941949161920845
5.384,0.0056960219974544046
5.388,0.0056921274295005115
5.392,0.005685251834223887
5.396,0.005680539887810534
5.4,0.005686934672228655
5.404,0.005692824605245344
5.408,0.005692608240359017
5.412,0.005690059942808939
5.416,0.0056862615370267475
5.42,0.005685516280196064
5.424,0.005689290645435331
5.428,0.005693425618818476
5.432,0.0056886415507763485
5.436,0.005682126563643602
5.44,0.0056798427120657025
5.444,0.005677967549717532
5.448,0.005677342495601475
5.452,0.0056830881853606125
5.456,0.005687463564173011
5.46,0.00568924256434948
5.464,0.005690011861723089
5.468,0.00568513163150926
5.472,0.005685973050511644
5.476,0.0056902282266094156
5.48,0.005684891226080007
5.484,0.005675948144111809
5.488,0.005673351765475881
5.492,0.005674000860134863
5.496,0.0056777031037453535
5.5,0.005681116860840741
5.5040000000000004,0.005682559293416257
5.508,0.0056803956445529834
5.5120000000000005,0.0056819342393002
5.516,0.005684482536850278
5.5200000000000005,0.005681213023012442
5.524,0.00567553945488208
5.5280000000000005,0.005680083117494955
5.532,0.005681405347355844
5.5360000000000005,0.005680948577040264
5.54,0.005680948577040264
5.5440000000000005,0.005682342928529929
5.548,0.005684097888163473
5.5520000000000005,0.005685564361281915
5.556,0.005688208821003694
5.5600000000000005,0.005691093686154725
5.564,0.005686646185713551
5.5680000000000005,0.005678400279490186
5.572,0.005675611576510856
5.5760000000000005,0.005679578266093524
5.58,0.00568376132056252
5.5840000000000005,0.005684458496307353
5.588,0.005680732212153937
5.5920000000000005,0.005682415050158705
5.596,0.005683064144817687
5.6000000000000005,0.005682559293416257
5.604,0.005680371604010058
5.6080000000000005,0.005680756252696862
5.612,0.005685612442367765
5.6160000000000005,0.0056843623341356515
5.62,0.005683617077304968
5.6240000000000006,0.005683040104274762
5.628,0.005683544955676192
5.632,0.005687896293945665
5.636,0.0056915744970132305
5.64,0.005687463564173011
5.644,0.005684314253049801
5.648,0.005679313820121346
5.652,0.005679674428265225
5.656,0.005686862550599879
5.66,0.0056915744970132305
5.664,0.005688184780460769
5.668,0.00568243909070163
5.672,0.005677174211800998
5.676,0.005673760454705611
5.68,0.005680010995866179
5.684,0.005689627213036284
5.688,0.005692247632215138
5.692,0.005691117726697651
5.696,0.005690949442897174
5.7,0.0056937862269623545
5.704,0.005694579564878888
5.708,0.005691502375384455
5.712,0.005691454294298604
5.716,0.00568837710480417
5.72,0.005685973050511644
5.724,0.0056847469828224554
5.728,0.005691718740270782
5.732,0.005691911064614184
5.736,0.005681862117671424
5.74,0.005677606941573652
5.744,0.0056857086045394665
5.748,0.005695733510939301
5.752,0.0056958537136539275
5.756,0.005691911064614184
5.76,0.005690492672581594
5.764,0.005689867618465537
5.768,0.005691189848326427
5.772,0.005693449659361401
5.776,0.005694435321621337
5.78,0.005693978551305757
5.784,0.005695469064967124
5.788,0.005695733510939301
5.792,0.00569198318624296
5.796,0.005692055307871736
5.8,0.005689122361634854
5.804,0.0056895070103216575
5.808,0.005692944807959971
5.812,0.00569421895673501
5.816,0.005692944807959971
5.82,0.005687463564173011
5.824,0.0056904686320386685
5.828,0.005695901794739778
5.832,0.005696118159626105
5.836,0.0056923678349297645
5.84,0.005691382172669828
5.844,0.005691790861899558
5.848,0.005693762186419429
5.852,0.0056937862269623545
5.856,0.00569239187547269
5.86,0.005693449659361401
5.864,0.00569426703782086
5.868,0.005696911497542639
5.872,0.005695901794739778
5.876,0.005702609106215927
5.88,0.005702368700786674
5.884,0.005694579564878888
5.888,0.005690132064437714
5.892,0.0056846027395649045
5.896,0.005688569429147573
5.9,0.005688569429147573
5.904,0.005678953211977467
5.908,0.005681862117671424
5.912,0.005690420550952818
5.916,0.0056934015782755506
5.92,0.0056897474157509105
5.924,0.005688665591319274
5.928,0.005694892091936916
5.932,0.005696310483969507
5.936,0.005696358565055358
5.94,0.005698666457176183
5.944,0.0056953007811666465
5.948,0.005696911497542639
5.952,0.005704291944220695
5.956,0.005700036768122923
5.96,0.005702344660243748
5.964,0.005707080647200025
5.968,0.005704844876707976
5.972,0.005702128295357421
5.976,0.005701383038526738
5.98,0.005701791727756467
5.984,0.0056990270653200625
5.988,0.00570203213318572
5.992,0.0057033062819607586
5.996,0.005704291944220695
6.0,0.005707898025659484
6.0040000000000004,0.005706792160684922
6.008,0.005703955376619741
6.0120000000000005,0.005702392741329599
6.016,0.005698978984234212
6.0200000000000005,0.0056987866598908095
6.024,0.005695469064967124
6.0280000000000005,0.00569015610498064
6.032,0.005691911064614184
6.0360000000000005,0.005699171308577613
6.04,0.005694483402707187
6.0440000000000005,0.0056891944832636295
6.048,0.005689218523806555
6.0520000000000005,0.00569385834859113
6.056,0.005707393174258054
6.0600000000000005,0.005721432851326407
6.064,0.005730375933294605
6.0680000000000005,0.005727635311401125
6.072,0.0057232839731316525
6.0760000000000005,0.005712008958499704
6.08,0.005706119025483015
6.0840000000000005,0.005705109322680153
6.088,0.0057032341603319835
6.0920000000000005,0.005702897592731029
6.096,0.005701911930471094
6.1000000000000005,0.005701791727756467
6.104,0.005704532349649947
6.1080000000000005,0.005705926701139613
6.112,0.005701310916897962
6.1160000000000005,0.005699003024777137
6.12,0.005701358997983813
6.1240000000000006,0.005702609106215927
6.128,0.005702753349473478
6.132000000000001,0.0057054458902811075
6.136,0.0057033062819607586
6.140000000000001,0.005699171308577613
6.144,0.005694363199992561
6.148,0.005695108456823244
6.152,0.005698930903148361
6.156,0.0057009262682111575
6.16,0.005703594768475862
6.164,0.005707008525571249
6.168,0.0057070566066571
6.172,0.0057036188090187874
6.176,0.005702296579157898
6.18,0.00570162344395599
6.184,0.005703282241417834
6.188,0.005699964646494147
6.192,0.005698570295004482
6.196,0.005701527281784289
6.2,0.005701334957440888
6.204,0.0057017196061276915
6.208,0.005698882822062511
6.212,0.005696190281254881
6.216,0.005696430686684134
6.22,0.005698185646317678
6.224,0.005699916565408297
6.228,0.005701431119612589
6.232,0.005702609106215927
6.236,0.0057011666736404105
6.24,0.0057011666736404105
6.244,0.005700902227668232
6.248,0.005697296146229443
6.252,0.005697320186772368
6.256,0.005694795929765216
6.26,0.005692872686331195
6.264,0.005691790861899558
6.268,0.005686838510056954
6.272,0.005684170009792249
6.276,0.005694483402707187
6.28,0.005708763485204793
6.284,0.005704868917250901
6.288,0.005699435754549792
6.292,0.005700541619524354
6.296,0.005696815335370938
6.3,0.005695541186595899
6.304,0.00569796928143135
6.308,0.005701695565584766
6.312,0.005701863849385243
6.316,0.0057011666736404105
6.32,0.005698353930118155
6.324,0.005697849078716725
6.328,0.00570157536287014
6.332,0.005704364065849471
6.336,0.005704484268564097
6.34,0.005700229092466326
6.344,0.005699435754549792
6.348,0.005700469497895578
6.352,0.005702128295357421
6.356,0.005701238795269186
6.36,0.005698690497719108
6.364,0.005693497740447252
6.368,0.005695276740623721
6.372,0.005699772322150745
6.376,0.005705133363223079
6.38,0.005705518011909883
6.384,0.005704532349649947
6.388,0.005705085282137229
6.392,0.005704195782048994
6.396,0.005703835173905115
6.4,0.00570162344395599
6.404,0.005700806065496532
6.408,0.005701046470925784
6.412,0.005701070511468709
6.416,0.005697825038173799
6.42,0.005695445024424198
6.424,0.005698041403060126
6.428,0.005695757551482226
6.432,0.005696671092113387
6.436,0.005700421416809727
6.44,0.005698906862605436
6.444,0.005697416348944069
6.448,0.005701238795269186
6.452,0.005705878620053762
6.456,0.005701334957440888
6.46,0.0056937862269623545
6.464,0.0056982337274035285
6.468,0.005704171741506068
6.472,0.005703354363046609
6.476,0.005705037201051378
6.48,0.005706744079599072
6.484,0.005699964646494147
6.488,0.005701286876355037
6.492,0.005698642416633258
6.496,0.005699243430206389
6.5,0.0057019600115569445
6.5040000000000004,0.005700902227668232
6.508,0.0056987866598908095
6.5120000000000005,0.005697344227315293
6.516,0.005705878620053762
6.5200000000000005,0.005713066742388416
6.524,0.005713186945103042
6.5280000000000005,0.0057089317690052705
6.532,0.005706792160684922
6.5360000000000005,0.005705325687566481
6.54,0.005709051971719897
6.5440000000000005,0.00570792206620241
6.548,0.005707176809371726
6.5520000000000005,0.005706695998513221
6.556,0.005704796795622125
6.5600000000000005,0.005707609539144381
6.564,0.005713619674875697
6.5680000000000005,0.0057174180806578885
6.572,0.00571751424282959
6.5760000000000005,0.005714220688448828
6.58,0.005706070944397164
6.5840000000000005,0.005701599403413065
6.588,0.005704484268564097
6.5920000000000005,0.005704171741506068
6.596,0.005704916998336752
6.6000000000000005,0.00570157536287014
6.604,0.005701334957440888
6.6080000000000005,0.005700757984410681
6.612,0.005699195349120539
6.6160000000000005,0.005703282241417834
6.62,0.005704508309107022
6.6240000000000006,0.0057008541465823825
6.628,0.005695589267681749
6.632000000000001,0.005697392308401144
6.636,0.005704051538791442
6.640000000000001,0.005704604471278723
6.644,0.00570426790367777
6.648000000000001,0.0057096529852930285
6.652,0.005711720471984601
6.656000000000001,0.005706455593083968
6.66,0.005712345526100658
6.664,0.005712345526100658
6.668,0.00570563821462451
6.672,0.005706407511998118
6.676,0.005711335823297797
6.68,0.00571304270184549
6.684,0.005713547553246921
6.688,0.005713259066731818
6.692,0.005714677458764409
6.696,0.00570929237714915
6.7,0.005705469930824033
6.704,0.005708691363576018
6.708,0.005711023296239769
6.712,0.00571386008030495
6.716,0.005715134229079989
6.72,0.005715422715595091
6.724,0.005716744945455981
6.728,0.005713571593789846
6.732,0.0057132109856459674
6.736,0.0057171776752286355
6.74,0.005721072243182529
6.744,0.005722442554129269
6.748,0.005714076445191277
6.752,0.005709532782578402
6.756,0.005710133796151534
6.76,0.005708282674346288
6.764,0.005698305849032304
6.768,0.0056934736999043264
6.772,0.005703739011733414
6.776,0.005719942337665041
6.78,0.005729005622347866
6.784,0.005736386069025923
6.788,0.005732106852385225
6.792,0.005731577960440868
6.796,0.005729366230491744
6.8,0.005723740743447232
6.804,0.0057195576889782366
6.808,0.005720687594495725
6.812,0.005721072243182529
6.816,0.005719124959205582
6.82,0.005722346391957568
6.824,0.005721000121553753
6.828,0.005717946972602244
6.832,0.005718403742917824
6.836,0.005720879918839126
6.84,0.005724846608421795
6.844,0.0057197980944074895
6.848,0.005715062107451213
6.852,0.005713114823474266
6.856,0.005714941904736586
6.86,0.005717802729344692
6.864,0.005716841107627682
6.868,0.005711504107098274
6.872,0.005712177242300181
6.876,0.0057116243098129
6.88,0.005712609972072836
6.884,0.005713114823474266
6.888,0.005714893823650736
6.892,0.005715975648082372
6.896,0.005718067175316871
6.9,0.0057259043923105065
6.904,0.005717922932059319
6.908,0.005714172607362978
6.912,0.005720879918839126
6.916,0.005729606635920997
6.92,0.005729053703433716
6.924,0.005724846608421795
6.928,0.005721985783813688
6.932,0.005721937702727838
6.936,0.005722827202816073
6.94,0.005717538283372515
6.944,0.005716985350885234
6.948,0.0057190768781197315
6.952,0.005718283540203198
6.956,0.005714749580393184
6.96,0.005713547553246921
6.964,0.00571756232391544
6.968,0.005718043134773945
6.972,0.00571482170202196
6.976,0.005714316850620529
6.98,0.00572071163503865
6.984,0.0057238369056189335
6.988,0.005718668188890002
6.992,0.00572167325675566
6.996,0.005720952040467902
7.0,0.005716456458940878
7.0040000000000004,0.005715903526453597
7.008,0.005713763918133248
7.0120000000000005,0.005717826769887618
7.016,0.005720014459293817
7.0200000000000005,0.005718355661831973
7.024,0.0057184758645466
7.0280000000000005,0.005723596500189681
7.032,0.005724846608421795
7.0360000000000005,0.005728236324974257
7.04,0.005721889621641988
7.0440000000000005,0.005723356094760428
7.048,0.005724053270505261
7.0520000000000005,0.00571801909423102
7.056,0.005717898891516394
7.0600000000000005,0.0057161920129687
7.064,0.005724173473219888
7.0680000000000005,0.00572664964914119
7.072,0.0057203510268947705
7.0760000000000005,0.00572578418959588
7.08,0.005727779554658677
7.0840000000000005,0.005730111487322428
7.088,0.005728957541262015
7.0920000000000005,0.005725399540909076
7.096,0.005724437919192065
7.1000000000000005,0.005725231257108599
7.104,0.005727467027600648
7.1080000000000005,0.005728645014203986
7.112,0.005722442554129269
7.1160000000000005,0.005724221554305738
7.12,0.005728813298004463
7.1240000000000006,0.0057285248114893605
7.128,0.005729173906148342
7.132000000000001,0.0057288373385473886
7.136,0.005727755514115752
7.140000000000001,0.005730592298180933
7.144,0.005724149432676962
7.148000000000001,0.005716023729168223
7.152,0.005725639946338328
7.156000000000001,0.005725159135479823
7.16,0.005720110621465518
7.164000000000001,0.005721504972955183
7.168,0.005726721770769966
7.172,0.005727683392486976
7.176,0.005723476297475055
7.18,0.00572345225693213
7.184,0.005725447621994927
7.188,0.0057238369056189335
7.192,0.005725880351767581
7.196,0.005727995919545004
7.2,0.005729991284607801
7.204,0.005729294108862968
7.208,0.005731073109039438
7.212,0.005733212717359787
7.216,0.005731962609127673
7.22,0.0057342224201626475
7.224,0.005736073541967894
7.228,0.0057293902710346695
7.232,0.0057251831760227485
7.236,0.005722033864899539
7.24,0.005718283540203198
7.244,0.005718379702374899
7.248,0.005727779554658677
7.252,0.005734751312107003
7.256,0.00573121735229699
7.26,0.00572664964914119
7.264,0.005723548419103831
7.268,0.005725471662537852
7.272,0.0057262890409973104
7.276,0.0057276112708582
7.28,0.0057293902710346695
7.284,0.005730832703610186
7.288,0.005731818365870121
7.292,0.005733621406589516
7.296,0.005733933933647545
7.3,0.0057357369743669395
7.304,0.005732659784872506
7.308,0.005731361595554541
7.312,0.005727755514115752
7.316,0.005726096716653909
7.32,0.005730039365693652
7.324,0.005725399540909076
7.328,0.005721504972955183
7.332,0.005720086580922593
7.336,0.005722682959558521
7.34,0.005720879918839126
7.344,0.005720086580922593
7.348,0.005718596067261226
7.352,0.005719004756490956
7.356,0.005721360729697631
7.36,0.00572527933819445
7.364,0.005725591865252478
7.368,0.00572664964914119
7.372,0.005727851676287453
7.376,0.00573039997383753
7.38,0.0057320828118422994
7.384,0.005735087879707957
7.388,0.005737443852914634
7.392,0.005739367096348655
7.396,0.005729919162979025
7.4,0.005728861379090314
7.404,0.005739102650376477
7.408,0.005738092947573616
7.412,0.0057323232172715516
7.416,0.005728717135832762
7.42,0.0057318424064130465
7.424,0.005738501636803345
7.428,0.005738213150288243
7.432,0.005733188676816861
7.436,0.005732371298357402
7.44,0.005734895555364555
7.444,0.005736746677169801
7.448,0.005736746677169801
7.452,0.0057318424064130465
7.456,0.005727851676287453
7.46,0.005725038932765197
7.464,0.005719677891692863
7.468,0.005710734809724665
7.472,0.0057129705802167145
7.476,0.005726192878825609
7.48,0.0057388382044042995
7.484,0.005751026759667407
7.488,0.00575624355748219
7.492,0.005758407206345463
7.496,0.0057526374760434006
7.5,0.005745064705021942
7.5040000000000004,0.0057382852719170185
7.508,0.005736963042056129
7.5120000000000005,0.005738549717889196
7.516,0.005734174339076797
7.5200000000000005,0.005733813730932918
7.524,0.005736025460882043
7.5280000000000005,0.005735039798622107
7.532,0.0057359773797961925
7.5360000000000005,0.005736554352826399
7.54,0.0057362177852254455
7.5440000000000005,0.005738693961146748
7.548,0.005732299176728626
7.5520000000000005,0.0057224906352151194
7.556,0.005722154067614165
7.5600000000000005,0.005733308879531488
7.564,0.005734078176905096
7.5680000000000005,0.005729823000807324
7.572,0.005733693528218292
7.5760000000000005,0.005737780420515587
7.58,0.0057378044610585125
7.5840000000000005,0.005732683825415431
7.588,0.005731361595554541
7.5920000000000005,0.005732491501072029
7.596,0.0057353282851372095
7.6000000000000005,0.005737299609657082
7.604,0.005736097582510819
7.6080000000000005,0.005732707865958356
7.612,0.00573080866306726
7.6160000000000005,0.005730255730579979
7.62,0.005735785055452789
7.6240000000000006,0.005736746677169801
7.628,0.005736241825768371
7.632000000000001,0.005733212717359787
7.636,0.005729702798092698
7.640000000000001,0.0057262169193685345
7.644,0.005723981148876485
7.648000000000001,0.005724510040820841
7.652,0.005726553486969489
7.656000000000001,0.005726168838282684
7.66,0.00572857289257521
7.664000000000001,0.005728452689860585
7.668,0.005731097149582363
7.672000000000001,0.005733525244417815
7.676,0.0057325636227008045
7.68,0.005729005622347866
7.684,0.005731698163155495
7.688,0.005735063839165032
7.692,0.005728861379090314
7.696,0.005725062973308122
7.7,0.005726505405883638
7.704,0.005728092081716705
7.708,0.005730039365693652
7.712,0.005731938568584748
7.716,0.0057315298793550185
7.72,0.0057320828118422994
7.724,0.005729919162979025
7.728,0.0057281161222596305
7.732,0.0057270102572850685
7.736,0.005726673689684115
7.74,0.005731073109039438
7.744,0.005736025460882043
7.748,0.005736025460882043
7.752,0.0057393911368915805
7.756,0.005736097582510819
7.76,0.005730039365693652
7.764,0.005722394473043418
7.768,0.005722154067614165
7.772,0.005741554785754854
7.776,0.0057404970018661424
7.78,0.0057278035952016025
7.784,0.005730880784696036
7.788,0.005727274703257247
7.792,0.00572715450054262
7.796,0.005731337555011616
7.8,0.005734655149935302
7.804,0.005738237190831168
7.808,0.005737035163684905
7.812,0.005735232122965508
7.816,0.005740376799151516
7.82,0.005741795191184107
7.824,0.0057393911368915805
7.828,0.0057369390015132036
7.832,0.00573705920422783
7.836,0.00573705920422783
7.84,0.005738669920603822
7.844,0.005737732339429737
7.848,0.005737924663773139
7.852,0.0057383573935457935
7.856,0.005730832703610186
7.86,0.005730255730579979
7.864,0.005731433717183317
7.868,0.005734655149935302
7.872,0.005740064272093488
7.876,0.0057321549334710745
7.88,0.005730880784696036
7.884,0.005735111920250883
7.888,0.005736506271740548
7.892,0.0057389103260330745
7.896,0.005742732772358192
7.9,0.005739583461234982
7.904,0.005739511339606206
7.908,0.005735304244594284
7.912,0.005735881217624492
7.916,0.005736025460882043
7.92,0.0057352561635084336
7.924,0.005736890920427353
7.928,0.005736265866311296
7.932,0.005735063839165032
7.936,0.0057370111231419794
7.94,0.005737612136715111
7.944,0.00573400605527632
7.948,0.005734991717536256
7.952,0.00573258766324373
7.956,0.005736746677169801
7.96,0.005740953772181722
7.964,0.005735039798622107
7.968,0.005733501203874889
7.972,0.005733621406589516
7.976,0.005734847474278704
7.98,0.005733957974190469
7.984,0.005729847041350249
7.988,0.0057339820147333945
7.992,0.005736674555541025
7.996,0.0057364581906546985
8.0,0.005739030528747701
8.004,0.005741434583040227
8.008000000000001,0.0057407374072953946
8.012,0.005739174772005253
8.016,0.005738525677346271
8.02,0.005736698596083951
8.024000000000001,0.005740689326209545
8.028,0.005741795191184107
8.032,0.00573756405562926
8.036,0.0057315298793550185
8.040000000000001,0.005729726838635624
8.044,0.005735712933824014
8.048,0.00573984790720716
8.052,0.00573705920422783
8.056000000000001,0.005733717568761217
8.06,0.0057367707177127265
8.064,0.00573710728531368
8.068,0.005741867312812883
8.072000000000001,0.005741867312812883
8.076,0.0057406652856666195
8.08,0.005746867745741337
8.084,0.005753815462646738
8.088000000000001,0.005749752610892368
8.092,0.00575533001685103
8.096,0.005756315679110966
8.1,0.0057511229218391085
8.104000000000001,0.005747805326915423
8.108,0.005756267598025115
8.112,0.005757349422456752
8.116,0.005752805759843877
8.120000000000001,0.005754536678934496
8.124,0.005760498733579962
8.128,0.00576035449032241
8.132,0.005759392868605399
8.136000000000001,0.005755690624994909
8.14,0.0057549213276213
8.144,0.0057502574622937995
8.148,0.005744511772534661
8.152000000000001,0.0057428770156157435
8.156,0.0057458099618526255
8.16,0.00574162690738363
8.164,0.005740448920780292
8.168000000000001,0.005738669920603822
8.172,0.0057347753526499285
8.176,0.005729246027777118
8.18,0.005733477163331964
8.184000000000001,0.005748238056688077
8.188,0.005761941166155477
8.192,0.005767350288313661
8.196,0.005768359991116522
8.2,0.00576679735582638
8.204,0.005765138558364537
8.208,0.005760787220095064
8.212,0.00575989772000683
8.216,0.00576629250442495
8.22,0.005762566220271534
8.224,0.005750545948808902
8.228,0.005750930597495706
8.232,0.005756291638568041
8.236,0.0057575417468001535
8.24,0.005752132624641969
8.244,0.00575076231369523
8.248,0.005753214449073607
8.252,0.005754392435676945
8.256,0.005752685557129251
8.26,0.005749512205463116
8.264,0.005748887151347059
8.268,0.0057479495701729735
8.272,0.00574847846211733
8.276,0.005748670786460732
8.28,0.005750065137950397
8.284,0.005751435448897137
8.288,0.005751651813783464
8.292,0.005751195043467884
8.296,0.0057519162597556425
8.3,0.005754079908618916
8.304,0.005755426179022731
8.308,0.0057575417468001535
8.312,0.005755762746623684
8.316,0.005751483529982988
8.32,0.0057474687593144684
8.324,0.005742540448014789
8.328,0.005752012421927344
8.332,0.005754704962734973
8.336,0.0057454974347945975
8.34,0.005745954205110177
8.344,0.005744776218506839
8.348,0.005742420245300164
8.352,0.005745906124024327
8.356,0.005752132624641969
8.36,0.005750473827180126
8.364,0.005744127123847857
8.368,0.005741146096525125
8.372,0.0057433578264742486
8.376,0.005744271367105409
8.38,0.0057454974347945975
8.384,0.005745978245653103
8.388,0.005745473394251672
8.392,0.005747276434971067
8.396,0.005748790989175358
8.4,0.005751627773240539
8.404,0.005755786787166609
8.408,0.005754079908618916
8.412,0.005744511772534661
8.416,0.0057404970018661424
8.42,0.005741001853267573
8.424,0.005738742042232598
8.428,0.005741723069555331
8.432,0.0057408095289241705
8.436,0.005739078609833552
8.44,0.005744872380678541
8.444,0.005748117853973451
8.448,0.005741699029012406
8.452,0.005740905691095872
8.456,0.00574258852910064
8.46,0.005741795191184107
8.464,0.005742203880413836
8.468,0.00574441561036296
8.472,0.0057433578264742486
8.476,0.0057439107589615295
8.48,0.005746386934882832
8.484,0.0057504017055513505
8.488,0.005751315246182511
8.492,0.005750065137950397
8.496,0.005749632408177743
8.5,0.005749031394604611
8.504,0.005748045732344675
8.508000000000001,0.005750834435324006
8.512,0.005750930597495706
8.516,0.005751868178669792
8.52,0.005746627340312085
8.524000000000001,0.005742828934529893
8.528,0.005745353191537046
8.532,0.005748238056688077
8.536,0.005744223286019558
8.540000000000001,0.005741747110098256
8.544,0.005746314813254056
8.548,0.0057503536244655
8.552,0.0057509546380386314
8.556000000000001,0.005747997651258824
8.56,0.0057452570293653445
8.564,0.005746435015968682
8.568,0.005748045732344675
8.572000000000001,0.00574847846211733
8.576,0.005748815029718283
8.58,0.005749079475690462
8.584,0.00574852654320318
8.588000000000001,0.0057474687593144684
8.592,0.005746507137597458
8.596,0.005743814596789828
8.6,0.005744511772534661
8.604000000000001,0.005752252827356596
8.608,0.0057585754901459405
8.612,0.0057452570293653445
8.616,0.005739174772005253
8.620000000000001,0.005744391569820035
8.624,0.005752685557129251
8.628,0.005751940300298568
8.632,0.005743694394075203
8.636000000000001,0.005743862677875679
8.64,0.005746194610539429
8.644,0.005746723502483785
8.648,0.005745377232079971
8.652000000000001,0.005746627340312085
8.656,0.0057484303810314795
8.66,0.005749271800033863
8.664,0.0057461224889106535
8.668000000000001,0.005747011988998889
8.672,0.0057470841106276645
8.676,0.005747781286372497
8.68,0.005751171002924959
8.684000000000001,0.005755041530335927
8.688,0.005754440516762795
8.692,0.005753310611245308
8.696,0.005751291205639586
8.700000000000001,0.005749728570349443
8.704,0.005751747975955165
8.708,0.005759176503719072
8.712,0.005759657314577577
8.716,0.005758647611774716
8.72,0.005752877881472653
8.724,0.005748165935059301
8.728,0.0057481899756022265
8.732,0.005745208948279494
8.736,0.005746987948455963
8.74,0.005748406340488554
8.744,0.005746675421397935
8.748,0.005742973177787445
8.752,0.005743285704845473
8.756,0.00573898244766185
8.76,0.005739895988293011
8.764,0.005739439217977431
8.768,0.0057402565964368895
8.772,0.00574299721833037
8.776,0.005744199245476633
8.78,0.005741915393898732
8.784,0.005747204313342291
8.788,0.005759368828062474
8.792,0.005759272665890773
8.796,0.005758503368517165
8.8,0.005755257895222254
8.804,0.0057551617330505525
8.808,0.005754440516762795
8.812,0.005753526976131635
8.816,0.005751291205639586
8.82,0.0057498487730640695
8.824,0.005753647178846261
8.828,0.0057559550709670865
8.832,0.005757613868428929
8.836,0.005755882949338311
8.84,0.005755762746623684
8.844,0.0057527095976721765
8.848,0.005750642110980603
8.852,0.005753070205816055
8.856,0.005760210247064858
8.86,0.005757974476572809
8.864,0.005751531611068838
8.868,0.005752397070614148
8.872,0.005751098881296183
8.876,0.005746723502483785
8.88,0.005746218651082355
8.884,0.005741194177610975
8.888,0.005740593164037844
8.892,0.00573441474450605
8.896,0.0057370111231419794
8.9,0.005746194610539429
8.904,0.005760594895751662
8.908,0.005770523639979796
8.912,0.00577999561389235
8.916,0.0057810053166952105
8.92,0.0057761731675672326
8.924,0.005767206045056109
8.928,0.005757133057570424
8.932,0.005758671652317642
8.936,0.005756844571055322
8.94,0.0057549213276213
8.944,0.005759705395663428
8.948,0.005760066003807306
8.952,0.005750449786637201
8.956,0.0057431895426737715
8.96,0.005753310611245308
8.964,0.005757950436029884
8.968,0.0057561233547675636
8.972,0.005754897287078375
8.976,0.005752998084187279
8.98,0.005755618503366133
8.984,0.005757277300827976
8.988,0.005757253260285051
8.992,0.005759200544261997
8.996,0.005760667017380438
9.0,0.005761460355296972
9.004,0.005763239355473441
9.008000000000001,0.005758455287431314
9.012,0.005748790989175358
9.016,0.005742804893986968
9.02,0.005742227920956761
9.024000000000001,0.005744992583393166
9.028,0.005749464124377266
9.032,0.005747276434971067
9.036,0.005748406340488554
9.040000000000001,0.005745473394251672
9.044,0.0057407374072953946
9.048,0.005751291205639586
9.052,0.005756099314224638
9.056000000000001,0.00575441647621987
9.06,0.005751555651611763
9.064,0.005746723502483785
9.068,0.005745232988822419
9.072000000000001,0.00574939200274849
9.076,0.005752925962558503
9.08,0.005752348989528297
9.084,0.005747709164743721
9.088000000000001,0.00574528106990827
9.092,0.005745184907736569
9.096,0.0057495362460060415
9.1,0.005748310178316853
9.104000000000001,0.00574528106990827
9.108,0.005748502502660255
9.112,0.005747853408001273
9.116,0.005748646745917806
9.120000000000001,0.005754440516762795
9.124,0.005758815895575193
9.128,0.005753767381560888
9.132,0.005743021258873295
9.136000000000001,0.005737227488028306
9.14,0.005737996785401915
9.144,0.005743069339959146
9.148,0.005749007354061686
9.152000000000001,0.005751868178669792
9.156,0.005753526976131635
9.16,0.0057531904085306815
9.164,0.005753815462646738
9.168000000000001,0.005749319881119714
9.172,0.005757133057570424
9.176,0.00575624355748219
9.18,0.005754969408707151
9.184000000000001,0.005757806192772332
9.188,0.0057569166926840975
9.192,0.005750690192066454
9.196,0.005749367962205564
9.200000000000001,0.005753767381560888
9.204,0.005753238489616532
9.208,0.005749560286548967
9.212,0.005753358692331158
9.216000000000001,0.005752877881472653
9.22,0.005748310178316853
9.224,0.005745353191537046
9.228,0.005751098881296183
9.232,0.005754103949161841
9.236,0.005750497867723052
9.24,0.005747757245829572
9.244,0.005749343921662639
9.248,0.005750113219036248
9.252,0.0057511229218391085
9.256,0.005751291205639586
9.26,0.005756772449426546
9.264,0.005762349855385206
9.268,0.005757902354944033
9.272,0.005757349422456752
9.276,0.005754536678934496
9.28,0.005748238056688077
9.284,0.005747420678228618
9.288,0.005746939867370113
9.292,0.005753358692331158
9.296,0.005757685990057705
9.3,0.005755762746623684
9.304,0.0057533346517882325
9.308,0.005752156665184895
9.312,0.005753863543732589
9.316,0.005754801124906674
9.32,0.0057561954763963395
9.324,0.0057591284226332215
9.328,0.005760186206521933
9.332,0.005754584760020346
9.336,0.005752204746270745
9.34,0.005748021691801749
9.344,0.005747685124200796
9.348,0.005753599097760411
9.352,0.005757854273858182
9.356,0.0057561233547675636
9.36,0.0057508103947810805
9.364,0.005747492799857394
9.368,0.0057551617330505525
9.372,0.0057583350847166875
9.376,0.005756411841282666
9.38,0.005760378530865335
9.384,0.005763744206874872
9.388,0.005760258328150709
9.392,0.005758142760373285
9.396,0.0057605468146658114
9.4,0.005763431679816844
9.404,0.0057580225576586595
9.408,0.005753599097760411
9.412,0.00575441647621987
9.416,0.005758695692860567
9.42,0.005760498733579962
9.424,0.005759537111862951
9.428,0.005761532476925748
9.432,0.005762013287784253
9.436,0.005756628206168994
9.44,0.005754729003277898
9.444,0.005752733638215101
9.448,0.005747036029541814
9.452,0.005751074840753258
9.456,0.005755738706080759
9.46,0.00575076231369523
9.464,0.005749151597319237
9.468,0.00574852654320318
9.472,0.005748286137773928
9.476,0.005747516840400319
9.48,0.005748382299945629
9.484,0.005748141894516376
9.488,0.005746963907913038
9.492,0.005748887151347059
9.496,0.005752397070614148
9.5,0.005752685557129251
9.504,0.005758407206345463
9.508000000000001,0.005759561152405876
9.512,0.00575633971965389
9.516,0.0057504017055513505
9.52,0.005751339286725436
9.524000000000001,0.005750545948808902
9.528,0.005754103949161841
9.532,0.005757133057570424
9.536,0.005755185773593478
9.540000000000001,0.005756940733227022
9.544,0.005760618936294587
9.548,0.005759272665890773
9.552,0.005755979111510012
9.556000000000001,0.005752541313871699
9.56,0.0057559550709670865
9.564,0.005756027192595862
9.568,0.005756171435853414
9.572000000000001,0.0057594890307771
9.576,0.0057549213276213
9.58,0.005752685557129251
9.584,0.00576081126063799
9.588000000000001,0.00576218157158473
9.592,0.005757950436029884
9.596,0.005758238922544986
9.6,0.005754729003277898
9.604000000000001,0.0057570609359416484
9.608,0.005754272232962318
9.612,0.0057465311781403836
9.616,0.005735352325680135
9.620000000000001,0.005735785055452789
9.624,0.005738501636803345
9.628,0.0057441511643907825
9.632,0.0057627825851578615
9.636000000000001,0.005774947099878045
9.64,0.005774129721418586
9.644,0.005776197208110158
9.648,0.005775451951279475
9.652000000000001,0.005768768680346252
9.656,0.005759969841635605
9.66,0.005753815462646738
9.664,0.005754248192419393
9.668000000000001,0.005759176503719072
9.672,0.005759416909148324
9.676,0.005763215314930516
9.68,0.005763311477102217
9.684000000000001,0.005760739139009214
9.688,0.0057596092334917266
9.692,0.005755113651964703
9.696,0.005753478895045784
9.700000000000001,0.005757565787343079
9.704,0.005756147395310489
9.708,0.005751844138126867
9.712,0.005750521908265977
9.716000000000001,0.005753358692331158
9.72,0.00575258939495755
9.724,0.005751195043467884
9.728,0.005751315246182511
9.732,0.005755305976308104
9.736,0.005757181138656275
9.74,0.005753214449073607
9.744,0.005752156665184895
9.748,0.00575533001685103
9.752,0.005758743773946417
9.756,0.005761484395839897
9.76,0.0057591284226332215
9.764,0.005757734071143556
9.768,0.0057572051791992
9.772,0.005755281935765179
9.776,0.005756099314224638
9.78,0.005758455287431314
9.784,0.005761219949867719
9.788,0.005761027625524317
9.792,0.005754176070790617
9.796,0.0057476370431149455
9.8,0.005744631975249288
9.804,0.005749416043291415
9.808,0.005754200111333542
9.812,0.00575208454355612
9.816,0.005749199678405087
9.82,0.005748454421574405
9.824,0.0057530221247302045
9.828,0.005751651813783464
9.832,0.005749944935235771
9.836,0.005749247759490938
9.84,0.005748718867546582
9.844,0.005752421111157073
9.848,0.005754584760020346
9.852,0.00575766194951478
9.856,0.005753238489616532
9.86,0.005746170569996504
9.864,0.005744511772534661
9.868,0.005749367962205564
9.872,0.005753238489616532
9.876,0.005757974476572809
9.88,0.005761917125612552
9.884,0.005753647178846261
9.888,0.005741506704669003
9.892,0.005744728137420989
9.896,0.005746026326738953
9.9,0.005749512205463116
9.904,0.0057513633272683615
9.908,0.005746266732168205
9.912,0.005744631975249288
9.916,0.0057461224889106535
9.92,0.005745906124024327
9.924,0.005748117853973451
9.928,0.005750449786637201
9.932,0.00575172393541224
9.936,0.005750377665008425
9.94,0.005752998084187279
9.944,0.005752324948985372
9.948,0.005750161300122098
9.952,0.0057527817193009515
9.956,0.00575304616527313
9.96,0.005742468326386014
9.964,0.0057357369743669395
9.968,0.005733188676816861
9.972,0.00574258852910064
9.976,0.005747036029541814
9.98,0.005746675421397935
9.984,0.005751387367811287
9.988,0.005751243124553735
9.992,0.005748238056688077
9.996,0.005749271800033863
10.0,0.005746483097054533
10.004,0.005747925529630048
10.008000000000001,0.005753430813959934
10.012,0.005754729003277898
10.016,0.005755522341194432
10.02,0.00575441647621987
10.024000000000001,0.005754103949161841
10.028,0.00575355101667456
10.032,0.0057551617330505525
10.036,0.005759801557835129
10.040000000000001,0.005756604165626069
10.044,0.005745232988822419
10.048,0.005745689759137999
10.052,0.0057509546380386314
10.056000000000001,0.005750185340665024
10.06,0.005745858042938476
10.064,0.005747276434971067
10.068,0.00574944008383434
10.072000000000001,0.0057476370431149455
10.076,0.005747036029541814
10.08,0.005747709164743721
10.084,0.005749512205463116
10.088000000000001,0.005750714232609379
10.092,0.005750714232609379
10.096,0.005752445151699998
10.1,0.005752493232785849
10.104000000000001,0.005749968975778696
10.108,0.00575533001685103
10.112,0.005749007354061686
10.116,0.005745641678052148
10.120000000000001,0.005744968542850241
10.124,0.0057439107589615295
10.128,0.005745761880766775
10.132,0.005751098881296183
10.136000000000001,0.005752132624641969
10.14,0.005752036462470269
10.144,0.005752156665184895
10.148,0.005750449786637201
10.152000000000001,0.005751098881296183
10.156,0.005750281502836725
10.16,0.005751555651611763
10.164,0.00575304616527313
10.168000000000001,0.005755618503366133
10.172,0.005753935665361364
10.176,0.005743285704845473
10.18,0.005735544650023537
10.184000000000001,0.005737588096172186
10.188,0.005740376799151516
10.192,0.005742756812901117
10.196,0.005745305110451195
10.200000000000001,0.005748718867546582
10.204,0.005747997651258824
10.208,0.005745834002395551
10.212,0.005742756812901117
10.216000000000001,0.0057404970018661424
10.22,0.005743381867017174
10.224,0.005746170569996504
10.228,0.0057433578264742486
10.232000000000001,0.0057434299481030245
10.236,0.005742828934529893
10.24,0.005743814596789828
10.244,0.005746771583569636
10.248,0.005750545948808902
10.252,0.005748766948632433
10.256,0.005751339286725436
10.26,0.005754176070790617
10.264,0.005750545948808902
10.268,0.005750786354238155
10.272,0.005746459056511608
10.276,0.005748718867546582
10.28,0.005751627773240539
10.284,0.005749800691978219
10.288,0.005746290772711131
10.292,0.005742828934529893
10.296,0.005747348556599842
10.3,0.0057540558680759905
10.304,0.005753887584275514
10.308,0.005750041097407472
10.312,0.005750137259579173
10.316,0.005749031394604611
10.32,0.005753983746447215
10.324,0.005752012421927344
10.328,0.005745641678052148
10.332,0.00574162690738363
10.336,0.005744559853620512
10.34,0.00574528106990827
10.344,0.005744103083304932
10.348,0.005738381434088719
10.352,0.005733068474102235
10.356,0.005735785055452789
10.36,0.005746314813254056
10.364,0.005764104815018751
10.368,0.005774730734991717
10.372,0.005775716397251653
10.376,0.005774129721418586
10.38,0.005769153329033056
10.384,0.005768432112745298
10.388,0.005763936531218274
10.392,0.005755209814136403
10.396,0.005749127556776311
10.4,0.005753599097760411
10.404,0.005760763179552139
10.408,0.005761989247241328
10.412,0.005761051666067243
10.416,0.005759873679463905
10.42,0.005760907422809691
10.424,0.005758791855032267
10.428,0.005756363760196816
10.432,0.005757565787343079
10.436,0.005755594462823208
10.44,0.005756075273681713
10.444,0.005759729436206353
10.448,0.005763287436559292
10.452,0.005759416909148324
10.456,0.005758118719830361
10.46,0.005752998084187279
10.464,0.005753430813959934
10.468,0.005755450219565656
10.472,0.005751339286725436
10.476,0.005750834435324006
10.48,0.005749319881119714
10.484,0.005751772016498091
10.488,0.005751435448897137
10.492,0.005756892652141172
10.496,0.005753454854502859
10.5,0.005751531611068838
10.504,0.005751315246182511
10.508000000000001,0.005745617637509223
10.512,0.00574573784022385
10.516,0.005750209381207949
10.52,0.005752252827356596
10.524000000000001,0.0057502574622937995
10.528,0.005746507137597458
10.532,0.005747540880943244
10.536,0.0057480697728876
10.540000000000001,0.005745545515880447
10.544,0.005748262097231002
10.548,0.00574665138085501
10.552,0.005739775785578384
10.556000000000001,0.005738814163861374
10.56,0.005743886718418604
10.564,0.00574395884004738
10.568,0.005742348123671388
10.572000000000001,0.005744680056335138
10.576,0.005745641678052148
10.58,0.0057433578264742486
10.584,0.005742780853444042
10.588000000000001,0.005740617204580769
10.592,0.005739102650376477
10.596,0.005743622272446427
10.6,0.00574345398864595
10.604000000000001,0.0057435020697318
10.608,0.005741963474984583
10.612,0.005742227920956761
10.616,0.005744006921133231
10.620000000000001,0.005743838637332754
10.624,0.005753142327444831
10.628,0.005751796057041016
10.632,0.005746963907913038
10.636000000000001,0.005749752610892368
10.64,0.005752877881472653
10.644,0.005749680489263593
10.648,0.005745305110451195
10.652000000000001,0.005746555218683309
10.656,0.005743886718418604
10.66,0.0057452570293653445
10.664,0.005749944935235771
10.668000000000001,0.005748502502660255
10.672,0.005749920894692845
10.676,0.005753791422103813
10.68,0.0057564358818255916
10.684000000000001,0.005754344354591094
10.688,0.005749175637862162
10.692,0.005745425313165822
10.696,0.005745401272622896
10.700000000000001,0.005748598664831956
10.704,0.005747324516056917
10.708,0.005744800259049765
10.712,0.005746194610539429
10.716000000000001,0.005750690192066454
10.72,0.005752036462470269
10.724,0.00574847846211733
10.728,0.005749560286548967
10.732000000000001,0.005745689759137999
10.736,0.0057428770156157435
10.74,0.005742949137244519
10.744,0.005750113219036248
10.748000000000001,0.005753286570702383
10.752,0.0057516758543263895
10.756,0.005753863543732589
10.76,0.0057542962735052435
10.764,0.005750690192066454
10.768,0.005753791422103813
10.772,0.00575309424635898
10.776,0.005749728570349443
10.78,0.005754224151876468
10.784,0.0057509546380386314
10.788,0.005748766948632433
10.792,0.005752300908442446
10.796,0.005754729003277898
10.8,0.005755666584451984
10.804,0.005752757678758026
10.808,0.005747444718771543
10.812,0.005748959272975835
10.816,0.0057505699893518275
10.82,0.005749632408177743
10.824,0.00574624269162528
10.828,0.0057437424751610525
10.832,0.005740112353179338
10.836,0.00574258852910064
10.84,0.005751940300298568
10.844,0.005752445151699998
10.848,0.005746002286196028
10.852,0.005741987515527508
10.856,0.005743261664302547
10.86,0.0057478774485441985
10.864,0.0057540558680759905
10.868,0.00575533001685103
10.872,0.005754729003277898
10.876,0.005754969408707151
10.88,0.005757277300827976
10.884,0.005750978678581557
10.888,0.005747925529630048
10.892,0.005748382299945629
10.896,0.005749968975778696
10.9,0.005752853840929727
10.904,0.005747685124200796
10.908,0.005744944502307316
10.912,0.005749079475690462
10.916,0.0057489833135187605
10.92,0.0057480697728876
10.924,0.005748766948632433
10.928,0.0057516758543263895
10.932,0.005750521908265977
10.936,0.005746579259226234
10.94,0.005742925096701594
10.944,0.005739222853091103
10.948,0.005740352758608591
10.952,0.005738790123318449
10.956,0.005738116988116541
10.96,0.005735616771652313
10.964,0.005740569123494918
10.968,0.005748286137773928
10.972,0.005751339286725436
10.976,0.005752108584099045
10.98,0.005753454854502859
10.984,0.005754248192419393
10.988,0.005752661516586326
10.992,0.005754127989704766
10.996,0.005754536678934496
11.0,0.005751050800210333
11.004,0.005752877881472653
11.008000000000001,0.005753887584275514
11.012,0.005750642110980603
11.016,0.005748887151347059
11.02,0.0057500170568645466
11.024000000000001,0.005752613435500475
11.028,0.0057526374760434006
11.032,0.005751411408354212
11.036,0.005755546381737357
11.040000000000001,0.005754704962734973
11.044,0.005755570422280283
11.048,0.005757445584628453
11.052,0.005758407206345463
11.056000000000001,0.005752733638215101
11.06,0.00575309424635898
11.064,0.005759825598378054
11.068,0.0057622296526705806
11.072000000000001,0.005755257895222254
11.076,0.005741410542497302
11.08,0.005738814163861374
11.084,0.005738549717889196
11.088000000000001,0.005736987082599054
11.092,0.005739270934176954
11.096,0.005749560286548967
11.1,0.0057652347205362385
11.104000000000001,0.005776822262226215
11.108,0.00577908207326119
11.112,0.005782495830356577
11.116,0.005777807924486151
11.120000000000001,0.0057692735317476825
11.124,0.0057615084363828225
11.128,0.005758407206345463
11.132,0.005757277300827976
11.136000000000001,0.005749584327091892
11.14,0.005744319448191259
11.144,0.005748670786460732
11.148,0.00576085934172384
11.152000000000001,0.005764801990763583
11.156,0.0057577821522294065
11.16,0.005757758111686481
11.164,0.005756868611598247
11.168000000000001,0.005754584760020346
11.172,0.005757493665714304
11.176,0.005763455720359769
11.18,0.005766148261167398
11.184000000000001,0.005765162598907463
11.188,0.005757325381913827
11.192,0.005752805759843877
11.196,0.005748358259402704
11.200000000000001,0.005750473827180126
11.204,0.005755931030424161
11.208,0.0057564358818255916
11.212,0.005754079908618916
11.216000000000001,0.005756556084540218
11.22,0.00575766194951478
11.224,0.005755738706080759
11.228,0.005749127556776311
11.232000000000001,0.005748021691801749
11.236,0.005746867745741337
11.24,0.005747492799857394
11.244,0.00574939200274849
11.248000000000001,0.005751411408354212
11.252,0.005749632408177743
11.256,0.005746987948455963
11.26,0.005756315679110966
11.264,0.005763551882531469
11.268,0.00576811958568727
11.272,0.005763816328503648
11.276,0.005758118719830361
11.28,0.005755017489793002
11.284,0.005753454854502859
11.288,0.005755690624994909
11.292,0.005755618503366133
11.296,0.005756892652141172
11.3,0.005758359125259613
11.304,0.005755257895222254
11.308,0.0057509546380386314
11.312,0.005751002719124482
11.316,0.005751291205639586
11.32,0.005752132624641969
11.324,0.005753238489616532
11.328,0.005755474260108581
11.332,0.005757373462999677
11.336,0.005755017489793002
11.34,0.005754704962734973
11.344,0.005760642976837513
11.348,0.0057698264642349634
11.352,0.005763551882531469
11.356,0.005755137692507627
11.36,0.005752925962558503
11.364,0.005749031394604611
11.368,0.0057480697728876
11.372,0.005754512638391571
11.376,0.005757421544085528
11.38,0.005753815462646738
11.384,0.005753815462646738
11.388,0.005758743773946417
11.392,0.005761772882355
11.396,0.0057588880172039685
11.4,0.005754680922192047
11.404,0.005756459922368517
11.408,0.005756099314224638
11.412,0.005759176503719072
11.416,0.005766677153111754
11.42,0.005766484828768352
11.424,0.005757565787343079
11.428,0.005754248192419393
11.432,0.005753695259932112
11.436,0.005749512205463116
11.44,0.005752493232785849
11.444,0.005756099314224638
11.448,0.005752733638215101
11.452,0.005753599097760411
11.456,0.005748598664831956
11.46,0.005756652246711919
11.464,0.005758214882002061
11.468,0.005756099314224638
11.472,0.005756483962911442
11.476,0.0057580225576586595
11.48,0.005758479327974239
11.484,0.005765595328680117
11.488,0.0057662684638820245
11.492,0.005758743773946417
11.496,0.005755714665537834
11.5,0.005759753476749278
11.504,0.005759729436206353
11.508000000000001,0.005759368828062474
11.512,0.005757854273858182
11.516,0.005755522341194432
11.52,0.005754584760020346
11.524000000000001,0.005756483962911442
11.528,0.005759104382090296
11.532,0.0057592967064336986
11.536,0.005760138125436082
11.540000000000001,0.005758719733403492
11.544,0.005754344354591094
11.548,0.005754344354591094
11.552,0.0057580225576586595
11.556000000000001,0.005760330449779485
11.56,0.005765403004336715
11.564,0.005770283234550543
11.568,0.0057661001800815475
11.572000000000001,0.0057657155313947436
11.576,0.005759152463176147
11.58,0.005758238922544986
11.584,0.005760835301180915
11.588000000000001,0.005758214882002061
11.592,0.005755450219565656
11.596,0.005758936098289819
11.6,0.005760306409236559
11.604000000000001,0.005756147395310489
11.608,0.0057551617330505525
11.612,0.005759729436206353
11.616,0.005761796922897925
11.620000000000001,0.00575989772000683
11.624,0.005757421544085528
11.628,0.0057556425439090585
11.632,0.0057596813551205025
11.636000000000001,0.005760282368693634
11.64,0.005758287003630837
11.644,0.005757806192772332
11.648,0.00575816680091621
11.652000000000001,0.005760090044350232
11.656,0.00575624355748219
11.66,0.005752998084187279
11.664,0.005752805759843877
11.668000000000001,0.005754272232962318
11.672,0.00575670032779777
11.676,0.005755233854679328
11.68,0.005747661083657871
11.684000000000001,0.005747324516056917
11.688,0.005750738273152305
11.692,0.005752853840929727
11.696,0.005758094679287435
11.700000000000001,0.005761195909324794
11.704,0.005756267598025115
11.708,0.005758863976661043
11.712,0.0057605468146658114
11.716000000000001,0.005763912490675349
11.72,0.005764729869134808
11.724,0.00576359996361732
11.728,0.005763215314930516
11.732000000000001,0.005763263396016367
11.736,0.005764152896104601
11.74,0.005761556517468673
11.744,0.005763191274387591
11.748000000000001,0.005763311477102217
11.752,0.005767855139715092
11.756,0.0057692014101189066
11.76,0.005768961004689654
11.764000000000001,0.005764249058276302
11.768,0.005764585625877256
11.772,0.0057676147342858395
11.776,0.005767422409942437
11.78,0.00575989772000683
11.784,0.005756003152052937
11.788,0.005752950003101429
11.792,0.005748911191889985
11.796,0.00574893523243291
11.8,0.005757685990057705
11.804,0.005758046598201585
11.808,0.005752565354414625
11.812,0.005749584327091892
11.816,0.00575304616527313
11.82,0.005760883382266766
11.824,0.00577223051852749
11.828,0.005781558249182492
11.832,0.005786270195595845
11.836,0.005782207343841474
11.84,0.005777230951455945
11.844,0.005772951734815248
11.848,0.005772158396898714
11.852,0.005773576788931305
11.856,0.005770475558893946
11.86,0.005764225017733377
11.864,0.005763575923074395
11.868,0.005767903220800942
11.872,0.005763840369046573
11.876,0.005761364193125271
11.88,0.005760066003807306
11.884,0.005761099747153093
11.888,0.005764104815018751
11.892,0.005762662382443235
11.896,0.005759585192948801
11.9,0.005764297139362153
11.904,0.005767109882884409
11.908,0.005762734504072011
11.912,0.005763022990587114
11.916,0.0057633355176451425
11.92,0.005757253260285051
11.924,0.005756724368340695
11.928,0.005768792720889177
11.932,0.005772591126671368
11.936,0.0057666531125688284
11.94,0.005757373462999677
11.944,0.0057548492059925245
11.948,0.005759705395663428
11.952,0.005761628639097449
11.956,0.005758743773946417
11.96,0.005762277733756431
11.964,0.00576492219347821
11.968,0.005764489463705555
11.972,0.005759777517292204
11.976,0.005757926395486958
11.98,0.005760594895751662
11.984,0.005756724368340695
11.988,0.005759825598378054
11.992,0.005757084976484574
11.996,0.00575624355748219
12.0,0.0057570609359416484
12.004,0.005759464990234175
12.008000000000001,0.0057633355176451425
12.012,0.005760090044350232
12.016,0.005759753476749278
12.02,0.005761700760726225
12.024000000000001,0.005761147828238943
12.028,0.005757830233315257
12.032,0.00575624355748219
12.036,0.005756459922368517
12.040000000000001,0.005760138125436082
12.044,0.005757806192772332
12.048,0.0057591284226332215
12.052,0.005762590260814459
12.056000000000001,0.00576081126063799
12.06,0.005754440516762795
12.064,0.005762710463529086
12.068,0.005760618936294587
12.072000000000001,0.005749872813606995
12.076,0.005751026759667407
12.08,0.0057591284226332215
12.084,0.005764874112392359
12.088000000000001,0.005763672085246096
12.092,0.005761099747153093
12.096,0.005759368828062474
12.1,0.005762542179728609
12.104000000000001,0.005759729436206353
12.108,0.005767278166684885
12.112,0.005771220815724629
12.116,0.005768263828944822
12.120000000000001,0.005764898152935284
12.124,0.0057647539096777325
12.128,0.005767494531571213
12.132,0.0057718939509265365
12.136000000000001,0.005771124653552928
12.14,0.005768095545144345
12.144,0.00576766281537169
12.148,0.0057657876530235195
12.152000000000001,0.005764273098819227
12.156,0.00576446542316263
12.16,0.00576451350424848
12.164,0.005763431679816844
12.168000000000001,0.005757806192772332
12.172,0.005757036895398723
12.176,0.00575989772000683
12.18,0.005764345220448003
12.184000000000001,0.0057663405855108004
12.188,0.005767807058629241
12.192,0.005764609666420182
12.196,0.0057642009771904515
12.200000000000001,0.005765475125965491
12.204,0.00576350380144562
12.208,0.005761893085069626
12.212,0.005764080774475826
12.216000000000001,0.00576451350424848
12.22,0.005765354923250864
12.224,0.005770355356179319
12.228,0.00577542791073655
12.232000000000001,0.00577638953245356
12.236,0.005773841234903482
12.24,0.005770355356179319
12.244,0.005763407639273918
12.248000000000001,0.005765955936823996
12.252,0.005769393734462309
12.256,0.005767783018086316
12.26,0.005765955936823996
12.264000000000001,0.005769345653376458
12.268,0.005768239788401896
12.272,0.005766172301710323
12.276,0.0057676147342858395
12.280000000000001,0.005767710896457541
12.284,0.005770018788578366
12.288,0.005768287869487747
12.292,0.0057698264642349634
12.296,0.005769562018262785
12.3,0.005765475125965491
12.304,0.005765595328680117
12.308,0.005771509302239732
12.312,0.005773360424044977
12.316,0.005762974909501263
12.32,0.0057596813551205025
12.324,0.005757974476572809
12.328,0.0057596092334917266
12.332,0.00576542704487964
12.336,0.005765955936823996
12.34,0.005763311477102217
12.344,0.005765258761079164
12.348,0.005767518572114138
12.352,0.0057699947480354405
12.356,0.0057692735317476825
12.36,0.005765691490851818
12.364,0.005763455720359769
12.368,0.005769706261520337
12.372,0.005769177369575981
12.376,0.0057652347205362385
12.38,0.005759777517292204
12.384,0.005759392868605399
12.388,0.0057622296526705806
12.392,0.005764273098819227
12.396,0.005759873679463905
12.4,0.005758863976661043
12.404,0.005760258328150709
12.408,0.005752661516586326
12.412,0.005753647178846261
12.416,0.005753935665361364
12.42,0.005750834435324006
12.424,0.005752805759843877
12.428,0.0057657155313947436
12.432,0.005773504667302529
12.436,0.005767278166684885
12.44,0.005758455287431314
12.444,0.005759464990234175
12.448,0.005767278166684885
12.452,0.005768961004689654
12.456,0.005765090477278687
12.46,0.005766869477455156
12.464,0.005769562018262785
12.468,0.005770427477808095
12.472,0.005770523639979796
12.476,0.00577136505898218
12.48,0.00577223051852749
12.484,0.005770980410295376
12.488,0.005769129288490131
12.492,0.00577136505898218
12.496,0.00577501922150682
12.5,0.005776052964852607
12.504,0.005768263828944822
12.508000000000001,0.005761195909324794
12.512,0.0057626143013573845
12.516,0.0057626143013573845
12.52,0.0057637201663319464
12.524000000000001,0.0057612680309535695
12.528,0.005757325381913827
12.532,0.005752397070614148
12.536,0.005748766948632433
12.540000000000001,0.005751002719124482
12.544,0.0057551617330505525
12.548,0.005772086275269938
12.552,0.0057859336279948905
12.556000000000001,0.0057893473850902785
12.56,0.0057938670071602276
12.564,0.005790741736579943
12.568,0.0057844190737905985
12.572000000000001,0.005784274830533047
12.576,0.00578268815469998
12.58,0.005774490329562464
12.584,0.005771557383325582
12.588000000000001,0.005768359991116522
12.592,0.005765955936823996
12.596,0.005770187072378842
12.6,0.00577136505898218
12.604000000000001,0.005769562018262785
12.608,0.005764080774475826
12.612,0.005766076139538622
12.616,0.005769393734462309
12.620000000000001,0.005770884248123675
12.624,0.005766701193654679
12.628,0.00576314319330174
12.632,0.00576400865284705
12.636000000000001,0.005763287436559292
12.64,0.005760522774122887
12.644,0.005763455720359769
12.648,0.005761003584981392
12.652000000000001,0.00576081126063799
12.656,0.0057686244370887
12.66,0.005766629072025903
12.664,0.005762518139185683
12.668000000000001,0.00576451350424848
12.672,0.005762421977013982
12.676,0.0057626143013573845
12.68,0.00576725412614196
12.684000000000001,0.005761604598554524
12.688,0.005755570422280283
12.692,0.005751146962382034
12.696,0.005752493232785849
12.700000000000001,0.005754248192419393
12.704,0.005757685990057705
12.708,0.005759056301004446
12.712,0.00575989772000683
12.716000000000001,0.005760931463352616
12.72,0.0057620613688701035
12.724,0.005763575923074395
12.728,0.005759464990234175
12.732000000000001,0.005759729436206353
12.736,0.005758046598201585
12.74,0.005757084976484574
12.744,0.0057546088005632715
12.748000000000001,0.005758262963087912
12.752,0.005758647611774716
12.756,0.005759368828062474
12.76,0.00575898417937567
12.764000000000001,0.005754127989704766
12.768,0.005751555651611763
12.772,0.005754488597848646
12.776,0.005750233421750874
12.780000000000001,0.00574761300257202
12.784,0.005752853840929727
12.788,0.005755810827709535
12.792,0.005757974476572809
12.796000000000001,0.00575766194951478
12.8,0.0057556425439090585
12.804,0.005755979111510012
12.808,0.005758407206345463
12.812,0.005755810827709535
12.816,0.005752156665184895
12.82,0.005753238489616532
12.824,0.005755498300651507
12.828,0.005755185773593478
12.832,0.005756459922368517
12.836,0.00575633971965389
12.84,0.005757325381913827
12.844,0.005757133057570424
12.848,0.0057647539096777325
12.852,0.005764345220448003
12.856,0.005761219949867719
12.86,0.005761796922897925
12.864,0.005762470058099833
12.868,0.005761364193125271
12.872,0.005757565787343079
12.876,0.005759969841635605
12.88,0.005762590260814459
12.884,0.005764080774475826
12.888,0.00576359996361732
12.892,0.005757854273858182
12.896,0.0057516758543263895
12.9,0.005754127989704766
12.904,0.005762662382443235
12.908,0.005764032693389975
12.912,0.005761292071496495
12.916,0.005761628639097449
12.92,0.005763431679816844
12.924,0.0057636480447031705
12.928,0.005763816328503648
12.932,0.00576446542316263
12.936,0.005765354923250864
12.94,0.005762277733756431
12.944,0.005763624004160245
12.948,0.005767133923427334
12.952,0.005767470491028288
12.956,0.005768936964146729
12.96,0.005769802423692038
12.964,0.005766220382796174
12.968,0.005763383598730993
12.972,0.005764561585334331
12.976,0.005762710463529086
12.98,0.005760186206521933
12.984,0.0057569888143128726
12.988,0.005761388233668196
12.992,0.0057665809909400526
12.996,0.0057655472475942665
13.0,0.005765907855738146
13.004,0.005764898152935284
13.008000000000001,0.00576497027456406
13.012,0.005767013720712708
13.016,0.005767470491028288
13.02,0.005766556950397127
13.024000000000001,0.005765643409765968
13.028,0.0057657155313947436
13.032,0.005764561585334331
13.036,0.005763912490675349
13.040000000000001,0.0057695860588057105
13.044,0.005768552315459924
13.048,0.005764393301533854
13.052,0.005766412707139576
13.056000000000001,0.005765090477278687
13.06,0.00576679735582638
13.064,0.005761580558011598
13.068,0.005757710030600631
13.072000000000001,0.005760907422809691
13.076,0.005764417342076779
13.08,0.0057627825851578615
13.084,0.005763744206874872
13.088000000000001,0.005761796922897925
13.092,0.005763431679816844
13.096,0.005763768247417797
13.1,0.005759657314577577
13.104000000000001,0.0057554021384798055
13.108,0.00575309424635898
13.112,0.005756844571055322
13.116,0.00575816680091621
13.120000000000001,0.005759080341547371
13.124,0.005760017922721456
13.128,0.0057594890307771
13.132,0.005760378530865335
13.136000000000001,0.0057605468146658114
13.14,0.005760883382266766
13.144,0.005763816328503648
13.148,0.005757950436029884
13.152000000000001,0.005763431679816844
13.156,0.005772519005042593
13.16,0.005768095545144345
13.164,0.005771869910383611
13.168000000000001,0.005777807924486151
13.172,0.005774442248476614
13.176,0.005770042829121291
13.18,0.005771028491381227
13.184000000000001,0.005766941599083932
13.188,0.005762253693213506
13.192,0.00576359996361732
13.196,0.005768239788401896
13.200000000000001,0.005768696558717476
13.204,0.005767157963970259
13.208,0.005763431679816844
13.212,0.005759272665890773
13.216000000000001,0.0057618209634408505
13.22,0.005766076139538622
13.224,0.005762133490498879
13.228,0.005759777517292204
13.232000000000001,0.005759464990234175
13.236,0.005758863976661043
13.24,0.005752877881472653
13.244,0.005745040664479017
13.248000000000001,0.005738790123318449
13.252,0.005735208082422583
13.256,0.005752829800386802
13.26,0.005777639640685674
13.264000000000001,0.0057904532500648405
13.268,0.005793001547614919
13.272,0.0057944920612762844
13.276,0.005792448615127638
13.280000000000001,0.005782423708727801
13.284,0.005766989680169783
13.288,0.00575807063874451
13.292,0.005761893085069626
13.296000000000001,0.0057665088693112775
13.3,0.005763984612304125
13.304,0.005763575923074395
13.308,0.0057687205992604015
13.312000000000001,0.005768552315459924
13.316,0.005766388666596651
13.32,0.005763071071672964
13.324,0.005761460355296972
13.328,0.0057627825851578615
13.332,0.005766220382796174
13.336,0.00576583573410937
13.34,0.005764537544791406
13.344,0.005764946234021135
13.348,0.005767999382972643
13.352,0.00576811958568727
13.356,0.005768456153288223
13.36,0.005773071937529874
13.364,0.005772302640156266
13.368,0.005766436747682502
13.372,0.005758936098289819
13.376,0.005768552315459924
13.38,0.005772086275269938
13.384,0.0057688888830608786
13.388,0.005763936531218274
13.392,0.005761941166155477
13.396,0.005766316544967875
13.4,0.005766989680169783
13.404,0.00576218157158473
13.408,0.005765210679993313
13.412,0.005765763612480594
13.416,0.0057665809909400526
13.42,0.0057694418155481595
13.424,0.005771028491381227
13.428,0.005769970707492515
13.432,0.00576533088270794
13.436,0.005766316544967875
13.44,0.005768552315459924
13.444,0.005769177369575981
13.448,0.005771917991469462
13.452,0.005772807491557696
13.456,0.005772999815901098
13.46,0.005775043262049745
13.464,0.005765403004336715
13.468,0.005758839936118118
13.472,0.005763215314930516
13.476,0.00576359996361732
13.48,0.005763119152758815
13.484,0.00576542704487964
13.488,0.005764585625877256
13.492,0.005761845003983776
13.496,0.005758287003630837
13.5,0.005758815895575193
13.504,0.005763912490675349
13.508000000000001,0.0057647539096777325
13.512,0.005763551882531469
13.516,0.0057665809909400526
13.52,0.005766605031482978
13.524000000000001,0.005759464990234175
13.528,0.0057569166926840975
13.532,0.005760066003807306
13.536,0.005765138558364537
13.540000000000001,0.005763191274387591
13.544,0.005761628639097449
13.548,0.005762950868958338
13.552,0.005765667450308893
13.556000000000001,0.005768961004689654
13.56,0.005773937397075183
13.564,0.0057767982216832894
13.568,0.005771605464411433
13.572000000000001,0.0057668213963693055
13.576,0.005761772882355
13.58,0.0057661001800815475
13.584,0.005765018355649911
13.588000000000001,0.005758839936118118
13.592,0.005758142760373285
13.596,0.005762397936471057
13.6,0.005762325814842282
13.604000000000001,0.005765090477278687
13.608,0.005767518572114138
13.612,0.005770211112921767
13.616,0.005767422409942437
13.620000000000001,0.005769730302063262
13.624,0.005770211112921767
13.628,0.005770571721065647
13.632,0.005771677586040209
13.636000000000001,0.005770163031835917
13.64,0.005764561585334331
13.644,0.005770523639979796
13.648,0.005764705828591883
13.652000000000001,0.005758839936118118
13.656,0.005762421977013982
13.66,0.005765691490851818
13.664,0.005771629504954358
13.668000000000001,0.005769922626406665
13.672,0.005772639207757219
13.676,0.005775067302592671
13.68,0.005773120018615725
13.684000000000001,0.005767734937000466
13.688,0.0057673743288565865
13.692,0.0057687205992604015
13.696,0.005769802423692038
13.700000000000001,0.00577136505898218
13.704,0.005773408505130828
13.708,0.005771244856267554
13.712,0.005772567086128443
13.716000000000001,0.005772711329385995
13.72,0.005771869910383611
13.724,0.0057692735317476825
13.728,0.005770114950750067
13.732000000000001,0.00576775897754339
13.736,0.00576350380144562
13.74,0.0057585754901459405
13.744,0.005762950868958338
13.748000000000001,0.005766629072025903
13.752,0.005767109882884409
13.756,0.005764561585334331
13.76,0.005759801557835129
13.764000000000001,0.005764176936647526
13.768,0.0057665809909400526
13.772,0.005767518572114138
13.776,0.005768528274916999
13.780000000000001,0.00576811958568727
13.784,0.005760210247064858
13.788,0.005760450652494111
13.792,0.005762157531041805
13.796000000000001,0.0057605468146658114
13.8,0.00575989772000683
13.804,0.0057585754901459405
13.808,0.00575903226046152
13.812000000000001,0.005757878314401108
13.816,0.005760570855208737
13.82,0.005766460788225427
13.824,0.00576766281537169
13.828,0.00575898417937567
13.832,0.005754993449250076
13.836,0.0057524691922429235
13.84,0.005748454421574405
13.844,0.005747011988998889
13.848,0.005752974043644354
13.852,0.0057618209634408505
13.856,0.00576725412614196
13.86,0.005771076572467077
13.864,0.005765595328680117
13.868,0.005762662382443235
13.872,0.005766172301710323
13.876,0.005771437180610956
13.88,0.005768864842517953
13.884,0.00576725412614196
13.888,0.005766316544967875
13.892,0.0057697543426061875
13.896,0.005769417775005234
13.9,0.005773648910560081
13.904,0.00577451437010539
13.908,0.005770259194007618
13.912,0.005761869044526701
13.916,0.0057690331263184295
13.92,0.005774249924133212
13.924,0.005770523639979796
13.928,0.0057630951122158896
13.932,0.005761003584981392
13.936,0.005767807058629241
13.94,0.005774754775534643
13.944,0.005776317410824784
13.948,0.0057705476805227215
13.952,0.005763936531218274
13.956,0.005760450652494111
13.96,0.005754729003277898
13.964,0.005750233421750874
13.968,0.005748694827003657
13.972,0.005760883382266766
13.976,0.0057786253029456095
13.98,0.005790116682463886
13.984,0.00579639126416738
13.988,0.00579639126416738
13.992,0.005792977507071993
13.996,0.0057883136417444915
14.0,0.005773841234903482
14.004,0.005767398369399512
14.008000000000001,0.0057665809909400526
14.012,0.005765475125965491
14.016,0.005767206045056109
14.02,0.00577045151835102
14.024000000000001,0.005775475991822401
14.028,0.0057705476805227215
14.032,0.005758359125259613
14.036,0.005761412274211121
14.040000000000001,0.005772807491557696
14.044,0.005775067302592671
14.048,0.005774322045761988
14.052,0.005771677586040209
14.056000000000001,0.005773120018615725
14.06,0.005772302640156266
14.064,0.005772110315812863
14.068,0.005775211545850222
14.072000000000001,0.005777856005572002
14.076,0.0057823275465561
14.08,0.005776365491910635
14.084,0.005767494531571213
14.088000000000001,0.005768696558717476
14.092,0.005766941599083932
14.096,0.005766196342253249
14.1,0.005764393301533854
14.104000000000001,0.005767975342429718
14.108,0.005768239788401896
14.112,0.005768095545144345
14.116,0.005765306842165014
14.120000000000001,0.005762710463529086
14.124,0.0057690331263184295
14.128,0.005772567086128443
14.132,0.005774802856620493
14.136000000000001,0.0057737931538176315
14.14,0.005774466289019539
14.144,0.005773769113274706
14.148,0.00577131697789633
14.152000000000001,0.005767831099172166
14.156,0.005765066436735761
14.16,0.005763936531218274
14.164,0.005766629072025903
14.168000000000001,0.005767446450485362
14.172,0.00576583573410937
14.176,0.005764417342076779
14.18,0.005766677153111754
14.184000000000001,0.005767975342429718
14.188,0.005766436747682502
14.192,0.005756604165626069
14.196,0.005757517706257229
14.200000000000001,0.005760378530865335
14.204,0.005761243990410644
14.208,0.005763263396016367
14.212,0.005762998950044188
14.216000000000001,0.00576314319330174
14.22,0.005762133490498879
14.224,0.005766965639626857
14.228,0.005769537977719861
14.232000000000001,0.005770427477808095
14.236,0.005770235153464693
14.24,0.005769153329033056
14.244,0.005769153329033056
14.248000000000001,0.0057687205992604015
14.252,0.005770235153464693
14.256,0.005777086708198393
14.26,0.005777038627112542
14.264000000000001,0.005772182437441639
14.268,0.0057694418155481595
14.272,0.0057665088693112775
14.276,0.005767783018086316
14.280000000000001,0.005769129288490131
14.284,0.005770355356179319
14.288,0.005774153761961511
14.292,0.005775740437794578
14.296000000000001,0.0057748268971634185
14.3,0.005772519005042593
14.304,0.005769706261520337
14.308,0.005771629504954358
14.312000000000001,0.005770042829121291
14.316,0.005770764045409048
14.32,0.005770691923780273
14.324,0.005772663248300144
14.328000000000001,0.005777038627112542
14.332,0.005775451951279475
14.336,0.005777399235256421
14.34,0.0057819669384122216
14.344,0.0057788657083748625
14.348,0.005780284100407453
14.352,0.005777230951455945
14.356,0.005771220815724629
14.36,0.005775283667478998
14.364,0.005779490762490919
14.368,0.0057791782354328905
14.372,0.005777567519056898
14.376,0.005776293370281859
14.38,0.005775235586393148
14.384,0.00577684630276914
14.388,0.005777831965029076
14.392,0.005772639207757219
14.396,0.005767398369399512
14.4,0.005769802423692038
14.404,0.005784250789990121
14.408,0.00578725585785578
14.412,0.005784779681934477
14.416,0.005788097276858165
14.42,0.005788842533688848
14.424,0.005789010817489324
14.428,0.005791583155582328
14.432,0.005792472655670563
14.436,0.005788145357944015
14.44,0.005785332614421759
14.444,0.005784611398134
14.448,0.005783409370987737
14.452,0.005782543911442428
14.456,0.005781726532982969
14.46,0.00578278431687168
14.464,0.005783457452073587
14.468,0.005787472222742108
14.472,0.0057859336279948905
14.476,0.00578502008736373
14.48,0.00578862616880252
14.484,0.005785573019851012
14.488,0.005780404303122079
14.492,0.005784395033247673
14.496,0.005788049195772314
14.5,0.005783938262932093
14.504,0.0057823515870990255
14.508000000000001,0.005778408938059283
14.512,0.005776605897339888
14.516,0.0057801398571499015
14.52,0.005785524938765161
14.524000000000001,0.005789227182375652
14.528,0.005788433844459118
14.532,0.005786342317224621
14.536,0.005780981276152285
14.540000000000001,0.005778000248829553
14.544,0.005780332181493304
14.548,0.0057801398571499015
14.552,0.0057814861275537165
14.556000000000001,0.005784034425103794
14.56,0.00578583746582319
14.564,0.005779154194889966
14.568,0.005775235586393148
14.572000000000001,0.005775163464764372
14.576,0.0057759327621379804
14.58,0.005783890181846243
14.584,0.0057883857633732674
14.588000000000001,0.0057883857633732674
14.592,0.005782567951985353
14.596,0.005785693222565638
14.6,0.005787977074143538
14.604000000000001,0.005794011250417779
14.608,0.005787784749800136
14.612,0.005779130154347041
14.616,0.005790813858208719
14.620000000000001,0.005796102777652278
14.624,0.005794636304533836
14.628,0.005794083372046555
14.632,0.005793722763902676
14.636000000000001,0.005792640939471039
14.64,0.00579456418290506
14.644,0.005795982574937651
14.648,0.00579588641276595
14.652000000000001,0.0057906936554940934
14.656,0.0057823275465561
14.66,0.005784443114333524
14.664,0.0057872798983987055
14.668000000000001,0.005784274830533047
14.672,0.005775764478337503
14.676,0.005779298438147517
14.68,0.005779779249006022
14.684000000000001,0.0057737210321888565
14.688,0.005772543045585519
14.692,0.005768263828944822
14.696,0.0057726872888430696
14.700000000000001,0.005783217046644335
14.704,0.0058045650487619695
14.708,0.005815455414707114
14.712,0.005818027752800117
14.716000000000001,0.005813436009101392
14.72,0.005811176198066417
14.724,0.005808459616715863
14.728,0.0058059113191657845
14.732000000000001,0.005804060197360539
14.736,0.005798602994116504
14.74,0.0057963191425386045
14.744,0.005798314507601402
14.748000000000001,0.005794612263990911
14.752,0.005796078737109352
14.756,0.005792400534041787
14.76,0.005791414871781851
14.764000000000001,0.005789419506719054
14.768,0.005791895682640357
14.772,0.005790549412236542
14.776,0.005790236885178513
14.780000000000001,0.005787087574055304
14.784,0.005789419506719054
14.788,0.005789419506719054
14.792,0.005786823128083126
14.796000000000001,0.00579086193929457
14.8,0.005794035290960705
14.804,0.0057949728721347895
14.808,0.005798314507601402
14.812000000000001,0.005791390831238925
14.816,0.005791078304180897
14.82,0.005794732466705537
14.824,0.005797088439912213
14.828000000000001,0.005796271061452754
14.832,0.005793049628700769
14.836,0.005787568384913809
14.84,0.005786630803739723
14.844000000000001,0.005789683952691232
14.848,0.005789371425633204
14.852,0.0057890829391181
14.856,0.005784130587275495
14.86,0.0057861740334241435
14.864,0.005789275263461503
14.868,0.0057867269659114245
14.872,0.005783962303475019
14.876,0.0057861740334241435
14.88,0.005789587790519531
14.884,0.005798026021086298
14.888,0.005794203574761182
14.892,0.00579360256118805
14.896,0.005792568817842263
14.9,0.00578949162834783
14.904,0.005791631236668178
14.908,0.005797617331856569
14.912,0.005798001980543373
14.916,0.0057911744663525985
14.92,0.005786823128083126
14.924,0.005788073236315239
14.928,0.005790020520292186
14.932,0.0057869673713406775
14.936,0.0057823515870990255
14.94,0.005784827763020328
14.944,0.005793674682816826
14.948,0.005797473088599017
14.952,0.005794083372046555
14.956,0.0057806927896371825
14.96,0.005781630370811267
14.964,0.005791535074496477
14.968,0.0057941074125894805
14.972,0.005789876277034634
14.976,0.005788073236315239
14.98,0.005788073236315239
14.984,0.005789756074320008
14.988,0.005791703358296954
14.992,0.0057903811284360646
14.996,0.005791246587981374
15.0,0.005792929425986143
15.004,0.005789683952691232
15.008000000000001,0.005788746371517147
15.012,0.005793338115215872
15.016,0.005793578520645125
15.02,0.005788962736403474
15.024000000000001,0.0057928332638144415
15.028,0.005796679750682484
15.032,0.00580045411592175
15.036,0.005806031521880411
15.040000000000001,0.005798963602260384
15.044,0.005792472655670563
15.048,0.005785164330621283
15.052,0.005785693222565638
15.056000000000001,0.005786222114509994
15.06,0.005784443114333524
15.064,0.005786775046997275
15.068,0.005788337682287417
15.072000000000001,0.005787183736227004
15.076,0.005787231817312855
15.08,0.005783938262932093
15.084,0.005784827763020328
15.088000000000001,0.005782543911442428
15.092,0.005784611398134
15.096,0.005787063533512379
15.1,0.005785188371164208
15.104000000000001,0.005784491195419374
15.108,0.005784947965734954
15.112,0.005784250789990121
15.116,0.005790140723006812
15.120000000000001,0.005795357520821594
15.124,0.0057965595479678575
15.128,0.005793506399016349
15.132,0.00579091002038042
15.136000000000001,0.005782447749270727
15.14,0.005777976208286627
15.144,0.005783553614245289
15.148,0.005788505966087894
15.152000000000001,0.0057938670071602276
15.156,0.005789780114862933
15.16,0.005783457452073587
15.164,0.005781221681581538
15.168000000000001,0.005782303506013175
15.172,0.00578410654673257
15.176,0.005781894816783446
15.18,0.005784322911618897
15.184000000000001,0.0057885540471737445
15.188,0.005788289601201567
15.192,0.00578578938473734
15.196,0.005786775046997275
15.200000000000001,0.005787376060570407
15.204,0.005795044993763565
15.208,0.005794395899104583
15.212,0.005792472655670563
15.216000000000001,0.005792424574584712
15.22,0.005790044560835111
15.224,0.005793458317930498
15.228,0.005798242385972626
15.232000000000001,0.005790260925721438
15.236,0.005785140290078357
15.24,0.005779370559776293
15.244,0.0057798994517206485
15.248000000000001,0.005782063100583923
15.252,0.005784202708904271
15.256,0.005778961870546564
15.26,0.005778529140773909
15.264000000000001,0.005778144492087104
15.268,0.005778048329915403
15.272,0.005780404303122079
15.276,0.0057772069109130195
15.280000000000001,0.005778360856973432
15.284,0.005780740870723033
15.288,0.005783241087187261
15.292,0.005786342317224621
15.296000000000001,0.005791078304180897
15.3,0.005792785182728591
15.304,0.005791126385266748
15.308,0.005789828195948784
15.312000000000001,0.005787856871428912
15.316,0.005789732033777082
15.32,0.005804204440618091
15.324,0.005804036156817614
15.328000000000001,0.005793314074672947
15.332,0.005792448615127638
15.336,0.005794443980190434
15.34,0.005800189669949572
15.344000000000001,0.00580680081925402
15.348,0.005809228914089471
15.352,0.0058040842379034644
15.356,0.005798122183257999
15.36,0.005800742602436853
15.364,0.005801439778181686
15.368,0.0057986991562882055
15.372,0.005796054696566427
15.376,0.005797232683169765
15.38,0.005793963169331929
15.384,0.005787736668714285
15.388,0.005785452817136385
15.392,0.005785741303651489
15.396,0.00578410654673257
15.4,0.005783505533159438
15.404,0.005773576788931305
15.408,0.005768263828944822
15.412,0.005777831965029076
15.416,0.005794131453132406
15.42,0.005808050927486133
15.424,0.005810214576349407
15.428,0.005806656575996468
15.432,0.005801007048409031
15.436,0.005796487426339082
15.44,0.005791799520468655
15.444,0.005790741736579943
15.448,0.005795646007336697
15.452,0.00579360256118805
15.456,0.0057864144388533965
15.46,0.005791078304180897
15.464,0.005791150425809673
15.468,0.005791366790696
15.472,0.005790597493322392
15.476,0.005786101911795368
15.48,0.005792424574584712
15.484,0.0057968720750258855
15.488,0.005798314507601402
15.492,0.0057999733050632446
15.496,0.00579720864262684
15.5,0.005794131453132406
15.504,0.005792352452955936
15.508000000000001,0.005791030223095047
15.512,0.005786149992881218
15.516,0.005785500898222236
15.52,0.0057936266017309754
15.524000000000001,0.005793482358473424
15.528,0.005787544344370884
15.532,0.005786775046997275
15.536,0.005787424141656257
15.540000000000001,0.005787977074143538
15.544,0.00578903485803225
15.548,0.005787472222742108
15.552,0.0057856211009368625
15.556000000000001,0.005786149992881218
15.56,0.0057893473850902785
15.564,0.00578583746582319
15.568,0.005784058465646719
15.572000000000001,0.005788914655317623
15.576,0.005791871642097431
15.58,0.005794756507248463
15.584,0.005787135655141154
15.588000000000001,0.005781846735697595
15.592,0.005782880479043381
15.596,0.0057856211009368625
15.6,0.005784611398134
15.604000000000001,0.005774346086304913
15.608,0.005771605464411433
15.612,0.005775403870193625
15.616,0.005780260059864528
15.620000000000001,0.005780019654435275
15.624,0.00577953884357677
15.628,0.00577492305933512
15.632,0.005771172734638778
15.636000000000001,0.005771389099525105
15.64,0.005779058032718265
15.644,0.00578278431687168
15.648,0.0057795869246626205
15.652000000000001,0.0057767982216832894
15.656,0.005776437613539411
15.66,0.005780260059864528
15.664,0.005782063100583923
15.668000000000001,0.0057833853304448115
15.672,0.005783794019674542
15.676,0.005788097276858165
15.68,0.005785669182022713
15.684000000000001,0.005789179101289801
15.688,0.005791150425809673
15.692,0.005788145357944015
15.696,0.005782207343841474
15.700000000000001,0.005784034425103794
15.704,0.0057856211009368625
15.708,0.005785260492792984
15.712,0.0057844190737905985
15.716000000000001,0.005783168965558485
15.72,0.005786775046997275
15.724,0.005786462519939247
15.728,0.005782616033071204
15.732000000000001,0.005777182870370094
15.736,0.0057759327621379804
15.74,0.00578410654673257
15.744,0.005794083372046555
15.748000000000001,0.005792400534041787
15.752,0.005786342317224621
15.756,0.005786246155052919
15.76,0.005784947965734954
15.764000000000001,0.005789058898575175
15.768,0.005792544777299338
15.772,0.0057896599121483065
15.776,0.005789852236491709
15.780000000000001,0.0057913187096101494
15.784,0.005789515668890755
15.788,0.005790958101466271
15.792,0.005794275696389958
15.796000000000001,0.005788602128259595
15.8,0.005783769979131616
15.804,0.005783673816959915
15.808,0.005788818493145923
15.812000000000001,0.0057861740334241435
15.816,0.005784899884649104
15.82,0.005784443114333524
15.824,0.005787063533512379
15.828000000000001,0.005792424574584712
15.832,0.005797881777828747
15.836,0.005797497129141942
15.84,0.005793891047703153
15.844000000000001,0.005793265993587096
15.848,0.0057869673713406775
15.852,0.005784539276505225
15.856,0.005792424574584712
15.860000000000001,0.0058000454266920205
15.864,0.005800718561893928
15.868,0.005794035290960705
15.872,0.005788938695860548
15.876,0.005790549412236542
15.88,0.005792448615127638
15.884,0.005791895682640357
15.888,0.005801584021439237
15.892,0.005799684818548142
15.896,0.00579817026434385
15.9,0.005798554913030654
15.904,0.0057907657771228685
15.908,0.005787183736227004
15.912,0.005784346952161823
15.916,0.005783818060217467
15.92,0.0057867269659114245
15.924,0.005785404736050535
15.928,0.005784130587275495
15.932,0.00578415462781842
15.936,0.005781510168096642
15.94,0.0057833853304448115
15.944,0.005786005749623666
15.948,0.005784322911618897
15.952,0.005784539276505225
15.956,0.00578415462781842
15.96,0.005785573019851012
15.964,0.00578502008736373
15.968,0.0057856211009368625
15.972,0.0057810053166952105
15.976,0.005779659046291396
15.98,0.005783457452073587
15.984,0.00578949162834783
15.988,0.005789996479749261
15.992,0.005786582722653873
15.996,0.005788842533688848
16.0,0.005796198939823978
16.004,0.005802040791754818
16.008,0.005800189669949572
16.012,0.0057946603450767615
16.016000000000002,0.005794227615304107
16.02,0.005796896115568811
16.024,0.005795573885707921
16.028,0.0057896599121483065
16.032,0.005791631236668178
16.036,0.005797521169684868
16.04,0.00579634318308153
16.044,0.005795790250594249
16.048000000000002,0.005795549845164996
16.052,0.005797905818371672
16.056,0.005800886845694405
16.06,0.00580136765655291
16.064,0.005801920589040191
16.068,0.0057973528858843906
16.072,0.005803050494557678
16.076,0.005817378658141135
16.080000000000002,0.00581593622556562
16.084,0.005805550711021906
16.088,0.005795285399192818
16.092,0.005792857304357367
16.096,0.005787592425456734
16.1,0.0057885540471737445
16.104,0.005789058898575175
16.108,0.005782952600672157
16.112000000000002,0.005779370559776293
16.116,0.005784250789990121
16.12,0.005793794885531452
16.124,0.005806728697625244
16.128,0.005818965333974202
16.132,0.005821393428809654
16.136,0.005813387928015542
16.14,0.005810022252006004
16.144000000000002,0.005807041224683272
16.148,0.005801800386325565
16.152,0.005799324210404262
16.156,0.005795357520821594
16.16,0.005794828628877239
16.164,0.005791342750153075
16.168,0.005803314940529857
16.172,0.005809301035718247
16.176000000000002,0.005805430508307279
16.18,0.005802521602613323
16.184,0.005804685251476596
16.188,0.0058037717108454364
16.192,0.005802257156641144
16.196,0.005803411102701557
16.2,0.005801055129494881
16.204,0.00579903572388916
16.208000000000002,0.005798602994116504
16.212,0.0057975932913136435
16.216,0.0057975932913136435
16.22,0.005799276129318412
16.224,0.005801944629583116
16.228,0.005800646440265152
16.232,0.005798242385972626
16.236,0.005797809656199971
16.240000000000002,0.005791150425809673
16.244,0.00578720777676993
16.248,0.005787904952514762
16.252,0.005794275696389958
16.256,0.005800742602436853
16.26,0.0058002137104924975
16.264,0.0058027860485855
16.268,0.005801439778181686
16.272000000000002,0.005797449048056092
16.276,0.005798050061629223
16.28,0.005795862372223025
16.284,0.005800718561893928
16.288,0.005802257156641144
16.292,0.005801391697095835
16.296,0.005801800386325565
16.3,0.005798434710316028
16.304000000000002,0.005795117115392341
16.308,0.005784298871075972
16.312,0.0057838661413033175
16.316,0.005788818493145923
16.32,0.005788505966087894
16.324,0.005787856871428912
16.328,0.005789587790519531
16.332,0.005789756074320008
16.336000000000002,0.005789924358120485
16.34,0.005790020520292186
16.344,0.005792881344900292
16.348,0.005787352020027481
16.352,0.005784827763020328
16.356,0.005792184169155459
16.36,0.005793410236844648
16.364,0.005790717696037018
16.368000000000002,0.005793241953044171
16.372,0.005796247020909829
16.376,0.005802882210757201
16.38,0.0058098780087484534
16.384,0.005807522035541778
16.388,0.005802521602613323
16.392,0.005798915521174533
16.396,0.005798074102172149
16.4,0.005799588656376441
16.404,0.00579684803448296
16.408,0.005790477290607766
16.412,0.005787135655141154
16.416,0.005789635871605381
16.42,0.0057936266017309754
16.424,0.005795189237021117
16.428,0.005792304371870086
16.432,0.0057912706285243
16.436,0.005794732466705537
16.44,0.005794636304533836
16.444,0.00579040516897899
16.448,0.0057944920612762844
16.452,0.005795838331680099
16.456,0.005798098142715074
16.46,0.0057941074125894805
16.464,0.0057906215338653175
16.468,0.005797400966970241
16.472,0.005808820224859741
16.476,0.005804661210933671
16.48,0.0057949728721347895
16.484,0.005788193439029866
16.488,0.005793770844988526
16.492,0.005794323777475807
16.496,0.005782976641215082
16.5,0.005784899884649104
16.504,0.005786775046997275
16.508,0.005783986344017943
16.512,0.00578369785750284
16.516000000000002,0.00578771262817136
16.52,0.005790116682463886
16.524,0.005790140723006812
16.528,0.005791150425809673
16.532,0.005790164763549737
16.536,0.0057891069796610255
16.54,0.0057944199396475085
16.544,0.0057973528858843906
16.548000000000002,0.005796968237197587
16.552,0.005795477723536221
16.556,0.0058002137104924975
16.56,0.005801415737638761
16.564,0.005795958534394726
