time,channel4
0.0,0.0016686540844425462
0.004,0.0016714908685077272
0.008,0.0016698561115888093
0.012,0.0016682453952128167
0.016,0.001670192679189763
0.02,0.0016712504630784746
0.024,0.0016678367059830873
0.028,0.0016695676250737062
0.032,0.0016708417738487452
0.036000000000000004,0.0016777414096682958
0.04,0.0016792078827867368
0.044,0.001677501004239043
0.048,0.0016770923150093136
0.052000000000000005,0.0016782703016126515
0.056,0.0016720918820808588
0.06,0.0016712985441643252
0.064,0.00167401512551488
0.068,0.0016770923150093136
0.07200000000000001,0.001678222220526801
0.076,0.001677404842067342
0.08,0.0016814917343646368
0.084,0.001684713167116622
0.088,0.0016803858693900746
0.092,0.0016752171526611432
0.096,0.0016749767472318904
0.1,0.001680506072104701
0.10400000000000001,0.0016846410454878463
0.108,0.001685987315891661
0.112,0.001679856977445719
0.116,0.001677765450211221
0.12,0.001675938368948901
0.124,0.001673197747055421
0.128,0.0016746401796309367
0.132,0.0016731496659695704
0.136,0.0016729573416261684
0.14,0.0016725246118535137
0.14400000000000002,0.001667908827611863
0.148,0.001663605570428241
0.152,0.0016607687863630593
0.156,0.001669279138558603
0.16,0.0016756018013479473
0.164,0.001670553287333642
0.168,0.0016662740706929451
0.17200000000000001,0.0016695195439878558
0.176,0.0016738708822573284
0.18,0.0016791838422438115
0.184,0.0016833909372557325
0.188,0.0016825014371674978
0.192,0.0016804579910188505
0.196,0.0016792559638725874
0.2,0.0016825975993391988
0.20400000000000001,0.0016849776130888
0.20800000000000002,0.0016844727616873694
0.212,0.001686083478063362
0.216,0.0016851939779751273
0.22,0.001684160234629341
0.224,0.0016820687073948431
0.228,0.0016825014371674978
0.232,0.0016829341669401525
0.23600000000000002,0.0016858671131770348
0.24,0.001691156032620593
0.244,0.0016880307620403088
0.248,0.0016860353969775116
0.252,0.0016863960051213907
0.256,0.0016823812344528716
0.26,0.0016806503153622525
0.264,0.0016775971664107442
0.268,0.00168178022087974
0.272,0.0016870691403232981
0.276,0.0016891125864719454
0.28,0.0016839438697430137
0.28400000000000003,0.0016735343146563747
0.28800000000000003,0.0016695435845307809
0.292,0.0016688704493288736
0.296,0.0016871172214091487
0.3,0.0017166390081213721
0.304,0.001742049861993376
0.308,0.0017830630282238754
0.312,0.0018161428152890383
0.316,0.0018189074777254437
0.32,0.001813738760996512
0.324,0.0018045793141419862
0.328,0.0017874624475791988
0.332,0.0017641912020275436
0.336,0.0017471704976364571
0.34,0.0017276976578669933
0.34400000000000003,0.0017113500886778144
0.34800000000000003,0.0016972382899806844
0.352,0.001688703897242216
0.356,0.001690434816332835
0.36,0.001689232789186572
0.364,0.0016905550190474614
0.368,0.0016905790595903867
0.372,0.001689521275701675
0.376,0.0016869970186945223
0.38,0.0016835111399703588
0.384,0.0016847852887453979
0.388,0.0016844246806015188
0.392,0.0016835111399703588
0.396,0.001688800059413917
0.4,0.0016915887623932477
0.404,0.0016895933973304507
0.40800000000000003,0.0016866364105506434
0.41200000000000003,0.0016859632753487357
0.41600000000000004,0.0016823571939099463
0.42,0.001683703464313761
0.424,0.0016909637082771908
0.428,0.0016898338027597035
0.432,0.0016789674773574842
0.436,0.001674568058002161
0.44,0.0016760104905776767
0.444,0.0016761547338352283
0.448,0.0016760585716635273
0.452,0.0016737266389997769
0.456,0.0016780539367263242
0.46,0.0016840159913717894
0.464,0.0016839438697430137
0.468,0.0016828139642255263
0.47200000000000003,0.0016747363418026379
0.47600000000000003,0.0016701205575609874
0.48,0.0016687742871571724
0.484,0.0016681251924981905
0.488,0.0016732458281412716
0.492,0.001673582395742225
0.496,0.001671562990136503
0.5,0.0016719716793662325
0.504,0.001669639746702482
0.508,0.0016700484359322115
0.512,0.001666081746349543
0.516,0.0016612736377644899
0.52,0.0016612976783074152
0.524,0.001662788191968782
0.528,0.0016613938404791161
0.532,0.0016583887726134582
0.536,0.0016595907997597214
0.54,0.00165305177208405
0.544,0.0016493254879306341
0.548,0.0016541335965156868
0.552,0.0016569222994950172
0.556,0.0016597831241031236
0.56,0.0016637738542287178
0.5640000000000001,0.0016686300438996209
0.5680000000000001,0.001672572692939364
0.5720000000000001,0.0016752892742899188
0.5760000000000001,0.0016788953557287083
0.58,0.0016802175855895978
0.584,0.0016825014371674978
0.588,0.0016837755859425369
0.592,0.0016805541531905515
0.596,0.001679592531473541
0.6,0.0016915166407644718
0.604,0.0016894251135299739
0.608,0.0016875980322676538
0.612,0.0016865402483789422
0.616,0.0016863479240355403
0.62,0.0016898097622167782
0.624,0.0016881990458407854
0.628,0.0016876461133535044
0.632,0.0016906511812191623
0.636,0.0016928388706253614
0.64,0.001696468992607076
0.644,0.0016983201144123213
0.648,0.0016988970874425276
0.652,0.0016952429249178877
0.656,0.001692526343567333
0.66,0.0016888721810426929
0.664,0.0016924301813956318
0.668,0.0016946899924306065
0.672,0.0016920214921659024
0.676,0.0016852660996039032
0.68,0.001678222220526801
0.684,0.0016760104905776767
0.6880000000000001,0.001672284206424261
0.6920000000000001,0.0016698801521317346
0.6960000000000001,0.0016742555309441326
0.7000000000000001,0.0016778135312970714
0.704,0.001679688693645242
0.708,0.0016846650860307716
0.712,0.0016913964380498455
0.716,0.0016886798566992907
0.72,0.0016864440862072413
0.724,0.001690338654161134
0.728,0.0016926465462819592
0.732,0.001692069573251753
0.736,0.0016945938302589056
0.74,0.001695555451975916
0.744,0.0016965170736929266
0.748,0.001696012222291496
0.752,0.001695363127632514
0.756,0.0016949544384027844
0.76,0.0016963968709783003
0.764,0.0016946419113447562
0.768,0.001685698829376558
0.772,0.0016885836945275897
0.776,0.001698199911697695
0.78,0.0017007722497906982
0.784,0.0017010847768487267
0.788,0.0017046427772016656
0.792,0.0017047870204592171
0.796,0.0017015175066213814
0.8,0.001698656682013275
0.804,0.0016998106280736876
0.808,0.0016976950602962644
0.812,0.0017010847768487267
0.8160000000000001,0.0017032965067978508
0.8200000000000001,0.001701493466078456
0.8240000000000001,0.0016971180872660582
0.8280000000000001,0.0016893529919011982
0.8320000000000001,0.0016757700851484242
0.836,0.0016719235982803821
0.84,0.0017021906418232887
0.844,0.001699570222644435
0.848,0.0016961564655490475
0.852,0.0016983441549552466
0.856,0.0016983201144123213
0.86,0.0016996904253590614
0.864,0.0016994981010156592
0.868,0.0016990894117859298
0.872,0.0016944255464584287
0.876,0.0016930311949687634
0.88,0.001690242491989433
0.884,0.0016877182349822803
0.888,0.0016889923837573192
0.892,0.001692550384110258
0.896,0.0016937283707135961
0.9,0.0016923099786810055
0.904,0.0016880788431261591
0.908,0.0016879105593256823
0.912,0.0016852660996039032
0.916,0.0016819965857660672
0.92,0.0016783664637843526
0.924,0.001678486666498979
0.928,0.001680698396448103
0.932,0.0016836794237708357
0.936,0.0016749046256031147
0.9400000000000001,0.0016743276525729084
0.9440000000000001,0.0016819004235943662
0.9480000000000001,0.0016771884771810146
0.9520000000000001,0.0016725246118535137
0.9560000000000001,0.0016679328681547883
0.96,0.0016696157061595568
0.964,0.0016712745036214
0.968,0.0016758181662342748
0.972,0.001678943436814559
0.976,0.0016829582074830778
0.98,0.00168543438340438
0.984,0.0016833188156269569
0.988,0.0016853382212326789
0.992,0.0016880788431261591
0.996,0.0016881990458407854
1.0,0.0016869729781515972
1.004,0.0016861075186062873
1.008,0.0016874057079242519
1.012,0.0016875980322676538
1.016,0.001689160667557796
1.02,0.0016908194650196392
1.024,0.001688703897242216
1.028,0.0016896414784163013
1.032,0.0016923099786810055
1.036,0.0016889202621285435
1.04,0.0016931513976833896
1.044,0.0016918772489083508
1.048,0.0016853141806897536
1.052,0.0016856747888336326
1.056,0.0016836553832279104
1.06,0.0016851939779751273
1.064,0.0016914685596786214
1.068,0.0016954112087183644
1.072,0.0017000510335029404
1.076,0.0017007001281619223
1.08,0.0016977671819250403
1.084,0.0016991374928717804
1.088,0.0016960362628344213
1.092,0.0016945217086301297
1.096,0.0016949544384027844
1.1,0.0016922138165093045
1.104,0.0016906752217620876
1.108,0.001693007154425838
1.112,0.0016957718168622434
1.116,0.0016969498034655813
1.12,0.0016944255464584287
1.124,0.0016972142494377591
1.1280000000000001,0.0017008203308765486
1.1320000000000001,0.0016990894117859298
1.1360000000000001,0.0016995221415585845
1.1400000000000001,0.0016994019388439582
1.1440000000000001,0.0016935120058272687
1.1480000000000001,0.0016909396677342655
1.1520000000000001,0.0016946899924306065
1.156,0.0017013251822779792
1.16,0.0017016857904218583
1.164,0.0016980316278972182
1.168,0.0016973584926953107
1.172,0.0016933196814838665
1.176,0.001691901289451276
1.18,0.0016952910060037381
1.184,0.0017006280065331467
1.188,0.0016993298172151823
1.192,0.0016931273571404646
1.196,0.0016996904253590614
1.2,0.0017075757234385476
1.204,0.0017095710885013445
1.208,0.0017058928854337793
1.212,0.0017030561013685983
1.216,0.0016994740604727339
1.22,0.0016984403171269476
1.224,0.0017025512499671677
1.228,0.0017046668177445909
1.232,0.0016916849245649486
1.236,0.0016876701538964297
1.24,0.0016894731946158245
1.244,0.0016880788431261591
1.248,0.0016873576268384013
1.252,0.0016895453162446001
1.256,0.001690987748820116
1.26,0.0016893049108153476
1.264,0.0016857949915482589
1.268,0.0016862277213209136
1.272,0.0016855065050331557
1.276,0.0016851218563463516
1.28,0.0016874297484671772
1.284,0.001691156032620593
1.288,0.0016944736275442793
1.292,0.001696276668263674
1.296,0.0016991615334147054
1.3,0.0016998106280736876
1.304,0.0016994981010156592
1.308,0.0016945217086301297
1.312,0.0016998106280736876
1.316,0.0017038253987422065
1.32,0.0017009645741341002
1.324,0.0017051476286030962
1.328,0.0017071670342088182
1.332,0.0017033686284266265
1.336,0.0017052678313177225
1.34,0.0017059409665196297
1.344,0.0017049793448026193
1.348,0.0017048110610021424
1.352,0.0017082969397263057
1.356,0.001708152696468754
1.36,0.0017066862233503129
1.364,0.0017050033853455446
1.368,0.0017063977368352097
1.372,0.001709979777731074
1.3760000000000001,0.0017128165617962554
1.3800000000000001,0.0017117347373646185
1.3840000000000001,0.0017105567507612804
1.3880000000000001,0.0017025272094242424
1.3920000000000001,0.0016859392348058104
1.3960000000000001,0.0016829101263972272
1.4000000000000001,0.0016835592210562094
1.4040000000000001,0.001699666384816136
1.408,0.0017292602931571353
1.412,0.0017529402279385202
1.416,0.001791044488475063
1.42,0.0018273937893780615
1.424,0.0018359522226594556
1.428,0.0018312402762461037
1.432,0.0018209749644170162
1.436,0.001802463746364563
1.44,0.0017826302984512207
1.444,0.0017685665808399415
1.448,0.0017516660791634814
1.452,0.0017336597125124586
1.456,0.0017218798464790795
1.46,0.0017104846291325045
1.464,0.0017089219938423623
1.468,0.0017109413994480847
1.472,0.0017082969397263057
1.476,0.001710172102074476
1.48,0.001706950669322491
1.484,0.0017057005610903772
1.488,0.0017022627634520645
1.492,0.001699281736129332
1.496,0.0016999548713312392
1.5,0.0017056284394616013
1.504,0.0017055322772899003
1.508,0.0017033926689695518
1.512,0.001703488831141253
1.516,0.0017041619663431603
1.52,0.0017068304666078644
1.524,0.0017097393723018214
1.528,0.0017073593585522203
1.532,0.001703945601456833
1.536,0.0017019021553081855
1.54,0.0017022868039949898
1.544,0.0017040177230856087
1.548,0.0017090181560140635
1.552,0.0017017098309647833
1.556,0.001699377898301033
1.56,0.001700291438932193
1.564,0.0016985845603844992
1.568,0.0017000029524170898
1.572,0.0016950746411174109
1.576,0.0016923099786810055
1.58,0.0016888240999568423
1.584,0.0016895933973304507
1.588,0.0016920455327088277
1.592,0.0016937524112565212
1.596,0.0016880307620403088
1.6,0.0016899059243884792
1.604,0.0016893529919011982
1.608,0.0016886317756134403
1.612,0.0016909637082771908
1.616,0.0016850497347175757
1.62,0.001678414544870203
1.624,0.0016843765995156685
1.6280000000000001,0.0016882230863837107
1.6320000000000001,0.0016877422755252054
1.6360000000000001,0.0016854584239473051
1.6400000000000001,0.00168360730214206
1.6440000000000001,0.0016791838422438115
1.6480000000000001,0.00167949636930184
1.6520000000000001,0.0016848333698312485
1.6560000000000001,0.0016900982487318813
1.6600000000000001,0.0016893529919011982
1.6640000000000001,0.0016882711674695613
1.668,0.0016931513976833896
1.672,0.001692165735423454
1.676,0.0016924301813956318
1.68,0.0016937524112565212
1.684,0.0016955314114329909
1.688,0.001696276668263674
1.692,0.0016975027359528623
1.696,0.0017034647905983277
1.7,0.0017014453849926055
1.704,0.0017029839797398224
1.708,0.0017080324937541276
1.712,0.0016998587091595382
1.716,0.0016972623305236097
1.72,0.001701132857934577
1.724,0.001699281736129332
1.728,0.0016973584926953107
1.732,0.001700483763275595
1.736,0.0017037532771134309
1.74,0.0017005078038185202
1.744,0.001703128222997374
1.748,0.0017082248180975298
1.752,0.0017093787641579423
1.756,0.001709787453387672
1.76,0.0017070708720371172
1.764,0.0017020223580228118
1.768,0.0017006280065331467
1.772,0.001703584993312954
1.776,0.001710893318362234
1.78,0.001711518372478291
1.784,0.0017077199666960992
1.788,0.0017037773176563561
1.792,0.0017070227909512666
1.796,0.0017054841962040497
1.8,0.0017099076561022982
1.804,0.0017118308995363195
1.808,0.001700026992960015
1.812,0.0016888721810426929
1.816,0.0017023589256237655
1.82,0.0017135858591698638
1.824,0.0017161822378057921
1.828,0.0017094749263296435
1.832,0.001708513304612633
1.836,0.001711037561619786
1.84,0.0017165188054067458
1.844,0.0017184180082978416
1.848,0.0017213509545347238
1.852,0.0017207018598757416
1.856,0.0017094989668725688
1.86,0.0017127444401674795
1.864,0.001714787886316127
1.868,0.0017174323460379059
1.872,0.0017174804271237565
1.8760000000000001,0.001718081440696888
1.8800000000000001,0.0017170236568081765
1.8840000000000001,0.0017159177918336143
1.8880000000000001,0.001714980210659529
1.8920000000000001,0.001717792954181785
1.8960000000000001,0.0017142349538288458
1.9000000000000001,0.0017082728991833804
1.9040000000000001,0.0017073833990951456
1.9080000000000001,0.0017125280752811522
1.9120000000000001,0.001722456819509286
1.9160000000000001,0.0017267841172358333
1.92,0.0017256061306324955
1.924,0.0017248127927159617
1.928,0.0017198364003304322
1.932,0.0017166390081213721
1.936,0.0017197642787016565
1.94,0.0017189709407851228
1.944,0.0017172400216945037
1.948,0.0017091864398145404
1.952,0.0017065419800927613
1.956,0.0017056524800045266
1.96,0.0017103644264178782
1.964,0.0017110856427056363
1.968,0.0017100518993598498
1.972,0.0017103884669608035
1.976,0.0017151244539170805
1.98,0.0017136339402557142
1.984,0.0017111096832485616
1.988,0.0017179612379822618
1.992,0.0017197642787016565
1.996,0.001715893751290689
2.0,0.001715725467490212
2.004,0.0017206056977040406
2.008,0.0017242117791428301
2.012,0.0017221683329941828
2.016,0.001720365292274788
2.02,0.0017246204683725595
2.024,0.0017256061306324955
2.028,0.0017214471167064248
2.032,0.0017195719543582543
2.036,0.0017206778193328163
2.04,0.001727216847008488
2.044,0.0017317124285355122
2.048,0.001726375428006104
2.052,0.0017290679688137334
2.056,0.0017321932393940176
2.06,0.0017313999014774838
2.064,0.0017252455224886164
2.068,0.0017313758609345585
2.072,0.001735943564090359
2.076,0.0017361599289766865
2.08,0.0017354146721460027
2.084,0.0017292602931571353
2.088,0.001725485927917869
2.092,0.0017229616709107164
2.096,0.001720918224762069
2.1,0.001710628872390056
2.104,0.0017053399529464981
2.108,0.0017059409665196297
2.112,0.0017251253197739902
2.116,0.0017525074981658655
2.12,0.001782486055193669
2.124,0.0018260956000600973
2.128,0.0018572281031483135
2.132,0.0018610505494734307
2.136,0.0018566030490322566
2.14,0.0018481888590084145
2.144,0.0018329231142508722
2.148,0.0018101567201006478
2.152,0.0017897462991570989
2.156,0.0017719082163065532
2.16,0.0017543826605140361
2.164,0.0017393573211857466
2.168,0.0017280101849250218
2.172,0.0017206537787898912
2.176,0.0017252455224886164
2.18,0.0017298132256444165
2.184,0.00173106333387653
2.188,0.001731688387992587
2.192,0.0017323855637374197
2.196,0.00173014979324537
2.2,0.0017257744144329723
2.204,0.001726856238864609
2.208,0.0017298132256444165
2.212,0.0017301017121595197
2.216,0.001729861306730267
2.22,0.0017302459554170712
2.224,0.0017296209013010144
2.228,0.0017267841172358333
2.232,0.0017256542117183458
2.236,0.0017242358196857554
2.24,0.0017223606573375848
2.244,0.0017190671029568237
2.248,0.0017178891163534859
2.2520000000000002,0.0017232982385116701
2.2560000000000002,0.0017248127927159617
2.2600000000000002,0.0017226972249385385
2.2640000000000002,0.0017232982385116701
2.2680000000000002,0.001722456819509286
2.2720000000000002,0.0017202450895601616
2.2760000000000002,0.0017133214131976858
2.2800000000000002,0.0017115664535641416
2.2840000000000003,0.0017143070754576217
2.2880000000000003,0.0017196921570728806
2.2920000000000003,0.0017246925900013354
2.2960000000000003,0.0017170717378940268
2.3000000000000003,0.001711951102250946
2.3040000000000003,0.0017082007775546045
2.308,0.0017121915076801985
2.312,0.0017149561701166039
2.316,0.0017165909270355217
2.32,0.0017197402381587312
2.324,0.0017167592108359986
2.328,0.0017103884669608035
2.332,0.0017120713049655722
2.336,0.0017118068589933942
2.34,0.0017104605885895792
2.344,0.0017084892640697076
2.348,0.0017047389393733665
2.352,0.001700026992960015
2.356,0.0017023348850808402
2.36,0.0017044504528582634
2.364,0.0017052678313177225
2.368,0.0017059890476054803
2.372,0.0017093547236150173
2.376,0.0017160860756340911
2.38,0.0017170717378940268
2.384,0.0017141628322000701
2.388,0.0017180093190681122
2.392,0.0017154129404321837
2.396,0.0017126963590816291
2.4,0.0017182256839544396
2.404,0.001720004684130909
2.408,0.001717792954181785
2.412,0.0017218077248503038
2.416,0.001721639441049827
2.42,0.0017240434953423533
2.424,0.0017276255362382175
2.428,0.0017308950500760532
2.432,0.0017315441447350354
2.436,0.0017271687659226374
2.44,0.0017222644951658838
2.444,0.0017230818736253426
2.448,0.0017286111984981534
2.452,0.0017298132256444165
2.456,0.0017282505903542743
2.46,0.0017218798464790795
2.464,0.001723009751996567
2.468,0.0017237790493701754
2.472,0.0017224087384234354
2.476,0.0017264475496348796
2.48,0.0017320970772223164
2.484,0.0017343088071714407
2.488,0.0017307988879043522
2.492,0.0017274091713518902
2.496,0.0017294285769576122
2.5,0.0017287073606698543
2.504,0.0017317605096213628
2.508,0.001731688387992587
2.512,0.0017321691988510923
2.516,0.0017277457389528437
2.52,0.0017262311847485521
2.524,0.001727841901124545
2.528,0.0017260148198622249
2.532,0.0017277938200386943
2.536,0.0017307267662755766
2.54,0.0017307027257326513
2.544,0.0017300776716165944
2.548,0.0017256782522612711
2.552,0.0017201489273884606
2.556,0.0017251974414027658
2.56,0.0017345492126006933
2.564,0.0017376744831809781
2.568,0.0017381072129536328
2.572,0.0017388765103272413
2.576,0.0017447183622580802
2.58,0.0017457280650609412
2.584,0.0017390447941277181
2.588,0.0017394294428145223
2.592,0.0017395256049862232
2.596,0.0017359916451762096
2.6,0.001734981942373348
2.604,0.0017344530504289923
2.608,0.0017352223478026008
2.612,0.0017347655774870208
2.616,0.0017350781045450492
2.62,0.0017384437805545866
2.624,0.0017378908480673054
2.628,0.0017379629696960813
2.632,0.0017341164828280386
2.636,0.001731423942020409
2.64,0.0017252214819456911
2.644,0.0017161341567199417
2.648,0.0017237790493701754
2.652,0.0017364243749488644
2.656,0.0017440933081420233
2.66,0.0017444539162859024
2.664,0.001745247254202436
2.668,0.0017401746996452054
2.672,0.0017370013479790706
2.676,0.0017358714424615834
2.68,0.0017313037393057828
2.684,0.0017267841172358333
2.688,0.0017233463195975207
2.692,0.0017260869414910006
2.696,0.0017254138062890933
2.7,0.0017269524010363102
2.704,0.001728587157955228
2.708,0.0017266879550641321
2.712,0.001723923292627727
2.716,0.001723562684483848
2.72,0.0017249810765164386
2.724,0.0017291641309854344
2.728,0.0017315441447350354
2.732,0.001732241320479868
2.736,0.001731423942020409
2.74,0.0017368330641785938
2.744,0.0017412805646197676
2.748,0.0017428912809957602
2.7520000000000002,0.0017346694153153196
2.7560000000000002,0.0017230337925394923
2.7600000000000002,0.0017250051170593639
2.7640000000000002,0.0017375542804663518
2.7680000000000002,0.0017496226330148338
2.7720000000000002,0.0017542384172564846
2.7760000000000002,0.0017524113359941645
2.7800000000000002,0.001746617565149176
2.7840000000000003,0.001745054929859034
2.7880000000000003,0.0017454876596316887
2.7920000000000003,0.0017482042409822434
2.7960000000000003,0.0017515458764488549
2.8000000000000003,0.0017471224165506065
2.8040000000000003,0.0017467137273208771
2.8080000000000003,0.0017457761461467918
2.8120000000000003,0.001744694321715155
2.816,0.0017458242272326424
2.82,0.001742049861993376
2.824,0.0017399342942159529
2.828,0.0017384437805545866
2.832,0.0017303901986746228
2.836,0.0017251734008598407
2.84,0.0017269764415792355
2.844,0.0017301017121595197
2.848,0.001746064632661895
2.852,0.0017744084327707805
2.856,0.001801165557046599
2.86,0.0018441981288828209
2.864,0.0018830476462500464
2.868,0.0018857642276006018
2.872,0.0018805233892428938
2.876,0.001870306158499657
2.88,0.001848693710409845
2.884,0.0018246531674845816
2.888,0.0018044110303415094
2.892,0.0017813080685903312
2.896,0.001765489391345508
2.9,0.0017574598500084697
2.904,0.0017528440657668192
2.908,0.0017509689034186486
2.912,0.0017515458764488549
2.916,0.0017493822275855813
2.92,0.0017488773761841507
2.924,0.0017456799839750906
2.928,0.0017403670239886076
2.932,0.00173786680752438
2.936,0.001744886646058557
2.94,0.0017420017809075255
2.944,0.0017358233613757328
2.948,0.0017379870102390066
2.952,0.0017472426192652328
2.956,0.0017519305251356592
2.96,0.0017490456599846276
2.964,0.0017451030109448843
2.968,0.0017502957682167413
2.972,0.0017514256737342286
2.976,0.0017484206058685707
2.98,0.0017454876596316887
2.984,0.001743612497283518
2.988,0.0017392611590140454
2.992,0.0017379870102390066
2.996,0.0017370494290649212
3.0,0.0017353185099743017
3.004,0.0017334673881690564
3.008,0.0017325538475378964
3.012,0.0017280101849250218
3.016,0.0017237790493701754
3.02,0.0017228655087390154
3.024,0.0017257263333471217
3.028,0.0017298132256444165
3.032,0.0017340203206563376
3.036,0.001730053631073669
3.04,0.001723851170998951
3.044,0.0017265917928924312
3.048,0.0017257263333471217
3.052,0.001726207144205627
3.056,0.0017287314012127796
3.06,0.0017251012792310649
3.064,0.0017217596437644532
3.068,0.0017196921570728806
3.072,0.0017175044676666818
3.076,0.0017202450895601616
3.08,0.0017232741979687448
3.084,0.0017256301711754205
3.088,0.0017235386439409227
3.092,0.0017208220625903679
3.096,0.0017195719543582543
3.1,0.0017201248868455353
3.104,0.001722192373537108
3.108,0.0017249810765164386
3.112,0.0017293564553288365
3.116,0.0017365926587493412
3.12,0.0017364964965776403
3.124,0.0017345011315148427
3.128,0.0017402468212739813
3.132,0.001738948631956017
3.136,0.0017346213342294692
3.14,0.001735054064002124
3.144,0.0017343809288002164
3.148,0.001735342550517227
3.152,0.0017411603619051413
3.156,0.0017408959159329633
3.16,0.0017381793345824085
3.164,0.001738035091324857
3.168,0.0017415209700490202
3.172,0.0017418334971070486
3.176,0.0017385880238121381
3.18,0.0017354627532318533
3.184,0.0017297891851014912
3.188,0.00173106333387653
3.192,0.0017396458077008497
3.196,0.0017472666598081581
3.2,0.0017493341464997307
3.204,0.001744598159543454
3.208,0.0017491418221563285
3.212,0.0017458723083184928
3.216,0.0017456559434321655
3.22,0.0017439490648844718
3.224,0.0017410401591905148
3.228,0.0017432038080537886
3.232,0.0017441654297707992
3.236,0.001743155726967938
3.24,0.0017417373349353476
3.244,0.0017418334971070486
3.248,0.0017393332806428213
3.2520000000000002,0.0017408237943041876
3.2560000000000002,0.001741593091677796
3.2600000000000002,0.001744886646058557
3.2640000000000002,0.0017454155380029128
3.2680000000000002,0.0017456559434321655
3.2720000000000002,0.0017450068487731834
3.2760000000000002,0.0017448145244297812
3.2800000000000002,0.0017381552940394834
3.2840000000000003,0.0017330346583964017
3.2880000000000003,0.0017377466048097538
3.2920000000000003,0.0017472666598081581
3.2960000000000003,0.0017496466735577591
3.3000000000000003,0.0017489254572700013
3.3040000000000003,0.001746521402977475
3.3080000000000003,0.0017473147408940087
3.3120000000000003,0.001753180633367773
3.3160000000000003,0.0017565222688343844
3.3200000000000003,0.0017522190116507623
3.3240000000000003,0.0017466656462350265
3.3280000000000003,0.0017450308893161087
3.332,0.0017440452270561727
3.336,0.0017478436328383644
3.34,0.0017477474706666634
3.344,0.0017503198087596666
3.348,0.001755656809289075
3.352,0.0017515218359059298
3.356,0.0017510891061332749
3.36,0.0017504640520172182
3.364,0.0017486850518407485
3.368,0.0017464012002628487
3.372,0.001746353119176998
3.376,0.0017501996060450401
3.38,0.0017530363901102214
3.384,0.0017528681063097445
3.388,0.0017528921468526696
3.392,0.0017495264708431329
3.396,0.0017432759296825643
3.4,0.0017439971459703224
3.404,0.001751738200792257
3.408,0.0017539499307413812
3.412,0.0017510650655903498
3.416,0.0017549836740871677
3.42,0.0017574117689226191
3.424,0.0017567867148065624
3.428,0.001753661444226278
3.432,0.001747819592295439
3.436,0.001740679551046636
3.44,0.00173878034815554
3.444,0.001739213077928195
3.448,0.0017342366855426648
3.452,0.0017337318341412345
3.456,0.0017355348748606296
3.46,0.0017386120643550634
3.464,0.0017460165515760444
3.468,0.0017481321193534675
3.472,0.0017476993895808128
3.476,0.0017456799839750906
3.48,0.0017382033751253338
3.484,0.0017365205371205653
3.488,0.001741328645705618
3.492,0.0017463050380911475
3.496,0.0017501274844162645
3.5,0.0017539018496555308
3.504,0.0017513295115625276
3.508,0.0017500794033304139
3.512,0.0017492860654138801
3.516,0.0017429874431674612
3.52,0.001741761375478273
3.524,0.001749814957358236
3.528,0.0017555846876602993
3.532,0.001755656809289075
3.536,0.0017483004031539444
3.54,0.0017440211865132477
3.544,0.0017530604306531465
3.548,0.0017589022825839854
3.552,0.0017617631071920922
3.556,0.0017637825127978142
3.56,0.001763109377595907
3.564,0.0017590465258415372
3.568,0.0017541422550847834
3.572,0.0017496707141006844
3.576,0.0017489735383558519
3.58,0.001754743268657915
3.584,0.0017593830934424907
3.588,0.0017549836740871677
3.592,0.0017396938887867001
3.596,0.0017304623203033985
3.6,0.0017376985237239034
3.604,0.0017613784585052878
3.608,0.0017856113257739535
3.612,0.0018132339095950816
3.616,0.0018518189809901293
3.62,0.0018748017400266812
3.624,0.0018786722674376487
3.628,0.001875787402286617
3.632,0.0018603293331856728
3.636,0.0018376831417500745
3.64,0.0018162389774607395
3.644,0.0017989778676403998
3.648,0.0017799858387294416
3.652,0.0017614986612199141
3.656,0.0017598398637580707
3.66,0.0017634699857397857
3.664,0.0017638786749695154
3.668,0.0017593830934424907
3.672,0.0017532287144536233
3.676,0.0017534210387970255
3.68,0.0017545028632286624
3.684,0.001760753404389231
3.688,0.001763037255967131
3.692,0.0017591907690990888
3.696,0.001756498228291459
3.7,0.0017545028632286624
3.704,0.0017577002554377223
3.708,0.001760585120588754
3.712,0.001752194971107837
3.716,0.0017460405921189697
3.72,0.001747531105780336
3.724,0.0017515699169917802
3.728,0.001754022052370157
3.732,0.001753565282054577
3.736,0.0017513054710196023
3.74,0.001751185268304976
3.744,0.0017493822275855813
3.748,0.0017500553627874886
3.7520000000000002,0.0017503919303884423
3.7560000000000002,0.0017486610112978234
3.7600000000000002,0.0017470502949218307
3.7640000000000002,0.0017444539162859024
3.7680000000000002,0.001741328645705618
3.7720000000000002,0.0017381552940394834
3.7760000000000002,0.0017438529027127708
3.7800000000000002,0.0017432518891396392
3.7840000000000003,0.0017382514562111844
3.7880000000000003,0.001736111847890836
3.7920000000000003,0.0017420017809075255
3.7960000000000003,0.0017463050380911475
3.8000000000000003,0.001749814957358236
3.8040000000000003,0.0017545028632286624
3.8080000000000003,0.0017473147408940087
3.8120000000000003,0.0017410161186475898
3.8160000000000003,0.0017372898344941738
3.8200000000000003,0.0017346453747723943
3.8240000000000003,0.001733515469254907
3.8280000000000003,0.001734885780201647
3.8320000000000003,0.0017343088071714407
3.8360000000000003,0.0017289477660991069
3.84,0.0017271928064655627
3.844,0.0017304623203033985
3.848,0.0017381552940394834
3.852,0.0017400785374735044
3.856,0.001738299537297035
3.86,0.0017357031586611065
3.864,0.0017353185099743017
3.868,0.001737770645352679
3.872,0.0017378908480673054
3.876,0.0017333471854544301
3.88,0.0017321932393940176
3.884,0.0017368330641785938
3.888,0.0017398381320442517
3.892,0.0017458482677755675
3.896,0.0017526998225092676
3.9,0.0017540701334560077
3.904,0.0017511371872191255
3.908,0.001748805254555375
3.912,0.001751281430476677
3.916,0.0017533248766253245
3.92,0.001753565282054577
3.924,0.0017526277008804918
3.928,0.0017509689034186486
3.932,0.0017524353765370898
3.936,0.0017500553627874886
3.94,0.0017443577541142012
3.944,0.0017445741190005287
3.948,0.0017509448628757233
3.952,0.001751738200792257
3.956,0.0017459444299472687
3.96,0.0017489254572700013
3.964,0.0017512573899337517
3.968,0.0017460886732048203
3.972,0.0017470502949218307
3.976,0.0017525796197946414
3.98,0.0017546951875720643
3.984,0.0017559693363471034
3.988,0.0017526277008804918
3.992,0.0017525315387087908
3.996,0.0017528440657668192
4.0,0.001751281430476677
4.0040000000000004,0.0017523392143653886
4.008,0.001750440011474293
4.0120000000000005,0.0017466896867779518
4.016,0.0017393813617286717
4.0200000000000005,0.0017338520368558607
4.024,0.0017437567405410696
4.0280000000000005,0.0017492379843280297
4.032,0.0017547192281149896
4.0360000000000005,0.0017618833099067185
4.04,0.001767797283466333
4.0440000000000005,0.0017641912020275436
4.048,0.0017587339987835088
4.0520000000000005,0.0017546711470291393
4.056,0.0017550557957159434
4.0600000000000005,0.0017574358094655444
4.064,0.0017577002554377223
4.0680000000000005,0.0017567626742636371
4.072,0.0017551519578876444
4.0760000000000005,0.0017515218359059298
4.08,0.0017511131466762002
4.0840000000000005,0.001752291133279538
4.088,0.0017513775926483782
4.0920000000000005,0.0017535412415116518
4.096,0.0017545509443145128
4.1,0.0017542624577994096
4.104,0.0017510891061332749
4.108,0.0017518343629639582
4.112,0.0017487812140124497
4.116,0.0017432038080537886
4.12,0.0017536854847692033
4.124,0.0017627247289091026
4.128,0.0017610418909043341
4.132,0.0017576762148947972
4.136,0.0017559212552612528
4.14,0.001764407566913871
4.144,0.0017636863506261132
4.148,0.0017569069175211887
4.152,0.001748901416727076
4.156,0.0017495264708431329
4.16,0.0017519786062215098
4.164,0.001759503296157117
4.168,0.001759407133985416
4.172,0.0017559693363471034
4.176,0.0017563059039480571
4.18,0.0017595273367000423
4.184,0.0017558010525466265
4.188,0.0017470502949218307
4.192,0.001740847834847113
4.196,0.0017371455912366222
4.2,0.0017365926587493412
4.204,0.0017433961323971908
4.208,0.0017541422550847834
4.212,0.001753180633367773
4.216,0.0017520507278502855
4.22,0.0017527719441380433
4.224,0.0017497428357294601
4.228,0.001744790483886856
4.232,0.0017434442134830412
4.236,0.001742049861993376
4.24,0.001745968470490194
4.244,0.0017504640520172182
4.248,0.001752555579251716
4.252,0.0017560654985188044
4.256,0.0017588782420410603
4.26,0.0017578204581523487
4.264,0.0017567386337207119
4.268,0.0017546230659432887
4.272,0.0017567386337207119
4.276,0.0017573156067509181
4.28,0.0017520507278502855
4.284,0.0017402708618169064
4.288,0.0017326500097095976
4.292,0.0017456799839750906
4.296,0.0017645518101714226
4.3,0.001774624797657108
4.304,0.0017777500682373921
4.308,0.0017771250141213352
4.312,0.0017712110405617206
4.316,0.0017681098105243615
4.32,0.0017670760671785752
4.324,0.001764864337229451
4.328,0.0017592148096420139
4.332,0.0017539499307413812
4.336,0.0017549115524583918
4.34,0.001751281430476677
4.344,0.0017453193758312118
4.348,0.0017395496455291485
4.352,0.0017472426192652328
4.356,0.0017742882300561542
4.36,0.0017982326108097167
4.364,0.0018277784380648658
4.368,0.0018677338204066537
4.372,0.0018848506869694418
4.376,0.0018845622004543387
4.38,0.0018817975380179329
4.384,0.001870762928815237
4.388,0.0018525401972778871
4.392,0.0018334279656523026
4.396,0.0018153975584583551
4.4,0.0017980402864663145
4.404,0.0017815965551054344
4.408,0.00177481712200051
4.412,0.0017702013377588594
4.416,0.0017649845399440773
4.42,0.0017635421073685616
4.424,0.001765777877860611
4.428,0.001764119080398768
4.432,0.0017586618771547329
4.436,0.001756498228291459
4.44,0.0017629651343383553
4.444,0.0017634699857397857
4.448,0.0017608495665609322
4.452,0.001758950363669836
4.456,0.0017632776613963838
4.46,0.0017585176338971813
4.464,0.0017535412415116518
4.468,0.0017499832411587129
4.472,0.0017549115524583918
4.476,0.001764407566913871
4.48,0.001768686783554568
4.484,0.00176750879695123
4.488,0.0017631814992246826
4.492,0.0017613063368765122
4.496,0.001758036823038676
4.5,0.0017569790391499644
4.5040000000000004,0.0017477474706666634
4.508,0.0017425306728518811
4.5120000000000005,0.0017461367542906706
4.516,0.0017512573899337517
4.5200000000000005,0.0017546711470291393
4.524,0.001751281430476677
4.5280000000000005,0.0017491658626992538
4.532,0.0017446222000863792
4.5360000000000005,0.0017433961323971908
4.54,0.0017430114837103865
4.5440000000000005,0.0017414488484202445
4.548,0.0017461848353765212
4.5520000000000005,0.0017455838218033896
4.556,0.0017350781045450492
4.5600000000000005,0.0017361599289766865
4.564,0.0017456559434321655
4.5680000000000005,0.0017490456599846276
4.572,0.0017475791868661866
4.5760000000000005,0.001742314307965554
4.58,0.0017396698482437748
4.5840000000000005,0.0017413767267914686
4.588,0.0017402949023598317
4.5920000000000005,0.0017401506591022801
4.596,0.001738491861640437
4.6000000000000005,0.0017405833888749348
4.604,0.0017392851995569707
4.6080000000000005,0.0017395736860720738
4.612,0.0017434922945688918
4.616,0.0017419777403646002
4.62,0.0017389967130418676
4.624,0.0017401266185593548
4.628,0.0017400064158447285
4.632,0.0017410401591905148
4.636,0.001746906051664279
4.64,0.0017445741190005287
4.644,0.00173923711847112
4.648,0.0017462569570052971
4.652,0.0017592628907278644
4.656,0.0017664510130625183
4.66,0.0017680617294385111
4.664,0.0017607053233033806
4.668,0.001752098808936136
4.672,0.0017499351600728623
4.676,0.0017504640520172182
4.68,0.0017548634713725412
4.684,0.0017612342152477363
4.688,0.001763590188454412
4.692,0.0017606332016746047
4.696,0.0017614265395911384
4.7,0.0017599119853868466
4.704,0.0017547673092008402
4.708,0.0017508006196181717
4.712,0.0017511612277620507
4.716,0.001749262024870955
4.72,0.0017500553627874886
4.724,0.0017483004031539444
4.728,0.001741761375478273
4.732,0.0017495745519289835
4.736,0.001757940660866975
4.74,0.0017652489859162552
4.744,0.001763109377595907
4.748,0.001765128783201629
4.752,0.0017651528237445542
4.756,0.001765032621029928
4.76,0.0017626766478232522
4.764,0.0017589984447556866
4.768,0.0017572675256650675
4.772,0.001754022052370157
4.776,0.0017521709305649117
4.78,0.001757940660866975
4.784,0.001766955864463949
4.788,0.001769167594413073
4.792,0.001762580485651551
4.796,0.001751642038620556
4.8,0.0017538537685696802
4.804,0.0017641912020275436
4.808,0.0017683982970394647
4.812,0.0017695282025569521
4.816,0.0017648883777723764
4.82,0.0017604889584170531
4.824,0.0017585416744401066
4.828,0.001759479255614192
4.832,0.001764407566913871
4.836,0.0017623641207652238
4.84,0.00176248432347985
4.844,0.0017640709993129173
4.848,0.0017653932291738068
4.852,0.0017652009048304048
4.856,0.0017601043097302486
4.86,0.0017644316074567964
4.864,0.0017639988776841416
4.868,0.0017562578228622065
4.872,0.0017499351600728623
4.876,0.001758397431182555
4.88,0.001769696486357429
4.884,0.0017730621623669657
4.888,0.0017772211762930364
4.892,0.0017745045949424817
4.896,0.001772797716394788
4.9,0.0017705379053598131
4.904,0.0017680857699814364
4.908,0.0017652009048304048
4.912,0.0017622198775076722
4.916,0.0017645518101714226
4.92,0.0017630132154242057
4.924,0.0017573636878367687
4.928,0.0017508006196181717
4.932,0.0017444058352000518
4.936,0.0017449587676873328
4.94,0.0017449106866014824
4.944,0.0017390207535847929
4.948,0.0017430355242533118
4.952,0.0017507765790752466
4.956,0.0017534450793399508
4.96,0.0017564261066626834
4.964,0.0017602485529878006
4.968,0.001758036823038676
4.972,0.0017557770120037012
4.976,0.0017587339987835088
4.98,0.0017607053233033806
4.984,0.0017613303774194375
4.988,0.0017626045261944763
4.992,0.0017657538373176858
4.996,0.0017681098105243615
5.0,0.0017725573109655353
5.0040000000000004,0.0017729660001952648
5.008,0.0017698888107008312
5.0120000000000005,0.0017684704186682406
5.016,0.0017708504324178416
5.0200000000000005,0.0017704177026451869
5.024,0.0017677251618375574
5.0280000000000005,0.0017676049591229311
5.032,0.0017740478246269017
5.0360000000000005,0.0017776298655227658
5.04,0.0017763316762048017
5.0440000000000005,0.0017741199462556773
5.048,0.0017753219734019405
5.0520000000000005,0.0017759470275179974
5.056,0.0017740478246269017
5.0600000000000005,0.0017761153113184742
5.064,0.0017784953250680753
5.0680000000000005,0.001776355716747727
5.072,0.0017771971357501111
5.0760000000000005,0.0017723649866221332
5.08,0.0017714514459909732
5.0840000000000005,0.001764503729085572
5.088,0.0017523872954512392
5.0920000000000005,0.0017500553627874886
5.096,0.0017688550673550447
5.1000000000000005,0.0017988576649257736
5.104,0.0018281150056658195
5.1080000000000005,0.0018627814685640495
5.112,0.0018848266464265165
5.1160000000000005,0.0018861729168303313
5.12,0.001888528890037007
5.124,0.001883312092222225
5.128,0.0018729025371355854
5.132,0.0018568674950044347
5.136,0.001835447371258025
5.14,0.00180943550381289
5.144,0.0017922465156213262
5.148,0.0017884721503820598
5.152,0.0017850343527437472
5.156,0.0017803464468733206
5.16,0.001778735730497328
5.164,0.0017766201627199048
5.168,0.001768686783554568
5.172,0.0017714514459909732
5.176,0.0017713072027334216
5.18,0.0017725813515084606
5.184,0.001775009446343912
5.188,0.0017727496353089375
5.192,0.001768230013238988
5.196,0.001766234648176191
5.2,0.001766955864463949
5.204,0.001774985405800987
5.208,0.0017768605681491574
5.212,0.0017736631759400973
5.216,0.0017713312432763469
5.22,0.0017723409460792079
5.224,0.0017722207433645816
5.228,0.0017742161084273785
5.232,0.0017729660001952648
5.236,0.0017678453645521837
5.24,0.001766330810347892
5.244,0.0017644316074567964
5.248,0.0017658499994893868
5.252,0.0017707302297032153
5.256,0.00177253327042261
5.26,0.0017664750536054436
5.264,0.0017654653508025826
5.268,0.0017644316074567964
5.272,0.001765128783201629
5.276,0.0017656095940601342
5.28,0.0017654653508025826
5.284,0.0017596715799575939
5.288,0.0017537095253121286
5.292,0.001757580052723096
5.296,0.001757580052723096
5.3,0.0017561376201475803
5.304,0.0017574117689226191
5.308,0.0017548153902866908
5.312,0.0017484927274973466
5.316,0.0017481321193534675
5.32,0.0017492139437851044
5.324,0.0017508487007040223
5.328,0.001750175565502115
5.332,0.0017463050380911475
5.336,0.0017482523220680938
5.34,0.0017473387814369338
5.344,0.0017415209700490202
5.348,0.0017398381320442517
5.352,0.0017440452270561727
5.356,0.0017555366065744487
5.36,0.0017608976476467825
5.364,0.0017588301609552097
5.368,0.001752651741423417
5.372,0.001753180633367773
5.376,0.001756930958064114
5.38,0.0017586618771547329
5.384,0.001760585120588754
5.388,0.0017689752700696712
5.392,0.0017728457974806385
5.396,0.0017733746894249942
5.4,0.0017686146619257921
5.404,0.001759310971813715
5.408,0.0017613303774194375
5.412,0.0017697686079862047
5.416,0.0017655615129742836
5.42,0.0017619073504496438
5.424,0.0017644556479997216
5.428,0.0017662586887191164
5.432,0.0017652009048304048
5.436,0.0017646479723431236
5.44,0.0017611620936189606
5.444,0.0017613063368765122
5.448,0.0017626045261944763
5.452,0.0017623881613081488
5.456,0.0017637103911690385
5.46,0.0017660663643757142
5.464,0.0017659702022040133
5.468,0.0017603927962453522
5.472,0.0017610418909043341
5.476,0.0017656817156889101
5.48,0.0017659942427469383
5.484,0.00176522494537333
5.488,0.0017606812827604553
5.492,0.001757940660866975
5.496,0.0017494062681285066
5.5,0.0017488773761841507
5.5040000000000004,0.0017626766478232522
5.508,0.0017740959057127522
5.5120000000000005,0.001772701554223087
5.516,0.0017661865670903405
5.5200000000000005,0.0017661144454615648
5.524,0.0017706821486173647
5.5280000000000005,0.0017711389189329447
5.532,0.0017736631759400973
5.5360000000000005,0.0017718120541348522
5.54,0.0017695762836428027
5.5440000000000005,0.0017709706351324679
5.548,0.001769696486357429
5.5520000000000005,0.0017702734593876353
5.556,0.0017715956892485247
5.5600000000000005,0.0017685184997540911
5.564,0.0017691195133272227
5.5680000000000005,0.0017684463781253153
5.572,0.0017696003241857278
5.5760000000000005,0.0017754181355736417
5.58,0.0017759710680609227
5.5840000000000005,0.0017699128512437563
5.588,0.0017657538373176858
5.5920000000000005,0.0017684463781253153
5.596,0.0017697445674432796
5.6000000000000005,0.0017780625952954206
5.604,0.0017837842445116332
5.6080000000000005,0.0017855151636022525
5.612,0.0017821735281356406
5.6160000000000005,0.0017803945279591712
5.62,0.001782389893021968
5.6240000000000006,0.001783303433653128
5.628,0.0017783510818105237
5.632,0.0017726534731372363
5.636,0.0017707302297032153
5.64,0.0017743843922278554
5.644,0.001776548041091129
5.648,0.0017724851893367595
5.652,0.0017707302297032153
5.656,0.0017729179191094142
5.66,0.001775009446343912
5.664,0.001771235081104646
5.668,0.0017643835263709458
5.672,0.00176157078284869
5.676,0.0017634219046539354
5.68,0.0017619794720784194
5.684,0.0017613303774194375
5.688,0.001766234648176191
5.692,0.0017674847564083049
5.696,0.0017637584722548889
5.7,0.0017630132154242057
5.704,0.0017651047426587036
5.708,0.001771235081104646
5.712,0.00177116295947587
5.716,0.001769143553870148
5.72,0.001774528635485407
5.724,0.0017790482575553565
5.728,0.0017781347169241964
5.732,0.001775466216659492
5.736,0.0017730140812811154
5.74,0.001763590188454412
5.744,0.001764960499401152
5.748,0.0017761874329472501
5.752,0.001783760203968708
5.756,0.0017875105286650492
5.76,0.0017889770017834904
5.764,0.0017914531777047924
5.768,0.001791597420962344
5.772,0.0017894097315561451
5.776,0.0017861642582612345
5.78,0.001790587718159483
5.784,0.0017853949608876262
5.788,0.0017852266770871494
5.792,0.0017858757717461313
5.796,0.001786933555634843
5.8,0.0017863565826046366
5.804,0.001785755569031505
5.808,0.0017845535418852417
5.812,0.0017799377576435912
5.816,0.001771235081104646
5.82,0.0017609938098184837
5.824,0.0017542143767135593
5.828,0.0017585897555259572
5.832,0.0017834717174536048
5.836,0.0018191719236976215
5.84,0.0018461934939456178
5.844,0.0018745372940545033
5.848,0.0018913656741021882
5.852,0.0018944428635966218
5.856,0.0018977123774344576
5.86,0.0018874470656053703
5.864,0.0018685992799519634
5.868,0.0018577569950926694
5.872,0.0018428518584790061
5.876,0.0018209028427882406
5.88,0.0018071516522349894
5.884,0.001796886340405902
5.888,0.0017889048801547145
5.892,0.0017869816367206935
5.896,0.001782654338994146
5.9,0.0017819331227063879
5.904,0.001786284460975861
5.908,0.0017834717174536048
5.912,0.0017777981493232427
5.916,0.0017785193656110006
5.92,0.0017796252305855628
5.924,0.001778831892669029
5.928,0.001775826824803371
5.932,0.0017685184997540911
5.936,0.0017675568780370805
5.94,0.0017737833786547238
5.944,0.0017778943114949437
5.948,0.0017837121228828575
5.952,0.0017824620146507438
5.956,0.0017777500682373921
5.96,0.001775826824803371
5.964,0.0017759710680609227
5.968,0.001775995108603848
5.972,0.001773158324538667
5.976,0.0017725573109655353
5.98,0.0017697686079862047
5.984,0.001767316472607828
5.988,0.0017672924320649027
5.992,0.0017623160396793732
5.996,0.0017647200939718995
6.0,0.0017700090134154575
6.0040000000000004,0.0017762114734901752
6.008,0.0017693599187564753
6.0120000000000005,0.001766691418491771
6.016,0.0017714754865338985
6.0200000000000005,0.00176705202663565
6.024,0.0017680376888955858
6.0280000000000005,0.0017673645536936784
6.032,0.0017604889584170531
6.0360000000000005,0.0017559933768900287
6.04,0.0017609216881897078
6.0440000000000005,0.00176248432347985
6.048,0.0017604408773312025
6.0520000000000005,0.0017540941739989328
6.056,0.001755752971460776
6.0600000000000005,0.0017658019184035364
6.064,0.001764046958769992
6.0680000000000005,0.0017611620936189606
6.072,0.001755296201145196
6.0760000000000005,0.0017547913497437655
6.08,0.0017562578228622065
6.0840000000000005,0.0017618111882779426
6.088,0.0017647441345148248
6.0920000000000005,0.0017611620936189606
6.096,0.0017537095253121286
6.1000000000000005,0.001753276795539474
6.104,0.0017574598500084697
6.1080000000000005,0.0017685425402970164
6.112,0.0017698407296149806
6.1160000000000005,0.00176979264852913
6.12,0.0017678453645521837
6.1240000000000006,0.0017677251618375574
6.128,0.0017707302297032153
6.132000000000001,0.0017733025677962185
6.136,0.0017803945279591712
6.140000000000001,0.0017820773659639395
6.144,0.001776379757290652
6.148,0.0017727255947660122
6.152,0.0017737833786547238
6.156,0.0017772692573788868
6.16,0.001772893878566489
6.164,0.0017694801214711015
6.168,0.001770610026988589
6.172,0.0017714995270768238
6.176,0.0017758508653462964
6.18,0.0017773413790076627
6.184,0.0017781347169241964
6.188,0.0017760191491467733
6.192,0.0017751296490585385
6.196,0.0017707542702461406
6.2,0.0017761874329472501
6.204,0.0017817167578200606
6.208,0.0017814523118478828
6.212,0.0017776779466086164
6.216,0.0017783991628963743
6.22,0.0017779423925807943
6.224,0.0017753219734019405
6.228,0.0017729660001952648
6.232,0.0017765720816340543
6.236,0.00178440929862769
6.24,0.0017874384070362735
6.244,0.0017861402177183094
6.248,0.0017833515147389785
6.252,0.0017781827980100468
6.256,0.0017748892436292858
6.26,0.0017802743252445447
6.264,0.00177984159547189
6.268,0.0017765720816340543
6.272,0.0017831591903955763
6.276,0.0017855151636022525
6.28,0.0017804426090450216
6.284,0.0017757547031745954
6.288,0.0017740478246269017
6.292,0.0017692877971276996
6.296,0.0017747450003717342
6.3,0.0017778702709520184
6.304,0.0017857074879456545
6.308,0.0017910204479321377
6.312,0.0017940735968836462
6.316,0.0017916214615052693
6.32,0.00178258221736537
6.324,0.0017797694738431143
6.328,0.0017856353663168788
6.332,0.0017896501369853977
6.336,0.0017871499205211704
6.34,0.001785202636544224
6.344,0.0017832793931102026
6.348,0.0017811878658757047
6.352,0.00178166867673421
6.356,0.0017797213927572637
6.36,0.00178075513610305
6.364,0.0017856834474027294
6.368,0.0017847218256857185
6.372,0.001784577582428167
6.376,0.0017853468798017756
6.38,0.0017815484740195838
6.384,0.0017752258112302395
6.388,0.0017691195133272227
6.392,0.0017657297967747605
6.396,0.0017714033649051226
6.4,0.0017818610010776122
6.404,0.0017863325420617113
6.408,0.0017797935143860396
6.412,0.0017769807708637837
6.416,0.001777918352037869
6.42,0.0017763316762048017
6.424,0.001775898946432147
6.428,0.0017752979328590154
6.432,0.001778735730497328
6.436,0.0017792646224416837
6.44,0.0017778462304090933
6.444,0.0017771250141213352
6.448,0.0017790722980982816
6.452,0.0017799858387294416
6.456,0.001782293730850267
6.46,0.0017857315284885798
6.464,0.0017912368128184652
6.468,0.0017908762046745861
6.472,0.0017854430419734766
6.476,0.0017746007571141826
6.48,0.001771691851420226
6.484,0.0017830630282238754
6.488,0.0017935447049392903
6.492,0.0017888087179830136
6.496,0.0017868854745489925
6.5,0.0017926792453939809
6.5040000000000004,0.0017969584620346779
6.508,0.0017960930024893682
6.5120000000000005,0.0017937610698256178
6.516,0.001794049556340721
6.5200000000000005,0.0017934725833105146
6.524,0.0017923186372501019
6.5280000000000005,0.0017918859074774471
6.532,0.001793136015709561
6.5360000000000005,0.001790491555987782
6.54,0.0017858998122890566
6.5440000000000005,0.0017762835951189511
6.548,0.0017685184997540911
6.5520000000000005,0.00176659525632007
6.556,0.001780106041444068
6.5600000000000005,0.0018029926383089187
6.564,0.0018164313018041414
6.5680000000000005,0.001846866629147525
6.572,0.0018944669041395471
6.5760000000000005,0.0019130502438207758
6.58,0.001913074284363701
6.5840000000000005,0.001904131202395503
6.588,0.001888889498180886
6.5920000000000005,0.0018727823344209592
6.596,0.0018584060897516514
6.6000000000000005,0.001837274452520345
6.604,0.0018216480996189237
6.6080000000000005,0.001810901976931331
6.612,0.0018005645434734673
6.6160000000000005,0.0017936889481968419
6.62,0.0017941216779694966
6.6240000000000006,0.0017928475291944578
6.628,0.0017924388399647283
6.632000000000001,0.0017955400700020872
6.636,0.001792871569737383
6.640000000000001,0.0017873662854074976
6.644,0.0017806830144742743
6.648000000000001,0.0017795531089567869
6.652,0.0017870537583494694
6.656000000000001,0.0017947467320855535
6.66,0.0017963814890044714
6.664,0.0017979200837516883
6.668,0.0017981364486380157
6.672,0.00179258308322228
6.676,0.0017883759882103588
6.68,0.0017891933666698177
6.684,0.0017936408671109915
6.688,0.0017952756240299094
6.692,0.0017937610698256178
6.696,0.0017918378263915968
6.7,0.001789674177528323
6.704,0.0017855872852310282
6.708,0.0017828226227946226
6.712,0.0017848901094861956
6.716,0.001786933555634843
6.72,0.0017848660689432703
6.724,0.0017781587574671217
6.728,0.00176842233758239
6.732,0.0017610659314472594
6.736,0.0017589022825839854
6.74,0.0017700570945013078
6.744,0.0017792165413558331
6.748,0.0017786155277827015
6.752,0.0017760672302326236
6.756,0.001777293297921812
6.76,0.0017713552838192722
6.764,0.0017628208910808038
6.768,0.0017680376888955858
6.772,0.0017713793243621975
6.776,0.001769239716041849
6.78,0.0017675568780370805
6.784,0.0017661865670903405
6.788,0.0017617150261062416
6.792,0.0017596234988717435
6.796,0.0017604408773312025
6.8,0.001764936458858227
6.804,0.0017637103911690385
6.808,0.0017604649178741278
6.812,0.0017603687557024269
6.816,0.0017611620936189606
6.82,0.00176202755316427
6.824,0.001766499094148369
6.828,0.00176979264852913
6.832,0.001766691418491771
6.836,0.0017723649866221332
6.84,0.001778375122353449
6.844,0.0017724611487938342
6.848,0.0017760191491467733
6.852,0.0017760191491467733
6.856,0.001773086202909891
6.86,0.0017765720816340543
6.864,0.001782029284878089
6.868,0.0017911166101038387
6.872,0.0017956121916308631
6.876,0.0017927754075656819
6.88,0.001790227110015604
6.884,0.0017885202314679104
6.888,0.0017875586097508998
6.892,0.001786837393463142
6.896,0.0017873182043216473
6.9,0.0017886885152683873
6.904,0.0017879913395235545
6.908,0.0017855632446881029
6.912,0.0017897222586141736
6.916,0.001790227110015604
6.92,0.0017903713532731555
6.924,0.0017885442720108357
6.928,0.0017860440555466082
6.932,0.0017848660689432703
6.936,0.0017745767165712573
6.94,0.00177847128452515
6.944,0.0017910925695609136
6.948,0.0017931600562524862
6.952,0.0017940976374265715
6.956,0.0017949150158860303
6.96,0.001792414799421803
6.964,0.0017955641105450125
6.968,0.0017930879346237103
6.972,0.0017941216779694966
6.976,0.0017949390564289556
6.98,0.0017958525970601157
6.984,0.0017969584620346779
6.988,0.0017971027052922294
6.992,0.0017963814890044714
6.996,0.0017942899617699735
7.0,0.0017951554213152831
7.0040000000000004,0.0017942899617699735
7.008,0.0017943140023128988
7.0120000000000005,0.0017952756240299094
7.016,0.0017920782318208493
7.0200000000000005,0.0017926552048510556
7.024,0.00179486693480018
7.0280000000000005,0.0017968142187771263
7.032,0.0017983287729814177
7.0360000000000005,0.0017978239215799873
7.04,0.0017984489756960442
7.0440000000000005,0.001796982502577603
7.048,0.0017950111780577315
7.0520000000000005,0.001793328340052963
7.056,0.0017900828667580524
7.0600000000000005,0.001787678812465526
7.064,0.0017904675154448567
7.0680000000000005,0.0017964536106332472
7.072,0.0018009011110744209
7.0760000000000005,0.0018009732327031968
7.08,0.0018020550571348336
7.0840000000000005,0.0018030407193947693
7.088,0.0018000116109861861
7.0920000000000005,0.0017994586784989052
7.096,0.0018006607056451683
7.1000000000000005,0.0018005645434734673
7.104,0.0017986893811252967
7.1080000000000005,0.001797703718865361
7.112,0.0017922945967071768
7.1160000000000005,0.0017877990151801526
7.12,0.0017853228392588503
7.1240000000000006,0.001783664041797007
7.128,0.0017816205956483594
7.132000000000001,0.0017860440555466082
7.136,0.0017862363798900104
7.140000000000001,0.0017885683125537608
7.144,0.0017924869210505787
7.148000000000001,0.0017885202314679104
7.152,0.00178212544704979
7.156000000000001,0.001786572947490964
7.16,0.0017916935831340452
7.164000000000001,0.0017911646911896893
7.168,0.001795972799774742
7.172,0.0017959006781459663
7.176,0.001799170191983802
7.18,0.0018034253680815737
7.184,0.0018070795306062135
7.188,0.0018058775034599504
7.192,0.0018025118274504137
7.196,0.0018012857597612252
7.2,0.001801093435417823
7.204,0.001802728192336741
7.208,0.0018048678006570894
7.212,0.0018060938683462778
7.216,0.0018031368815664703
7.22,0.0018015021246475524
7.224,0.0018044110303415094
7.228,0.0018061419494321282
7.232,0.0018031368815664703
7.236,0.0018029926383089187
7.24,0.0018077045847222704
7.244,0.0018124886527643984
7.248,0.0018069593278915873
7.252,0.0018035215302532747
7.256,0.0018037138545966768
7.26,0.0018016944489909546
7.264,0.0018012136381324493
7.268,0.001796429570090322
7.272,0.0017904434749019314
7.276,0.0017834717174536048
7.28,0.001790130947843903
7.284,0.0018117914770195657
7.288,0.001828451573266773
7.292,0.0018650893606848749
7.296,0.0019156466224567043
7.3,0.001934951178425691
7.304,0.0019335327863931003
7.308,0.0019256234477706886
7.312,0.001910790432785801
7.316,0.0018897789982691207
7.32,0.00186922433406802
7.324,0.0018500159402707345
7.328,0.00183227401959189
7.332,0.001817392923521152
7.336,0.0018105413687874521
7.34,0.0018045793141419862
7.344,0.00180491588174294
7.348,0.0018040263816547053
7.352,0.0017960930024893682
7.356,0.0017927513670227568
7.36,0.0017959487592318166
7.364,0.001802463746364563
7.368,0.001806310233232605
7.372,0.001805468814230221
7.376,0.0018078007468939714
7.38,0.001807295895492541
7.384,0.0018044350708844347
7.388,0.0018043148681698084
7.392,0.001802559908536264
7.396,0.0018019348544202072
7.4,0.001797343110721482
7.404,0.001791597420962344
7.408,0.0017923667183359525
7.412,0.0017915252993335683
7.416,0.001792871569737383
7.42,0.0017920061101920736
7.424,0.001793328340052963
7.428,0.001799626962299382
7.432,0.0018066468008335588
7.436,0.0018055890169448472
7.44,0.0017993384757842789
7.444,0.0017950352186006566
7.448,0.0017971988674639304
7.452,0.001797727759408286
7.456,0.0017912127722755399
7.46,0.0017844814202564658
7.464,0.0017874384070362735
7.468,0.0017875586097508998
7.472,0.0017874384070362735
7.476,0.0017834476769106795
7.48,0.00177984159547189
7.484,0.0017813080685903312
7.488,0.0017783510818105237
7.492,0.0017719562973924038
7.496,0.0017684463781253153
7.5,0.0017680376888955858
7.5040000000000004,0.0017790963386412068
7.508,0.0017880153800664798
7.5120000000000005,0.0017884721503820598
7.516,0.001783567879625306
7.5200000000000005,0.0017770528924925596
7.524,0.0017804426090450216
7.5280000000000005,0.0017838804066833342
7.532,0.0017779423925807943
7.5360000000000005,0.001779745433300189
7.54,0.0017855151636022525
7.5440000000000005,0.0017893856910132198
7.548,0.0017893616504702945
7.5520000000000005,0.0017892654882985936
7.556,0.0017855632446881029
7.5600000000000005,0.0017856353663168788
7.564,0.0017913089344472409
7.5680000000000005,0.001794602488828002
7.572,0.0017943861239416747
7.5760000000000005,0.0017952996645728347
7.58,0.0017906357992453336
7.5840000000000005,0.0017861402177183094
7.588,0.0017893376099273692
7.5920000000000005,0.0017966459349766494
7.596,0.0018025118274504137
7.6000000000000005,0.001804939922285865
7.604,0.0018020310165919083
7.6080000000000005,0.001800708786731019
7.612,0.0018043148681698084
7.6160000000000005,0.0017998673677286346
7.62,0.001800708786731019
7.6240000000000006,0.0018022233409353105
7.628,0.00180308880048062
7.632000000000001,0.0018051322466292672
7.636,0.001805108206086342
7.640000000000001,0.0018041465843693315
7.644,0.0018008770705314958
7.648000000000001,0.00179303985353786
7.652,0.0017914531777047924
7.656000000000001,0.001794602488828002
7.66,0.001797343110721482
7.664000000000001,0.00179303985353786
7.668,0.0017948428942572547
7.672000000000001,0.0018018867733343568
7.676,0.001804555273599061
7.68,0.0018027041517938156
7.684,0.001802103138220684
7.688,0.0017996990839281577
7.692,0.0017955400700020872
7.696,0.0017965497728049482
7.7,0.0017979922053804641
7.704,0.001801910813877282
7.708,0.0018050360844575663
7.712,0.0018024156652787125
7.716,0.001801189597589524
7.72,0.0018017906111626556
7.724,0.0017996750433852326
7.728,0.0018006126245593177
7.732,0.0017984730162389695
7.736,0.001799074029812101
7.74,0.001794963096971881
7.744,0.0017980643270092398
7.748,0.0017996990839281577
7.752,0.0018028724355942925
7.756,0.001804386989798584
7.76,0.001806382354861381
7.764,0.0018048197195712388
7.768,0.0018048678006570894
7.772,0.0018047956790283135
7.776,0.0018067429630052598
7.78,0.001808762368610982
7.784,0.0018078728685227473
7.788,0.001806382354861381
7.792,0.0018041706249122568
7.796,0.001804194665455182
7.8,0.0017993865568701293
7.804,0.0017955400700020872
7.808,0.0017977758404941367
7.812,0.001802006976048983
7.816,0.0017985210973248198
7.82,0.0017965738133478735
7.824,0.0018067429630052598
7.828,0.0018097720714138437
7.832,0.001804290827626883
7.836,0.0018025358679933387
7.84,0.0018024877869074884
7.844,0.001801454043561702
7.848,0.0017995067595847557
7.852,0.0017969344214917526
7.856,0.0017950352186006566
7.86,0.00179486693480018
7.864,0.001795251583486984
7.868,0.0017940735968836462
7.872,0.001795251583486984
7.876,0.001794890975343105
7.88,0.001796261286289845
7.884,0.0017989778676403998
7.888,0.001799170191983802
7.892,0.0018022473814782356
7.896,0.0018008770705314958
7.9,0.0018022473814782356
7.904,0.001804939922285865
7.908,0.0018040263816547053
7.912,0.0018043148681698084
7.916,0.0018080892334090748
7.92,0.0018148446259710742
7.924,0.0018129935041658288
7.928,0.001812104004077594
7.932,0.0018159985720314867
7.936,0.0018147725043422983
7.94,0.001812729058193651
7.944,0.0018136906799106616
7.948,0.0018136906799106616
7.952,0.001812825220365352
7.956,0.0018138830042540635
7.96,0.0018136906799106616
7.964,0.0018122001662492953
7.968,0.001810901976931331
7.972,0.0018126809771078004
7.976,0.001811551071590313
7.98,0.0018122001662492953
7.984,0.0018025358679933387
7.988,0.001786116177175384
7.992,0.00177436035168493
7.996,0.0017710427567612437
8.0,0.0017869816367206935
8.004,0.0018195325318415005
8.008000000000001,0.0018485494671522935
8.012,0.0018759076050012433
8.016,0.0019147330818255442
8.02,0.0019387736247508077
8.024000000000001,0.001939615043753192
8.028,0.0019354800703700467
8.032,0.001921921204160198
8.036,0.0018986739991514682
8.040000000000001,0.0018807397541292213
8.044,0.0018631180361650033
8.048,0.001838284155323206
8.052,0.0018225375997071584
8.056000000000001,0.001819772937270753
8.06,0.0018201816265004825
8.064,0.0018173688829782268
8.068,0.0018128733014512025
8.072000000000001,0.0018137147204535869
8.076,0.0018134262339384835
8.08,0.001800732827273944
8.084,0.001787390325950423
8.088000000000001,0.0017888087179830136
8.092,0.001803834057311303
8.096,0.0018224654780783825
8.1,0.0018269370190624817
8.104000000000001,0.001826432167661051
8.108,0.0018230184105656637
8.112,0.0018178256532938068
8.116,0.00181445997728427
8.120000000000001,0.0018122482473351457
8.124,0.0018109981391030321
8.128,0.0018085940848105051
8.132,0.0018076324630934947
8.136000000000001,0.0018080651928661495
8.14,0.0018064544764901567
8.144,0.0018034974897103494
8.148,0.0018055890169448472
8.152000000000001,0.00180400234111178
8.156,0.0018028964761372178
8.16,0.0018000116109861861
8.164,0.0017881115422381808
8.168000000000001,0.0017823418119361175
8.172,0.0017815484740195838
8.176,0.0017892414477556683
8.18,0.0017959006781459663
8.184000000000001,0.00180263203016504
8.188,0.001806839125176961
8.192,0.0017988336243828483
8.196,0.0017971507863780798
8.2,0.0017917176236769703
8.204,0.0017893376099273692
8.208,0.0017908762046745861
8.212,0.0017868133529202166
8.216,0.001783664041797007
8.22,0.0017809715009893775
8.224,0.0017794329062421606
8.228,0.0017752258112302395
8.232,0.0017726534731372363
8.236,0.0017737593381117985
8.24,0.0017749373247151364
8.244,0.00177390358136935
8.248,0.0017721005406499553
8.252,0.0017771250141213352
8.256,0.0017768605681491574
8.26,0.0017830870687668007
8.264,0.001791044488475063
8.268,0.001795059259143582
8.272,0.0017936889481968419
8.276,0.001786765271834366
8.28,0.0017905155965307071
8.284,0.0017963814890044714
8.288,0.0017993384757842789
8.292,0.0017997712055569336
8.296,0.0018011174759607483
8.3,0.0018034974897103494
8.304,0.0017990259487262504
8.308,0.001800540502930542
8.312,0.0018000596920720367
8.316,0.001801454043561702
8.32,0.001798617259496521
8.324,0.0017893616504702945
8.328,0.0017951554213152831
8.332,0.0018044350708844347
8.336,0.0018078247874368967
8.34,0.0018026079896221146
8.344,0.0018006847461880936
8.348,0.0017998433271857093
8.352,0.0017959247186888913
8.356,0.0017918137858486715
8.36,0.0017981364486380157
8.364,0.0018063583143184557
8.368,0.0018032330437381715
8.372,0.001799266354155503
8.376,0.001797343110721482
8.38,0.001799266354155503
8.384,0.0017986893811252967
8.388,0.0017980883675521651
8.392,0.0018020550571348336
8.396,0.001800179894786663
8.4,0.0017982326108097167
8.404,0.0018002039353295883
8.408,0.0018039783005688547
8.412,0.0018056611385736231
8.416,0.0018085460037246546
8.42,0.0018077286252651957
8.424,0.0018026801112508905
8.428,0.0018016704084480293
8.432,0.0018028724355942925
8.436,0.0018017906111626556
8.44,0.0018000596920720367
8.444,0.0018030647599376946
8.448,0.001802824354508442
8.452,0.0017997471650140083
8.456,0.0017929917724520093
8.46,0.0017919099480203724
8.464,0.0018015261651904777
8.468,0.0018055168953160716
8.472,0.0018008289894456452
8.476,0.001796718056605425
8.48,0.001797727759408286
8.484,0.0017994105974130546
8.488,0.0018057813412882494
8.492,0.0018096999497850678
8.496,0.0018131617879663057
8.5,0.001813642598824811
8.504,0.0018126569365648753
8.508000000000001,0.0018086181253534304
8.512,0.001804843760114164
8.516,0.0018057573007453241
8.52,0.001806382354861381
8.524000000000001,0.0018030647599376946
8.528,0.0018015261651904777
8.532,0.0017991461514408767
8.536,0.001796982502577603
8.540000000000001,0.0017942178401411978
8.544,0.001793881272540244
8.548,0.0017911166101038387
8.552,0.00179303985353786
8.556000000000001,0.0017945784482850766
8.56,0.0017930879346237103
8.564,0.0017869095150919176
8.568,0.001790587718159483
8.572000000000001,0.0017940976374265715
8.576,0.001795804515974265
8.58,0.0017962132052039947
8.584,0.0017995308001276808
8.588000000000001,0.0017996750433852326
8.592,0.0017999635299003358
8.596,0.0017989778676403998
8.6,0.0018003000975012893
8.604000000000001,0.00180400234111178
8.608,0.0018083536793812526
8.612,0.0018071997333208398
8.616,0.0018040263816547053
8.620000000000001,0.0018059496250887263
8.624,0.0018072237738637651
8.628,0.001808209436123701
8.632,0.0018123924905926972
8.636000000000001,0.0018140272475116151
8.64,0.0018090027740402346
8.644,0.001810276922815274
8.648,0.0018100124768430962
8.652000000000001,0.0018105173282445268
8.656,0.001796886340405902
8.66,0.0017956843132596388
8.664,0.001812560774393174
8.668000000000001,0.00182176830233355
8.672,0.0018254945864869658
8.676,0.0018222971942779057
8.68,0.0018178016127508815
8.684000000000001,0.0018189795993542193
8.688,0.0018187391939249668
8.692,0.0018097720714138437
8.696,0.0018008530299885705
8.700000000000001,0.0017974633134361082
8.704,0.0018013819219329262
8.708,0.0018225856807930088
8.712,0.001846409858831945
8.716,0.001880162781099015
8.72,0.00191845936597896
8.724,0.0019362734082865804
8.728,0.0019349030973398404
8.732,0.0019335327863931003
8.736,0.0019176900686053518
8.74,0.0018966065124598956
8.744,0.0018817494569320823
8.748,0.0018651134012278002
8.752,0.001841745993504444
8.756,0.0018228260862222616
8.76,0.0018147244232564479
8.764,0.0018127771392795016
8.768,0.0018070074089774379
8.772,0.00181126258507521
8.776,0.001820782640073614
8.78,0.0018212874914750447
8.784,0.0018214317347325963
8.788,0.0018177775722079562
8.792,0.0018159985720314867
8.796,0.0018139551258828394
8.8,0.001810637530959153
8.804,0.0018114068283327615
8.808,0.0018147244232564479
8.812,0.0018112145039893594
8.816,0.0018131617879663057
8.82,0.001817561207321629
8.824,0.0018139551258828394
8.828,0.001813642598824811
8.832,0.0018105173282445268
8.836,0.0018097480308709184
8.84,0.0018103971255299005
8.844,0.0018082815577524767
8.848,0.0018084258010100283
8.852,0.0018084738820958789
8.856,0.0018056611385736231
8.86,0.0018021512193065346
8.864,0.0018020310165919083
8.868,0.0018009491921602715
8.872,0.0017973190701785567
8.876,0.0017933764211388134
8.88,0.001794890975343105
8.884,0.0017940976374265715
8.888,0.0017975354350648841
8.892,0.0017990259487262504
8.896,0.0017985210973248198
8.9,0.0017992903946984283
8.904,0.0017986653405823714
8.908,0.001794890975343105
8.912,0.0017942659212270484
8.916,0.0017932562184241872
8.92,0.0017880153800664798
8.924,0.0017899145829575755
8.928,0.0017885683125537608
8.932,0.001783760203968708
8.936,0.0017782549196388227
8.94,0.0017812359469615553
8.944,0.0017877028530084514
8.948,0.0017943140023128988
8.952,0.0017986893811252967
8.956,0.0017957564348884147
8.96,0.0017918859074774471
8.964,0.0017921263129067
8.968,0.0017919339885632977
8.972,0.0017908281235887356
8.976,0.0017932081373383368
8.98,0.0017985451378677451
8.984,0.001807392057664242
8.988,0.0018071756927779147
8.992,0.0018053245709726694
8.996,0.0018032570842810968
9.0,0.0017983047324384926
9.004,0.0018005885840163924
9.008000000000001,0.0018081373144949251
9.012,0.0018147003827135226
9.016,0.0018084258010100283
9.02,0.001793328340052963
9.024000000000001,0.0017957804754313398
9.028,0.0018073439765783914
9.032,0.0018117674364766404
9.036,0.0018156620044305332
9.040000000000001,0.0018182583830664615
9.044,0.0018155418017159067
9.048,0.0018138108826252879
9.052,0.0018140512880545404
9.056000000000001,0.001814195531312092
9.06,0.0018142916934837932
9.064,0.0018174169640640774
9.068,0.0018158783693168605
9.072000000000001,0.001815565842258832
9.076,0.0018175131262357783
9.08,0.0018148686665139995
9.084,0.0018104211660728256
9.088000000000001,0.001813281990680932
9.092,0.0018120799635346688
9.096,0.0018074401387500926
9.1,0.0018071756927779147
9.104000000000001,0.0018039542600259294
9.108,0.001805396692601445
9.112,0.0018126088554790247
9.116,0.0018158062476880848
9.120000000000001,0.0018184507074098636
9.124,0.0018199171805283047
9.128,0.0018152052341149532
9.132,0.0018106856120450037
9.136000000000001,0.00181171935539079
9.14,0.00181491674759985
9.144,0.0018188353560966678
9.148,0.0018180900992659846
9.152000000000001,0.001815565842258832
9.156,0.0018136906799106616
9.16,0.001814556139455971
9.164,0.0018162149369178142
9.168000000000001,0.0018191238426117711
9.172,0.0018190036398971446
9.176,0.0018194123291268743
9.18,0.0018162870585465899
9.184000000000001,0.0018128733014512025
9.188,0.0018154456395442057
9.192,0.0018169601937484973
9.196,0.0018214798158184468
9.200000000000001,0.0018163351396324405
9.204,0.0018041465843693315
9.208,0.0018042667870839578
9.212,0.0018225856807930088
9.216000000000001,0.0018313123978748794
9.22,0.0018295814787842605
9.224,0.001826143681145948
9.228,0.001820301829215109
9.232,0.0018168880721197214
9.236,0.0018159985720314867
9.24,0.0018123203689639216
9.244,0.0018070795306062135
9.248,0.0018071516522349894
9.252,0.001810709652587929
9.256,0.0018113347067039856
9.26,0.0018094835848987405
9.264,0.0018051803277151178
9.268,0.0018016944489909546
9.272,0.00180445911142736
9.276,0.0018078728685227473
9.28,0.0018071035711491388
9.284,0.0018055890169448472
9.288,0.0018034494086244988
9.292,0.0018057813412882494
9.296,0.0018083296388383273
9.3,0.00181126258507521
9.304,0.0018140753285974657
9.308,0.0018207105184448384
9.312,0.001829341073355008
9.316,0.0018280188434941183
9.32,0.001828980465211129
9.324,0.0018341972630259112
9.328,0.0018325625061069932
9.332,0.0018271053028629583
9.336,0.0018236194241387953
9.34,0.0018233068970807669
9.344,0.0018224895186213078
9.348,0.001825686910830368
9.352,0.0018248214512850585
9.356,0.0018216480996189237
9.36,0.001821407694189671
9.364,0.0018240761944543753
9.368,0.0018229222483939626
9.372,0.001820686477901913
9.376,0.0018194604102127246
9.38,0.001821215369846269
9.384,0.001820758599530689
9.388,0.0018227058835076353
9.392,0.00182313861328029
9.396,0.0018148446259710742
9.4,0.001804386989798584
9.404,0.0018095797470704415
9.408,0.001825230140514788
9.412,0.0018430922639082587
9.416,0.001858694576266755
9.42,0.0018884086873223807
9.424,0.0019306479212420685
9.428,0.0019502650042690836
9.432,0.001951587234129973
9.436,0.0019500005582969058
9.44,0.0019386293814932561
9.444,0.0019184834065218853
9.448,0.001898938445123646
9.452,0.0018774942808343106
9.456,0.0018537422244241503
9.46,0.0018385245607524588
9.464,0.0018307594653875984
9.468,0.0018337645332532563
9.472,0.0018291006679257552
9.476,0.0018243165998836279
9.48,0.0018197008156419774
9.484,0.0018235473025100194
9.488,0.0018228260862222616
9.492,0.0018250137756284604
9.496,0.0018297978436705878
9.5,0.0018297497625847374
9.504,0.0018334279656523026
9.508000000000001,0.00182999016801399
9.512,0.001827441870463912
9.516,0.001828066924579969
9.52,0.0018295093571554847
9.524000000000001,0.0018281871272945952
9.528,0.0018228741673081122
9.532,0.0018192440453263974
9.536,0.0018194363696697993
9.540000000000001,0.0018224895186213078
9.544,0.0018187391939249668
9.548,0.0018161668558319636
9.552,0.0018201335454146321
9.556000000000001,0.0018183305046952374
9.56,0.0018162149369178142
9.564,0.0018186189912103405
9.568,0.0018213836536467457
9.572000000000001,0.0018158783693168605
9.576,0.001811094301274733
9.58,0.0018091470172977861
9.584,0.0018040263816547053
9.588000000000001,0.0017998673677286346
9.592,0.0018054207331443704
9.596,0.0018114549094186121
9.6,0.0018111664229035088
9.604000000000001,0.0018060698278033525
9.608,0.0018011174759607483
9.612,0.001808401760467103
9.616,0.001811647233762014
9.620000000000001,0.001810180760643573
9.624,0.0018011415165036736
9.628,0.0017982085702667914
9.632,0.0017989538270974745
9.636000000000001,0.0017990980703550261
9.64,0.001797703718865361
9.644,0.0017971027052922294
9.648,0.0017945784482850766
9.652000000000001,0.0017974873539790335
9.656,0.0018039783005688547
9.66,0.0018058775034599504
9.664,0.0018030647599376946
9.668000000000001,0.0018005885840163924
9.672,0.0018018627327914315
9.676,0.0018034253680815737
9.68,0.0017997471650140083
9.684000000000001,0.0017896020558995473
9.688,0.0017976315972365851
9.692,0.0018057092196594735
9.696,0.0018128492609082772
9.700000000000001,0.0018190517209829952
9.704,0.001821239410389194
9.708,0.0018251099378001616
9.712,0.0018222010321062047
9.716000000000001,0.0018209268833311659
9.72,0.0018237396268534216
9.724,0.0018245329647699554
9.728,0.0018240761944543753
9.732,0.001821864464505251
9.736,0.0018178016127508815
9.74,0.0018172727208065258
9.744,0.0018178977749225827
9.748,0.0018162149369178142
9.752,0.0018147965448852236
9.756,0.0018167197883192448
9.76,0.0018173208018923764
9.764,0.0018157581666022342
9.768,0.001817849693836732
9.772,0.001820686477901913
9.776,0.0018120318824488184
9.78,0.0018023916247357872
9.784,0.0018165274639758426
9.788,0.0018248454918279836
9.792,0.0018230184105656637
9.796,0.0018255426675728163
9.8,0.0018284034921809227
9.804,0.0018280909651228942
9.808,0.0018271053028629583
9.812,0.00182587923517377
9.816,0.0018239319511968238
9.82,0.0018221048699345037
9.824,0.0018214557752755216
9.828,0.001820758599530689
9.832,0.0018214557752755216
9.836,0.0018222971942779057
9.84,0.0018228501267651869
9.844,0.00182039799138681
9.848,0.0018158783693168605
9.852,0.00181811413980891
9.856,0.0018235473025100194
9.86,0.0018194604102127246
9.864,0.0018165995856046183
9.868,0.0018196046534702762
9.872,0.0018251099378001616
9.876,0.001827441870463912
9.88,0.0018187391939249668
9.884,0.0018127530987365763
9.888,0.0018224173969925322
9.892,0.0018320576547055626
9.896,0.0018343174657405377
9.9,0.0018343895873693134
9.904,0.0018361205064599325
9.908,0.0018400150744138251
9.912,0.0018396785068128714
9.916,0.001836721520033064
9.92,0.0018349665603995197
9.924,0.0018328750331650216
9.928,0.0018305190599583459
9.932,0.0018302305734432427
9.936,0.0018307835059305237
9.94,0.0018318412898192353
9.944,0.0018326827088216194
9.948,0.0018286919786960258
9.952,0.0018176814100362552
9.956,0.001812825220365352
9.96,0.0018091470172977861
9.964,0.0018137868420823626
9.968,0.0018205903157302121
9.972,0.0018196527345561268
9.976,0.0018181381803518352
9.98,0.0018171765586348246
9.984,0.0018154937206300563
9.988,0.001813281990680932
9.992,0.0018150369503144763
9.996,0.0018150850314003267
10.0,0.0018176333289504046
10.004,0.0018222971942779057
10.008000000000001,0.0018221048699345037
10.012,0.0018234751808812438
10.016,0.0018253743837723395
10.02,0.0018269129785195564
10.024000000000001,0.001828980465211129
10.028,0.001833548168366929
10.032,0.0018297497625847374
10.036,0.001831721087104609
10.040000000000001,0.00183227401959189
10.044,0.0018331394791371994
10.048,0.001830807546473449
10.052,0.0018313123978748794
10.056000000000001,0.001836360911889185
10.06,0.001842659534135604
10.064,0.0018372504119774198
10.068,0.0018246531674845816
10.072000000000001,0.0018249897350855351
10.076,0.0018341011008542103
10.08,0.0018385486012953839
10.084,0.001843669236938465
10.088000000000001,0.0018451597505998313
10.092,0.0018451597505998313
10.096,0.0018386207229241598
10.1,0.0018338847359678826
10.104000000000001,0.0018342453441117618
10.108,0.001836433033517961
10.112,0.001831913411448011
10.116,0.0018201575859575574
10.120000000000001,0.00181263289602195
10.124,0.0018183305046952374
10.128,0.0018379716282651776
10.132,0.001866195225659437
10.136000000000001,0.0018913656741021882
10.14,0.0019312729753581254
10.144,0.001957669491490065
10.148,0.001958991721350955
10.152000000000001,0.0019569963562881573
10.156,0.0019467070039161447
10.16,0.001926585069487699
10.164,0.0019024243238478092
10.168000000000001,0.0018732631452794645
10.172,0.0018565068868605557
10.176,0.001848861994210322
10.18,0.0018474676427206566
10.184000000000001,0.0018446068181125503
10.188,0.0018357118172302029
10.192,0.001837635060664224
10.196,0.001842202763820024
10.200000000000001,0.0018425152908780524
10.204,0.001842034480019547
10.208,0.0018352310063716978
10.212,0.0018321538168772637
10.216000000000001,0.001832346141220666
10.22,0.0018347982765990428
10.224,0.001834077060311285
10.228,0.0018336924116244806
10.232000000000001,0.0018299180463852143
10.236,0.0018273937893780615
10.24,0.0018268648974337058
10.244,0.0018278746002365668
10.248,0.0018265523703756773
10.252,0.0018247252891133573
10.256,0.0018343174657405377
10.26,0.0018403035609289283
10.264,0.0018322980601348153
10.268,0.0018320095736197122
10.272,0.0018321538168772637
10.276,0.0018288602624965027
10.28,0.0018279467218653427
10.284,0.001823763667396347
10.288,0.0018207105184448384
10.292,0.001829268951726232
10.296,0.0018342453441117618
10.3,0.0018263600460322752
10.304,0.0018205422346443615
10.308,0.0018250137756284604
10.312,0.0018271774244917342
10.316,0.0018225856807930088
10.32,0.0018179939370942836
10.324,0.0018171525180918995
10.328,0.001817489085692853
10.332,0.0018203258697580343
10.336,0.001822128910477429
10.34,0.0018181381803518352
10.344,0.0018107577336737794
10.348,0.0018093633821841136
10.352,0.0018024156652787125
10.356,0.0017995788812135314
10.36,0.0018058053818311747
10.364,0.0018008770705314958
10.368,0.0017976075566936598
10.372,0.0018075603414647189
10.376,0.0018132579501380069
10.38,0.0018158783693168605
10.384,0.0018131137068804553
10.388,0.0018171765586348246
10.392,0.0018219606266769522
10.396,0.00181948445075565
10.4,0.0018162389774607395
10.404,0.0018237155863104963
10.408,0.0018280428840370436
10.412,0.0018294131949837837
10.416,0.00182953339769841
10.42,0.0018274899515497627
10.424,0.0018274178299209868
10.428,0.001827441870463912
10.432,0.0018278265191507164
10.436,0.0018306873437588227
10.44,0.0018321538168772637
10.444,0.0018320095736197122
10.448,0.0018279467218653427
10.452,0.0018265764109186026
10.456,0.0018252060999718626
10.46,0.001826239843317649
10.464,0.001827057221777108
10.468,0.00182907662738283
10.472,0.001826696613633229
10.476,0.001823787707939272
10.48,0.0018255426675728163
10.484,0.00183090370864515
10.488,0.0018344617089980893
10.492,0.0018297257220418121
10.496,0.001828980465211129
10.5,0.0018374186957778966
10.504,0.0018424912503351271
10.508000000000001,0.0018441500477969703
10.512,0.0018423710476205008
10.516,0.0018373225336061956
10.52,0.0018353031280004734
10.524000000000001,0.001832346141220666
10.528,0.0018297016814988868
10.532,0.0018281871272945952
10.536,0.0018274178299209868
10.540000000000001,0.001825614789201592
10.544,0.001826888937976631
10.548,0.0018294131949837837
10.552,0.0018283794516379974
10.556000000000001,0.0018268408568907805
10.56,0.0018301344112715415
10.564,0.0018310239113597763
10.568,0.0018210711265887174
10.572000000000001,0.0018198210183566037
10.576,0.0018259994378883964
10.58,0.0018296295598701111
10.584,0.0018359522226594556
10.588000000000001,0.0018356396956014272
10.592,0.001839293858126067
10.596,0.0018444144937691481
10.6,0.001843933682910643
10.604000000000001,0.001839005371610964
10.608,0.0018381399120656545
10.612,0.0018361205064599325
10.616,0.001836264749717484
10.620000000000001,0.001837731222835925
10.624,0.001836360911889185
10.628,0.0018363128308033344
10.632,0.001836817682204765
10.636000000000001,0.0018364089929750356
10.64,0.0018359281821165303
10.644,0.0018397025473557967
10.648,0.001842202763820024
10.652000000000001,0.001843669236938465
10.656,0.0018441981288828209
10.66,0.0018414334664464155
10.664,0.0018337645332532563
10.668000000000001,0.0018251099378001616
10.672,0.001826696613633229
10.676,0.0018355675739726513
10.68,0.0018385726418383092
10.684000000000001,0.001839269817583142
10.688,0.0018292208706403815
10.692,0.001826432167661051
10.696,0.0018297016814988868
10.700000000000001,0.0018284996543526237
10.704,0.0018303267356149437
10.708,0.0018274178299209868
10.712,0.0018235473025100194
10.716000000000001,0.001828427532723848
10.72,0.0018288362219535774
10.724,0.001827441870463912
10.728,0.0018258551946308448
10.732000000000001,0.001825614789201592
10.736,0.0018252060999718626
10.74,0.0018266244920044532
10.744,0.0018285958165243246
10.748000000000001,0.0018342453441117618
10.752,0.001833548168366929
10.756,0.00183227401959189
10.76,0.0018345819117127156
10.764,0.0018354714118009503
10.768,0.0018313364384178047
10.772,0.0018303026950720184
10.776,0.0018366493984042882
10.78,0.0018453039938573829
10.784,0.0018470108724050766
10.788,0.0018472512778343294
10.792,0.0018460011696022156
10.796,0.001849511088869304
10.8,0.0018504486700433892
10.804,0.0018509054403589693
10.808,0.0018506409943867914
10.812,0.001846962791319226
10.816,0.0018404958852723302
10.82,0.0018401352771284514
10.824,0.0018418181151332199
10.828,0.0018455443992866356
10.832,0.0018454241965720093
10.836,0.0018402314393001524
10.84,0.0018335962494527795
10.844,0.0018252541810577132
10.848,0.0018270331812341827
10.852,0.00183227401959189
10.856,0.0018449674262564293
10.86,0.00186922433406802
10.864,0.0018966065124598956
10.868,0.001930046907668937
10.872,0.001958655153750001
10.876,0.0019663000464002346
10.88,0.0019664442896577864
10.884,0.0019579579780051684
10.888,0.0019393025166951636
10.892,0.0019146850007396939
10.896,0.001894635187940024
10.9,0.0018753787130568877
10.904,0.0018621564144479929
10.908,0.0018555212246006197
10.912,0.0018521074675052324
10.916,0.0018466983453470482
10.92,0.0018506409943867914
10.924,0.001847491683263582
10.928,0.0018364811146038113
10.932,0.0018358801010306797
10.936,0.0018366734389472135
10.94,0.0018398467906133482
10.944,0.0018375148579495976
10.948,0.0018353992901721744
10.952,0.0018352790874575481
10.956,0.0018352310063716978
10.96,0.001840111236585526
10.964,0.0018437653991101662
10.968,0.001844654899198401
10.972,0.001837274452520345
10.976,0.0018378754660934766
10.98,0.0018378514255505513
10.984,0.0018346299927985662
10.988,0.0018306392626729721
10.992,0.0018324663439352922
10.996,0.0018335962494527795
11.0,0.0018317451276475343
11.004,0.001828980465211129
11.008000000000001,0.001826432167661051
11.012,0.0018283313705521468
11.016,0.0018269610596054068
11.02,0.0018201335454146321
11.024000000000001,0.0018256628702874426
11.028,0.0018284756138096984
11.032,0.0018265764109186026
11.036,0.0018254705459440405
11.040000000000001,0.0018225375997071584
11.044,0.0018188113155537427
11.048,0.0018186189912103405
11.052,0.0018137868420823626
11.056000000000001,0.0018140753285974657
11.06,0.0018150609908574016
11.064,0.0018157581666022342
11.068,0.0018196046534702762
11.072000000000001,0.0018169601937484973
11.076,0.0018131137068804553
11.08,0.0018126569365648753
11.084,0.0018099163146713952
11.088000000000001,0.0018066708413764841
11.092,0.0018066708413764841
11.096,0.0018072237738637651
11.1,0.0018120078419058931
11.104000000000001,0.0018104932877016015
11.108,0.0018129694636229035
11.112,0.0018134021933955584
11.116,0.0018142436123979426
11.120000000000001,0.001810252882272349
11.124,0.0018165274639758426
11.128,0.0018283794516379974
11.132,0.0018306392626729721
11.136000000000001,0.001832370181763591
11.14,0.0018306633032158974
11.144,0.0018293891544408584
11.148,0.0018304228977866447
11.152000000000001,0.0018329231142508722
11.156,0.0018332356413089006
11.16,0.001834437668455164
11.164,0.0018382360742373557
11.168000000000001,0.0018370340470910925
11.172,0.0018303748167007943
11.176,0.001827057221777108
11.18,0.001828884303039428
11.184000000000001,0.0018420585205624724
11.188,0.0018517708999042787
11.192,0.0018463377372031694
11.196,0.0018334760467381532
11.200000000000001,0.0018299661274710647
11.204,0.0018390534526968145
11.208,0.0018479724941220872
11.212,0.0018493668456117524
11.216000000000001,0.0018468425886045998
11.22,0.0018440058045394187
11.224,0.0018436211558526146
11.228,0.0018390774932397398
11.232000000000001,0.0018372504119774198
11.236,0.001840375682557704
11.24,0.0018415055880751914
11.244,0.0018380437498939535
11.248000000000001,0.0018366493984042882
11.252,0.0018380918309798039
11.256,0.0018353271685433987
11.26,0.0018343895873693134
11.264,0.001833548168366929
11.268,0.0018328029115362457
11.272,0.001835447371258025
11.276,0.0018358560604877544
11.28,0.0018406160879869567
11.284,0.0018401593176713767
11.288,0.0018331635196801247
11.292,0.0018302546139861678
11.296,0.0018298459247564384
11.3,0.0018367696011189144
11.304,0.0018456646020012619
11.308,0.001846409858831945
11.312,0.0018434528720521377
11.316,0.0018433807504233618
11.32,0.0018459050074305144
11.324,0.0018517708999042787
11.328,0.0018512660485028483
11.332,0.0018478042103216104
11.336,0.0018483090617230408
11.34,0.0018481167373796388
11.344,0.001845496318200785
11.348,0.0018423229665346502
11.352,0.0018430922639082587
11.356,0.0018483090617230408
11.36,0.0018530210081363924
11.364,0.0018482128995513398
11.368,0.0018451597505998313
11.372,0.0018454241965720093
11.376,0.0018443423721403725
11.38,0.0018472031967484788
11.384,0.001846866629147525
11.388,0.001846313696660244
11.392,0.0018472993589201798
11.396,0.001845111669513981
11.4,0.001841289223188864
11.404,0.0018371061687198682
11.408,0.0018338847359678826
11.412,0.001839005371610964
11.416,0.0018482609806371904
11.42,0.001843020142279483
11.424,0.0018389813310680388
11.428,0.0018421546827341734
11.432,0.0018405199258152555
11.436,0.0018418421556761452
11.44,0.0018421306421912483
11.444,0.001837827385007626
11.448,0.0018358560604877544
11.452,0.0018345819117127156
11.456,0.001835447371258025
11.46,0.0018355916145155766
11.464,0.0018299180463852143
11.468,0.0018313845195036553
11.472,0.0018339808981395838
11.476,0.001835807979401904
11.48,0.0018301584518144668
11.484,0.00182907662738283
11.488,0.0018429961017365577
11.492,0.001850424629500464
11.496,0.0018533575757373462
11.5,0.0018515064539321008
11.504,0.0018526363594495883
11.508000000000001,0.001855545265143545
11.512,0.0018602812520998222
11.516,0.001859247508754036
11.52,0.001856002035459125
11.524000000000001,0.001856170319259602
11.528,0.001855545265143545
11.532,0.0018541268731109546
11.536,0.001855449102971844
11.540000000000001,0.0018570357788049113
11.544,0.001854992332656264
11.548,0.0018556414273152462
11.552,0.00185323737302272
11.556000000000001,0.0018513622106745493
11.56,0.0018496553321268557
11.564,0.0018508333187301936
11.568,0.0018529008054217662
11.572000000000001,0.0018431884260799599
11.576,0.001834437668455164
11.58,0.0018293891544408584
11.584,0.0018328750331650216
11.588000000000001,0.001856530927403481
11.592,0.0018780231727786665
11.596,0.0019135791357651317
11.6,0.0019583185861490474
11.604000000000001,0.0019745459526236
11.608,0.001969689762952697
11.612,0.0019677665195186756
11.616,0.001955698166970193
11.620000000000001,0.0019349271378827657
11.624,0.0019190603795520916
11.628,0.001901775229188827
11.632,0.001883768862537805
11.636000000000001,0.0018684069556085612
11.64,0.0018584060897516514
11.644,0.0018524921161920367
11.648,0.0018528767648788409
11.652000000000001,0.0018538624271387768
11.656,0.001853982629853403
11.66,0.0018499438186419589
11.664,0.0018438375207389418
11.668000000000001,0.0018394140608406935
11.672,0.001839726587898722
11.676,0.001842659534135604
11.68,0.0018460973317739166
11.684000000000001,0.0018473474400060304
11.688,0.0018442462099686715
11.692,0.0018419623583907714
11.696,0.0018429961017365577
11.700000000000001,0.0018482850211801157
11.704,0.0018508333187301936
11.708,0.0018490302780107988
11.712,0.0018486456293239945
11.716000000000001,0.0018505929133009408
11.72,0.0018539345487675525
11.724,0.0018522757513057093
11.728,0.0018498957375561083
11.732000000000001,0.0018485254266093682
11.736,0.0018502563456999873
11.74,0.0018476599670640588
11.744,0.0018439817639964934
11.748000000000001,0.0018455924803724862
11.752,0.0018408564934162092
11.756,0.0018382360742373557
11.76,0.0018384283985807576
11.764000000000001,0.001836433033517961
11.768,0.0018379235471793272
11.772,0.001835519492886801
11.776,0.0018296295598701111
11.78,0.0018286438976101752
11.784,0.001826985100148332
11.788,0.001829821884213513
11.792,0.0018316970465616837
11.796,0.0018299180463852143
11.8,0.00182313861328029
11.804,0.0018230184105656637
11.808,0.0018275380326356133
11.812,0.0018270091406912574
11.816,0.0018270812623200332
11.82,0.0018256628702874426
11.824,0.0018257590324591436
11.828,0.0018241242755402257
11.832,0.0018244127620553289
11.836,0.0018316730060187584
11.84,0.0018338847359678826
11.844,0.0018313123978748794
11.848,0.0018314326005895059
11.852,0.0018331154385942741
11.856,0.0018331635196801247
11.86,0.001836529195689662
11.864,0.001840207398757227
11.868,0.0018392217364972914
11.872,0.0018421306421912483
11.876,0.0018417940745902946
11.88,0.0018417940745902946
11.884,0.0018454241965720093
11.888,0.0018409286150449851
11.892,0.0018413613448176398
11.896,0.0018405920474440314
11.9,0.0018382601147802807
11.904,0.0018412411421030136
11.908,0.0018448712640847281
11.912,0.0018443423721403725
11.916,0.0018398948716991986
11.92,0.0018430922639082587
11.924,0.0018485975482381441
11.928,0.0018508573592731189
11.932,0.001855088494827965
11.936,0.001849246642897126
11.94,0.0018432605477087356
11.944,0.001842659534135604
11.948,0.0018462175344885429
11.952,0.0018461934939456178
11.956,0.0018470108724050766
11.96,0.0018450635884281303
11.964,0.0018429720611936324
11.968,0.0018417940745902946
11.972,0.0018410488177596114
11.976,0.0018387649661817114
11.98,0.0018403276014718536
11.984,0.0018437413585672409
11.988,0.0018389572905251135
11.992,0.0018363128308033344
11.996,0.0018368417227476903
12.0,0.0018435490342238387
12.004,0.0018519391837047555
12.008000000000001,0.0018546798055982356
12.012,0.0018536701027953746
12.016,0.0018523719134774103
12.02,0.001849318764525902
12.024000000000001,0.0018475157238065072
12.028,0.001849967859184884
12.032,0.0018491264401824998
12.036,0.001843020142279483
12.040000000000001,0.0018437413585672409
12.044,0.001850881399816044
12.048,0.001854078792025104
12.052,0.0018532854541085703
12.056000000000001,0.001854078792025104
12.06,0.0018514343323033252
12.064,0.001851626656646727
12.068,0.0018524921161920367
12.072000000000001,0.0018510977647023714
12.076,0.0018533575757373462
12.08,0.0018571559815195378
12.084,0.001856723251746883
12.088000000000001,0.0018599206439559432
12.092,0.0018600168061276444
12.096,0.0018595119547262138
12.1,0.0018581897248653241
12.104000000000001,0.0018556414273152462
12.108,0.0018549442515704135
12.112,0.0018523959540203356
12.116,0.0018522276702198587
12.120000000000001,0.0018496312915839304
12.124,0.0018471070345767776
12.128,0.0018478042103216104
12.132,0.001842298925991725
12.136000000000001,0.0018430682233653334
12.14,0.0018413613448176398
12.144,0.0018466983453470482
12.148,0.0018504727105863145
12.152000000000001,0.001847131075119703
12.156,0.0018433807504233618
12.16,0.0018418181151332199
12.164,0.0018414575069893408
12.168000000000001,0.0018431884260799599
12.172,0.0018434528720521377
12.176,0.001842659534135604
12.18,0.0018428518584790061
12.184000000000001,0.0018434528720521377
12.188,0.0018432845882516609
12.192,0.0018428518584790061
12.196,0.0018459290479734397
12.200000000000001,0.0018443664126832978
12.204,0.0018458809668875894
12.208,0.0018480686562937882
12.212,0.001846578142632422
12.216000000000001,0.0018491023996395745
12.22,0.001849246642897126
12.224,0.0018459050074305144
12.228,0.001843020142279483
12.232000000000001,0.0018456165209154113
12.236,0.001850232305157062
12.24,0.0018593677114686622
12.244,0.0018616515630465623
12.248000000000001,0.0018540547514821787
12.252,0.0018503525078716883
12.256,0.001859896603413018
12.26,0.0018680463474646822
12.264000000000001,0.0018681665501793087
12.268,0.001866651995975017
12.272,0.0018652576444853517
12.276,0.0018623246982484695
12.280000000000001,0.0018625651036777223
12.284,0.001862180454990918
12.288,0.0018638392524527611
12.292,0.0018633103605084054
12.296,0.0018594879141832885
12.3,0.0018616515630465623
12.304,0.001857083859890762
12.308,0.0018481407779225641
12.312,0.0018380437498939535
12.316,0.0018317451276475343
12.32,0.0018452559127715325
12.324,0.0018765807402031508
12.328,0.0019051649457412893
12.332,0.0019467791255449204
12.336,0.001975387371625984
12.34,0.0019787770881784465
12.344,0.001982287007445535
12.348,0.001979450223380354
12.352,0.0019652663030544485
12.356,0.001944639517224572
12.36,0.0019267293127452506
12.364,0.001906967986460684
12.368,0.0018853314978279471
12.372,0.001872590010077557
12.376,0.001863454603765957
12.38,0.0018603052926427475
12.384,0.0018599206439559432
12.388,0.0018610265089305054
12.392,0.0018596081168979147
12.396,0.0018547278866840862
12.4,0.0018506650349297167
12.404,0.0018552808191713672
12.408,0.001857829116721445
12.412,0.0018583099275799504
12.416,0.0018570357788049113
12.42,0.0018501361429853608
12.424,0.0018462896561173188
12.428,0.0018481888590084145
12.432,0.0018438134801960165
12.436,0.0018444144937691481
12.44,0.001852612318906663
12.444,0.001857925278893146
12.448,0.0018587666978955306
12.452,0.0018573002247770894
12.456,0.001857829116721445
12.46,0.001856002035459125
12.464,0.001853718183881225
12.468,0.0018573963869487904
12.472,0.0018576127518351178
12.476,0.001850713116015567
12.48,0.0018460011696022156
12.484,0.0018479724941220872
12.488,0.0018467464264328988
12.492,0.0018461934939456178
12.496,0.001845568439829561
12.5,0.001840207398757227
12.504,0.0018347982765990428
12.508000000000001,0.0018246531674845816
12.512,0.00181857091012449
12.516,0.0018242925593407026
12.52,0.0018354714118009503
12.524000000000001,0.0018431403449941093
12.528,0.0018448953046276534
12.532,0.0018444625748549987
12.536,0.0018416979124185934
12.540000000000001,0.001834533830626865
12.544,0.0018238838701109732
12.548,0.0018280428840370436
12.552,0.0018355916145155766
12.556000000000001,0.001839918912242124
12.56,0.0018404237636435545
12.564,0.0018360483848311566
12.568,0.0018341972630259112
12.572000000000001,0.0018370821281769429
12.576,0.0018368417227476903
12.58,0.0018368417227476903
12.584,0.0018333077629376763
12.588000000000001,0.0018295093571554847
12.592,0.0018287400597818764
12.596,0.0018376110201212988
12.6,0.0018457848047158882
12.604000000000001,0.0018459771290592903
12.608,0.001849511088869304
12.612,0.001846962791319226
12.616,0.0018449674262564293
12.620000000000001,0.0018482609806371904
12.624,0.0018522036296769336
12.628,0.0018584301302945767
12.632,0.001859992765584719
12.636000000000001,0.0018581656843223988
12.64,0.0018541989947397303
12.644,0.001852155548591083
12.648,0.001847948453579162
12.652000000000001,0.0018482850211801157
12.656,0.0018505207916721651
12.66,0.0018535499000807483
12.664,0.001856458805774705
12.668000000000001,0.0018590311438677085
12.672,0.0018579733599789967
12.676,0.0018586705357238296
12.68,0.0018543913190831325
12.684000000000001,0.0018498236159273324
12.688,0.001856266481431303
12.692,0.0018594879141832885
12.696,0.0018570357788049113
12.700000000000001,0.0018530450486793177
12.704,0.0018536941433383
12.708,0.001851794940447204
12.712,0.001851794940447204
12.716000000000001,0.0018544874812548334
12.72,0.0018510737241594461
12.724,0.0018474676427206566
12.728,0.0018495832104980798
12.732000000000001,0.0018472031967484788
12.736,0.0018515785755608767
12.74,0.001856362643603004
12.744,0.0018504486700433892
12.748000000000001,0.0018462656155743935
12.752,0.001846409858831945
12.756,0.0018491745212683504
12.76,0.001851626656646727
12.764000000000001,0.001855088494827965
12.768,0.0018595840763549897
12.772,0.0018613390359885338
12.776,0.0018586705357238296
12.780000000000001,0.0018605697386149254
12.784,0.001862084292819217
12.788,0.001860545698072
12.792,0.0018572040626053882
12.796000000000001,0.00185871861680968
12.8,0.0018632141983367042
12.804,0.0018642960227683411
12.808,0.0018603774142715232
12.812,0.0018564828463176304
12.816,0.0018530210081363924
12.82,0.0018578771978072957
12.824,0.001855905873287424
12.828,0.0018508573592731189
12.832,0.0018562424408883778
12.836,0.0018589590222389328
12.84,0.0018575887112921925
12.844,0.0018598485223271675
12.848,0.0018683348339797853
12.852,0.001867926144750056
12.856,0.0018639834957103127
12.86,0.001862084292819217
12.864,0.0018617717657611885
12.868,0.0018627574280211244
12.872,0.0018653297661141274
12.876,0.0018583099275799504
12.88,0.0018535499000807483
12.884,0.0018533575757373462
12.888,0.0018459771290592903
12.892,0.001847587845435283
12.896,0.0018522757513057093
12.9,0.0018525161567349618
12.904,0.0018486696698669198
12.908,0.0018457607641729629
12.912,0.0018472512778343294
12.916,0.0018534777784519724
12.92,0.0018598485223271675
12.924,0.0018621323739050676
12.928,0.0018607620629583275
12.932,0.001857276184234164
12.936,0.0018566511301181072
12.94,0.0018612428738168328
12.944,0.0018639594551673876
12.948,0.001865449968828754
12.952,0.0018644883471117433
12.956,0.0018655220904575296
12.96,0.0018675414960632518
12.964,0.001869296455696796
12.968,0.0018679021042071306
12.972,0.0018632863199654801
12.976,0.0018626612658494233
12.98,0.0018667000770608675
12.984,0.0018621564144479929
12.988,0.0018561462787166766
12.992,0.0018581656843223988
12.996,0.0018637671308239854
13.0,0.0018661471445735865
13.004,0.001866651995975017
13.008000000000001,0.0018637671308239854
13.012,0.0018634786443088823
13.016,0.0018676857393208034
13.02,0.0018721572803049023
13.024000000000001,0.0018686233204948885
13.028,0.001859800441241317
13.032,0.0018485254266093682
13.036,0.0018455443992866356
13.040000000000001,0.0018508573592731189
13.044,0.0018685031177802622
13.048,0.0018950679177126787
13.052,0.001930311353641115
13.056000000000001,0.001972358263217401
13.06,0.0019914464543000603
13.064,0.0019921917111307436
13.068,0.0019901001838962457
13.072000000000001,0.001968872384493238
13.076,0.00194399042256559
13.08,0.001932426921418538
13.084,0.0019179545145775296
13.088000000000001,0.0018922070931045724
13.092,0.0018742728480823255
13.096,0.0018693204962397212
13.1,0.001866291387831138
13.104000000000001,0.0018641758200537149
13.108,0.0018662433067452874
13.112,0.0018698734287270022
13.116,0.0018708110099010875
13.120000000000001,0.0018678780636642053
13.124,0.0018605937791578507
13.128,0.0018604014548144485
13.132,0.001862997833450377
13.136000000000001,0.001865738455343857
13.14,0.0018658586580584833
13.144,0.0018659548202301843
13.148,0.0018665317932603906
13.152000000000001,0.001868118469093458
13.156,0.0018655220904575296
13.16,0.001861988130647516
13.164,0.0018638873335386117
13.168000000000001,0.0018616034819607117
13.172,0.001858622454637979
13.176,0.0018593677114686622
13.18,0.0018611467116451316
13.184000000000001,0.001862012171190441
13.188,0.0018617477252182632
13.192,0.0018576127518351178
13.196,0.0018499438186419589
13.200000000000001,0.001844582777569625
13.204,0.0018520353458764567
13.208,0.001861170752188057
13.212,0.0018623968198772454
13.216000000000001,0.001856074157087901
13.22,0.0018494630077834535
13.224,0.0018445106559408493
13.228,0.0018415536691610418
13.232000000000001,0.0018432845882516609
13.236,0.0018510256430735955
13.24,0.0018522276702198587
13.244,0.0018466262237182725
13.248000000000001,0.0018505207916721651
13.252,0.0018532614135656452
13.256,0.0018504005889575389
13.26,0.0018456405614583366
13.264000000000001,0.0018424431692492767
13.268,0.0018410007366737608
13.272,0.0018438134801960165
13.276,0.001846481980460721
13.280000000000001,0.0018459771290592903
13.284,0.0018460492506880662
13.288,0.001845496318200785
13.292,0.0018435009531379881
13.296000000000001,0.0018424431692492767
13.3,0.0018435249936809134
13.304,0.0018400150744138251
13.308,0.001843933682910643
13.312000000000001,0.001855713548944022
13.316,0.0018631420767079286
13.32,0.0018638873335386117
13.324,0.0018580454816077726
13.328,0.0018518430215330546
13.332,0.001856002035459125
13.336,0.0018623727793343201
13.34,0.0018618438873899644
13.344,0.0018634065226801064
13.348,0.0018631180361650033
13.352,0.0018627333874781991
13.356,0.001866291387831138
13.36,0.0018637190497381348
13.364,0.001860161049385196
13.368,0.001861074590016356
13.372,0.0018613390359885338
13.376,0.0018643200633112664
13.38,0.001865281685028277
13.384,0.0018616996441324129
13.388,0.0018636469281093592
13.392,0.0018628055091069748
13.396,0.0018607380224154022
13.4,0.0018604014548144485
13.404,0.0018589590222389328
13.408,0.001855160616456741
13.412,0.0018587666978955306
13.416,0.0018622285360767685
13.42,0.0018650653201419496
13.424,0.0018634786443088823
13.428,0.0018595600358120644
13.432,0.0018606899413295516
13.436,0.0018687675637524403
13.44,0.0018706908071864613
13.444,0.0018694887800401981
13.448,0.0018647527930839211
13.452,0.001861074590016356
13.456,0.0018570117382619863
13.46,0.0018566030490322566
13.464,0.001858358008665801
13.468,0.001857180022062463
13.472,0.0018547519272270115
13.476,0.0018568434544615094
13.48,0.001858358008665801
13.484,0.0018609303467588044
13.488,0.0018626131847635727
13.492,0.0018637190497381348
13.496,0.0018625651036777223
13.5,0.0018610265089305054
13.504,0.0018623246982484695
13.508000000000001,0.0018622766171626191
13.512,0.0018596081168979147
13.516,0.0018581416437794735
13.52,0.0018594157925545128
13.524000000000001,0.0018598725628700928
13.528,0.001858790738438456
13.532,0.0018592715492969612
13.536,0.0018616515630465623
13.540000000000001,0.001865449968828754
13.544,0.0018653297661141274
13.548,0.0018625170225918717
13.552,0.0018616515630465623
13.556000000000001,0.0018642479416824907
13.56,0.00186922433406802
13.564,0.0018722534424766033
13.568,0.001868575239409038
13.572000000000001,0.0018622766171626191
13.576,0.001857540630206342
13.58,0.0018531892919368693
13.584,0.001855088494827965
13.588000000000001,0.001866363509459914
13.592,0.0018673251311769243
13.596,0.0018587666978955306
13.6,0.0018549202110274882
13.604000000000001,0.0018479003724933113
13.608,0.0018476599670640588
13.612,0.0018498236159273324
13.616,0.0018487417914956957
13.620000000000001,0.0018491264401824998
13.624,0.001847131075119703
13.628,0.0018463377372031694
13.632,0.001844582777569625
13.636000000000001,0.0018481407779225641
13.64,0.0018532614135656452
13.644,0.001855352940800143
13.648,0.0018552808191713672
13.652000000000001,0.0018578050761785198
13.656,0.001859343670925737
13.66,0.0018617477252182632
13.664,0.0018631661172508539
13.668000000000001,0.0018617477252182632
13.672,0.001858790738438456
13.676,0.001853069089222243
13.68,0.0018558337516586482
13.684000000000001,0.001861723684675338
13.688,0.0018660269418589602
13.692,0.0018647768336268464
13.696,0.0018647527930839211
13.700000000000001,0.0018684309961514865
13.704,0.0018680463474646822
13.708,0.0018632622794225548
13.712,0.0018623968198772454
13.716000000000001,0.001865017239056099
13.72,0.0018634065226801064
13.724,0.001858285887037025
13.728,0.0018585262924662776
13.732000000000001,0.0018651374417707255
13.736,0.001873142942564838
13.74,0.0018782395376649938
13.744,0.0018801147000131644
13.748000000000001,0.001877518321377236
13.752,0.0018667962392325686
13.756,0.0018558577922015735
13.76,0.0018509054403589693
13.764000000000001,0.0018543191974543566
13.768,0.001867301090633999
13.772,0.0018893222279535407
13.776,0.0019109346760433528
13.780000000000001,0.0019441106252802163
13.784,0.0019775029394034074
13.788,0.001987936535032972
13.792,0.001992432116559996
13.796000000000001,0.0019842342914224813
13.8,0.001962501640618043
13.804,0.00194079303035653
13.808,0.0019273543668613074
13.812000000000001,0.001911247203101381
13.816,0.0018919426471323945
13.82,0.001878792470152275
13.824,0.0018699695908987034
13.828,0.0018682627123510097
13.832,0.0018732150641936139
13.836,0.0018779029700640403
13.84,0.0018716283883605464
13.844,0.0018594879141832885
13.848,0.0018577089140068188
13.852,0.0018665317932603906
13.856,0.0018729025371355854
13.86,0.001868839685381216
13.864,0.001870570604471835
13.868,0.0018728304155068095
13.872,0.001869584942211899
13.876,0.0018680223069217569
13.88,0.0018676136176920275
13.884,0.001867012604118896
13.888,0.0018677819014925043
13.892,0.0018647768336268464
13.896,0.00186008892775642
13.9,0.001859439833097438
13.904,0.0018627574280211244
13.908,0.001859992765584719
13.912,0.001857901238350221
13.916,0.0018597523601554665
13.92,0.0018601129682993454
13.924,0.001856987697719061
13.928,0.0018549202110274882
13.932,0.001855160616456741
13.936,0.0018496553321268557
13.94,0.0018472993589201798
13.944,0.0018365772767755125
13.948,0.0018383081958661313
13.952,0.0018520834269623071
13.956,0.0018572040626053882
13.96,0.0018611226711022064
13.964,0.0018622766171626191
13.968,0.0018556414273152462
13.972,0.001854439400168983
13.976,0.001850881399816044
13.98,0.0018475157238065072
13.984,0.0018461934939456178
13.988,0.0018442702505115966
13.992,0.001843020142279483
13.996,0.0018389332499821882
14.0,0.0018382360742373557
14.004,0.001839197695954366
14.008000000000001,0.0018472031967484788
14.012,0.0018452318722286072
14.016,0.0018410007366737608
14.02,0.0018420104394766218
14.024000000000001,0.0018431643855370346
14.028,0.001846578142632422
14.032,0.001849775534841482
14.036,0.0018468906696904504
14.040000000000001,0.0018456405614583366
14.044,0.001847876331950386
14.048,0.0018474436021777313
14.052,0.001843933682910643
14.056000000000001,0.0018454722776578597
14.06,0.0018484533049805925
14.064,0.0018564828463176304
14.068,0.001861074590016356
14.072000000000001,0.0018581897248653241
14.076,0.0018559299138303494
14.08,0.0018534777784519724
14.084,0.001858358008665801
14.088000000000001,0.0018667241176037928
14.092,0.0018668683608613443
14.096,0.0018625170225918717
14.1,0.001855088494827965
14.104000000000001,0.0018567713328327335
14.108,0.0018616515630465623
14.112,0.001859992765584719
14.116,0.001855545265143545
14.120000000000001,0.0018490302780107988
14.124,0.001844486615397924
14.128,0.0018526844405354387
14.132,0.001861531360331936
14.136000000000001,0.0018653297661141274
14.14,0.001859247508754036
14.144,0.0018585262924662776
14.148,0.0018608341845871032
14.152000000000001,0.0018595119547262138
14.156,0.001855352940800143
14.16,0.001850713116015567
14.164,0.0018546798055982356
14.168000000000001,0.001857276184234164
14.172,0.0018567953733756588
14.176,0.0018627574280211244
14.18,0.0018614832792460854
14.184000000000001,0.0018528527243359156
14.188,0.001848236940094265
14.192,0.0018507371565584924
14.196,0.0018581656843223988
14.200000000000001,0.0018590311438677085
14.204,0.0018562184003454525
14.208,0.0018572281031483135
14.212,0.001863454603765957
14.216000000000001,0.0018665317932603906
14.22,0.0018627333874781991
14.224,0.0018589590222389328
14.228,0.0018548000083128619
14.232000000000001,0.001857636792378043
14.236,0.0018642960227683411
14.24,0.0018669404824901202
14.244,0.001869584942211899
14.248000000000001,0.0018683107934368602
14.252,0.0018659788607731096
14.256,0.001865281685028277
14.26,0.0018624208604201707
14.264000000000001,0.0018632622794225548
14.268,0.0018665317932603906
14.272,0.0018636950091952095
14.276,0.0018645123876546686
14.280000000000001,0.001861723684675338
14.284,0.001862925711821601
14.288,0.0018601129682993454
14.292,0.0018578531572643704
14.296000000000001,0.0018554731435147694
14.3,0.0018614832792460854
14.304,0.0018663394689169886
14.308,0.0018644162254829674
14.312000000000001,0.0018558818327444988
14.316,0.0018514583728462505
14.32,0.001850881399816044
14.324,0.0018530210081363924
14.328000000000001,0.001856915576090285
14.332,0.0018628055091069748
14.336,0.0018622044955338432
14.34,0.001862925711821601
14.344,0.0018638152119098358
14.348,0.0018646085498263696
14.352,0.0018651614823136508
14.356,0.001861723684675338
14.36,0.0018611947927309822
14.364,0.0018622044955338432
14.368,0.0018658586580584833
14.372,0.001868935847552917
14.376,0.0018738160777667455
14.38,0.0018748257805696064
14.384,0.0018703782801284328
14.388,0.0018691762529821697
14.392,0.0018704504017572085
14.396,0.0018692483746109453
14.4,0.001872950618221436
14.404,0.0018719649559615001
14.408,0.001871580307274696
14.412,0.0018767249834607024
14.416,0.0018741045642818486
14.42,0.0018730948614789876
14.424,0.0018711716180449666
14.428,0.0018660750229448106
14.432,0.001861266914359758
14.436,0.0018590071033247832
14.44,0.0018641758200537149
14.444,0.001873142942564838
14.448,0.0018815090515028297
14.452,0.0018835524976514777
14.456,0.0018807397541292213
14.46,0.0018778548889781897
14.464,0.0018679501852929812
14.468,0.001857997400521922
14.472,0.0018560260760020503
14.476,0.0018599687250417938
14.48,0.0018818456191037833
14.484,0.0019125934735051957
14.488,0.0019424277872754478
14.492,0.0019799550747817843
14.496,0.0019969998197157963
14.5,0.001995437184425654
14.504,0.0019957497114836825
14.508000000000001,0.0019833207507913213
14.512,0.0019585109104924493
14.516,0.0019372831110894414
14.52,0.001923748285422518
14.524000000000001,0.0019039629185950261
14.528,0.0018892020252389145
14.532,0.0018849949302269934
14.536,0.001881533092045755
14.540000000000001,0.0018707148477293866
14.544,0.001863358441594256
14.548,0.001871580307274696
14.552,0.0018736958750521192
14.556000000000001,0.0018733352669082401
14.56,0.0018766288212890012
14.564,0.0018767490240036275
14.568,0.0018769173078041043
14.572000000000001,0.001877878929521115
14.576,0.0018774702402913855
14.58,0.001876869226718254
14.584,0.001870570604471835
14.588000000000001,0.0018674453338915506
14.592,0.0018685271583231875
14.596,0.0018712437396737423
14.6,0.0018736237534233433
14.604000000000001,0.0018737439561379696
14.608,0.0018736477939662686
14.612,0.001876436496945599
14.616,0.001870666766643536
14.620000000000001,0.0018603293331856728
14.624,0.00185917538712526
14.628,0.0018648008741697717
14.632,0.0018656903742580065
14.636000000000001,0.0018616034819607117
14.64,0.0018654980499146043
14.644,0.0018718928343327244
14.648,0.0018734554696228664
14.652000000000001,0.0018687675637524403
14.656,0.001862997833450377
14.66,0.0018634065226801064
14.664,0.0018648008741697717
14.668000000000001,0.0018626131847635727
14.672,0.0018617958063041138
14.676,0.0018589590222389328
14.68,0.001855545265143545
14.684000000000001,0.0018522997918486346
14.688,0.001850232305157062
14.692,0.0018504005889575389
14.696,0.001849150480725425
14.700000000000001,0.0018466262237182725
14.704,0.001849318764525902
14.708,0.0018523719134774103
14.712,0.0018510256430735955
14.716000000000001,0.0018490302780107988
14.72,0.0018455203587437103
14.724,0.0018429480206507071
14.728,0.0018436932774813903
14.732000000000001,0.0018528767648788409
14.736,0.0018596081168979147
14.74,0.0018573242653200145
14.744,0.001853622021709524
14.748000000000001,0.0018524199945632609
14.752,0.0018510737241594461
14.756,0.001854703846141161
14.76,0.0018641517795107896
14.764000000000001,0.0018660990634877359
14.768,0.0018708590909869381
14.772,0.0018748979021983823
14.776,0.0018761480104304959
14.780000000000001,0.0018751142670847096
14.784,0.0018748498211125317
14.788,0.0018728304155068095
14.792,0.0018711956585878917
14.796000000000001,0.001868118469093458
14.8,0.0018635988470235086
14.804,0.0018670366446618212
14.808,0.0018710273747874148
14.812000000000001,0.0018671568473764475
14.816,0.0018699455503557781
14.82,0.0018743930507969517
14.824,0.0018770134699758055
14.828000000000001,0.0018744651724257276
14.832,0.0018771096321475065
14.836,0.0018798502540409866
14.84,0.0018816532947603813
14.844000000000001,0.001876244172602197
14.848,0.0018732150641936139
14.852,0.0018727102127921833
14.856,0.0018737439561379696
14.86,0.0018719409154185748
14.864,0.0018713158613025182
14.868,0.0018713639423883685
14.872,0.0018727582938780339
14.876,0.001872037077590276
14.88,0.0018711716180449666
14.884,0.0018752585103422612
14.888,0.0018809080379296982
14.892,0.001881989862361335
14.896,0.0018751383076276349
14.9,0.001864824914712697
14.904,0.0018608582251300285
14.908,0.0018669885635759706
14.912,0.0018726380911634076
14.916,0.0018707388882723117
14.92,0.0018703782801284328
14.924,0.0018748498211125317
14.928,0.001879633889154659
14.932,0.001883167848964673
14.936,0.001882999565164196
14.94,0.001879177118839079
14.944,0.001879345402639556
14.948,0.0018814369298740538
14.952,0.001881076321730175
14.956,0.0018773981186626096
14.96,0.0018713399018454432
14.964,0.0018706908071864613
14.968,0.0018655701715433802
14.972,0.0018630459145362276
14.976,0.0018678059420354296
14.98,0.0018725419289917064
14.984,0.0018728304155068095
14.988,0.0018728304155068095
14.992,0.001874873861655457
14.996,0.0018776866051777128
15.0,0.001879345402639556
15.004,0.001873575672337493
15.008000000000001,0.0018769413483470296
15.012,0.0018819658218184097
15.016,0.0018811965244448013
15.02,0.0018789607539527518
15.024000000000001,0.0018765566996602255
15.028,0.0018700897936133297
15.032,0.0018685031177802622
15.036,0.0018670366446618212
15.040000000000001,0.0018666039148891665
15.044,0.0018710033342444897
15.048,0.001868286752893935
15.052,0.0018665077527174655
15.056000000000001,0.001865738455343857
15.06,0.001866002901316035
15.064,0.0018684309961514865
15.068,0.0018686473610378138
15.072000000000001,0.0018701619152421054
15.076,0.0018693204962397212
15.08,0.0018628776307357507
15.084,0.0018633103605084054
15.088000000000001,0.0018710273747874148
15.092,0.0018785520647230222
15.096,0.0018823745110481392
15.1,0.001876436496945599
15.104000000000001,0.0018741526453676992
15.108,0.0018857642276006018
15.112,0.0018900674847842239
15.116,0.0018880961602643523
15.120000000000001,0.0018896347550115692
15.124,0.0018875672683199966
15.128,0.0018872547412619681
15.132,0.0018888173765521101
15.136000000000001,0.0018884808089511566
15.14,0.001886437362802509
15.144,0.0018813648082452782
15.148,0.001885980592486929
15.152000000000001,0.0018926879039630777
15.156,0.001893721647308864
15.16,0.0018902117280417755
15.164,0.0018893703090393913
15.168000000000001,0.0018870143358327154
15.172,0.0018896587955544945
15.176,0.0018858123086864522
15.18,0.0018718928343327244
15.184000000000001,0.0018614832792460854
15.188,0.001856002035459125
15.192,0.0018710273747874148
15.196,0.0019014386615878733
15.200000000000001,0.001928868921065599
15.204,0.0019601697079542927
15.208,0.0019932014139336044
15.212,0.002003562887934393
15.216000000000001,0.002005846739512293
15.22,0.002010294239953467
15.224,0.001991783021901014
15.228,0.001959280207866058
15.232000000000001,0.0019381245300918257
15.236,0.0019236761637937423
15.24,0.001909852851611716
15.244,0.0018990826883811976
15.248000000000001,0.0018932408364503587
15.252,0.0018923753769050492
15.256,0.0018942505392532197
15.26,0.001885499781628424
15.264000000000001,0.0018797540918692854
15.268,0.0018818456191037833
15.272,0.0018856440248859756
15.276,0.001886966254746865
15.280000000000001,0.0018854036194567228
15.284,0.001884970889684068
15.288,0.001880162781099015
15.292,0.0018776385240918622
15.296000000000001,0.0018783116592937697
15.3,0.0018801147000131644
15.304,0.0018776625646347875
15.308,0.0018756912401149159
15.312000000000001,0.0018732631452794645
15.316,0.001876244172602197
15.32,0.0018802829838136413
15.324,0.0018799704567556128
15.328000000000001,0.0018826870381061676
15.332,0.001884610281540189
15.336,0.0018809801595584738
15.34,0.0018737199155950445
15.344000000000001,0.001870306158499657
15.348,0.0018711716180449666
15.352,0.0018728784965926601
15.356,0.0018782395376649938
15.36,0.0018787443890664244
15.364,0.0018759797266300192
15.368,0.0018713879829312938
15.372,0.0018620362117333664
15.376,0.0018576127518351178
15.38,0.0018584301302945767
15.384,0.0018601850899281212
15.388,0.0018634065226801064
15.392,0.0018671808879193728
15.396,0.0018647047119980708
15.4,0.0018641277389678643
15.404,0.0018632141983367042
15.408,0.0018612188332739075
15.412,0.0018573963869487904
15.416,0.0018597283196125412
15.42,0.0018634786443088823
15.424,0.001863382482137181
15.428,0.0018608822656729538
15.432,0.0018626853063923486
15.436,0.001863911374081537
15.44,0.0018619400495616654
15.444,0.0018608822656729538
15.448,0.0018610265089305054
15.452,0.0018607620629583275
15.456,0.001862084292819217
15.46,0.0018651134012278002
15.464,0.0018696089827548244
15.468,0.0018686473610378138
15.472,0.0018658826986014086
15.476,0.0018660509824018855
15.48,0.001867108766290597
15.484,0.0018644883471117433
15.488,0.0018706427261006107
15.492,0.0018692483746109453
15.496,0.0018656903742580065
15.5,0.0018725419289917064
15.504,0.001877157713233357
15.508000000000001,0.001877422159205535
15.512,0.001884225632853385
15.516,0.0018863171600878828
15.52,0.0018866537276888366
15.524000000000001,0.0018885529305799323
15.528,0.0018870143358327154
15.532,0.0018873268628907438
15.536,0.001885595943800125
15.540000000000001,0.001883672700366104
15.544,0.0018832159300505233
15.548,0.0018823264299622886
15.552,0.0018828793624495698
15.556000000000001,0.0018799704567556128
15.56,0.0018779270106069655
15.564,0.0018829514840783454
15.568,0.001882711078649093
15.572000000000001,0.0018789126728669012
15.576,0.0018743930507969517
15.58,0.0018732150641936139
15.584,0.0018680944285505328
15.588000000000001,0.001866459671631615
15.592,0.001878167416036218
15.596,0.001881268646073577
15.6,0.0018800666189273138
15.604000000000001,0.0018765566996602255
15.608,0.0018750661859988592
15.612,0.0018760037671729443
15.616,0.0018810042001013991
15.620000000000001,0.0018857642276006018
15.624,0.001885139173484545
15.628,0.0018812205649877266
15.632,0.0018805714703287444
15.636000000000001,0.0018823504705052139
15.64,0.001879345402639556
15.644,0.001875955686087094
15.648,0.0018793934837254066
15.652000000000001,0.0018810042001013991
15.656,0.0018838169436236555
15.66,0.0018849949302269934
15.664,0.0018806676325004454
15.668000000000001,0.0018795136864400328
15.672,0.0018812446055306517
15.676,0.001884321795025086
15.68,0.0018830236057071213
15.684000000000001,0.0018829514840783454
15.688,0.0018814850109599044
15.692,0.0018818456191037833
15.696,0.0018857642276006018
15.700000000000001,0.0018914618362738892
15.704,0.0018862450384591071
15.708,0.001881989862361335
15.712,0.001876700942917777
15.716000000000001,0.0018787684296093497
15.72,0.0018832399705934492
15.724,0.0018780712538645171
15.728,0.0018751863887134855
15.732000000000001,0.0018807878352150719
15.736,0.0018923753769050492
15.74,0.0018923032552762733
15.744,0.001890163646955925
15.748000000000001,0.0018871345385473419
15.752,0.001881725416389157
15.756,0.0018745372940545033
15.76,0.0018738160777667455
15.764000000000001,0.001875787402286617
15.768,0.0018776385240918622
15.772,0.001877782767349414
15.776,0.0018760037671729443
15.780000000000001,0.0018784799430942465
15.784,0.0018781193349503675
15.788,0.0018785520647230222
15.792,0.001874056483195998
15.796000000000001,0.0018688637259241412
15.8,0.0018671808879193728
15.804,0.0018704263612142832
15.808,0.0018786963079805738
15.812000000000001,0.001879802172955136
15.816,0.001874585375140354
15.82,0.001872229401933678
15.824,0.0018769173078041043
15.828000000000001,0.0018841535112246093
15.832,0.0018875672683199966
15.836,0.0018840813895958334
15.84,0.0018884808089511566
15.844000000000001,0.0018900194036983733
15.848,0.0018915339579026649
15.852,0.0018949236744551271
15.856,0.0018927600255918533
15.860000000000001,0.0018936014445942377
15.864,0.0018936735662230134
15.868,0.001888504849494082
15.872,0.0018849949302269934
15.876,0.0018864854438883597
15.88,0.0018896107144686439
15.884,0.0018869181736610144
15.888,0.001881268646073577
15.892,0.0018791530782961538
15.896,0.0018821100650759613
15.9,0.0018828793624495698
15.904,0.001877325997033834
15.908,0.0018678540231212802
15.912,0.0018709792937015644
15.916,0.0018756671995719908
15.92,0.001882086024533036
15.924,0.0019081219325210968
15.928,0.0019388457463795836
15.932,0.001978945371978923
15.936,0.002011856875243609
15.94,0.0020174823622881206
15.944,0.0020153908350536228
15.948,0.002005870780055218
15.952,0.001986181575399428
15.956,0.0019600014241538156
15.96,0.0019423075845608215
15.964,0.0019268254749169518
15.968,0.001906679499945581
15.972,0.0018910050659583092
15.976,0.0018799464162126875
15.98,0.0018728544560497348
15.984,0.001885139173484545
15.988,0.0019040831213096524
15.992,0.0019095162840107622
15.996,0.001901847350817603
16.0,0.0018923753769050492
16.004,0.001890259809127626
16.008,0.001891269511930487
16.012,0.0018917743633319177
16.016000000000002,0.0018911973903017114
16.02,0.001891173349758786
16.024,0.0018895866739257186
16.028,0.0018883125251506797
16.032,0.001888504849494082
16.036,0.0018894183901252417
16.04,0.0018855719032571997
16.044,0.0018848747275123671
16.048000000000002,0.0018863171600878828
16.052,0.0018868700925751638
16.056,0.0018834082543939259
16.06,0.0018792011593820044
16.064,0.001880355105442417
16.068,0.0018778548889781897
16.072,0.001874417091339877
16.076,0.0018762922536880475
16.080000000000002,0.0018836967409090292
16.084,0.0018840092679670575
16.088,0.001882086024533036
16.092,0.001889971322612523
16.096,0.0018865575655171356
16.1,0.0018834082543939259
16.104,0.0018828793624495698
16.108,0.0018823264299622886
16.112000000000002,0.0018779029700640403
16.116,0.0018747536589408308
16.12,0.0018726140506204823
16.124,0.001872133239761977
16.128,0.0018714360640171444
16.132,0.0018678540231212802
16.136,0.00185917538712526
16.14,0.0018576848734638935
16.144000000000002,0.0018563145625171535
16.148,0.0018575646707492672
16.152,0.0018594879141832885
16.156,0.001859896603413018
16.16,0.0018596081168979147
16.164,0.0018596081168979147
