time,channel5
0.0,-6.484455643231349E-4
0.004,-6.761643103159638E-4
0.008,-6.382764146657484E-4
0.012,-5.967103159479677E-4
0.016,-6.010135731315898E-4
0.02,-6.100528172714889E-4
0.024,-6.361848874312505E-4
0.028,-5.663471102333598E-4
0.032,-5.788481925544968E-4
0.036000000000000004,-5.89257747641136E-4
0.04,-6.061342087746709E-4
0.044,-5.380754317532497E-4
0.048,-5.241319168565969E-4
0.052000000000000005,-5.303103363883897E-4
0.056,-5.452395135449783E-4
0.06,-5.04346550029105E-4
0.064,-4.779740744400908E-4
0.068,-4.902828324178258E-4
0.07200000000000001,-4.771086148947813E-4
0.076,-4.738150605140202E-4
0.08,-4.222480959393298E-4
0.084,-4.4475004411737647E-4
0.088,-4.5554424789081985E-4
0.092,-4.646315731165694E-4
0.096,-4.032801075712968E-4
0.1,-3.8909618724539125E-4
0.10400000000000001,-4.1174237868098955E-4
0.108,-4.2046909576286024E-4
0.112,-3.5933399510391494E-4
0.116,-3.4351531785909155E-4
0.12,-3.6844536087258985E-4
0.124,-3.660413065800635E-4
0.128,-3.329374789719755E-4
0.132,-3.010356785101507E-4
0.136,-3.5130445376687687E-4
0.14,-3.341875872040893E-4
0.14400000000000002,-3.110605849099856E-4
0.148,-2.753844192088945E-4
0.152,-3.009875974243002E-4
0.156,-2.888711637899673E-4
0.16,-2.856016499521315E-4
0.164,-2.4877153819062765E-4
0.168,-2.4655980824150344E-4
0.17200000000000001,-2.770672572136629E-4
0.176,-2.3208740140049473E-4
0.18,-1.8672289690052234E-4
0.184,-2.0302238500385106E-4
0.188,-2.3881875341956856E-4
0.192,-1.8893462684964658E-4
0.196,-1.5229683943154487E-4
0.2,-1.3498764852535507E-4
0.20400000000000001,-1.8910291065012344E-4
0.20800000000000002,-1.5090248794187957E-4
0.212,-1.2508294484014646E-4
0.216,-9.325326600709749E-5
0.22,-1.4390668995062787E-4
0.224,-1.3671856761597405E-4
0.228,-9.8133496220926E-5
0.232,-7.803560233540561E-5
0.23600000000000002,-9.161850908817955E-5
0.24,2.261493872979546E-4
0.244,2.4576647032496974E-4
0.248,2.2052390025344295E-4
0.252,2.0617169612706057E-4
0.256,2.6502294520810586E-4
0.26,2.629073774306826E-4
0.264,2.6562395878123744E-4
0.268,2.372561181294264E-4
0.272,2.731246081739197E-4
0.276,3.020934623988623E-4
0.28,2.929580560872622E-4
0.28400000000000003,2.8026464942272297E-4
0.28800000000000003,3.0497832754989397E-4
0.292,3.512323321381011E-4
0.296,3.4914080490360314E-4
0.3,3.378898308145798E-4
0.304,3.1646970706816996E-4
0.308,3.585887382732318E-4
0.312,3.7803753749977E-4
0.316,3.5087172399422215E-4
0.32,3.5822813012935275E-4
0.324,4.242915420879772E-4
0.328,4.2878712361500145E-4
0.332,4.0563608077797265E-4
0.336,4.1844969015713814E-4
0.34,4.6107357276363046E-4
0.34400000000000003,4.5972730235981573E-4
0.34800000000000003,4.2794570461261727E-4
0.352,4.132809734282064E-4
0.356,4.7614699317777076E-4
0.36,5.067025232357807E-4
0.364,4.912684946777615E-4
0.368,4.6460753257364417E-4
0.372,5.018703741078028E-4
0.376,5.466579055775689E-4
0.38,5.342770259710581E-4
0.384,5.055485771753681E-4
0.388,5.449991081157257E-4
0.392,5.902914909869223E-4
0.396,5.526680413088848E-4
0.4,5.390851345561108E-4
0.404,5.584137310680228E-4
0.40800000000000003,6.076487629789626E-4
0.41200000000000003,6.172409396061428E-4
0.41600000000000004,5.973353700640245E-4
0.42,5.935850453676833E-4
0.424,6.54287416253974E-4
0.428,6.647450524264637E-4
0.432,6.228664266506544E-4
0.436,6.224577374209249E-4
0.44,6.507053753581097E-4
0.444,6.871027573469589E-4
0.448,6.608504844725708E-4
0.452,6.536864026808424E-4
0.456,7.020319345035474E-4
0.46,7.219134635027404E-4
0.464,7.025608264479032E-4
0.468,7.006375830138822E-4
0.47200000000000003,7.234520582499575E-4
0.47600000000000003,7.67205846373937E-4
0.48,7.848275643381553E-4
0.484,7.456414793699757E-4
0.488,7.562433588000169E-4
0.492,8.054543501680314E-4
0.496,8.223067707586412E-4
0.5,7.984104710909293E-4
0.504,8.1353197259092E-4
0.508,8.408179888110942E-4
0.512,8.444961918786596E-4
0.516,8.217778788142854E-4
0.52,8.343510827641984E-4
0.524,8.963516429684531E-4
0.528,8.845477363921487E-4
0.532,8.319229879287468E-4
0.536,8.552663551091776E-4
0.54,9.162091314247208E-4
0.544,9.262099972816304E-4
0.548,8.948130482212362E-4
0.552,8.959189131957984E-4
0.556,9.467165803968804E-4
0.56,9.449856613062615E-4
0.5640000000000001,9.225077536711399E-4
0.5680000000000001,9.233010915876736E-4
0.5720000000000001,9.664298255955965E-4
0.5760000000000001,9.674876094843081E-4
0.58,9.709013665796955E-4
0.584,9.657807309366143E-4
0.588,9.91552192952497E-4
0.592,0.0010243434935025566
0.596,0.0010128521139842804
0.6,9.6585285256539E-4
0.604,9.902540036345327E-4
0.608,0.001057038631880915
0.612,0.0010637219028141382
0.616,0.0010399698464039777
0.62,0.001038527413828462
0.624,0.0010779779447688195
0.628,0.0010793242151726343
0.632,0.001046460792993799
0.636,0.0010555961993053992
0.64,0.0011062977043347802
0.644,0.001116322610734615
0.648,0.0010976431088816853
0.652,0.0010907434730621345
0.656,0.0011351703963880216
0.66,0.0011667837103347433
0.664,0.0011220442599508276
0.668,0.0011086296369985306
0.672,0.0011651249128729001
0.676,0.0011896703071995944
0.68,0.0011763758869619235
0.684,0.0011450270189873797
0.6880000000000001,0.0011638988451837117
0.6920000000000001,0.0012010895650890945
0.6960000000000001,0.0011775779141081867
0.7000000000000001,0.0011524795872942114
0.704,0.0012170284450485442
0.708,0.0012368378524189613
0.712,0.0012218365536335969
0.716,0.0012215961482043441
0.72,0.00124445870452627
0.724,0.0012893664387106623
0.728,0.0012744853426399241
0.732,0.001239554433769516
0.736,0.0012406843392870036
0.74,0.0013059544133290943
0.744,0.001317974684791726
0.748,0.001291794533546114
0.752,0.0012835005462368979
0.756,0.0013213884418871132
0.76,0.0013531459990913865
0.764,0.0013176381171907722
0.768,0.0013026848994912585
0.772,0.001355117323611258
0.776,0.0013821869749451052
0.78,0.0013870431646160082
0.784,0.001387836502532542
0.788,0.0014044725582368243
0.792,0.0014266619793568427
0.796,0.0014101942074530374
0.8,0.0013599013916533855
0.804,0.0014046168014943759
0.808,0.0014604870232526885
0.812,0.0014520968737717717
0.8160000000000001,0.0014326721150881585
0.8200000000000001,0.0014301238175380806
0.8240000000000001,0.001481041687453789
0.8280000000000001,0.001488518296303546
0.8320000000000001,0.0014311575608838669
0.836,0.001443562481033303
0.84,0.0015266946784688645
0.844,0.0015052985952653797
0.848,0.0014719784027709647
0.852,0.0014675068617868655
0.856,0.0015165014882685527
0.86,0.0015372725173559804
0.864,0.0015155879476373927
0.868,0.0015127511635722117
0.872,0.0015427778016858656
0.876,0.0015683569393583464
0.88,0.0015504707754219501
0.884,0.0015279928677868289
0.888,0.0015460232749807765
0.892,0.001566313493209699
0.896,0.0015583320329585115
0.9,0.0015387389904744214
0.904,0.0015664817770101758
0.908,0.0016125915383408316
0.912,0.0016132165924568885
0.916,0.001574535358890139
0.92,0.0016015328885952101
0.924,0.0016460559740927982
0.928,0.0016483638662136235
0.932,0.001616846714438603
0.936,0.0016218711879099831
0.9400000000000001,0.0016884154107271129
0.9440000000000001,0.0016882711674695613
0.9480000000000001,0.0016502149880188689
0.9520000000000001,0.0016477388120975666
0.9560000000000001,0.001698656682013275
0.96,0.0017047870204592171
0.964,0.001675120990489442
0.968,0.0016802897072183737
0.972,0.0017354627532318533
0.976,0.001765585553517209
0.98,0.0017227693465673144
0.984,0.0017239713737135776
0.988,0.0017638786749695154
0.992,0.0017807070550171996
0.996,0.001773086202909891
1.0,0.0017533969982541002
1.004,0.001772701554223087
1.008,0.001821864464505251
1.012,0.001819220004783472
1.016,0.0017902511505585293
1.02,0.0018154456395442057
1.024,0.0018361926280887082
1.028,0.0018443423721403725
1.032,0.0018004443407588409
1.036,0.001824148316083151
1.04,0.0018699455503557781
1.044,0.0018774702402913855
1.048,0.001856074157087901
1.052,0.0018481407779225641
1.056,0.0018846343220831144
1.06,0.0019135070141363558
1.064,0.0019085546622937515
1.068,0.0018832640111363743
1.072,0.0019325952052190152
1.076,0.001934037637794531
1.08,0.0019293497319241043
1.084,0.0019152619737699001
1.088,0.0019388217058366583
1.092,0.0019733198849344116
1.096,0.0019602177890401433
1.1,0.0019414902061013625
1.104,0.0019625497217038938
1.108,0.002016809227086213
1.112,0.0019995961983517246
1.116,0.0019542557343946772
1.12,0.0019953891033398035
1.124,0.0020452732299097256
1.1280000000000001,0.002044479891993192
1.1320000000000001,0.0020156312404828753
1.1360000000000001,0.0020039956177070476
1.1400000000000001,0.002045393432624352
1.1440000000000001,0.0020487591086338886
1.1480000000000001,0.00201834782183343
1.1520000000000001,0.002028444849862041
1.156,0.002098018181087754
1.16,0.002090565612780922
1.164,0.0020804685847523115
1.168,0.0020592167448063785
1.172,0.00211407726376183
1.176,0.002125568643280106
1.18,0.0020869354907992075
1.184,0.0020886664098898264
1.188,0.002144272185675961
1.192,0.002174370945418391
1.196,0.002144536631648139
1.2,0.002144007739703783
1.204,0.0021489600915463873
1.208,0.0021765345942816646
1.212,0.0021592013628325495
1.216,0.0021402814555503673
1.22,0.002182929378699785
1.224,0.002218797868744278
1.228,0.0022141820845026274
1.232,0.002175572972564654
1.236,0.0021614611738675245
1.24,0.002218869990373054
1.244,0.0022503150205192986
1.248,0.0021984836099724304
1.252,0.002194805406904865
1.256,0.002260243764747433
1.26,0.0022493774393452133
1.264,0.0022358185731353648
1.268,0.002241684465609129
1.272,0.002293131227469193
1.276,0.002323061703411146
1.28,0.0022971459981377122
1.284,0.00226548460310514
1.288,0.0023110414319485145
1.292,0.002315008121531183
1.296,0.0022883952405129164
1.3,0.0022874816998817563
1.304,0.0023325336773237005
1.308,0.0023631132479246357
1.312,0.0023454915299604175
1.316,0.0023190228921997017
1.32,0.0023450588001877625
1.324,0.002382826493123352
1.328,0.002352102679264865
1.332,0.002348664881626552
1.336,0.0023897982505716783
1.34,0.002389966534372155
1.344,0.002400640535430972
1.348,0.0023784030332251035
1.352,0.002394438075356254
1.356,0.0024418219854619484
1.36,0.002433479917066882
1.364,0.0023950150483864605
1.368,0.0024120117122346215
1.372,0.002477161583562086
1.3760000000000001,0.002478724218852228
1.3800000000000001,0.0024472791887059833
1.3840000000000001,0.002422012578091531
1.3880000000000001,0.0024855757735859282
1.3920000000000001,0.002499519288482581
1.3960000000000001,0.002446774337304553
1.4000000000000001,0.0024447789722417557
1.4040000000000001,0.002494879463698005
1.408,0.002503389815893549
1.412,0.002488677003623287
1.416,0.0024647807039555754
1.42,0.0025031974915501465
1.424,0.002552865253233741
1.428,0.002533969386494484
1.432,0.0025152658440986287
1.436,0.0025472638067321547
1.44,0.0025614958081439103
1.444,0.0025645970381812694
1.448,0.0025360368731860566
1.452,0.002547119563474603
1.456,0.002615779354069156
1.46,0.0026214769627424432
1.464,0.0025739488093791973
1.468,0.0025779635800477164
1.472,0.002621068273512714
1.476,0.0026208759491693117
1.48,0.0025791656071939796
1.484,0.002589190513593814
1.488,0.0026391227212495864
1.492,0.0026611919396549786
1.496,0.002619914327452301
1.5,0.0026067881910151075
1.504,0.0026634277101470283
1.508,0.002689920388450669
1.512,0.00266905319719154
1.516,0.002647152262586625
1.52,0.002674294035549248
1.524,0.00271148475545463
1.528,0.002707349782071485
1.532,0.0026654471157527503
1.536,0.0026954737538664045
1.54,0.002758315733073044
1.544,0.0027377851094148686
1.548,0.0026917955507988396
1.552,0.0027089604984474776
1.556,0.0027687012476167575
1.56,0.00276300363894347
1.564,0.002711196268939527
1.568,0.0027540124758894217
1.572,0.002804641859290027
1.576,0.0028137532250587013
1.58,0.002779158883789247
1.584,0.0027746633022622228
1.588,0.0028242829828599675
1.592,0.0028183449687574267
1.596,0.00279853556138701
1.6,0.0027926456283703196
1.604,0.0028446693632605906
1.608,0.0028302931185912833
1.612,0.0028068295486962254
1.616,0.0028013483049092658
1.62,0.0028385630653575736
1.624,0.0028652480680046158
1.6280000000000001,0.0028450540119473945
1.6320000000000001,0.0028168063740102098
1.6360000000000001,0.0028515930396230665
1.6400000000000001,0.0029136176403702467
1.6440000000000001,0.002890610840790769
1.6480000000000001,0.002880946542534813
1.6520000000000001,0.0028784944071564363
1.6560000000000001,0.0028986403821278078
1.6600000000000001,0.0029233300197120528
1.6640000000000001,0.0028781097584696324
1.668,0.002876186515035611
1.672,0.0029340521018567205
1.676,0.002934364628914749
1.68,0.0029026791933392517
1.684,0.0029146994648018834
1.688,0.0029615064018773717
1.692,0.002982493795851127
1.696,0.0029409757782191963
1.7,0.002921623141164359
1.704,0.002967348253808211
1.708,0.002987470188236656
1.712,0.002965569253631741
1.716,0.002959727401700902
1.72,0.002995307405230292
1.724,0.003043027882936941
1.728,0.0030256946514878253
1.732,0.002997278729750164
1.736,0.0030097798120713006
1.74,0.0030486052888956017
1.744,0.003033531868481461
1.748,0.0030219683673344097
1.752,0.0030226895836221674
1.756,0.0030725737101920895
1.76,0.0030728381561642673
1.764,0.0030286035571817824
1.768,0.003043532734338371
1.772,0.003088344306351062
1.776,0.0031009655913868256
1.78,0.003070289858614189
1.784,0.003092310995933731
1.788,0.003097431631576812
1.792,0.0031127214168772794
1.796,0.0031012300373590034
1.8,0.0031005809427000217
1.804,0.00313601670297186
1.808,0.0031537826641936297
1.812,0.003119308525638802
1.816,0.003117649728176959
1.82,0.0031480850555203423
1.824,0.003169048408951172
1.828,0.0031639998949368666
1.832,0.0031246214856252854
1.836,0.0031396708654965
1.84,0.0032020560743875595
1.844,0.0031860691133422593
1.848,0.003147508082490136
1.852,0.003166403949229393
1.856,0.0032354483885107506
1.86,0.003211431886128412
1.864,0.003173904598622075
1.868,0.003195180479110934
1.872,0.003256051133797701
1.8760000000000001,0.0032309528069837264
1.8800000000000001,0.003194819870967055
1.8840000000000001,0.0032110231968986826
1.8880000000000001,0.0032453771327388844
1.8920000000000001,0.0032464829977134463
1.8960000000000001,0.0032204230491824602
1.9000000000000001,0.003203955277278655
1.9040000000000001,0.0032685522161188378
1.9080000000000001,0.0032830967445886226
1.9120000000000001,0.003249752511551282
1.9160000000000001,0.003235135861452722
1.92,0.0032816302714701816
1.924,0.003287207677428843
1.928,0.0032684079728612864
1.932,0.0032676386754876777
1.936,0.0033028821114161142
1.94,0.0033340386550472566
1.944,0.003321465451097343
1.948,0.0032954776241951333
1.952,0.0033158880451386818
1.956,0.0033654115635647253
1.96,0.0033556751436799935
1.964,0.003332692384643442
1.968,0.0033029061519590395
1.972,0.0033651711581354727
1.976,0.0033579349547149685
1.98,0.0033335578441887515
1.984,0.0033472849941990766
1.988,0.003397433566741176
1.992,0.003405270783734812
1.996,0.0033775760782849087
2.0,0.0033622622524415156
2.004,0.003404862094505083
2.008,0.0034310903268365456
2.012,0.0033804369028930152
2.016,0.0033740661590178204
2.02,0.003421594312381066
2.024,0.003443206760470878
2.028,0.003413660933215729
2.032,0.0033857017817936477
2.036,0.003438807341115555
2.04,0.0034854940754764172
2.044,0.0034342877190456055
2.048,0.0034133724467006257
2.052,0.0034544817751028267
2.056,0.003495639184590878
2.06,0.003462631519154491
2.064,0.0034439760578444866
2.068,0.0034655885059342983
2.072,0.003508404712884193
2.076,0.0035040533746147203
2.08,0.0034610448433214235
2.084,0.0034771760476242763
2.088,0.003540594999861121
2.092,0.0035344165803293283
2.096,0.0035089095642856236
2.1,0.003505014996331731
2.104,0.003543311581211676
2.108,0.0035690349621417075
2.112,0.0035429269325248716
2.116,0.003524175309043166
2.12,0.0035681454620534727
2.124,0.0036129329935232386
2.128,0.003581319679576518
2.132,0.0035539855822704926
2.136,0.0035622795695797087
2.14,0.0035660779753619
2.144,0.003576776016963643
2.148,0.0035310268637768665
2.152,0.003578146327910383
2.156,0.0036182940345955723
2.16,0.003601922424863468
2.164,0.0035750450978730237
2.168,0.0035962969378189567
2.172,0.003648488956509704
2.176,0.0036334876577243398
2.18,0.0035968498703062377
2.184,0.0036107212635741147
2.188,0.0036663270393602495
2.192,0.003625938927245807
2.196,0.0035859835449040187
2.2,0.0036055044657593324
2.204,0.0036566387005613683
2.208,0.003673154553551025
2.212,0.003632742400893657
2.216,0.003634040590211621
2.22,0.0036799820677417996
2.224,0.003691136879659122
2.228,0.003667072296190933
2.232,0.0036749816348133446
2.236,0.0037029407862354258
2.24,0.00371109053028709
2.244,0.0036956565017290713
2.248,0.00367272182377837
2.2520000000000002,0.0036966902450748574
2.2560000000000002,0.0037419345468602035
2.2600000000000002,0.003746093560786274
2.2640000000000002,0.0037178459228490897
2.2680000000000002,0.0037281593157640278
2.2720000000000002,0.0037581619133347562
2.2760000000000002,0.003772393914746513
2.2800000000000002,0.0037413094927441467
2.2840000000000003,0.003734313694752895
2.2880000000000003,0.003779149307308512
2.2920000000000003,0.0037806638615128034
2.2960000000000003,0.0037479446825915193
2.3000000000000003,0.0037452281012409646
2.3040000000000003,0.003797780728075591
2.308,0.003807805634475426
2.312,0.0037795820370811668
2.316,0.003759964954054151
2.32,0.0038186960004205706
2.324,0.003854516409379213
2.328,0.003803069647519149
2.332,0.0037965787009293277
2.336,0.0038254513929825698
2.34,0.0038347310425517213
2.344,0.0038360292318696853
2.348,0.003821532784485752
2.352,0.003857160869100992
2.356,0.0038891347911915925
2.36,0.0038643489914356455
2.364,0.0038278073661892455
2.368,0.003863267167004009
2.372,0.003873268032860919
2.376,0.003874758546522285
2.38,0.0038583388557043297
2.384,0.003879927263251217
2.388,0.003918800821161368
2.392,0.003916180401982515
2.396,0.003881513939084284
2.4,0.003910146225708272
2.404,0.003939115079933215
2.408,0.003933465552345779
2.412,0.003912598361086649
2.416,0.003909689455392692
2.42,0.003944355918290923
2.424,0.003962073798426842
2.428,0.003946711891497599
2.432,0.003942048026170098
2.436,0.003996403693724119
2.44,0.004005851627093747
2.444,0.0039718823399403505
2.448,0.003951015148681221
2.452,0.003989888706591373
2.456,0.0040158765334935825
2.46,0.004000586748193115
2.464,0.003950678581080267
2.468,0.003988879003788511
2.472,0.004035902305750327
2.476,0.0040241224397169475
2.48,0.003981979367968961
2.484,0.004013520560286907
2.488,0.004051889266795627
2.492,0.004063260443599277
2.496,0.004026959223782129
2.5,0.004024723453290079
2.504,0.004078381945099268
2.508,0.00405491837520421
2.512,0.004033498251457801
2.516,0.00404400396871614
2.52,0.004101460866307521
2.524,0.004100451163504659
2.528,0.0040629959976271
2.532,0.004059918808132665
2.536,0.004089656959731216
2.54,0.004094152541258241
2.544,0.004074030606829795
2.548,0.00408222843196731
2.552,0.0040911234328496575
2.556,0.00410872111027095
2.56,0.004102999461054737
2.564,0.00406857340358576
2.568,0.0040985038795277135
2.572,0.004122376138652501
2.576,0.004117712273324999
2.58,0.004100787731105613
2.584,0.0041212462331350124
2.588,0.00416750023772322
2.592,0.004184809428629409
2.596,0.004114803367631042
2.6,0.0041368004644076585
2.604,0.004197863443437828
2.608,0.004195074740458497
2.612,0.004158677358469648
2.616,0.004158316750325769
2.62,0.004199882849043549
2.624,0.004215965972260552
2.628,0.0041866605504346545
2.632,0.004176587562948969
2.636,0.004221976107991868
2.64,0.004216398702033206
2.644,0.004192863010509373
2.648,0.00419581999728918
2.652,0.004226832297662771
2.656,0.004253709624653215
2.66,0.004220341351072949
2.664,0.004195459389145301
2.668,0.004229164230326521
2.672,0.004249550610727145
2.676,0.004235895582345595
2.68,0.004223803189254188
2.684,0.004245151191371821
2.688,0.004266619396204082
2.692,0.00428008210024223
2.696,0.0042510411243885105
2.7,0.004284770006112656
2.704,0.004304603454025998
2.708,0.004287005776604705
2.712,0.004283039087022037
2.716,0.004290900344558598
2.72,0.004312464711562559
2.724,0.00432845167260786
2.728,0.004312777238620588
2.732,0.004275490356543504
2.736,0.004325879334514856
2.74,0.004350761296442504
2.744,0.004323282955878928
2.748,0.0043068632650609725
2.7520000000000002,0.0043451598499409175
2.7560000000000002,0.004371700609330409
2.7600000000000002,0.0043558578915426594
2.7640000000000002,0.004339654565611032
2.7680000000000002,0.004374056582537085
2.7720000000000002,0.004390500313897965
2.7760000000000002,0.004358983162122945
2.7800000000000002,0.004314363914453655
2.7840000000000003,0.004351650796530738
2.7880000000000003,0.004397207625374114
2.7920000000000003,0.004384682502510051
2.7960000000000003,0.004365690473599093
2.8000000000000003,0.004373984460908309
2.8040000000000003,0.004401102193328006
2.8080000000000003,0.004397207625374114
2.8120000000000003,0.004371556366072857
2.816,0.004399515517494939
2.82,0.004438581399748492
2.824,0.004427979520318451
2.828,0.004393865989907502
2.832,0.004383648759164265
2.836,0.004443197183990143
2.84,0.004440961413498093
2.844,0.004403265842191279
2.848,0.004391149408556947
2.852,0.004441802832500477
2.856,0.004454928968937671
2.86,0.004433003993789831
2.864,0.004422065546758836
2.868,0.00442610435797028
2.872,0.004476517376484558
2.876,0.004453366333647529
2.88,0.004429614277237369
2.884,0.004451130563155479
2.888,0.004493778486304897
2.892,0.004490172404866107
2.896,0.004451563292928134
2.9,0.0044633912400473645
2.904,0.004518924894204723
2.908,0.004533998314618863
2.912,0.004465843375425741
2.916,0.004495124756708712
2.92,0.004545561815765915
2.924,0.004533541544303283
2.928,0.004501182973525878
2.932,0.004499452054435259
2.936,0.004547557180828712
2.94,0.0045450569643644845
2.944,0.004511905055670546
2.948,0.004514261028877222
2.952,0.004568496493716617
2.956,0.004552653775928867
2.96,0.004524935029936039
2.964,0.004512433947614902
2.968,0.0045498891134924625
2.972,0.004586574981996414
2.976,0.0045704197371506375
2.98,0.004549768910777836
2.984,0.004574194102389904
2.988,0.004620568309692738
2.992,0.004595013212563182
2.996,0.0045913590500385425
3.0,0.004609485619404191
3.004,0.004636170622051234
3.008,0.00462674672922453
3.012,0.004602874470099743
3.016,0.004633357878528977
3.02,0.004670212030833407
3.024,0.004651436366808775
3.028,0.004604268821589409
3.032,0.0046139571603882905
3.036,0.00467090920657824
3.04,0.004680597545377121
3.044,0.004649537163917679
3.048,0.004615976565994012
3.052,0.0046815110860082805
3.056,0.004702594642153737
3.06,0.004656076191593353
3.064,0.004641555703666493
3.068,0.004701897466408904
3.072,0.004713989859500312
3.076,0.004670933247121165
3.08,0.004638815081773012
3.084,0.004692473573582201
3.088,0.004745026200416827
3.092,0.004710095291546419
3.096,0.004721995360294425
3.1,0.004749786227916029
3.104,0.004781952474350032
3.108,0.004775413446674361
3.112,0.004734544523701412
3.116,0.00475038724148916
3.12,0.004810464558259395
3.124,0.004810248193373067
3.128,0.004784813298958138
3.132,0.004821403005290389
3.136,0.004832533776664786
3.14,0.00483291842535159
3.144,0.004796545083905667
3.148,0.0047857027990463735
3.152,0.004841404737004208
3.156,0.004842101912749041
3.16,0.004801761881720449
3.164,0.0047910157590328566
3.168,0.00484022675040087
3.172,0.004866070334045529
3.176,0.00484469829138497
3.18,0.0048019542060638515
3.184,0.00484652537264729
3.188,0.004880326376000211
3.192,0.004858978373882577
3.196,0.004851213278517717
3.2,0.0048747970511274
3.204,0.00489347655298033
3.208,0.0048804465787148366
3.212,0.004858088873794342
3.216,0.004891793714975561
3.22,0.004937110138389683
3.224,0.004912949392749793
3.228,0.004863497995952527
3.232,0.004881744768032801
3.236,0.004929777772797478
3.24,0.004934561840839606
3.244,0.004914872636183815
3.248,0.0048740998753825674
3.2520000000000002,0.004933455975865043
3.2560000000000002,0.004954227004952471
3.2600000000000002,0.004927373718504951
3.2640000000000002,0.004933792543465997
3.2680000000000002,0.004963674938322099
3.2720000000000002,0.0049549001401543785
3.2760000000000002,0.0049280949347927094
3.2800000000000002,0.004915690014643274
3.2840000000000003,0.004947952423248977
3.2880000000000003,0.004980310994026381
3.2920000000000003,0.004951678707402393
3.2960000000000003,0.004933311732607492
3.3000000000000003,0.004956366613272819
3.3040000000000003,0.0049900954949969635
3.3080000000000003,0.004989566603052608
3.3120000000000003,0.004977906939733855
3.3160000000000003,0.004956703180873773
3.3200000000000003,0.004988917508393626
3.3240000000000003,0.004993797738607454
3.3280000000000003,0.004964035546465978
3.332,0.00499528825226882
3.336,0.005040724878397569
3.34,0.00501483321366706
3.344,0.005010794402455616
3.348,0.0049964421983292335
3.352,0.005041542256857028
3.356,0.005068900394705978
3.36,0.004999158779679789
3.364,0.00498935023816628
3.368,0.005042407716402337
3.372,0.005063996123949225
3.376,0.005047937041275149
3.38,0.00505397121754939
3.384,0.005048658257562907
3.388,0.005074261435778312
3.392,0.005065486637610591
3.396,0.005063322988747318
3.4,0.005101258965483383
3.404,0.005106403641669389
3.408,0.0050639720834063
3.412,0.005066279975527125
3.416,0.005090392640081164
3.42,0.005109865479850627
3.424,0.0051152986425517365
3.428,0.005060293880338735
3.432,0.005078708936219486
3.436,0.0051340021849475915
3.44,0.005121212616111351
3.444,0.005080680260739358
3.448,0.0051017397763418884
3.452,0.00511883260236175
3.456,0.005129482562877642
3.46,0.005114553385721053
3.464,0.005128472860074781
3.468,0.005185304703550104
3.472,0.005168524404588271
3.476,0.005130708630566831
3.48,0.005121813629684483
3.484,0.005170519769651068
3.488,0.005197805785871242
3.492,0.005192180298826729
3.496,0.005134651279606574
3.5,0.005176505864839458
3.504,0.0051960267856947726
3.508,0.005175592324208298
3.512,0.005162730633743282
3.516,0.005183020851972205
3.52,0.005218672977130371
3.524,0.005209922219505575
3.528,0.005195497893750417
3.532,0.005211532935881567
3.536,0.005258940886530187
3.54,0.005223433004629573
3.544,0.005188742501188417
3.548,0.005224346545260733
3.552,0.005274038347487252
3.556,0.00527298056359854
3.56,0.0052464398042090495
3.564,0.005213167692800486
3.568,0.005266177089950691
3.572,0.005267331036011104
3.576,0.00522588514000795
3.58,0.005240333506306033
3.584,0.005271441968851324
3.588,0.005271994901338605
3.592,0.005264470211402997
3.596,0.005243819385030196
3.6,0.0052818034428521125
3.604,0.0053346926372876925
3.608,0.005286900037952268
3.612,0.005264013441087417
3.616,0.005294088160286922
3.62,0.005331086555848903
3.624,0.005307454702153369
3.628,0.005288270348899008
3.632,0.005285169118861649
3.636,0.005334740718373543
3.64,0.00531485918937435
3.644,0.005281490915794084
3.648,0.00530572378306275
3.652,0.005343707840884667
3.656,0.0053307259477050235
3.66,0.0053152678786040795
3.664,0.005324811974145409
3.668,0.005360680464189903
3.672,0.005377172276636633
3.676,0.0053294517989299845
3.68,0.0053258216769482706
3.684,0.005382893925852846
3.688,0.005403568792768572
3.692,0.005377556925323438
3.696,0.005349453530643805
3.7,0.005355487706918046
3.704,0.005393399643111186
3.708,0.005379239763328206
3.712,0.005367195451322649
3.716,0.005405708401088921
3.72,0.005400034832958559
3.724,0.00538738950737987
3.728,0.005367988789239183
3.732,0.005391644683477642
3.736,0.005441697093848041
3.74,0.005461746906647711
3.744,0.005385826872089728
3.748,0.005400924333046794
3.7520000000000002,0.005457059000777285
3.7560000000000002,0.005456097379060274
3.7600000000000002,0.005427657416779686
3.7640000000000002,0.005422681024394157
3.7680000000000002,0.005464150960940237
3.7720000000000002,0.0054873981659489665
3.7760000000000002,0.0054350619040006674
3.7800000000000002,0.00542748913297921
3.7840000000000003,0.0054995145995833
3.7880000000000003,0.005481171665331323
3.7920000000000003,0.005452491297621484
3.7960000000000003,0.005445279134743905
3.8000000000000003,0.005483142989851195
3.8040000000000003,0.005519011479895689
3.8080000000000003,0.005487350084863116
3.8120000000000003,0.0054689350289823645
3.8160000000000003,0.005499081869810646
3.8200000000000003,0.005532017413618256
3.8240000000000003,0.005512520533305868
3.8280000000000003,0.005492446679963273
3.8320000000000003,0.005496749937146895
3.8360000000000003,0.005533940657052277
3.84,0.005530863467557844
3.844,0.005500452180757386
3.848,0.005523579183051489
3.852,0.005570506322841603
3.856,0.005526776575260549
3.86,0.00549905782926772
3.864,0.005520694317900457
3.868,0.005568799444293909
3.872,0.005576949188345573
3.876,0.005548268820635734
3.88,0.005537811184463244
3.884,0.005586781770402006
3.888,0.0055926236223328455
3.892,0.00555925534875258
3.896,0.005572982498762905
3.9,0.00558077163467069
3.904,0.005617938314033148
3.908,0.005594258379251764
3.912,0.005584810445882134
3.916,0.005629525855723125
3.92,0.005636281248285124
3.924,0.00560260044764683
3.928,0.0055847623647962835
3.932,0.0056021436773312505
3.936,0.005624982193110251
3.94,0.005629766261152378
3.944,0.005582911242991038
3.948,0.005584834486425059
3.952,0.005633708910192121
3.956,0.005632795369560961
3.96,0.005589955122068142
3.964,0.005618347003262878
3.968,0.005633564666934569
3.972,0.005648061114318504
3.976,0.005626785233829645
3.98,0.005622530057731874
3.984,0.005684530617936129
3.988,0.005677510779401951
3.992,0.005625246639082428
3.996,0.005639382478322484
4.0,0.005681116860840741
4.0040000000000004,0.005689122361634854
4.008,0.005662918169846317
4.0120000000000005,0.005634430126479879
4.016,0.005670995792269205
4.0200000000000005,0.005698281808489379
4.024,0.005685299915309736
4.0280000000000005,0.005652148006615799
4.032,0.005678472401118962
4.0360000000000005,0.005681958279843125
4.04,0.005677246333429774
4.0440000000000005,0.005667461832459191
4.048,0.005693545821533102
4.0520000000000005,0.00574258852910064
4.056,0.0057262890409973104
4.0600000000000005,0.00567503460348065
4.064,0.005692656321444867
4.0680000000000005,0.005755498300651507
4.072,0.005749199678405087
4.0760000000000005,0.0057091721744345235
4.08,0.005691935105157109
4.0840000000000005,0.005749031394604611
4.088,0.00576268642298616
4.0920000000000005,0.005724437919192065
4.096,0.005727587230315275
4.1,0.005760066003807306
4.104,0.0057455695564233725
4.108,0.005725038932765197
4.112,0.005716552621112579
4.116,0.005765883815195221
4.12,0.005801271494381209
4.124,0.0057612680309535695
4.128,0.005727683392486976
4.132,0.005776533775711112
4.136,0.005814277428103776
4.14,0.005805166062335101
4.144,0.005786270195595845
4.148,0.0057688888830608786
4.152,0.00582237909106959
4.156,0.005809757806033827
4.16,0.00575994580109268
4.164,0.0057922803313271605
4.168,0.005837500592569581
4.172,0.0058117050900107735
4.176,0.00578086107343766
4.18,0.005793842966617302
4.184,0.005830985605436834
4.188,0.005840072930662583
4.192,0.005781414005924941
4.196,0.005790429209521915
4.2,0.005859209202831094
4.204,0.005865916514307241
4.208,0.005825360118392323
4.212,0.005826970834768315
4.216,0.005836058159994065
4.22,0.005865002973676082
4.224,0.005849208336974184
4.228,0.005837716957455908
4.232,0.005895534463191167
4.236,0.005911882032380346
4.24,0.005878225272284977
4.244,0.005850145918148269
4.248,0.005872359379811213
4.252,0.005905944018277806
4.256,0.00589541426047654
4.26,0.005828100740285802
4.264,0.005870772703978145
4.268,0.005912603248668104
4.272,0.0059234936146132485
4.276,0.005901015706978127
4.28,0.005907771099540126
4.284,0.005941836548865225
4.288,0.005942197157009104
4.292,0.005901280152950305
4.296,0.005905126639818347
4.3,0.005959915037145023
4.304,0.005937653494396229
4.308,0.0059142139650440965
4.312,0.005904814112760319
4.316,0.005941932711036926
4.32,0.0059721035924081315
4.324,0.005959314023571891
4.328,0.005909790505145849
4.332,0.005964939510616403
4.336,0.0059929467431243345
4.34,0.005962631618495578
4.344,0.005950755590290498
4.348,0.005963905767270617
4.352,0.0059829218367245
4.356,0.005991985121407324
4.36,0.005965492443103684
4.364,0.005993451594525766
4.368,0.006055139627671992
4.372,0.005992297648465352
4.376,0.005949481441515459
4.38,0.005971214092319897
4.384,0.006029031598055155
4.388,0.006021867516263426
4.392,0.005975373106245968
4.396,0.005963713442927215
4.4,0.00603809488273798
4.404,0.0060308827198604
4.408,0.005990061877973303
4.412,0.005990133999602079
4.416,0.0060027793251807675
4.42,0.006033431017410479
4.424,0.006030065341400942
4.428,0.00601119351520461
4.432,0.006055884884502675
4.436,0.006108846200567031
4.44,0.006052759613922391
4.444,0.006044177140098072
4.448,0.00606449139886992
4.452,0.006081247657288829
4.456,0.006057447519792817
4.46,0.0060283825033961725
4.464,0.006037109220478044
4.468,0.006100383929457338
4.472,0.0060820890762912135
4.476,0.0060492496946553025
4.48,0.006085046063071021
4.484,0.00609966271316958
4.488,0.006107812457221245
4.492,0.00608449313058374
4.496,0.00608180058977611
4.5,0.006139930622569396
4.5040000000000004,0.006149426637024875
4.508,0.006095239253271332
4.5120000000000005,0.0060965134020463715
4.516,0.0061268766077609785
4.5200000000000005,0.006141228811887361
4.524,0.006132934824578145
4.5280000000000005,0.006097090375076578
4.532,0.006135362919413597
4.5360000000000005,0.006151758569688626
4.54,0.00613473786529754
4.5440000000000005,0.006117212309505023
4.548,0.0061785637750502945
4.5520000000000005,0.006156230110672725
4.556,0.0061496189613682774
4.5600000000000005,0.00612519376975621
4.564,0.006142382757947773
4.5680000000000005,0.006184237343180658
4.572,0.006164740462868268
4.5760000000000005,0.006118702823166389
4.58,0.006150436339827737
4.5840000000000005,0.006194093965780015
4.588,0.006188107870591625
4.5920000000000005,0.006176159720757768
4.596,0.006161807516631386
4.6000000000000005,0.006204719885752982
4.604,0.006214023575865059
4.6080000000000005,0.006170798679685435
4.612,0.006172553639318979
4.616,0.006255036742095559
4.62,0.0062221011982879475
4.624,0.006194310330666343
4.628,0.006179333072423904
4.632,0.006232053983059007
4.636,0.006255108863724335
4.64,0.006215922778756155
4.644,0.006186785640730736
4.648,0.006226885266330075
4.652,0.006249723782109076
4.656,0.006224409090408773
4.66,0.006220009671053449
4.664,0.0062173411707887455
4.668,0.006256984026072505
4.672,0.0062403479703682235
4.676,0.006226885266330075
4.68,0.006251502782285545
4.684,0.006308863517705224
4.688,0.006259075553307003
4.692,0.00624645426827124
4.696,0.006262321026601914
4.7,0.006288981988706031
4.704,0.006292443826887269
4.708,0.0062393863486512125
4.712,0.00624457910592307
4.716,0.006311964747742582
4.72,0.006314681329093137
4.724,0.006272394014087599
4.728,0.006278091622760887
4.732,0.006285784596496971
4.736,0.00632593230318216
4.74,0.0062942468676066635
4.744,0.006285856718125747
4.748,0.006338385304417446
4.752,0.006341029764139226
4.756,0.006313719707376127
4.76,0.006299463665421445
4.764,0.006308214423046242
4.768,0.006345621507837951
4.772,0.006368243658730626
4.776,0.00631492173452239
4.78,0.006337111155642408
4.784,0.006374398037719493
4.788,0.0063655511179229966
4.792,0.006333096384973889
4.796,0.006344804129378492
4.8,0.0063503815353371535
4.804,0.006360670887709168
4.808,0.006318215288903151
4.812,0.006307949977074063
4.816,0.0064020927431693965
4.82,0.00639649129666781
4.824,0.0063328559795446365
4.828,0.006339395007220308
4.832,0.006389928228449213
4.836,0.006395217147892771
4.84,0.006401756175568442
4.844,0.006363363428516797
4.848,0.00640654024361057
4.852,0.0064338743409165945
4.856,0.006391899552969085
4.86,0.0063599977525072605
4.864,0.006390601363651121
4.868,0.006404905486691652
4.872,0.006415315041778291
4.876,0.0063955296749508
4.88,0.006409905919620107
4.884,0.006461545005823573
4.888,0.006418776879959529
4.892,0.006376056835181336
4.896,0.006395457553322024
4.9,0.006438610327872871
4.904,0.006458107208185261
4.908,0.0064491881667599876
4.912,0.006410026122334734
4.916,0.006456712856695595
4.92,0.006475632763977778
4.924,0.006443370355372073
4.928,0.0064314222055382175
4.932,0.0064690937363021065
4.936,0.006460727627364115
4.94,0.006454645370004023
4.944,0.006455414667377631
4.948,0.0064699591958474155
4.952,0.006523954255257557
4.956,0.006466906046895907
4.96,0.006440317206420565
4.964,0.0064901051708187866
4.968,0.00651642956532195
4.972,0.006516525727493651
4.976,0.006482388156539777
4.98,0.00648587403526394
4.984,0.00652967590447377
4.988,0.006513616821799694
4.992,0.006475945291035806
4.996,0.0064987357257289555
5.0,0.006514362078630377
5.0040000000000004,0.006499432901473788
5.008,0.006479214804873642
5.0120000000000005,0.006494119941487305
5.016,0.006547249541352137
5.0200000000000005,0.006559894866930827
5.024,0.006495971063292551
5.0280000000000005,0.006497341374239291
5.032,0.006536214932149441
5.0360000000000005,0.006567852286639089
5.04,0.006535181188803655
5.0440000000000005,0.006509313564616072
5.048,0.006541215365077896
5.0520000000000005,0.006574078787256732
5.056,0.006566506016235274
5.0600000000000005,0.00655246633916692
5.064,0.006599898330358464
5.0680000000000005,0.006589608977986452
5.072,0.006561818110364848
5.0760000000000005,0.0065477303522106425
5.08,0.00656753975958106
5.0840000000000005,0.006608168277124755
5.088,0.006599032870813155
5.0920000000000005,0.006527223769095393
5.096,0.006565760759404591
5.1000000000000005,0.006602110060307589
5.104,0.0066013407629339806
5.1080000000000005,0.006579680233758318
5.112,0.006585594207317933
5.1160000000000005,0.006637233293521398
5.12,0.0066374015773218754
5.124,0.006593695870283747
5.128,0.006587445329123178
5.132,0.0066566099711191625
5.136,0.006622520481251138
5.14,0.006591387978162921
5.144,0.006606245033690734
5.148,0.006643483834681967
5.152,0.006645960010603269
5.156,0.0066238427111120265
5.16,0.006584223896371193
5.164,0.006633458928282132
5.168,0.00667103429687432
5.172,0.006633891658054787
5.176,0.006636127428546836
5.18,0.006634324387827442
5.184,0.00666641851263267
5.188,0.006670505404929965
5.192,0.006644132929340949
5.196,0.006677260797491964
5.2,0.006716302639202591
5.204,0.006672500769992762
5.208,0.006651513376019007
5.212,0.006666130026117567
5.216,0.006696108583145371
5.22,0.006679232122011836
5.224,0.0066555041061446005
5.228,0.006649926700185939
5.232,0.006700387799786067
5.236,0.0067186826529521924
5.24,0.006681251527617557
5.244,0.006690483096100859
5.248,0.006718802855666819
5.252,0.006728851802609579
5.256,0.006703537110909276
5.26,0.006675313513515017
5.264,0.006725365923885416
5.268,0.006744406033882224
5.272,0.006687526109321051
5.276,0.00668646832543234
5.28,0.006723827329138198
5.284,0.006742242385018951
5.288,0.0067521470887041595
5.292,0.006705676719229625
5.296,0.006692117853019776
5.3,0.006760441076013376
5.304,0.006764768373739923
5.308,0.006708513503294806
5.312,0.006731472221788433
5.316,0.006751161426444224
5.32,0.006747194736861556
5.324,0.0067279623025213444
5.328,0.006733780113909258
5.332,0.0067711871987009686
5.336,0.006765729995456934
5.34,0.006724764910312284
5.344,0.006729573018897337
5.348,0.006753853967251854
5.352,0.006771499725758997
5.356,0.0067534212374791985
5.36,0.006717288301462527
5.364,0.006761474819359162
5.368,0.006791597619644517
5.372,0.006756618629688259
5.376,0.006753853967251854
5.38,0.006795852795742289
5.384,0.006785395159569799
5.388,0.006771211239243894
5.392,0.006751546075131028
5.396,0.006781308267272504
5.4,0.00682436487965165
5.404,0.006790034984354374
5.408,0.0067338281949951085
5.412,0.006792943890048332
5.416,0.006847732287375008
5.42,0.006814556338138144
5.424,0.00678366424047918
5.428,0.0067685667795221146
5.432,0.0068171527167740715
5.436,0.006824196595851174
5.44,0.006789433970781243
5.444,0.006792487119732751
5.448,0.006846169652084865
5.452,0.006814484216509368
5.456,0.0067795052265531095
5.46,0.006771619928473623
5.464,0.006819869298124627
5.468,0.006847299557602353
5.472,0.006804867999339262
5.476,0.006791693781816218
5.48,0.006846313895342417
5.484,0.006841457705671513
5.488,0.006806094067028451
5.492,0.00680965206738139
5.496,0.006810084797154044
5.5,0.006843573273448936
5.5040000000000004,0.006830976028956098
5.508,0.006804411229023683
5.5120000000000005,0.006815109270625425
5.516,0.006835687975369449
5.5200000000000005,0.006792535200818602
5.524,0.006767028184774898
5.5280000000000005,0.0067878232544052505
5.532,0.006840375881239876
5.5360000000000005,0.006843741557249414
5.54,0.006775322172084114
5.5440000000000005,0.0067741922665666265
5.548,0.006837370813374218
5.5520000000000005,0.006861483477928258
5.556,0.00683893344866436
5.5600000000000005,0.0068391978946365384
5.564,0.006837491016088844
5.5680000000000005,0.006846313895342417
5.572,0.006822345474045929
5.5760000000000005,0.006814820784110321
5.58,0.006882134304301059
5.5840000000000005,0.006892135170157969
5.588,0.006843332868019684
5.5920000000000005,0.0068197731359529255
5.596,0.0068311923938424255
5.6000000000000005,0.006868190789404407
5.604,0.006868094627232706
5.6080000000000005,0.006813378351534806
5.612,0.006812512891989496
5.6160000000000005,0.006828499853034796
5.62,0.006792318835932275
5.6240000000000006,0.006776043388371872
5.628,0.00680284859373354
5.632,0.006819003838579317
5.636,0.0068521317067303305
5.64,0.006831096231670724
5.644,0.0068402316379823245
5.648,0.006915238131909147
5.652,0.006886437561484681
5.656,0.00685117008501332
5.66,0.0068536462609346226
5.664,0.006899371373578473
5.668,0.006914564996707239
5.672,0.006887952115688973
5.676,0.006862372978016493
5.68,0.006894443062278794
5.684,0.006898049143717584
5.688,0.006877831047117438
5.692,0.0068633105591905785
5.696,0.006889851318580069
5.7,0.00690908375292028
5.704,0.006886197156055429
5.708,0.006845256111453706
5.712,0.006866676235200115
5.716,0.0069291095251770235
5.72,0.00687492214142348
5.724,0.006851146044470395
5.728,0.006861531559014109
5.732,0.006893818008162737
5.736,0.006894899832594374
5.74,0.006849847855152431
5.744,0.006827778636747038
5.748,0.006889923440208844
5.752,0.006879153276978326
5.756,0.0068446070167947235
5.76,0.00686573865402603
5.764,0.006888408886004553
5.768,0.006869440897636521
5.772,0.006849511287551477
5.776,0.006852203828359106
5.78,0.006895092156937776
5.784,0.00692055109189563
5.788,0.006859247707436208
5.792,0.006855088693510138
5.796,0.006911079117983076
5.8,0.006931201052411522
5.804,0.006890885061925855
5.808,0.006865882897283581
5.812,0.006861267113041931
5.816,0.006903289982075291
5.82,0.006888408886004553
5.824,0.0068510979633845445
5.828,0.006887687669716795
5.832,0.006909564563778785
5.836,0.006895380643452879
5.84,0.006865642491854329
5.844,0.00687218151953
5.848,0.006926681430341572
5.852,0.006907593239258913
5.856,0.006845616719597584
5.86,0.006851362409356723
5.864,0.006890524453781976
5.868,0.006906607576998978
5.872,0.0068891541428352365
5.876,0.006879105195892476
5.88,0.006908867388033952
5.884,0.006935239863622966
5.888,0.0069057180769107425
5.892,0.006886437561484681
5.896,0.006952428851814531
5.9,0.006950625811095137
5.904,0.0069336291472469735
5.908,0.0069224262542438
5.912,0.006953558757332019
5.916,0.0069770223272270756
5.92,0.006951659554440923
5.924,0.006881605412356703
5.928,0.006918459564661132
5.932,0.006968079245258878
5.936,0.006957044636056182
5.94,0.0069350475392795635
5.944,0.006933268539103094
5.948,0.00697106027258161
5.952,0.00696146809595443
5.956,0.00693516774199419
5.96,0.0069546646223065806
5.964,0.007006063303080794
5.968,0.006973680691760464
5.972,0.006945240729479878
5.976,0.00696644448833996
5.98,0.007005846938194466
5.984,0.007021160764037859
5.988,0.006992504436870945
5.992,0.00695685231171278
5.996,0.006998514572602261
6.0,0.007025944832079987
6.0040000000000004,0.006995269099307351
6.008,0.007002361059470303
6.0120000000000005,0.007005414208421812
6.016,0.007036690954767579
6.0200000000000005,0.00702080015589398
6.024,0.007006640276111
6.0280000000000005,0.007032700224641985
6.032,0.007074338444988542
6.0360000000000005,0.007040369157835145
6.04,0.007011760911754081
6.0440000000000005,0.007038253590057721
6.048,0.007107850961826359
6.0520000000000005,0.007109125110601398
6.056,0.007067943660570422
6.0600000000000005,0.007050321942606204
6.064,0.0070899167168041125
6.0680000000000005,0.007102898609983755
6.072,0.00707592512082161
6.0760000000000005,0.007096383622851009
6.08,0.007105975799478189
6.0840000000000005,0.007120977098263553
6.088,0.007083521932385993
6.0920000000000005,0.007042725131041821
6.096,0.007085373054191238
6.1000000000000005,0.007124559139159417
6.104,0.007070227512148322
6.1080000000000005,0.007056500362137997
6.112,0.007094796947017941
6.1160000000000005,0.0071253524770759505
6.12,0.007136170721392319
6.1240000000000006,0.0070847720406181066
6.128,0.007099316569087891
6.132000000000001,0.007149128574029037
6.136,0.007132204031809651
6.140000000000001,0.007081983337638776
6.144,0.007103403461385186
6.148,0.007121674274008385
6.152,0.007100614758405855
6.156,0.007087729027397914
6.16,0.007103403461385186
6.164,0.007169274549000407
6.168,0.00715256637166735
6.172,0.007104076596587093
6.176,0.007105110339932879
6.18,0.0071526144527532
6.184,0.00717631842807751
6.188,0.007133309896784213
6.192,0.007089195500516355
6.196,0.00714114711377785
6.2,0.007158408223598189
6.204,0.007123621557985332
6.208,0.007115303530133191
6.212,0.007168697575970201
6.216,0.007160692075176089
6.22,0.007147277452223792
6.224,0.007122323368667367
6.228,0.007155499317904232
6.232,0.007214615012957454
6.236,0.007199229065485286
6.24,0.007161052683319968
6.244,0.007167086859594209
6.248,0.007216129567161746
6.252,0.0072229570813525205
6.256,0.00720230625497972
6.26,0.007177304090337446
6.264,0.007227548825051246
6.268,0.007225529419445524
6.272,0.007186054847962242
6.276,0.007198676132998005
6.28,0.007250675827345351
6.284,0.0072373814071076785
6.288,0.007213557229068743
6.292,0.007220504945974144
6.296,0.007267119558706231
6.3,0.0072653886396156124
6.304,0.007212595607351732
6.308,0.007217235432136308
6.312,0.007255940706245984
6.316,0.007282192979120371
6.32,0.0072692832075695055
6.324,0.007259378503884297
6.328,0.007246973583734861
6.332,0.007287794425621958
6.336,0.0072650039909288085
6.34,0.007240723042574292
6.344,0.00727981296537077
6.348,0.007296064372388248
6.352,0.007283611371152962
6.356,0.007258585165967763
6.36,0.00727611072176028
6.364,0.007311786887461371
6.368,0.00734133271471652
6.372,0.007263922166497171
6.376,0.007263826004325471
6.38,0.007324792821183938
6.384,0.007321090577573447
6.388,0.007272312315978088
6.392,0.007261518112204645
6.396,0.007289982115028157
6.4,0.007307147062676795
6.404,0.007282745911607652
6.408,0.007279933168085397
6.412,0.007329576889226065
6.416,0.007337005416989973
6.42,0.007313012955150559
6.424,0.007290823534030541
6.428,0.0073175566177634335
6.432,0.007334481159982819
6.436,0.007332317511119546
6.44,0.00728209681694867
6.444,0.007290943736745167
6.448,0.007321475226260252
6.452,0.007327821929592521
6.456,0.007310248292714153
6.46,0.007321427145174401
6.464,0.007324816861726863
6.468,0.007326716064617959
6.472,0.007280870749259482
6.476,0.007293203547780142
6.48,0.0073603728247133285
6.484,0.0073120032523476975
6.488,0.00727611072176028
6.492,0.007290871615116392
6.496,0.007327533443077418
6.5,0.007362392230319051
6.5040000000000004,0.007351934594146561
6.508,0.007310248292714153
6.5120000000000005,0.007356983108160867
6.516,0.007372777744862765
6.5200000000000005,0.007349338215510633
6.524,0.007342005849918428
6.5280000000000005,0.00735960352733972
6.532,0.007373186434092494
6.5360000000000005,0.0073445301069255805
6.54,0.0073201770369422875
6.5440000000000005,0.007362272027604424
6.548,0.0074026360991759415
6.5520000000000005,0.007365469419813485
6.556,0.007330129821713346
6.5600000000000005,0.007345732134071844
6.564,0.007392779476576583
6.5680000000000005,0.007388884908622691
6.572,0.007360877676114759
6.5760000000000005,0.007347583255877088
6.58,0.007390567746627459
6.5840000000000005,0.007384485489267368
6.588,0.007353256824007451
6.5920000000000005,0.0073667916496743735
6.596,0.007392683314404882
6.6000000000000005,0.0073909764358571885
6.604,0.007371142987943846
6.6080000000000005,0.007365974271214915
6.612,0.007421531965915198
6.6160000000000005,0.007436797710672741
6.62,0.007376215542501077
6.6240000000000006,0.007391024516943039
6.628,0.007421027114513768
6.632000000000001,0.007438095899990706
6.636,0.0074275180611035885
6.640000000000001,0.007401193666600425
6.644,0.007425811182555895
6.648000000000001,0.0074587707669064324
6.652,0.007451053752627422
6.656000000000001,0.007396169193129046
6.66,0.007442014508487524
6.664,0.007447471711731558
6.668,0.00743360031846368
6.672,0.007403116910034447
6.676,0.0074154016274692565
6.68,0.007474661565780031
6.684,0.007468218700276061
6.688,0.007400784977370696
6.692,0.007417132546559875
6.696,0.007466896470415171
6.7,0.007459131375050311
6.704,0.0074453801844970606
6.708,0.007432614656203745
6.712,0.007458434199305478
6.716,0.00746817061919021
6.72,0.007435499521354777
6.724,0.00743396092660756
6.728,0.0074744692414366294
6.732,0.007451943252715657
6.736,0.00742355137152092
6.74,0.007395207571412035
6.744,0.007435932251127432
6.748,0.007464925145895299
6.752,0.0074361726565566845
6.756,0.007387995408534456
6.76,0.0074433126978054875
6.764,0.007483484445033603
6.768,0.007475983795640921
6.772,0.007476536728128202
6.776,0.007459972794052696
6.78,0.007477041579529632
6.784,0.007491129337683837
6.788,0.007440692278626634
6.792,0.007434129210408036
6.796,0.007483845053177482
6.8,0.00746360291603441
6.804,0.007443649265406442
6.808,0.007441509657086093
6.812,0.0075011061629978205
6.816,0.007521180016340416
6.82,0.007485551931725175
6.824,0.007466632024442994
6.828,0.007520098191908779
6.832,0.007517429691644074
6.836,0.007490985094426285
6.84,0.007508678934019279
6.844,0.007533080085088423
6.848,0.007554572330463609
6.852,0.007545340761980307
6.856,0.007528728746818948
6.86,0.0075624095474572444
6.864,0.007602485132513658
6.868,0.0075666887640979405
6.872,0.007545869653924663
6.876,0.007564741480120995
6.88,0.007594070942489816
6.884,0.007592556388285524
6.888,0.00753375322029033
6.892,0.007537022734128166
6.896,0.007622679188570879
6.9,0.007616741174468339
6.904,0.0075695495887060475
6.908,0.007565558858580453
6.912,0.007586089482238628
6.916,0.007612461957827642
6.92,0.007557288911814163
6.924,0.007555942641410348
6.928,0.007618520174644808
6.932,0.007628088310729063
6.936,0.0075876280769858456
6.94,0.0075653424936941265
6.944,0.007596186510267239
6.948,0.0076151304580923465
6.952,0.007588613739245781
6.956,0.007529137436048678
6.96,0.007567001291155969
6.964,0.007626982445754501
6.968,0.007623256161601085
6.972,0.007618784620616987
6.976,0.007634771581662287
6.98,0.007647224582897574
6.984,0.007650446015649559
6.988,0.007621044431651961
6.992,0.007640541311964351
6.996,0.007722375320081947
7.0,0.007672563315140802
7.0040000000000004,0.0076060912139524475
7.008,0.007636093811523177
7.0120000000000005,0.007681530437651925
7.016,0.007677563748069256
7.0200000000000005,0.007665783882035877
7.024,0.007631886716511256
7.0280000000000005,0.00770033014221948
7.032,0.0077112205081646245
7.0360000000000005,0.00766556751714955
7.04,0.0076448686096908984
7.0440000000000005,0.007691266857536656
7.048,0.007676121315493741
7.0520000000000005,0.007657129286582782
7.056,0.007652681786141609
7.0600000000000005,0.007679895680733006
7.064,0.0077170864006383885
7.0680000000000005,0.007658691921872925
7.072,0.007623736972459591
7.0760000000000005,0.0076614325437664044
7.08,0.007703575615514391
7.0840000000000005,0.007688838762701204
7.088,0.007670039058133649
7.0920000000000005,0.007654605029575629
7.096,0.007691314938622506
7.1000000000000005,0.007699608925931723
7.104,0.007663307706114575
7.1080000000000005,0.007677106977753676
7.112,0.007726438171836316
7.1160000000000005,0.0077085279673569955
7.12,0.007671457450166239
7.1240000000000006,0.007667033990267991
7.128,0.0077249957392608
7.132000000000001,0.007751007606705936
7.136,0.007687660776097866
7.140000000000001,0.007678525369786267
7.144,0.007719490454930915
7.148000000000001,0.007738410362213098
7.152,0.007715547805891172
7.156000000000001,0.007705378656233786
7.16,0.007721197333478609
7.164000000000001,0.007766056986577151
7.168,0.00775545510714711
7.172,0.0077186009548426806
7.176,0.007753027012311659
7.18,0.007760744026590668
7.184,0.007743458876227404
7.188,0.007716124778921378
7.192,0.00773951622718766
7.196,0.007783991231599397
7.2,0.007805435395888733
7.204,0.007741030781391952
7.208,0.007741487551707532
7.212,0.007791515921535005
7.216,0.007787188623808458
7.22,0.007765480013546945
7.224,0.007763652932284625
7.228,0.007792525624337866
7.232,0.007807430760951529
7.236,0.0077713218654777835
7.24,0.007752425998738527
7.244,0.007795987462519104
7.248,0.007811685937049301
7.252,0.007788078123896693
7.256,0.007785722150690016
7.26,0.007823537924711455
7.264,0.00785154515721939
7.268,0.007836231331375997
7.272,0.007765600216261571
7.276,0.0077997858683012955
7.28,0.007838250736981718
7.284,0.007806012368918939
7.288,0.00777829362292611
7.292,0.00779428058397141
7.296,0.007831711709306048
7.3,0.007834668696085855
7.304,0.007793655529855353
7.308,0.007822624384080296
7.312,0.007868301415638298
7.316,0.007834211925770275
7.32,0.007799425260157417
7.324,0.007795819178718627
7.328,0.007856257103632741
7.332,0.007863349063795693
7.336,0.007821710843449136
7.34,0.007804497814714647
7.344,0.00785077585984578
7.348,0.007850631616588229
7.352,0.007832601209394281
7.356,0.007831783830934823
7.36,0.007837409317979334
7.364,0.007853829008797289
7.368,0.007838202655895868
7.372,0.007811709977592226
7.376,0.007837673763951513
7.38,0.007882749781936382
7.384,0.007838370939696346
7.388,0.007819739518929263
7.392,0.007832144439078701
7.396,0.00786712342903496
7.4,0.007866834942519857
7.404,0.007826326627690786
7.408,0.007815965153689998
7.412,0.007888399309523819
7.416,0.007887605971607285
7.42,0.007840366304759141
7.424,0.007860103590500784
7.428,0.007880514011444332
7.432,0.0078913322557607
7.436,0.007857723576751182
7.44,0.00784515037280127
7.444,0.007911454190189146
7.448,0.007925878515944304
7.452,0.0078546944683426
7.456,0.00785291546816613
7.46,0.007895250864257517
7.464,0.007907223054634299
7.468,0.0079004676620723
7.472,0.007848612210982507
7.476,0.007868469699438775
7.48,0.007902583229849724
7.484,0.007892221755848935
7.488,0.007871330524046882
7.492,0.007902607270392648
7.496,0.00790178989193319
7.5,0.00789092356653097
7.5040000000000004,0.007864647253113657
7.508,0.007876234794803635
7.5120000000000005,0.007916118055516647
7.516,0.007906213351831438
7.5200000000000005,0.007848684332611284
7.524,0.00786625796948965
7.5280000000000005,0.007913954406653373
7.532,0.00791174267670425
7.5360000000000005,0.007894096918197105
7.54,0.00787041698341572
7.5440000000000005,0.007910805095530164
7.548,0.007936119787230467
7.5520000000000005,0.007889817701556409
7.556,0.007872364267392667
7.5600000000000005,0.007923234056222524
7.564,0.007918930799038902
7.5680000000000005,0.007899938770127945
7.572,0.007879985119499977
7.5760000000000005,0.00792006070455639
7.58,0.007947034193718536
7.5840000000000005,0.007926022759201855
7.588,0.007869623645499188
7.5920000000000005,0.007912680257878333
7.596,0.00795919870843872
7.6000000000000005,0.007943235787936345
7.604,0.007914002487739224
7.6080000000000005,0.00790955498729805
7.612,0.007969223614838554
7.6160000000000005,0.007977950331920424
7.62,0.007926311245716957
7.6240000000000006,0.007941336585045249
7.628,0.007978022453549201
7.632000000000001,0.007938884449666872
7.636,0.007934821597912502
7.640000000000001,0.007941528909388651
7.644,0.007976507899344908
7.648000000000001,0.007989345549267
7.652,0.007956289802744763
7.656000000000001,0.007942658814906137
7.66,0.007986749170631071
7.664000000000001,0.008000668644984799
7.668,0.007976315575001506
7.672000000000001,0.007967348452490383
7.676,0.007981796818788467
7.68,0.0080145640787956
7.684,0.007987302103118352
7.688,0.007962949033135061
7.692,0.008008049091662854
7.696,0.008032738729247101
7.7,0.007992014049531704
7.704,0.007976868507488789
7.708,0.00798898494112312
7.712,0.008033988837479215
7.716,0.008046033149484771
7.72,0.007973550912565101
7.724,0.007998673279922002
7.728,0.008038532500092089
7.732,0.008039662405609577
7.736,0.008015213173454582
7.74,0.008017905714262212
7.744,0.008031272256128659
7.748,0.008040191297553931
7.752,0.007997302968975262
7.756,0.00801177537581627
7.76,0.008066179124456141
7.764,0.008039758567781278
7.768,0.00799807226634887
7.772,0.008006823023973667
7.776,0.008054687744937866
7.78,0.008060938286098435
7.784,0.00804963923092356
7.788,0.007998913685351255
7.792,0.008051682677072208
7.796,0.008064832854052326
7.8,0.00804670628468668
7.804,0.00801579014648479
7.808,0.008073030679189842
7.812,0.008076011706512575
7.816,0.008068030246261387
7.82,0.008038556540635015
7.824,0.008047571744231988
7.828,0.008105485412138947
7.832,0.008079088896007008
7.836,0.008044999406138984
7.84,0.008045360014282864
7.844,0.00810014841160954
7.848,0.008117986494460085
7.852,0.008085339437167577
7.856,0.008046922649573006
7.86,0.008115798805053885
7.864,0.008141377942726367
7.868,0.008092792005474409
7.872,0.008101855290157233
7.876,0.008112553331758974
7.88,0.008097191424829732
7.884,0.008083728720791584
7.888,0.008072670071045963
7.892,0.00810841835837583
7.896,0.00815217214649981
7.9,0.00808918592403562
7.904,0.00807553089565407
7.908,0.0080920227081008
7.912,0.008129766360493465
7.916,0.008106350871684256
7.92,0.00808293538287505
7.924,0.008094162316421148
7.928,0.008129766360493465
7.932,0.008108490480004605
7.936,0.008075434733482368
7.94,0.008098754060119874
7.944,0.008135199523194575
7.948,0.008120078021694581
7.952,0.008105942182454527
7.956,0.008105100763452142
7.96,0.008160658458152429
7.964,0.008188305082516481
7.968,0.008108971290863111
7.972,0.008089378248379022
7.976,0.00813745933422955
7.98,0.008153638619618252
7.984,0.008139863388522076
7.988,0.008114476575192996
7.992,0.008147436159543534
7.996,0.00816943325632015
8.0,0.00812969423886469
8.004,0.008122914805759763
8.008000000000001,0.008165298282937005
8.012,0.00817212579712778
8.016,0.008148686267775648
8.02,0.008121448332641322
8.024000000000001,0.00815532145762302
8.028,0.008193449758702488
8.032,0.008189603271834446
8.036,0.008122890765216838
8.040000000000001,0.008146089889139719
8.044,0.008195805731909164
8.048,0.008197296245570529
8.052,0.008173928837847174
8.056000000000001,0.008168952445461645
8.06,0.008177727243629366
8.064,0.008192151569384524
8.068,0.008160826741952905
8.072000000000001,0.008138396915403634
8.076,0.008199147367375774
8.08,0.008194651785848751
8.084,0.008161788363669915
8.088000000000001,0.008161884525841616
8.092,0.008201238894610273
8.096,0.00822318791030104
8.1,0.008203474665102323
8.104000000000001,0.008160658458152429
8.108,0.008203474665102323
8.112,0.008224942869934583
8.116,0.008227178640426634
8.120000000000001,0.008211095517209631
8.124,0.00821328320661583
8.128,0.00824876704797352
8.132,0.008225856410565743
8.136000000000001,0.008185348095736674
8.14,0.008201527381125376
8.144,0.008263095211556977
8.148,0.008241266398580837
8.152000000000001,0.008209653084634115
8.156,0.008208378935859077
8.16,0.008253911724159525
8.164,0.00828860222760068
8.168000000000001,0.008231578059781957
8.172,0.008191117826038737
8.176,0.008260715197807375
8.18,0.008279226415859828
8.184000000000001,0.008225784288936968
8.188,0.008229366329832831
8.192,0.008246002385537115
8.196,0.008276942564281927
8.2,0.008260979643779554
8.204,0.008238910425374162
8.208,0.008273913455873345
8.212,0.00829759339065473
8.216,0.008246050466622966
8.22,0.008242636709527577
8.224,0.008271268996151566
8.228,0.008299300269202423
8.232,0.00828215936209671
8.236,0.008236698695425038
8.24,0.008251026859008494
8.244,0.008288241619456802
8.248,0.00828636645710863
8.252,0.008266893617339168
8.256,0.008286703024709585
8.26,0.008301103309921818
8.264,0.008310791648720698
8.268,0.008261628738438536
8.272,0.008258166900257297
8.276,0.008300742701777938
8.28,0.008297040458167449
8.284,0.008263215414271602
8.288,0.008242612668984652
8.292,0.008283577754129301
8.296,0.008308483756599873
8.3,0.00829485276876125
8.304,0.008252757778099112
8.308,0.008287736768055371
8.312,0.008311681148808934
8.316,0.008287207876111015
8.32,0.008266364725394812
8.324,0.008304276661587952
8.328,0.00829723278251085
8.332,0.008309805986460762
8.336,0.008283553713586375
8.34,0.00830139179643692
8.344,0.008339496056973464
8.348,0.008320744433491758
8.352,0.008266436847023589
8.356,0.008287905051855848
8.36,0.00831641713576521
8.364,0.008316296933050584
8.368,0.008300454215262836
8.372,0.008274634672161102
8.376,0.008315479554591125
8.38,0.008326418001622121
8.384,0.008281197740379699
8.388,0.00827768782111261
8.392,0.008329182664058526
8.396,0.0082995647151746
8.4,0.008291487092751713
8.404,0.008280308240291464
8.408,0.008298819458343917
8.412,0.00834190011126599
8.416,0.008293242052385257
8.42,0.008252853940270814
8.424,0.008294708525503697
8.428,0.00833824594874135
8.432,0.008319566446888419
8.436,0.0082970885392533
8.44,0.008293073768584779
8.444,0.008353655936756445
8.448,0.008332596421153913
8.452,0.008289371524974288
8.456,0.008314253486901936
8.46,0.008354954126074409
8.464,0.00834144334095041
8.468,0.008307185567281909
8.472,0.008302305337068081
8.476,0.008337957462226247
8.48,0.00835550705856169
8.484,0.00830098310720719
8.488,0.008292689119897976
8.492,0.00834692458473737
8.496,0.008359137180543404
8.5,0.008333606123956774
8.504,0.00832266767692578
8.508000000000001,0.00832271575801163
8.512,0.008352646233953582
8.516,0.008332163691381258
8.52,0.008314109243644384
8.524000000000001,0.008361877802436884
8.528,0.008368921681513986
8.532,0.008329326907316078
8.536,0.00829581439047826
8.540000000000001,0.008320528068605431
8.544,0.008358319802083946
8.548,0.00836687823536534
8.552,0.008298627134000515
8.556000000000001,0.008328557609942468
8.56,0.008375845357876463
8.564,0.008360170923889191
8.568,0.008337212205395563
8.572000000000001,0.008343102138412254
8.576,0.008350218139118131
8.58,0.008362478816010016
8.584,0.008328677812657096
8.588000000000001,0.00832098483892101
8.592,0.008385437534503642
8.596,0.008382240142294582
8.6,0.008339447975887614
8.604000000000001,0.008327499826053757
8.608,0.00835098743649174
8.612,0.008365363681161047
8.616,0.008341082732806532
8.620000000000001,0.008311753270437709
8.624,0.008355867666705569
8.628,0.008370027546488547
8.632,0.008348126611883633
8.636000000000001,0.00833677947562291
8.64,0.00835158845006487
8.644,0.008374979898331152
8.648,0.008359930518459938
8.652000000000001,0.0083290624613439
8.656,0.0083701717897461
8.66,0.008439504715542561
8.664,0.008385100966902688
8.668000000000001,0.00834134717877871
8.672,0.008360002640088713
8.676,0.008406400887934472
8.68,0.008399741657544174
8.684000000000001,0.008364930951388393
8.688,0.008322884041812107
8.692,0.008390822616118902
8.696,0.008397289522165797
8.700000000000001,0.008357478383081561
8.704,0.008358680410227824
8.708,0.008381831453064852
8.712,0.008392625656838296
8.716,0.0083747394929019
8.72,0.008356997572223055
8.724,0.008381326601663422
8.728,0.0084112811181483
8.732,0.008353968463814473
8.736,0.00834449648990192
8.74,0.008394596981358167
8.744,0.008421979159750044
8.748,0.008414406388728585
8.752,0.008378946587913822
8.756,0.008368777438256435
8.76,0.008417098929536213
8.764,0.00839666446804974
8.768,0.008348270855141185
8.772,0.008394572940815243
8.776,0.00841931065948534
8.78,0.008397289522165797
8.784,0.008354497355758828
8.788,0.008362118207866137
8.792,0.008422796538209503
8.796,0.008445995662132381
8.8,0.008379884169087906
8.804,0.008391976562179314
8.808,0.008424238970785019
8.812,0.008431523255291375
8.816,0.00841625751053383
8.82,0.008374042317157068
8.824,0.008402482279437653
8.828,0.008431715579634775
8.832,0.008385677939932895
8.836,0.008372263316980598
8.84,0.008430994363347018
8.844,0.008426643025077545
8.848,0.008427364241365302
8.852,0.008403131374096635
8.856,0.008410511820774692
8.86,0.008435465904331117
8.864,0.008420344402831126
8.868,0.008367359046223844
8.872,0.008392481413580745
8.876,0.008441259675176106
8.88,0.008439552796628412
8.884,0.008407650996166586
8.888,0.008378081128368511
8.892,0.008427748890052107
8.896,0.008448471838053685
8.9,0.0084202242001165
8.904,0.008397193359994096
8.908,0.00843717278287881
8.912,0.008407049982593454
8.916,0.008388178156397122
8.92,0.008380244777231784
8.924,0.00843794208025242
8.928,0.008463136569238095
8.932,0.008420512686631604
8.936,0.008374210600957544
8.94,0.008437605512651465
8.944,0.00844986618954335
8.948,0.008404958455358956
8.952,0.008401544698263569
8.956,0.008404092995813647
8.96,0.008445490810730951
8.964,0.00842611413313319
8.968,0.008402338036180103
8.972,0.008419863591972622
8.976,0.008463497177381974
8.98,0.008423181186896308
8.984,0.008416377713248456
8.988,0.008433614782525871
8.992,0.008479988989828704
8.996,0.00846462708289946
9.0,0.00840255440106643
9.004,0.00838849068345515
9.008000000000001,0.008462223028606934
9.012,0.008468665894110905
9.016,0.00843260507972301
9.02,0.008425368876302507
9.024000000000001,0.00843474468804336
9.028,0.008467127299363688
9.032,0.008443182918610126
9.036,0.008427195957564826
9.040000000000001,0.008468064880537774
9.044,0.00847727240847815
9.048,0.008418108632339074
9.052,0.008400679238718258
9.056000000000001,0.008437845918080718
9.06,0.00847924373299802
9.064,0.00848042171960136
9.068,0.008417531659308869
9.072000000000001,0.008427003633221424
9.076,0.008468185083252401
9.08,0.00845123650049009
9.084,0.008419695308172144
9.088000000000001,0.008416449834877231
9.092,0.008429119200998848
9.096,0.008446692837877214
9.1,0.008403227536268336
9.104000000000001,0.008399717617001248
9.108,0.008464266474755582
9.112,0.008452847216866082
9.116,0.008407723117795361
9.120000000000001,0.00840474209047263
9.124,0.008447918905566404
9.128,0.008453760757497243
9.132,0.008433759025783423
9.136000000000001,0.008376133844391564
9.14,0.008418156713424925
9.144,0.008442966553723799
9.148,0.008429527890228578
9.152000000000001,0.008423229267982158
9.156,0.008460035339200736
9.16,0.008462126866435235
9.164,0.008457751487622836
9.168000000000001,0.008410607982946393
9.172,0.008420031875773098
9.176,0.008477080084134747
9.18,0.00844154816169121
9.184000000000001,0.008393346873126054
9.188,0.008410511820774692
9.192,0.008468762056282607
9.196,0.008479772624942377
9.200000000000001,0.008454962784643506
9.204,0.008418829848626833
9.208,0.008459578568885157
9.212,0.008451765392434446
9.216000000000001,0.008426186254761965
9.22,0.008411377280320001
9.224,0.008461766258291354
9.228,0.008476743516533793
9.232,0.008443495445668156
9.236,0.00843109052551872
9.24,0.00847590209753141
9.244,0.008500591735115656
9.248,0.008446380310819186
9.252,0.008420200159573574
9.256,0.008469795799628393
9.26,0.008509775222513106
9.264,0.008480109192543332
9.268,0.008452462568179279
9.272,0.008454121365641122
9.276,0.00850275538397893
9.28,0.00850645762758942
9.284,0.008461405650147476
9.288,0.008466454164161781
9.292,0.008486864585105329
9.296,0.008486287612075124
9.3,0.00847138247546146
9.304,0.008470276610486898
9.308,0.00851030411445746
9.312,0.008518309615251575
9.316,0.008454554095413775
9.32,0.008462487474579113
9.324,0.008506938438447924
9.328,0.008499798397199122
9.332,0.00848676842293363
9.336,0.008467103258820764
9.34,0.008475325124501203
9.344,0.008492057342377186
9.348,0.008492538153235692
9.352,0.008476166543503588
9.356,0.00853376768435252
9.36,0.008522204183205468
9.364,0.008498019397022652
9.368,0.008477969584222983
9.372,0.008488859950168126
9.376,0.008546797658618013
9.38,0.00854949019942564
9.384,0.008456693703734124
9.388,0.008477608976079104
9.392,0.00852782967024998
9.396,0.008534344657382726
9.4,0.008500399410772254
9.404,0.008491816936947933
9.408,0.008513068776893867
9.412,0.008527901791878754
9.416,0.008508020262879562
9.42,0.00851422272295428
9.424,0.008564443417125155
9.428,0.008546677455903385
9.432,0.008521675291261112
9.436,0.008513140898522642
9.44,0.008560068038312758
9.444,0.008580189972741202
9.448,0.008553072240321506
9.452,0.008528238359479709
9.456,0.008578410972564733
9.46,0.00860507193466885
9.464,0.008555596497328658
9.468,0.008542614604149016
9.472,0.008556341754159341
9.476,0.008579276432110042
9.48,0.008574588526239617
9.484,0.008539417211939956
9.488,0.008551966375346944
9.492,0.008617116246674408
9.496,0.008562712498034536
9.5,0.008529849075855701
9.504,0.008534777387155381
9.508000000000001,0.008576391566959012
9.512,0.008576006918272207
9.516,0.008524656318583845
9.52,0.008517035466476535
9.524000000000001,0.008581440080973316
9.528,0.008573771147780157
9.532,0.008542590563606092
9.536,0.008552038496975719
9.540000000000001,0.008568001417478094
9.544,0.008572472958462193
9.548,0.00854513886115617
9.552,0.008542157833833436
9.556000000000001,0.00860192262354564
9.56,0.008617188368303184
9.564,0.00856405876843835
9.568,0.008541268333745201
9.572000000000001,0.008565020390155362
9.576,0.008615938260071069
9.58,0.008599013717851683
9.584,0.00853345515729449
9.588000000000001,0.008527949872964605
9.592,0.008592667014519415
9.596,0.008589301338509877
9.6,0.008543023293378745
9.604000000000001,0.008580021688940726
9.608,0.008593099744292069
9.612,0.00857857925636521
9.616,0.008548384334451079
9.620000000000001,0.008575069337098121
9.624,0.008614183300437525
9.628,0.008610625300084586
9.632,0.008550403740056802
9.636000000000001,0.008570934363714977
9.64,0.008603893948065513
9.644,0.008613774611207796
9.648,0.008593724798408127
9.652000000000001,0.008554562753982873
9.656,0.008598484825907329
9.66,0.008637093937845302
9.664,0.008629328842480442
9.668000000000001,0.008580935229571885
9.672,0.008614543908581403
9.676,0.008631540572429566
9.68,0.008617885544048017
9.684000000000001,0.008589685987196682
9.688,0.008614135219351674
9.692,0.008668298562562293
9.696,0.008619856868567888
9.700000000000001,0.008569011120280955
9.704,0.008590142757512262
9.708,0.008643945492579002
9.712,0.008645772573841321
9.716000000000001,0.008616515233101276
9.72,0.008591224581943899
9.724,0.008643152154662468
9.728,0.008639978802996334
9.732,0.00860593739421416
9.736,0.008608870340451042
9.74,0.008652095236630667
9.744,0.008617645138618764
9.748,0.008611586921801596
9.752,0.008597162596046438
9.756,0.008634305234865972
9.76,0.008668971697764202
9.764,0.008621323341686329
9.768,0.00859050336565614
9.772,0.008633415734777737
9.776,0.008648609357906503
9.78,0.008618823125222101
9.784,0.008608533772850088
9.788,0.008610769543342138
9.792,0.008648104506505072
9.796,0.008625338112354847
9.8,0.008586680919331024
9.804,0.008616587354730053
9.808,0.008650051790482019
9.812,0.008616515233101276
9.816,0.008606706691587768
9.82,0.008608173164706209
9.824,0.008653537669206183
9.828,0.008665557940668814
9.832,0.00859055144674199
9.836,0.008600624434227676
9.84,0.008651325939257057
9.844,0.008652143317716517
9.848,0.0086231985040345
9.852,0.00861379865175072
9.856,0.008643632965520974
9.86,0.008662456710631455
9.864,0.00862589104484213
9.868,0.008612115813745953
9.872,0.008665125210896159
9.876,0.00867120746825625
9.88,0.008638151721734013
9.884,0.008625506396155325
9.888,0.008659956494167228
9.892,0.00868582411835481
9.896,0.008673010508975645
9.9,0.008613582286864393
9.904,0.008643055992490767
9.908,0.008707027877214894
9.912,0.00868394895600664
9.916,0.0086552685882968
9.92,0.008661951859230025
9.924,0.008684598050665623
9.928,0.008679453374479616
9.932,0.008646517830672005
9.936,0.008653585750292032
9.94,0.008716980661985953
9.944,0.008696930849186282
9.948,0.008652936655633051
9.952,0.008657336074988373
9.956,0.008693829619148923
9.96,0.00870089753876895
9.964,0.00868750695635958
9.968,0.008641252951771372
9.972,0.008708302025989932
9.976,0.008722750392288018
9.98,0.00868435764523637
9.984,0.008665053089267382
9.988,0.00869796459253207
9.992,0.008696954889729207
9.996,0.008678660036563082
10.0,0.008644426303437508
10.004,0.0086826748072316
10.008000000000001,0.00872354373020455
10.012,0.008678203266247502
10.016,0.0086506047229693
10.02,0.008674933752409667
10.024000000000001,0.008725995865582927
10.028,0.008725226568209319
10.032,0.00870181107940011
10.036,0.008676255982270556
10.040000000000001,0.008732703177059075
10.044,0.008726212230469255
10.048,0.00867974186099472
10.052,0.008696618322128254
10.056000000000001,0.008737727650530457
10.06,0.008729241338877838
10.064,0.008699719552165613
10.068,0.008687434834730803
10.072000000000001,0.008729337501049539
10.076,0.008748257408331721
10.08,0.008680655401625879
10.084,0.008654643534180745
10.088000000000001,0.008694238308378652
10.092,0.008715490148324588
10.096,0.00871796632424589
10.1,0.008700777336054325
10.104000000000001,0.008688636861877066
10.108,0.008726067987211704
10.112,0.008706931715043192
10.116,0.0086780109419041
10.120000000000001,0.00871080224245416
10.124,0.008718038445874666
10.128,0.008706090296040808
10.132,0.008692555470373885
10.136000000000001,0.008707051917757818
10.14,0.008733280150089283
10.144,0.008736669866641745
10.148,0.008703181390346851
10.152000000000001,0.008702339971344467
10.156,0.008764316491005798
10.16,0.00874719962444301
10.164,0.00870815778273238
10.168000000000001,0.00871399963466322
10.172,0.008752825111487521
10.176,0.008760229598708502
10.18,0.008730924176882607
10.184000000000001,0.008712749526431106
10.188,0.008770591072709291
10.192,0.00879374211554632
10.196,0.008790905331481138
10.200000000000001,0.008770206424022486
10.204,0.008789006128590043
10.208,0.008827422916184614
10.212,0.008809079981932637
10.216000000000001,0.008742247272600406
10.22,0.008767513883214857
10.224,0.008816604671868246
10.228,0.008802420751542339
10.232000000000001,0.00877826000590245
10.236,0.008782082452227566
10.24,0.00880932038736189
10.244,0.008827302713469988
10.248,0.008787179047327722
10.252,0.008796266372553471
10.256,0.008865983947036736
10.26,0.008835476498064578
10.264,0.008810666657765705
10.268,0.008818143266615463
10.272,0.00884485230980543
10.276,0.008858266932757727
10.28,0.008824417848318956
10.284,0.008782683465800698
10.288,0.008842328052798278
10.292,0.008875431880406365
10.296,0.0088466313099819
10.3,0.008845934134237067
10.304,0.008851992351054234
10.308,0.008883701827172656
10.312,0.008868315879700488
10.316,0.008822350361627384
10.32,0.00882744695672754
10.324,0.008845429282835637
10.328,0.008785904898552684
10.332,0.00875491663872202
10.336,0.008773764424375425
10.34,0.008828072010843596
10.344,0.008814224658118645
10.348,0.00875354632777528
10.352,0.008752536624972418
10.356,0.00880881553596046
10.36,0.008791674628854747
10.364,0.008774750086635362
10.368,0.008793694034460469
10.372,0.008806363400582082
10.376,0.008828697064959654
10.38,0.008783020033401652
10.384,0.008772105626913582
10.388,0.008821869550768878
10.392,0.00885165578345328
10.396,0.008812036968712444
10.4,0.008809128063018487
10.404,0.008843626242116242
10.408,0.00885704086506854
10.412,0.008844010890803045
10.416,0.008812349495770474
10.42,0.008827302713469988
10.424,0.008854757013490639
10.428,0.00885992573021957
10.432,0.008819561658648053
10.436,0.008846511107267273
10.44,0.00885535802706377
10.444,0.008860045932934197
10.448,0.008813527482373813
10.452,0.008822109956198131
10.456,0.008884903854318919
10.46,0.008856439851495408
10.464,0.008800617710822944
10.468,0.008818215388244238
10.472,0.00886266635211305
10.476,0.008878797556415902
10.48,0.008864709798261698
10.484,0.008814849712234701
10.488,0.008847184242469181
10.492,0.008865166568577278
10.496,0.008820210753307035
10.5,0.00880927230627604
10.504,0.00886846012295804
10.508000000000001,0.008856247527152005
10.512,0.008836918930640094
10.516,0.008801795697426283
10.52,0.008813527482373813
10.524000000000001,0.008878965840216378
10.528,0.008852881851142467
10.532,0.008803502575973976
10.536,0.00884389068808842
10.540000000000001,0.00890053020722034
10.544,0.008882620002741018
10.548,0.008858290973300651
10.552,0.008826869983697333
10.556000000000001,0.008876585826466778
10.56,0.008888413773586007
10.564,0.00885992573021957
10.568,0.008863964541431015
10.572000000000001,0.008916733533151968
10.576,0.008895722098635287
10.58,0.008870503569106685
10.584,0.008881514137766456
10.588000000000001,0.008918151925184558
10.592,0.008924378425802203
10.596,0.008851920229425457
10.6,0.008831197281423881
10.604000000000001,0.008894423909317323
10.608,0.008927720061268813
10.612,0.008913896749086787
10.616,0.008901924558710006
10.620000000000001,0.008892236219911124
10.624,0.008942985806026356
10.628,0.008924234182544651
10.632,0.008895698058092361
10.636000000000001,0.008928152791041468
10.64,0.008943154089826832
10.644,0.008914930492432574
10.648,0.008900410004505713
10.652000000000001,0.008901155261336396
10.656,0.008929595223616985
10.66,0.008936446778350685
10.664,0.008872378731454857
10.668000000000001,0.008881610299938157
10.672,0.00893144634542223
10.676,0.008943298333084384
10.68,0.008909954100047043
10.684000000000001,0.00891017046493337
10.688,0.008931806953566108
10.692,0.00894656784692222
10.696,0.008909737735160716
10.700000000000001,0.008898462720528768
10.704,0.008962170159280716
10.708,0.008951207671706795
10.712,0.008918512533328437
10.716000000000001,0.008900217680162312
10.72,0.008925820858377717
10.724,0.008957025483094709
10.728,0.008949236347186924
10.732000000000001,0.008882620002741018
10.736,0.008929811588503311
10.74,0.008966689781350665
10.744,0.008934211007858635
10.748000000000001,0.008903992045401578
10.752,0.008924378425802203
10.756,0.008951832725822853
10.76,0.008946832292894398
10.764,0.00891062723524895
10.768,0.008919618398303
10.772,0.00899412004082839
10.776,0.008958203469698047
10.78,0.008889904287247374
10.784,0.008905242153633692
10.788,0.008960463280733022
10.792,0.008970103538446053
10.796,0.008954453145001706
10.8,0.008914545843745769
10.804,0.008965415632575626
10.808,0.008986547269806933
10.812,0.008958155388612197
10.816,0.008928441277556572
10.82,0.008955607091062119
10.824,0.00895620810463525
10.828,0.00897438275508675
10.832,0.008944885008917451
10.836,0.008964333808143989
10.84,0.009016189259233785
10.844,0.008991307297306135
10.848,0.008957698618296617
10.852,0.008969117876186117
10.856,0.009000635027961137
10.86,0.009005779704147144
10.864,0.008969526565415846
10.868,0.008946712090179772
10.872,0.00899731743303745
10.876,0.00898260462076719
10.88,0.008941302968021588
10.884,0.00894981332021713
10.888,0.008977916714896764
10.892,0.008987749296953196
10.896,0.008973733660427767
10.9,0.00895474163151681
10.904,0.009007751028667015
10.908,0.009017679772895151
10.912,0.008958011145354645
10.916,0.008939788413817295
10.92,0.008985922215690875
10.924,0.009006837488035855
10.928,0.008995322067974654
10.932,0.008958323672412673
10.936,0.00896392511891426
10.94,0.008996283689691664
10.944,0.008981835323393582
10.948,0.008950798982477066
10.952,0.008995105703088327
10.956,0.008999024311585144
10.96,0.00897128152504939
10.964,0.008953347280027144
10.968,0.008977435904038258
10.972,0.009026069922376067
10.976,0.009023737989712318
10.98,0.008954405063915856
10.984,0.008973685579341917
10.988,0.009025084260116133
10.992,0.009027921044181313
10.996,0.008997918446610582
11.0,0.00896154510516466
11.004,0.009002510190309308
11.008000000000001,0.00902169454356367
11.012,0.008988061824011224
11.016,0.008983205634340321
11.02,0.009026622854863348
11.024000000000001,0.009020155948816453
11.028,0.008999841690044603
11.032,0.008950438374333188
11.036,0.008975632863318863
11.040000000000001,0.009012030245307714
11.044,0.00897219506568055
11.048,0.00893139826433638
11.052,0.008959934388788667
11.056000000000001,0.00899630773023459
11.06,0.008989432134957964
11.064,0.008970464146589932
11.068,0.008955895577577222
11.072000000000001,0.008998976230499294
11.076,0.009004289190485777
11.08,0.008957410131781514
11.084,0.008966353213749712
11.088000000000001,0.00901758361072345
11.092,0.008992004473050968
11.096,0.008960006510417442
11.1,0.008963540470227457
11.104000000000001,0.009024411124914224
11.108,0.0090243870843713
11.112,0.00896940636270122
11.116,0.008953034752969116
11.120000000000001,0.008997052987065273
11.124,0.009029700044357783
11.128,0.009006573042063678
11.132,0.008996932784350646
11.136000000000001,0.009009025177442054
11.14,0.009037945950581147
11.144,0.00900325544713999
11.148,0.008979719755616159
11.152000000000001,0.00900818375843967
11.156,0.009021814746278296
11.16,0.00898808586455415
11.164,0.008983734526284677
11.168000000000001,0.00900284675791026
11.172,0.009041191423876058
11.176,0.009045470640516756
11.18,0.008997077027608198
11.184000000000001,0.008983830688456379
11.188,0.0090313348012767
11.192,0.009058500614782248
11.196,0.009016862394435691
11.200000000000001,0.0090245794087147
11.204,0.009033859058283853
11.208,0.009055255141487337
11.212,0.009009121339613756
11.216000000000001,0.008989480216043814
11.22,0.0090425617348228
11.224,0.009059943047357764
11.228,0.00899306225693968
11.232000000000001,0.008987989702382449
11.236,0.00902352162482599
11.24,0.00903631119366223
11.244,0.00902854609829737
11.248000000000001,0.008976450241778322
11.252,0.00900645283934905
11.256,0.009050134505844257
11.26,0.00902489193577273
11.264,0.008999312798100248
11.268,0.009035109166515967
11.272,0.009063477007167777
11.276,0.009056745655148704
11.28,0.00901397752928466
11.284,0.009038546964154279
11.288,0.009095811537402257
11.292,0.009069318859098617
11.296,0.00901854523244046
11.3,0.00903270511222344
11.304,0.009064582872142339
11.308,0.009059221831070005
11.312,0.009041768396906265
11.316,0.00902078100293251
11.32,0.009071049778189235
11.324,0.009088984023211481
11.328,0.009048812275983366
11.332,0.009039556666957141
11.336,0.009074655859628024
11.34,0.009074487575827548
11.344,0.009058909304011977
11.348,0.009028810544269548
11.352,0.00906179416916301
11.356,0.009114394877083485
11.36,0.009062875993594646
11.364,0.009020444435331556
11.368,0.009034147544798957
11.372,0.009079536089841854
11.376,0.00905499069551516
11.38,0.009029339436213904
11.384,0.009022319597679726
11.388,0.009076194454375242
11.392,0.009064438628884787
11.396,0.009032007936478608
11.4,0.009040253842701972
11.404,0.009077107995006401
11.408,0.009069318859098617
11.412,0.00905225007362168
11.416,0.00903270511222344
11.42,0.009091868888362513
11.424,0.009107711606150261
11.428,0.009048211262410235
11.432,0.009027488314408659
11.436,0.009075881927317214
11.44,0.009102879457022284
11.444,0.009071073818732161
11.448,0.00904321082948178
11.452,0.009063068317938048
11.456,0.009096917402376819
11.46,0.009061289317761578
11.464,0.009025973760204366
11.468,0.009073093224337882
11.472,0.009091388077504007
11.476,0.009071242102532637
11.48,0.009044148410655865
11.484,0.009052177951992904
11.488,0.009101316821732142
11.492,0.009106028768145494
11.496,0.009027344071151107
11.5,0.009035614017917398
11.504,0.009101941875848198
11.508000000000001,0.00911432275545471
11.512,0.009074006764969042
11.516,0.009051120168104191
11.52,0.009065015601914994
11.524000000000001,0.009088984023211481
11.528,0.009053812708911821
11.532,0.009045085991829951
11.536,0.009113385174280625
11.540000000000001,0.00910473057882753
11.544,0.009051456735705146
11.548,0.009058308290438846
11.552,0.009100980254131188
11.556000000000001,0.009129756784012729
11.56,0.009106894227690803
11.564,0.009059173749984155
11.568,0.009108264538637542
11.572000000000001,0.009153941570195544
11.576,0.009101869754219423
11.58,0.009087325225749638
11.584,0.009098311753866484
11.588000000000001,0.00912117431018841
11.592,0.009116630647575535
11.596,0.009096340429346612
11.6,0.009101725510961872
11.604000000000001,0.009142762717735297
11.608,0.009118794296438809
11.612,0.009091027469360129
11.616,0.009086916536519909
11.620000000000001,0.00912742485134898
11.624,0.009145575461257553
11.628,0.009100090754042953
11.632,0.009065039642457919
11.636000000000001,0.009136031365716222
11.64,0.009144277271939588
11.644,0.009099754186441999
11.648,0.0090882387663808
11.652000000000001,0.009104922903170932
11.656,0.009118073080151052
11.66,0.009100811970330712
11.664,0.009074703940713875
11.668000000000001,0.009117231661148667
11.672,0.009163004854878368
11.676,0.00910747120072101
11.68,0.009086628050004805
11.684000000000001,0.00910874534949605
11.688,0.009146705366775039
11.692,0.009160192111356113
11.696,0.009107543322349785
11.700000000000001,0.009100475402729758
11.704,0.009163966476595379
11.708,0.009156994719147053
11.712,0.009103288146252013
11.716000000000001,0.009159470895068354
11.72,0.009174808761454673
11.724,0.009163317381936396
11.728,0.009125405445743256
11.732000000000001,0.009108985754925301
11.736,0.009164759814511913
11.74,0.009175049166883924
11.744,0.009111774457904632
11.748000000000001,0.009110476268586668
11.752,0.00914269059610652
11.756,0.009172693193677249
11.76,0.009163702030623201
11.764000000000001,0.00911655852594676
11.768,0.009147330420891097
11.772,0.009198993547637487
11.776,0.009148820934552463
11.78,0.009117592269292546
11.784,0.00917735705900475
11.788,0.009176082910229711
11.792,0.00917096227458663
11.796,0.009141416447331482
11.8,0.009161442219588227
11.804,0.009224188036623164
11.808,0.009194930695883117
11.812,0.009126222824202716
11.816,0.009159230489639103
11.82,0.009183487397450693
11.824,0.009175097247969775
11.828,0.009155864813629564
11.832,0.009147090015461844
11.836,0.009204979642825878
11.84,0.009218177900891848
11.844,0.009176732004888694
11.848,0.009139757649869639
11.852,0.009214884346511087
11.856,0.009205244088798055
11.86,0.009177813829320331
11.864,0.00916680326066056
11.868,0.009191372695530178
11.872,0.009212888981448291
11.876,0.009191204411729702
11.88,0.009142402109591418
11.884,0.009177861910406182
11.888,0.009192959371363246
11.892,0.009189569654810784
11.896,0.009170192977213021
11.9,0.00915177792133227
11.904,0.009204018021108868
11.908,0.009187069438346556
11.912,0.009149253664325117
11.916,0.009174207747881542
11.92,0.009226616131458617
11.924,0.009204474791424447
11.928,0.009180530410670885
11.932,0.009180386167413334
11.936,0.00922421207716609
11.94,0.009237698821747162
11.944,0.00919197370910331
11.948,0.00917872736995149
11.952,0.009220317509212197
11.956,0.009213730400450674
11.96,0.009176323315658964
11.964,0.009202046696588995
11.968,0.009215437278998368
11.972,0.009231087672442715
11.976,0.009211085940728897
11.98,0.009177789788777405
11.984,0.009208393399921267
11.988,0.009237290132517433
11.992,0.009207503899833032
11.996,0.00918887247906595
12.0,0.009203825696765465
12.004,0.009254238715279743
12.008000000000001,0.009245584119826648
12.012,0.009185843370657368
12.016,0.009200075372069124
12.02,0.00923892488943635
12.024000000000001,0.00923796326771934
12.028,0.009207503899833032
12.032,0.009194017155251958
12.036,0.009214956468139864
12.040000000000001,0.00923531880799756
12.044,0.00919882526383701
12.048,0.009202599629076276
12.052,0.009260633499697864
12.056000000000001,0.00924938252560884
12.06,0.009199522439581843
12.064,0.00919014662784099
12.068,0.009253156890848107
12.072000000000001,0.009286981934743952
12.076,0.009259287229294049
12.08,0.009187742573548464
12.084,0.009237242051431583
12.088000000000001,0.0092639991757074
12.092,0.009228419172178011
12.096,0.009199065669266263
12.1,0.009214115049137479
12.104000000000001,0.009241016416670848
12.108,0.009243540673678002
12.112,0.009206734602459422
12.116,0.009212312008418084
12.120000000000001,0.009272028717044438
12.124,0.009262436540417258
12.128,0.009213033224705841
12.132,0.009236160226999945
12.136000000000001,0.009296598151914057
12.14,0.009293304597533296
12.144,0.009257820756175608
12.148,0.009212648576019038
12.152000000000001,0.00926988910872409
12.156,0.009274264487536488
12.16,0.009249262322894214
12.164,0.009250993241984832
12.168000000000001,0.009289097502521375
12.172,0.009261931689015828
12.176,0.00924568028199835
12.18,0.009222216712103293
12.184000000000001,0.00925628216142839
12.188,0.009299386854893388
12.192,0.009240800051784522
12.196,0.009218706792836205
12.200000000000001,0.009256306201971315
12.204,0.009291501556813901
12.208,0.009280346744896579
12.212,0.009256835093915672
12.216000000000001,0.00924385320073603
12.22,0.009276981068887042
12.224,0.00927765420408895
12.228,0.009247266957831417
12.232000000000001,0.009271908514329812
12.236,0.009302343841673196
12.24,0.009273903879392609
12.244,0.009252916485418854
12.248000000000001,0.00925065667438388
12.252,0.009305589314968108
12.256,0.009312657234588136
12.26,0.009250776877098505
12.264000000000001,0.009256546607400568
12.268,0.009293617124591324
12.272,0.00930592588256906
12.276,0.009261114310556368
12.280000000000001,0.009245127349511068
12.284,0.009279192798836166
12.288,0.009306166287998314
12.292,0.009283447974933938
12.296,0.009264023216250325
12.3,0.009307127909715324
12.304,0.009302223638958568
12.308,0.009278928352863989
12.312,0.00925399830985049
12.316,0.009275322271425199
12.32,0.00931345057250467
12.324,0.009315157451052363
12.328,0.009256426404685943
12.332,0.009275658839026153
12.336,0.009327009438714517
12.34,0.009324292857363962
12.344,0.009289962962066684
12.348,0.009268422635605648
12.352,0.009319628992036462
12.356,0.009318811613577003
12.36,0.009280298663810728
12.364,0.009279914015123925
12.368,0.009346626521741532
12.372,0.009320614654296398
12.376,0.009293785408391802
12.38,0.009294434503050784
12.384,0.009320133843437892
12.388,0.009335038980051556
12.392,0.009306550936685119
12.396,0.009250873039270207
12.4,0.00929409793544983
12.404,0.009339654764293206
12.408,0.009321335870584155
12.412,0.009297463611459366
12.416,0.009285755867054763
12.42,0.00933354846639019
12.424,0.009335375547652508
12.428,0.00929775209797447
12.432,0.00933044723635283
12.436,0.009393986391304301
12.44,0.009333043614988759
12.444,0.009286308799542044
12.448,0.009293232475904521
12.452,0.009348068954317048
12.456,0.009354607981992719
12.46,0.00930191111190054
12.464,0.009285202934567482
12.468,0.009356122536197012
12.472,0.009357156279542797
12.476,0.009303666071534085
12.48,0.009316191194398148
12.484,0.00934140972392675
12.488,0.00936008922577968
12.492,0.009341457805012601
12.496,0.009324893870937094
12.5,0.009349871995036443
12.504,0.009376725281483962
12.508000000000001,0.009341145277954573
12.512,0.00932491791148002
12.516,0.00934552065676697
12.52,0.009378985092518936
12.524000000000001,0.009378408119488731
12.528,0.009328764398348061
12.532,0.009322345573387016
12.536,0.009371532524212104
12.540000000000001,0.009347564102915618
12.544,0.00931313804544664
12.548,0.009339246075063477
12.552,0.00935064129241005
12.556000000000001,0.009380307322379825
12.56,0.009337971926288437
12.564,0.00933191370947127
12.568,0.009376196389539605
12.572000000000001,0.00936369530721847
12.576,0.009300685044211351
12.58,0.009310685910068263
12.584,0.009352684738558699
12.588000000000001,0.009377109930170767
12.592,0.00936744563191481
12.596,0.00932532660070975
12.6,0.009360065185236754
12.604000000000001,0.009380860254867106
12.608,0.009352901103445025
12.612,0.009328475911832959
12.616,0.009357252441714498
12.620000000000001,0.009369008267204952
12.624,0.00937831195731703
12.628,0.009316503721456178
12.632,0.009331697344584944
12.636000000000001,0.009397472270028464
12.64,0.009377350335600018
12.644,0.009317008572857608
12.648,0.009341265480669199
12.652000000000001,0.009399082986404456
12.656,0.009389106161090472
12.66,0.009373672132532453
12.664,0.009338188291174764
12.668000000000001,0.00938525967422243
12.672,0.00938946676923435
12.676,0.009355713846967281
12.68,0.009365786834452968
12.684000000000001,0.009412786095871858
12.688,0.009386894431141348
12.692,0.009353670400818635
12.696,0.009349295022006236
12.700000000000001,0.009394539323791582
12.704,0.009434326422332894
12.708,0.009373191321673947
12.712,0.009332995533902908
12.716000000000001,0.009381004498124658
12.72,0.009406559595254214
12.724,0.00939261608035756
12.728,0.009357781333658855
12.732000000000001,0.009346746724456158
12.736,0.009413651555417167
12.74,0.009406607676340065
12.744,0.009357973658002257
12.748000000000001,0.0093848509849927
12.752,0.009422282110327336
12.756,0.00940557393299428
12.76,0.009379538025006217
12.764000000000001,0.009376677200398111
12.768,0.00942079159666597
12.772,0.009443726274616671
12.776,0.009384370174134196
12.780000000000001,0.009374994362393342
12.784,0.009425191016021293
12.788,0.009427522948685044
12.792,0.009388529188060267
12.796000000000001,0.009375042443479193
12.8,0.009399203189119083
12.804,0.009441490504124623
12.808,0.00941430065007615
12.812,0.009381437227897313
12.816,0.009430479935464852
12.82,0.009445601436964842
12.824,0.009409949311806677
12.828,0.009385019268793178
12.832,0.009396847215912408
12.836,0.009443750315159597
12.84,0.009433605206045135
12.844,0.009373648091989527
12.848,0.009405285446479176
12.852,0.00944408688276055
12.856,0.009421392610239101
12.86,0.009403867054446584
12.864,0.009422811002271693
12.868,0.009445745680222394
12.872,0.00944723619388376
12.876,0.009402640986757395
12.88,0.009391750620812251
12.884,0.00946002576272
12.888,0.009438749882231142
12.892,0.009394371039991104
12.896,0.00939343345881702
12.9,0.009436538152282018
12.904,0.009443461828644494
12.908,0.009416776825997451
12.912,0.009387062714941824
12.916,0.009429566394833692
12.92,0.009461564357467216
12.924,0.009448991153517303
12.928,0.009420599272322569
12.932,0.009434350462875819
12.936,0.009451515410524457
12.94,0.00944007211209203
12.944,0.009389899499007006
12.948,0.009416127731338469
12.952,0.009477767683398844
12.956,0.009460145965434626
12.96,0.009425960313394903
12.964,0.00941485358256343
12.968,0.009456972613768492
12.972,0.009451779856496634
12.976,0.009427426786513343
12.98,0.009392471837100009
12.984,0.009458102519285978
12.988,0.009467069641797101
12.992,0.009426921935111913
12.996,0.00943641794956739
13.0,0.009463848209045117
13.004,0.009458895857202512
13.008000000000001,0.009443413747558643
13.012,0.009418579866716846
13.016,0.009452452991698543
13.02,0.009481373764837634
13.024000000000001,0.00944783720745689
13.028,0.00943983170666278
13.032,0.009466997520168326
13.036,0.009484859643561798
13.040000000000001,0.00946509831727723
13.044,0.009436658354996644
13.048,0.009433869652017313
13.052,0.009490989982007739
13.056000000000001,0.00948697521133922
13.06,0.009438028665943385
13.064,0.009460458492492654
13.068,0.009472959574813792
13.072000000000001,0.009473921196530802
13.076,0.009424926570049116
13.08,0.009433364800615882
13.084,0.009482022859496616
13.088000000000001,0.00949880315845845
13.092,0.00944358203135912
13.096,0.009452957843099973
13.1,0.009505173902333646
13.104000000000001,0.009510438781234278
13.108,0.009474906858790738
13.112,0.009455962910965631
13.116,0.009478825467287556
13.120000000000001,0.009527555647797066
13.124,0.009489018657487868
13.128,0.009463992452302668
13.132,0.009506448051108686
13.136000000000001,0.009503899753558608
13.14,0.009498634874657973
13.144,0.009458631411230335
13.148,0.009470194912377387
13.152000000000001,0.009513035159870207
13.156,0.009513299605842386
13.16,0.009460867181722385
13.164,0.009486662684281192
13.168000000000001,0.009534671648502944
13.172,0.009511712930009318
13.176,0.009481566089181036
13.18,0.009474978980419513
13.184000000000001,0.009518444282028391
13.188,0.009521882079666704
13.192,0.009479931332262118
13.196,0.009485051967905198
13.200000000000001,0.009548807487743
13.204,0.009515847903392462
13.208,0.009486951170796294
13.212,0.009490701495492635
13.216000000000001,0.009513708295072115
13.22,0.009536258324336012
13.224,0.009515030524933004
13.228,0.00947418564250298
13.232000000000001,0.009524334215045081
13.236,0.009544167662958424
13.24,0.009520511768719965
13.244,0.009492264130782777
13.248000000000001,0.009495798090592792
13.252,0.009543182000698487
13.256,0.009523877444729502
13.26,0.00949469222561823
13.264000000000001,0.009499884982890087
13.268,0.009551524069093554
13.272,0.009502240956096763
13.276,0.009482647913612672
13.280000000000001,0.009500101347776414
13.284,0.009530464553491023
13.288,0.009541330878893242
13.292,0.00948793683305623
13.296000000000001,0.009488153197942557
13.3,0.009548519001227896
13.304,0.009548615163399598
13.308,0.00949880315845845
13.312000000000001,0.009507049064681817
13.316,0.009509332916259716
13.32,0.009543638771014067
13.324,0.009516569119680221
13.328,0.009496807793395652
13.332,0.00954118663563569
13.336,0.009556500461479083
13.34,0.009527243120739038
13.344,0.0095055104699346
13.348,0.009523709160929024
13.352,0.009552942461126144
13.356,0.009538614297542687
13.36,0.00948185457569614
13.364,0.00949889932063015
13.368,0.009560154624003723
13.372,0.009562294232324072
13.376,0.00953322921592743
13.38,0.009551379825836002
13.384,0.009557414002110243
13.388,0.009552581852982266
13.392,0.009512265862496599
13.396,0.00950368338867228
13.4,0.009572295098180982
13.404,0.009565635867790684
13.408,0.009513660213986265
13.412,0.00952794029648387
13.416,0.009573881774014048
13.42,0.009564145354129317
13.424,0.00954976910946001
13.428,0.009516761444023624
13.432,0.009556861069622962
13.436,0.00957255954415316
13.44,0.009536835297366219
13.444,0.009525247755676241
13.448,0.009571766206236626
13.452,0.009560034421289098
13.456,0.009547557379510886
13.46,0.00951830003877084
13.464,0.009538133486684182
13.468,0.009593114208354259
13.472,0.00955652450202201
13.476,0.00952373320147195
13.48,0.009536234283793087
13.484,0.009576886841879706
13.488,0.009575901179619772
13.492,0.009550490325747767
13.496,0.009538085405598331
13.5,0.009583377788469528
13.504,0.009584675977787492
13.508000000000001,0.0095533751908988
13.512,0.009557750569711197
13.516,0.009595734627533114
13.52,0.009570011246603082
13.524000000000001,0.009550490325747767
13.528,0.009528829796572106
13.532,0.009571958530580028
13.536,0.009615303629474277
13.540000000000001,0.00954753333896796
13.544,0.009523661079843173
13.548,0.00955996229966032
13.552,0.009590205302660302
13.556000000000001,0.0095694583141158
13.56,0.009554625299130913
13.564,0.009545898582049041
13.568,0.009583786477699257
13.572000000000001,0.009567270624709601
13.576,0.00954561009553394
13.58,0.009588233978140431
13.584,0.009634536063814488
13.588000000000001,0.009604894074387638
13.592,0.009559745934773994
13.596,0.009559890178031546
13.6,0.009612466845409097
13.604000000000001,0.009651508687119724
13.608,0.009570540138547436
13.612,0.009564674246073672
13.616,0.009618573143312114
13.620000000000001,0.009623838022212746
13.624,0.009594773005816102
13.628,0.009585709721133278
13.632,0.009604533466243759
13.636000000000001,0.009629631793057734
13.64,0.009598835857570471
13.644,0.009583594153355855
13.648,0.00965122020060462
13.652000000000001,0.009634896671958366
13.656,0.009601143749691298
13.66,0.009579194734000531
13.664,0.00959681645196475
13.668000000000001,0.009632997469067272
13.672,0.009621674373349471
13.676,0.0095489998120864
13.68,0.009578810085313728
13.684000000000001,0.009625689144017992
13.688,0.009601985168693681
13.692,0.009570684381804988
13.696,0.009574290463243778
13.700000000000001,0.009600783141547418
13.704,0.00961463049427237
13.708,0.009583882639870958
13.712,0.009594508559843925
13.716000000000001,0.009667760094137202
13.72,0.009617996170281907
13.724,0.009577343612195286
13.728,0.009573593287498945
13.732000000000001,0.009614438169928968
13.736,0.009643310861982208
13.74,0.009616096967390811
13.744,0.009573881774014048
13.748000000000001,0.00963011260391624
13.752,0.009663360674781879
13.756,0.009625424698045813
13.76,0.009602538101180962
13.764000000000001,0.00960686539890751
13.768,0.009615159386216725
13.772,0.00958635881579226
13.776,0.009560539272690528
13.780000000000001,0.009604341141900357
13.784,0.009653287687296194
13.788,0.009617082629650747
13.792,0.009579771707030739
13.796000000000001,0.009584627896701642
13.8,0.009639007604798588
13.804,0.009633670604269179
13.808,0.009601408195663476
13.812000000000001,0.009579579382687336
13.816,0.009645041781072828
13.82,0.009664298255955963
13.824,0.009617803845938504
13.828,0.009617611521595102
13.832,0.009633790806983804
13.836,0.009654201227927353
13.84,0.009624054387099073
13.844,0.00960417285809988
13.848,0.009654537795528308
13.852,0.009692690137150699
13.856,0.009642373280808124
13.86,0.009610880169576029
13.864,0.00963564192878905
13.868,0.009667135040021145
13.872,0.009644080159355818
13.876,0.009615159386216725
13.88,0.009630377049888417
13.884,0.00966340875586773
13.888,0.009642397321351049
13.892,0.009622732157238184
13.896,0.00965884105271193
13.9,0.009669130405083942
13.904,0.009661918242206363
13.908,0.009648287254367739
13.912,0.009643551267411461
13.916,0.009679660162885207
13.92,0.009676318527418595
13.924,0.009623285089725465
13.928,0.009649152713913048
13.932,0.009679852487228609
13.936,0.009673986594754845
13.94,0.009665596445273927
13.944,0.009640834686060907
13.948,0.009664154012698413
13.952,0.00966944293214197
13.956,0.009637541131680145
13.96,0.009634656266529115
13.964,0.00969867623233909
13.968,0.009691175582946408
13.972,0.009675164581358182
13.976,0.009644825416186501
13.98,0.009658240039138798
13.984,0.009705888395216671
13.988,0.00968187189283433
13.992,0.009614991102416249
13.996,0.009641051050947234
14.0,0.009699541691884401
14.004,0.009692497812807298
14.008000000000001,0.009664730985728618
14.012,0.009647686240794607
14.016,0.0096949739887286
14.02,0.00969949361079855
14.024000000000001,0.00966223076926439
14.028,0.009654345471184905
14.032,0.009714663193384392
14.036,0.009683122001066444
14.040000000000001,0.009648527659796992
14.044,0.009652518389922584
14.048,0.009699902300028282
14.052,0.009705599908701568
14.056000000000001,0.009652903038609389
14.06,0.009641459740176963
14.064,0.009690598609916203
14.068,0.009704349800469454
14.072000000000001,0.009680044811572011
14.076,0.009666870594048967
14.08,0.009659970958229416
14.084,0.009712571666149895
14.088000000000001,0.009690213961229398
14.092,0.009653744457611774
14.096,0.009694324894069618
14.1,0.009733871587181678
14.104000000000001,0.00967405871638362
14.108,0.009638118104710353
14.112,0.009663048147723851
14.116,0.009714807436641944
14.120000000000001,0.009729832775970233
14.124,0.00965126828169047
14.128,0.009652229903407483
14.132,0.009695214394157853
14.136000000000001,0.009704061313954352
14.14,0.00968502120395754
14.144,0.009688002231280274
14.148,0.009693820042668187
14.152000000000001,0.009716129666502834
14.156,0.009715504612386777
14.16,0.009686415555447206
14.164,0.009696296218589489
14.168000000000001,0.009721683031918569
14.172,0.009687521420421768
14.176,0.009649609484228628
14.18,0.009696777029447995
14.184000000000001,0.009726875789190426
14.188,0.00971451895012684
14.192,0.009661653796234185
14.196,0.009684684636356588
14.200000000000001,0.00971035993620077
14.204,0.009720192518257204
14.208,0.00968939658276994
14.212,0.009717331693649097
14.216000000000001,0.009731707938318405
14.22,0.00973396774935338
14.224,0.009695911569902686
14.228,0.009705912435759597
14.232000000000001,0.009762503873805665
14.236,0.009723870721324768
14.24,0.009688146474537826
14.244,0.009698075218765959
14.248000000000001,0.009737068979390738
14.252,0.009742622344806474
14.256,0.00970680193584783
14.26,0.009672784567608582
14.264000000000001,0.009728077816336689
14.268,0.009751252899716643
14.272,0.00972137050486054
14.276,0.009686559798704758
14.280000000000001,0.009716947044962293
14.284,0.009736732411789784
14.288,0.009730481870629215
14.292,0.00968958890711334
14.296000000000001,0.009718798166767538
14.3,0.009748343994022687
14.304,0.009701705340747676
14.308,0.009685814541874074
14.312000000000001,0.009724543856526676
14.316,0.009750627845600586
14.32,0.009737886357850197
14.324,0.009704542124812856
14.328000000000001,0.009692978623665803
14.332,0.009737645952420944
14.336,0.009746613074932067
14.34,0.009722163842777075
14.344,0.009719711707398698
14.348,0.00974593993973016
14.352,0.009743271439465455
14.356,0.009711922571490913
14.36,0.009705960516845448
14.364,0.009768706333880384
14.368,0.00979106403880088
14.372,0.009718605842424136
14.376,0.009703796867982173
14.38,0.00973593907387325
14.384,0.00975279149446386
14.388,0.009737525749706318
14.392,0.00972401496458232
14.396,0.009714038139268336
14.4,0.009762479833262741
14.404,0.009744737912583897
14.408,0.009711105193031453
14.412,0.009747286210133975
14.416,0.009762191346747637
14.42,0.009737068979390738
14.424,0.009705431624901091
14.428,0.009714663193384392
14.432,0.009792097782146665
14.436,0.009795703863585454
14.44,0.009726611343218249
14.444,0.00973954515531204
14.448,0.009770293009713452
14.452,0.00974908925085337
14.456,0.009727476802763558
14.46,0.009713701571667382
14.464,0.009750820169943988
14.468,0.009771687361203117
14.472,0.009727741248735735
14.476,0.009722933140150682
14.48,0.009782818132577514
14.484,0.009779668821454304
14.488,0.009754546454097405
14.492,0.009715937342159432
14.496,0.009741853047432865
14.5,0.009779428416025051
14.504,0.00976430691452506
14.508000000000001,0.009722788896893132
14.512,0.00975726303544796
14.516,0.00977704840227545
14.52,0.009772192212604548
14.524000000000001,0.009769066942024264
14.528,0.009759570927568784
14.532,0.00979106403880088
14.536,0.009783683592122823
14.540000000000001,0.009741083750059257
14.544,0.009747983385878808
14.548,0.009803372796778616
14.552,0.009771663320660191
14.556000000000001,0.009742814669149875
14.56,0.009745627412672132
14.564,0.009779284172767501
14.568,0.009786760781617257
14.572000000000001,0.00975832081933667
14.576,0.009730193384114112
14.58,0.009768177441936029
14.584,0.009792746876805647
14.588000000000001,0.009783467227236496
14.592,0.00978380379483745
14.596,0.009772072009889922
14.6,0.009800704296513911
14.604000000000001,0.009774235658753195
14.608,0.009762912563035396
14.612,0.009780798726971792
14.616,0.009831476191458249
14.620000000000001,0.009791544849659384
14.624,0.009761614373717432
14.628,0.009768345725736505
14.632,0.00981558539258465
14.636000000000001,0.009806570188987677
14.64,0.009747430453391527
14.644,0.0097541618054106
14.648,0.009804911391525832
14.652000000000001,0.009796256796072735
14.656,0.00975923435996783
14.66,0.009779163970052874
14.664,0.009795006687840621
14.668000000000001,0.009798059836792133
14.672,0.009783274902893093
14.676,0.009767600468905822
14.68,0.009820273298455076
14.684000000000001,0.009827749907304832
14.688,0.009767311982390718
14.692,0.00975461857572618
14.696,0.009788611903422503
14.700000000000001,0.009816306608872408
14.704,0.009815465189870023
14.708,0.009767624509448748
14.712,0.009780390037742063
14.716000000000001,0.009822701393290528
14.72,0.009815369027698322
14.724,0.009773225955950334
14.728,0.00980019944511248
14.732000000000001,0.00983883259759338
14.736,0.009840323111254745
14.74,0.00977603869947259
14.744,0.009785991484243648
14.748000000000001,0.00984166938165856
14.752,0.009823951501522642
14.756,0.009764980049726969
14.76,0.009766759049903437
14.764000000000001,0.009840419273426446
14.768,0.009837005516331059
14.772,0.009810392635312793
14.776,0.0097427425475211
14.780000000000001,0.009795703863585454
14.784,0.009840491395055223
14.788,0.009807531810704687
14.792,0.009780942970229344
14.796000000000001,0.009815465189870023
14.8,0.009816066203443155
14.804,0.009798660850365265
14.808,0.009775702131871636
14.812000000000001,0.00981015222988354
14.816,0.009849506598652196
14.82,0.009817196108960643
14.824,0.009786376132930453
14.828000000000001,0.009811642743544907
14.832,0.009831091542771444
14.836,0.009817725000904998
14.84,0.009808757878393875
14.844000000000001,0.009799910958597379
14.848,0.009859603626680806
14.852,0.00986821014104805
14.856,0.009803204512978139
14.86,0.009808998283823128
14.864,0.009861382626857276
14.868,0.00982883173173647
14.872,0.009802266931804055
14.876,0.009799574390996425
14.88,0.00982161956885889
14.884,0.009842655043918496
14.888,0.009804863310439981
14.892,0.009790222619798495
14.896,0.009845155260382724
14.9,0.009861502829571902
14.904,0.009830995380599743
14.908,0.009827052731560001
14.912,0.009835082272897038
14.916,0.00987268168203215
14.92,0.00984664577404409
14.924,0.009814070838380358
14.928,0.00982791819110531
14.932,0.009864724262323888
14.936,0.00982787011001946
14.94,0.009790030295455093
14.944,0.00981289285177702
14.948,0.00986775337073247
14.952,0.009887923386246767
14.956,0.009815417108784173
14.96,0.009803733404922495
14.964,0.00987135945217126
14.968,0.009874484722751545
14.972,0.009832846502404988
14.976,0.009834962070182411
14.98,0.009846621733501164
14.984,0.009873643303749161
14.988,0.00985441086940895
14.992,0.009843207976405777
14.996,0.00989684242767204
15.0,0.009897443441245171
15.004,0.009853329044977313
15.008000000000001,0.009830923258970968
15.012,0.009866455181414506
15.016,0.009877994642018634
15.02,0.009880999709884292
15.024000000000001,0.009817700960362073
15.028,0.009839505732795286
15.032,0.009880687182826262
15.036,0.009869364087108463
15.040000000000001,0.00983933744899481
15.044,0.009855612896555213
15.048,0.009872248952259495
15.052,0.009862368289117213
15.056000000000001,0.00981842217664983
15.06,0.009830033758882733
15.064,0.009879917885452654
15.068,0.0098567428020727
15.072000000000001,0.009834817826924861
15.076,0.009825658380070336
15.08,0.009875133817410528
15.084,0.009889005210678403
15.088000000000001,0.009861983640430408
15.092,0.009820225217369225
15.096,0.009888909048506703
15.1,0.0099000398198811
15.104000000000001,0.009869676614166493
15.108,0.009862801018889866
15.112,0.009881889209972525
15.116,0.00989414988686441
15.120000000000001,0.009872513398231673
15.124,0.009836524705472555
15.128,0.009856598558815148
15.132,0.009896313535727683
15.136000000000001,0.009840587557226924
15.14,0.00981892702805126
15.144,0.009840539476141073
15.148,0.009882658507346135
15.152000000000001,0.009883764372320697
15.156,0.009854507031580651
15.16,0.009829048096622797
15.164,0.009879413034051224
15.168000000000001,0.009890760170311949
15.172,0.009847823760647427
15.176,0.009860084437539312
15.18,0.00989876567110606
15.184000000000001,0.00989131310279923
15.188,0.00986633497869988
15.192,0.009861286464685575
15.196,0.009896361616813534
15.200000000000001,0.009922229241001118
15.204,0.009853305004434388
15.208,0.009848857503993214
15.212,0.009895640400525776
15.216000000000001,0.00991068978039699
15.22,0.009878932223192718
15.224,0.009866623465214984
15.228,0.009880566980111636
15.232000000000001,0.009918839524448655
15.236,0.009882418101916882
15.24,0.009864892546124365
15.244,0.00990653076647092
15.248000000000001,0.009917324970244364
15.252,0.009906194198869967
15.256,0.009872537438774599
15.26,0.009869508330366015
15.264000000000001,0.009918959727163282
15.268,0.00994037985090969
15.272,0.009849722963538523
15.276,0.009856165829042494
15.280000000000001,0.009929922214737201
15.284,0.009934778404408104
15.288,0.009890303399996367
15.292,0.009867537005846144
15.296000000000001,0.009910088766823859
15.3,0.009931821417628297
15.304,0.009897563643959797
15.308,0.009871599857600513
15.312000000000001,0.009929249079535294
15.316,0.009910665739854066
15.32,0.009901554374085391
15.324,0.009872056627916093
15.328000000000001,0.009897948292646602
15.332,0.009927157552300796
15.336,0.009909583915422428
15.34,0.009857319775102907
15.344000000000001,0.00987907646645027
15.348,0.009908381888276165
15.352,0.009915137280838164
15.356,0.00988364416960607
15.36,0.009865301235354094
15.364,0.009920161754309546
15.368,0.00992922503899237
15.372,0.009885687615754717
15.376,0.009908598253162494
15.38,0.009973964489376284
15.384,0.009919392456935936
15.388,0.009897539603416872
15.392,0.009884028818292874
15.396,0.00990734814493038
15.4,0.009946029378497128
15.404,0.009886168426613223
15.408,0.009857536139989234
15.412,0.009940932783396972
15.416,0.009936292958612397
15.42,0.009904751766294451
15.424,0.009915305564638642
15.428,0.009919440538021787
15.432,0.00994804878410285
15.436,0.00991506515920939
15.44,0.00988734641321656
15.444,0.00993795175607424
15.448,0.009961343204340521
15.452,0.009914223740207005
15.456,0.009894270089579037
15.46,0.009923767835748335
15.464,0.009968387083417622
15.468,0.009946029378497128
15.472,0.009884341345350902
15.476,0.009913214037404144
15.48,0.009955886001096486
15.484,0.009958698744618742
15.488,0.009920281957024171
15.492,0.009917517294587766
15.496,0.009929898174194277
15.5,0.009953842554947839
15.504,0.00992845574161876
15.508000000000001,0.009929104836277743
15.512,0.00997458954349234
15.516,0.009970911340424776
15.52,0.009926316133298412
15.524000000000001,0.009926748863071067
15.528,0.009956054284896963
15.532,0.009978171584388205
15.536,0.00995581387946771
15.540000000000001,0.009900232144224502
15.544,0.009915545970067894
15.548,0.0099638915018906
15.552,0.009959660366335752
15.556000000000001,0.009928696147048013
15.56,0.009960381582623511
15.564,0.009974228935348462
15.568,0.009954179122548793
15.572000000000001,0.009927013309043244
15.576,0.009928768268676788
15.58,0.009984350003919997
15.584,0.009971872962141786
15.588000000000001,0.009927373917187125
15.592,0.009927205633386647
15.596,0.009969372745677559
15.6,0.009972041245942262
15.604000000000001,0.009938672972361997
15.608,0.009915810416040073
15.612,0.009974445300234789
15.616,0.009982210395599649
15.620000000000001,0.009947159284014616
15.624,0.009924368849321467
15.628,0.009958867028419218
15.632,0.00996367513700427
15.636000000000001,0.009945644729810323
15.64,0.009904679644665675
15.644,0.009956583176841319
15.648,0.010002957384144154
15.652000000000001,0.009934778404408104
15.656,0.00991424778074993
15.66,0.009950260514051975
15.664,0.00999764442415767
15.668000000000001,0.00999658664026896
15.672,0.00996119896108297
15.676,0.009947832419216523
15.68,0.009996490478097258
15.684000000000001,0.009983340301117137
15.688,0.009933864863776945
15.692,0.009946197662297604
15.696,0.00999043226128009
15.700000000000001,0.009971488313454981
15.704,0.009964107866776926
15.708,0.009945067756780118
15.712,0.009985576071609187
15.716000000000001,0.010013679466288821
15.72,0.009945163918951819
15.724,0.009937254580329407
15.728,0.009991922774941455
15.732000000000001,0.010005217195179128
15.736,0.009970550732280897
15.74,0.009954131041462942
15.744,0.009943673405290452
15.748000000000001,0.009995432694208547
15.752,0.009993461369688672
15.756,0.009954972460465327
15.76,0.009991730450598054
15.764000000000001,0.010009111763133021
15.768,0.00997408469209091
15.772,0.009948265148989178
15.776,0.009953217500831783
15.780000000000001,0.010006491343954167
15.784,0.01000673174938342
15.788,0.009951534662827013
15.792,0.009959948852850856
15.796000000000001,0.010015169979950188
15.8,0.010016059480038421
15.804,0.009986153044639392
15.808,0.00996225674497168
15.812000000000001,0.00998307585514496
15.816,0.010010169547021733
15.82,0.009973339435260227
15.824,0.009955140744265803
15.828000000000001,0.010016468169268152
15.832,0.010003678600431911
15.836,0.009964540596549581
15.84,0.009963554934289645
15.844000000000001,0.010014304520404877
15.848,0.01003683050912585
15.852,0.010019377074962109
15.856,0.009952736689973277
15.860000000000001,0.009976200259868333
15.864,0.010005673965494708
15.868,0.010001226465053534
15.872,0.009976608949098064
15.876,0.009984902936407278
15.88,0.010012020668826978
15.884,0.01001723746664176
15.888,0.009986441531154496
15.892,0.009973603881232406
15.896,0.010026637318925538
15.9,0.010003726681517762
15.904,0.009975479043580576
15.908,0.00998281140917278
15.912,0.01001718938555591
15.916,0.010031565630225217
15.92,0.01000312566794463
15.924,0.009962833718001888
15.928,0.010013775628460522
15.932,0.010034426454833323
15.936,0.01000439981671967
15.94,0.009982402719943051
15.944,0.010000962019081357
15.948,0.010017405750442236
15.952,0.01001129945253922
15.956,0.009985215463465306
15.96,0.010006563465582943
15.964,0.010055077281206125
15.968,0.01000855883064574
15.972,0.009969348705134634
15.976,0.009987571436671982
15.98,0.010024281345718863
15.984,0.010017622115328565
15.988,0.0099754069219518
15.992,0.00995978056905038
15.996,0.010017718277500266
16.0,0.010018006764015368
16.004,0.009987138706899329
16.008,0.010011515817425548
16.012,0.010037599806499459
16.016000000000002,0.010031156940995488
16.02,0.009996923207869912
16.024,0.00999713957275624
16.028,0.010064116525346023
16.032,0.010079598634989893
16.036,0.010019905966906464
16.04,0.0100048085059494
16.044,0.010050701902393726
16.048000000000002,0.010052985753971627
16.052,0.010037503644327758
16.056,0.009986056882467691
16.06,0.01003089249502331
16.064,0.010056495673238715
16.068,0.010039883658077358
16.072,0.010009231965847647
16.076,0.010042047306940631
16.080000000000002,0.010047360266927114
16.084,0.01004175882042553
16.088,0.009999351302705364
16.092,0.010005794168209335
16.096,0.010054908997405647
16.1,0.010061832673768123
16.104,0.009979662098049572
16.108,0.0099937738967467
16.112000000000002,0.010054476267632994
16.116,0.01007159313419578
16.12,0.01003495534677768
16.124,0.010011419655253847
16.128,0.010065438755206912
16.132,0.010074766485861916
16.136,0.010039787495905656
16.14,0.010038513347130618
16.144000000000002,0.010089671622475578
16.148,0.01005779386255668
16.152,0.010050389375335698
16.156,0.010048922902217258
16.16,0.010067818768956514
16.164,0.010099456123446163
16.168,0.010057938105814231
16.172,0.010008727114446217
16.176000000000002,0.010054860916319797
16.18,0.01008250754068385
16.184,0.010064429052404051
16.188,0.010039282644504226
16.192,0.010039643252648105
16.196,0.010085464527463657
16.2,0.010093470028257771
16.204,0.010045028334263365
16.208000000000002,0.010043129131372269
16.212,0.010093253663371445
16.216,0.010043754185488325
16.22,0.010016011398952572
16.224,0.010029233697561467
16.228,0.010082675824484327
16.232,0.010090008190076532
16.236,0.010037022833469252
16.240000000000002,0.010016948980126656
16.244,0.010075631945407225
16.248,0.010093758514772875
16.252,0.010073444256001025
16.256,0.010057096686811847
16.26,0.010066544620181474
16.264,0.010086233824837266
16.268,0.01005834679504396
16.272000000000002,0.010053803132431085
16.276,0.010071424850395303
16.28,0.010084238459774469
16.284,0.010047937239957321
16.288,0.010014304520404877
16.292,0.01003541211709326
16.296,0.010090729406364289
16.3,0.010096258731237102
16.304000000000002,0.010028416319102007
16.308,0.01003788829301456
16.312,0.010081954608196568
16.316,0.010076136796808655
16.32,0.010046903496611534
16.324,0.01005368292971646
16.328,0.010073852945230754
16.332,0.010099576326160788
16.336000000000002,0.01006748220135556
16.34,0.0100620009575686
16.344,0.01011282266531261
16.348,0.010082387337969224
16.352,0.010020603142651296
16.356,0.010021324358939055
16.36,0.010081930567653644
16.364,0.010106043232207684
16.368000000000002,0.010107509705326126
16.372,0.01006387611991677
16.376,0.010073804864144904
16.38,0.010097100150239487
16.384,0.010092484365997833
16.388,0.010071521012567005
16.392,0.01007479052640484
16.396,0.010073660620887354
16.4,0.010075175175091645
16.404,0.01004317721245812
16.408,0.010074213553374635
16.412,0.010124145761030408
16.416,0.010094479731060632
16.42,0.010048970983303108
16.424,0.010059741146533626
16.428,0.010108230921613883
16.432,0.010107509705326126
16.436,0.010070487269221218
16.44,0.010046446726295954
16.444,0.01010118704253678
16.448,0.010107870313470005
16.452,0.010082868148827728
16.456,0.010096859744810234
16.46,0.010122583125740266
16.464,0.010094022960745052
16.468,0.010071665255824556
16.472,0.010061880754853973
16.476,0.010082579662312626
16.48,0.010137440181268078
16.484,0.01008387785163059
16.488,0.01004546106403602
16.492,0.010082195013625821
16.496,0.010112894786941384
16.5,0.010103254529228355
16.504,0.010063539552315816
16.508,0.010059019930245867
16.512,0.010112245692282402
16.516000000000002,0.01009779732598432
16.52,0.010043153171915193
16.524,0.010075511742692599
16.528,0.010103999786059038
16.532,0.010112245692282402
16.536,0.010069237160989104
16.54,0.010059068011331718
16.544,0.010109865678532802
16.548000000000002,0.010123496666371426
16.552,0.010053081916143328
16.556,0.010029089454303915
16.56,0.010079694797161594
16.564,0.010113135192370637
16.568,0.010111043665136139
16.572,0.01009515286626254
16.576,0.010075704067036
16.580000000000002,0.010113567922143293
16.584,0.010089767784647279
16.588,0.010057144767897697
16.592,0.010100249461362697
