0.0,-0.016696926358969175
0.004,-0.01669680615625455
0.008,-0.016695748372365836
0.012,-0.016695820493994613
0.016,-0.016697767777971557
0.02,-0.01669872939968857
0.024,-0.01669896980511782
0.028,-0.016700989210723542
0.032,-0.016700171832264084
0.036000000000000004,-0.016698296669915916
0.04,-0.016698248588830063
0.044,-0.0167015181026679
0.048,-0.016703224981215594
0.052000000000000005,-0.016702263359498582
0.056,-0.016702215278412733
0.06,-0.016701686386468375
0.064,-0.016699114048375374
0.068,-0.016698440913173466
0.07200000000000001,-0.01669882556186027
0.076,-0.016699715061948506
0.08,-0.01670267204872831
0.084,-0.016703417305558996
0.088,-0.016705484792250567
0.092,-0.016706230049081252
0.096,-0.016706109846366626
0.1,-0.016703922156960427
0.10400000000000001,-0.016705076103020838
0.108,-0.016705917522023224
0.112,-0.01670411448130383
0.116,-0.01670115749452402
0.12,-0.016700772845837215
0.124,-0.01670358558935947
0.128,-0.016700628602579665
0.132,-0.016699931426834833
0.136,-0.01670358558935947
0.14,-0.01670344134610192
0.14400000000000002,-0.016705076103020838
0.148,-0.016704691454334033
0.152,-0.016705340548993017
0.156,-0.016705100143563766
0.16,-0.016707119549169487
0.164,-0.016708345616858675
0.168,-0.01670805713034357
0.17200000000000001,-0.016707119549169487
0.176,-0.016709908252148818
0.18,-0.016710365022464396
0.184,-0.016711230482009707
0.188,-0.01671252867132767
0.192,-0.01671324988761543
0.196,-0.01671197573884039
0.2,-0.016712769076756923
0.20400000000000001,-0.01671358645521638
0.20800000000000002,-0.016713273928158353
0.212,-0.016710124617035145
0.216,-0.01671014865757807
0.22,-0.0167107496711512
0.224,-0.01671079775223705
0.228,-0.016706494495053428
0.232,-0.01670659065722513
0.23600000000000002,-0.016704499129990634
0.24,-0.01671389898227441
0.244,-0.01671389898227441
0.248,-0.016710966036037528
0.252,-0.016709187035861058
0.256,-0.016710437144093173
0.26,-0.016711591090153584
0.264,-0.01671014865757807
0.268,-0.016708898549345954
0.272,-0.016710581387350723
0.276,-0.016710485225179022
0.28,-0.01671070159006535
0.28400000000000003,-0.016713370090330054
0.28800000000000003,-0.016714836563448496
0.292,-0.01671252867132767
0.296,-0.01671014865757807
0.3,-0.01671079775223705
0.304,-0.01671445191476169
0.308,-0.016713057563272026
0.312,-0.016712793117299847
0.316,-0.01671115836038093
0.32,-0.016711278563095556
0.324,-0.016710629468436575
0.328,-0.016711879576668687
0.332,-0.016715990509508907
0.336,-0.016715918387880134
0.34,-0.016715149090506524
0.34400000000000003,-0.016715798185165505
0.34800000000000003,-0.0167197889152911
0.352,-0.01672089478026566
0.356,-0.016722096807411924
0.36,-0.016719067699003342
0.364,-0.016717745469142453
0.368,-0.016716399198738637
0.372,-0.016716519401453266
0.376,-0.016713730698473934
0.38,-0.016716375158195712
0.384,-0.016719812955834024
0.388,-0.016719764874748175
0.392,-0.01671832244217266
0.396,-0.01671856284760191
0.4,-0.016721423672210016
0.404,-0.016722697820985056
0.40800000000000003,-0.01672289014532846
0.41200000000000003,-0.016720413969407155
0.41600000000000004,-0.01672075053700811
0.42,-0.016721447712752944
0.424,-0.016719404266604294
0.428,-0.016719091739546266
0.432,-0.016719500428775996
0.436,-0.016719043658460418
0.44,-0.016717937793485856
0.444,-0.016719356185518446
0.448,-0.016717985874571704
0.452,-0.016716663644710816
0.456,-0.016714043225531963
0.46,-0.016712696955128146
0.464,-0.016710437144093173
0.468,-0.016711278563095556
0.47200000000000003,-0.01671486060399142
0.47600000000000003,-0.016717312739369796
0.48,-0.016722457415555805
0.484,-0.016720486091035932
0.488,-0.01672019760452083
0.492,-0.016719933158548653
0.496,-0.01672130346949539
0.5,-0.01672166407763927
0.504,-0.016720606293750558
0.508,-0.016720966901894438
0.512,-0.016720822658636884
0.516,-0.016719404266604294
0.52,-0.016719211942260892
0.524,-0.016720822658636884
0.528,-0.016720173563977904
0.532,-0.01672089478026566
0.536,-0.016723154591300637
0.54,-0.016723106510214785
0.544,-0.01672161599655342
0.548,-0.016719452347690147
0.552,-0.016720582253207633
0.556,-0.01671964467203355
0.56,-0.016715076968877748
0.5640000000000001,-0.016715605860822103
0.5680000000000001,-0.01671603859059476
0.5720000000000001,-0.016718683050316537
0.5760000000000001,-0.016723659442702068
0.58,-0.01672531824016391
0.584,-0.01672298630750016
0.588,-0.016720365888321306
0.592,-0.01672161599655342
0.596,-0.016723034388586012
0.6,-0.016723827726502542
0.604,-0.016723635402159143
0.608,-0.016723779645416693
0.612,-0.016724741267133705
0.616,-0.016723178631843562
0.62,-0.016723611361616215
0.624,-0.01672120730732369
0.628,-0.01671974083420525
0.632,-0.016721375591124167
0.636,-0.016719500428775996
0.64,-0.01671962063149062
0.644,-0.016722096807411924
0.648,-0.0167199812396345
0.652,-0.016719668712576474
0.656,-0.016719716793662322
0.66,-0.016722289131755327
0.664,-0.016724308537361048
0.668,-0.016722745902070908
0.672,-0.016722072766869
0.676,-0.016723539239987442
0.68,-0.01672029376669253
0.684,-0.01672231317229825
0.6880000000000001,-0.01672293822641431
0.6920000000000001,-0.01672180832089682
0.6960000000000001,-0.0167198850774628
0.7000000000000001,-0.016719500428775996
0.704,-0.016722769942613833
0.708,-0.016724645104962004
0.712,-0.016724933591477108
0.716,-0.01672659238893895
0.72,-0.016725750969936566
0.724,-0.016726255821337997
0.728,-0.01672603945645167
0.732,-0.01672632794296677
0.736,-0.01672810694314324
0.74,-0.016728082902600316
0.744,-0.016724933591477108
0.748,-0.01672385176704547
0.752,-0.016723370956186964
0.756,-0.016722361253384103
0.76,-0.01672233721284118
0.764,-0.016720125482892055
0.768,-0.016719572550404772
0.772,-0.01672130346949539
0.776,-0.01672322671292941
0.78,-0.016723274794015263
0.784,-0.016723058429128936
0.788,-0.016721014982980287
0.792,-0.016720005280177426
0.796,-0.016718659009773613
0.8,-0.016714836563448496
0.804,-0.0167155096986504
0.808,-0.016715653941907955
0.812,-0.01671796183402878
0.8160000000000001,-0.016718346482715585
0.8200000000000001,-0.016722505496641654
0.8240000000000001,-0.016723971969760096
0.8280000000000001,-0.01672262569935628
0.8320000000000001,-0.01672183236143975
0.836,-0.01672166407763927
0.84,-0.016721688118182195
0.844,-0.016721087104609064
0.848,-0.016720966901894438
0.852,-0.016720005280177426
0.856,-0.016719091739546266
0.86,-0.016720005280177426
0.864,-0.016721447712752944
0.868,-0.0167221689290407
0.872,-0.016723731564330845
0.876,-0.01672490955093418
0.88,-0.016723539239987442
0.884,-0.01671901961791749
0.888,-0.016718298401629732
0.892,-0.016721688118182195
0.896,-0.01671911578008919
0.9,-0.01671800991511463
0.904,-0.016719308104432593
0.908,-0.01672221701012655
0.912,-0.01672106306406614
0.916,-0.016723971969760096
0.92,-0.016722361253384103
0.924,-0.01672272186152798
0.928,-0.016723539239987442
0.932,-0.01672613561862337
0.936,-0.016725390361792686
0.9400000000000001,-0.016723731564330845
0.9440000000000001,-0.01672289014532846
0.9480000000000001,-0.01672322671292941
0.9520000000000001,-0.016725342280706837
0.9560000000000001,-0.016725462483421463
0.96,-0.016723971969760096
0.964,-0.01672358732107329
0.968,-0.016723659442702068
0.972,-0.016724717226590777
0.976,-0.01672409217247472
0.98,-0.01672183236143975
0.984,-0.016721591956010494
0.988,-0.016723106510214785
0.992,-0.016722048726326075
0.996,-0.01672070245592226
1.0,-0.016720486091035932
1.004,-0.016720630334293485
1.008,-0.01672409217247472
1.012,-0.016723010348043084
1.016,-0.016722241050669478
1.02,-0.01672695299708283
1.024,-0.016727385726855483
1.028,-0.016727626132284734
1.032,-0.01672846755128712
1.036,-0.016727217443055005
1.04,-0.016726712591653575
1.044,-0.016726736632196502
1.048,-0.016729044524317328
1.052,-0.016729188767574878
1.056,-0.016726496226767248
1.06,-0.016726616429481873
1.064,-0.0167269289565399
1.068,-0.016727217443055005
1.072,-0.016729260889203654
1.076,-0.016727025118711603
1.08,-0.01672623178079507
1.084,-0.01672704915925453
1.088,-0.016729260889203654
1.092,-0.016729068564860252
1.096,-0.01672938109191828
1.1,-0.0167291166459461
1.104,-0.016731544740781555
1.108,-0.01673147261915278
1.112,-0.016728179064772017
1.116,-0.016726255821337997
1.12,-0.01672594329427997
1.124,-0.016725342280706837
1.1280000000000001,-0.016726520267310172
1.1320000000000001,-0.016729501294632906
1.1360000000000001,-0.016727313605226706
1.1400000000000001,-0.016727626132284734
1.1440000000000001,-0.016728395429658344
1.1480000000000001,-0.01672786653771399
1.1520000000000001,-0.016727746334999363
1.156,-0.016725991375365817
1.16,-0.01672308246967186
1.164,-0.016722144888497777
1.168,-0.016722265091212402
1.172,-0.016722289131755327
1.176,-0.016723707523787917
1.18,-0.01672695299708283
1.184,-0.016726063496994594
1.188,-0.016726255821337997
1.192,-0.016726977037625754
1.196,-0.01672450086170445
1.2,-0.016726255821337997
1.204,-0.016727674213370586
1.208,-0.0167266404700248
1.212,-0.01672486146984833
1.216,-0.016724188334646423
1.22,-0.016724741267133705
1.224,-0.016727842497171064
1.228,-0.01672714532142623
1.232,-0.01672810694314324
1.236,-0.016728900281059774
1.24,-0.01672974170006216
1.244,-0.01673262656521319
1.248,-0.016728179064772017
1.252,-0.016728227145857866
1.256,-0.016728852199973925
1.26,-0.016729260889203654
1.264,-0.01672801078097154
1.268,-0.016727433807941332
1.272,-0.01672846755128712
1.276,-0.016729212808117802
1.28,-0.016728491591830045
1.284,-0.016728731997259296
1.288,-0.016729236848660727
1.292,-0.01672978978114801
1.296,-0.016730078267663113
1.3,-0.01672952533517583
1.304,-0.01673075140286502
1.308,-0.01673043887580699
1.312,-0.016730510997435766
1.316,-0.016731328375895225
1.32,-0.016731015848837197
1.324,-0.016731424538066926
1.328,-0.01673272272738489
1.332,-0.016735030619505716
1.336,-0.01673375647073068
1.34,-0.016730078267663113
1.344,-0.01672659238893895
1.348,-0.016727337645769634
1.352,-0.016729308970289503
1.356,-0.01673116009209475
1.36,-0.016735583551992998
1.364,-0.016730318673092364
1.368,-0.016729765740605085
1.372,-0.01673070332177917
1.3760000000000001,-0.016729308970289503
1.3800000000000001,-0.016728828159430997
1.3840000000000001,-0.016728034821514463
1.3880000000000001,-0.016727818456628137
1.3920000000000001,-0.016725582686136088
1.3960000000000001,-0.016725991375365817
1.4000000000000001,-0.016727433807941332
1.4040000000000001,-0.016726111578080443
1.408,-0.016725750969936566
1.412,-0.01672745784848426
1.416,-0.0167264481456814
1.42,-0.01672613561862337
1.424,-0.016725750969936566
1.428,-0.016724548942790303
1.432,-0.016725558645593164
1.436,-0.016725222077992208
1.44,-0.016724957632020032
1.444,-0.01672476530767663
1.448,-0.016725967334822893
1.452,-0.016729188767574878
1.456,-0.016731544740781555
1.46,-0.01673019847037774
1.464,-0.016728996443231475
1.468,-0.016727650172827662
1.472,-0.016727313605226706
1.476,-0.01672541440233561
1.48,-0.016727385726855483
1.484,-0.016727578051198885
1.488,-0.016727313605226706
1.492,-0.016726856834911128
1.496,-0.016725294199620985
1.5,-0.016727241483597933
1.504,-0.01672623178079507
1.508,-0.016728587754001746
1.512,-0.016729212808117802
1.516,-0.016728900281059774
1.52,-0.016729405132461204
1.524,-0.016727794416085212
1.528,-0.016725462483421463
1.532,-0.016724621064419076
1.536,-0.01672486146984833
1.54,-0.01672281802369968
1.544,-0.01672252953718458
1.548,-0.016722769942613833
1.552,-0.016724380658989825
1.556,-0.016723130550757713
1.56,-0.016725077834734658
1.564,-0.016727986740428614
1.568,-0.016728900281059774
1.572,-0.016728299267486643
1.576,-0.016728275226943718
1.58,-0.016725750969936566
1.584,-0.01672618369970922
1.588,-0.016724885510391255
1.592,-0.01672745784848426
1.596,-0.016727938659342766
1.6,-0.01672745784848426
1.604,-0.01672801078097154
1.608,-0.016728539672915897
1.612,-0.01673116009209475
1.616,-0.016730727362322093
1.62,-0.016729164727031953
1.624,-0.01672714532142623
1.6280000000000001,-0.01672750592957011
1.6320000000000001,-0.0167265443078531
1.6360000000000001,-0.016723563280530367
1.6400000000000001,-0.01672486146984833
1.6440000000000001,-0.016724789348219554
1.6480000000000001,-0.01672541440233561
1.6520000000000001,-0.016724885510391255
1.6560000000000001,-0.01672567884830779
1.6600000000000001,-0.016725630767221937
1.6640000000000001,-0.01672551056450731
1.668,-0.01672627986188092
1.672,-0.016727313605226706
1.676,-0.016727674213370586
1.68,-0.016727626132284734
1.684,-0.016726255821337997
1.688,-0.016724741267133705
1.692,-0.016724621064419076
1.696,-0.016726400064595547
1.7,-0.01672714532142623
1.704,-0.01672486146984833
1.708,-0.016726472186224323
1.712,-0.01672623178079507
1.716,-0.01672820310531494
1.72,-0.016733708389644827
1.724,-0.016735992241222727
1.728,-0.01673375647073068
1.732,-0.016731424538066926
1.736,-0.01673029463254944
1.74,-0.01673103988938012
1.744,-0.016732915051728293
1.748,-0.016733011213899994
1.752,-0.016731328375895225
1.756,-0.016732362119241014
1.76,-0.016733059294985846
1.764,-0.016732915051728293
1.768,-0.016731544740781555
1.772,-0.016727770375542288
1.776,-0.016728034821514463
1.78,-0.01672878007834515
1.784,-0.016728082902600316
1.788,-0.016727241483597933
1.792,-0.016727337645769634
1.796,-0.01672623178079507
1.8,-0.016728251186400794
1.804,-0.016727914618799838
1.808,-0.01672861179454467
1.812,-0.016729044524317328
1.816,-0.016726904915996977
1.82,-0.016728155024229092
1.824,-0.016727217443055005
1.828,-0.01672897240268855
1.832,-0.016730631200150392
1.836,-0.016730607159607468
1.84,-0.016729693618976308
1.844,-0.016728491591830045
1.848,-0.016727746334999363
1.852,-0.016730919686665496
1.856,-0.016729765740605085
1.86,-0.016729260889203654
1.864,-0.01672914068648903
1.868,-0.016729260889203654
1.872,-0.016733684349101902
1.8760000000000001,-0.016732265957069312
1.8800000000000001,-0.01673147261915278
1.8840000000000001,-0.01673322757878632
1.8880000000000001,-0.016733780511273603
1.8920000000000001,-0.016734549808647213
1.8960000000000001,-0.016732386159783938
1.9000000000000001,-0.01672878007834515
1.9040000000000001,-0.01672851563237297
1.9080000000000001,-0.016730462916349918
1.9120000000000001,-0.016728635835087595
1.9160000000000001,-0.0167290204837744
1.92,-0.016729717659519232
1.924,-0.016729188767574878
1.928,-0.016730871605579647
1.932,-0.016730727362322093
1.936,-0.01673106392992305
1.94,-0.01673106392992305
1.944,-0.016734117078874556
1.948,-0.016733179497700472
1.952,-0.016730462916349918
1.956,-0.016728900281059774
1.96,-0.01672964553789046
1.964,-0.01673161686241033
1.968,-0.016731953430011284
1.972,-0.016729765740605085
1.976,-0.01672887624051685
1.98,-0.016729669578433384
1.984,-0.01673019847037774
1.988,-0.01673231403815516
1.992,-0.016732265957069312
1.996,-0.016731592821867404
2.0,-0.016730871605579647
2.004,-0.016730510997435766
2.008,-0.01673015038929189
2.012,-0.016730607159607468
2.016,-0.016731424538066926
2.02,-0.01673231403815516
2.024,-0.016732915051728293
2.028,-0.016733612227473126
2.032,-0.016731592821867404
2.036,-0.01672870795671637
2.04,-0.016727818456628137
2.044,-0.016732193835440536
2.048,-0.016734477687018436
2.052,-0.016732602524670265
2.056,-0.016732963132814145
2.06,-0.016734982538419867
2.064,-0.016736809619682186
2.068,-0.016736881741310963
2.072,-0.016737891444113823
2.076,-0.016739814687547844
2.08,-0.016740632066007302
2.084,-0.016739718525376143
2.088,-0.016738444376601103
2.092,-0.016739502160489816
2.096,-0.016738276092800628
2.1,-0.01673755487651287
2.104,-0.016735896079051026
2.108,-0.01673430940321796
2.112,-0.01673390071398823
2.116,-0.01673527102493497
2.12,-0.016735751835793476
2.124,-0.01673623264665198
2.128,-0.01673572779525055
2.132,-0.01673404495724578
2.136,-0.016735054660048643
2.14,-0.016738131849543075
2.144,-0.01674019933623465
2.148,-0.016739766606461995
2.152,-0.016737795281942122
2.156,-0.016735944160136875
2.16,-0.016737122146740214
2.164,-0.01673628072773783
2.168,-0.016735030619505716
2.172,-0.01673632880882368
2.176,-0.016739045390174234
2.18,-0.016739718525376143
2.184,-0.016739357917232266
2.188,-0.016735078700591568
2.192,-0.016734068997788707
2.196,-0.016735872038508102
2.2,-0.016738444376601103
2.204,-0.016740175295691724
2.208,-0.016737723160313345
2.212,-0.01673887710637376
2.216,-0.016737074065654365
2.22,-0.016736545173710007
2.224,-0.01673527102493497
2.228,-0.016736665376424636
2.232,-0.016737218308911915
2.236,-0.016738420336058178
2.24,-0.016738853065830832
2.244,-0.016738444376601103
2.248,-0.01673947811994689
2.2520000000000002,-0.016738636700944505
2.2560000000000002,-0.016739550241575665
2.2600000000000002,-0.016738035687371373
2.2640000000000002,-0.01673678557913926
2.2680000000000002,-0.016733155457157547
2.2720000000000002,-0.01673486233570524
2.2760000000000002,-0.016737074065654365
2.2800000000000002,-0.016736809619682186
2.2840000000000003,-0.01674140136338091
2.2880000000000003,-0.01674248318781255
2.2920000000000003,-0.016740271457863425
2.2960000000000003,-0.016738179930628927
2.3000000000000003,-0.016737819322485047
2.3040000000000003,-0.016739598322661517
2.308,-0.016742771674327653
2.312,-0.016743252485186155
2.316,-0.01674181005261064
2.32,-0.01674257934998425
2.324,-0.0167405359038356
2.328,-0.016739333876689338
2.332,-0.01674039166057805
2.336,-0.01673902134963131
2.34,-0.016737723160313345
2.344,-0.016737434673798242
2.348,-0.016738540538772804
2.352,-0.016740776309264856
2.356,-0.016742747633784725
2.36,-0.016742002376954043
2.364,-0.016739189633431788
2.368,-0.016737434673798242
2.372,-0.0167404397416639
2.376,-0.016740127214605872
2.38,-0.01673952620103274
2.384,-0.01673979064700492
2.388,-0.01673947811994689
2.392,-0.016737987606285525
2.396,-0.016734934457334014
2.4,-0.016735872038508102
2.404,-0.016740920552522406
2.408,-0.01673952620103274
2.412,-0.016739213673974712
2.416,-0.01673837225497233
2.42,-0.016736497092624158
2.424,-0.01673861266040158
2.428,-0.016739045390174234
2.432,-0.016737290430540692
2.436,-0.01673938195777519
2.44,-0.016740367620035126
2.444,-0.01674070418763608
2.448,-0.01673837225497233
2.452,-0.016738276092800628
2.456,-0.016740824390350705
2.46,-0.0167405359038356
2.464,-0.016740151255148796
2.468,-0.016741689849896015
2.472,-0.016739670444290294
2.476,-0.01673911751180301
2.48,-0.01674245914726962
2.484,-0.01674257934998425
2.488,-0.01674289187704228
2.492,-0.0167427235932418
2.496,-0.016740824390350705
2.5,-0.01673801164682845
2.504,-0.01673979064700492
2.508,-0.016742651471613024
2.512,-0.01674212257966867
2.516,-0.01674135328229506
2.52,-0.01673988680917662
2.524,-0.016739574282118592
2.528,-0.0167405359038356
2.532,-0.01674161772826724
2.536,-0.01674116095795166
2.54,-0.01673993489026247
2.544,-0.01673988680917662
2.548,-0.01673947811994689
2.552,-0.016740007011891246
2.556,-0.016739502160489816
2.56,-0.016741257120123358
2.564,-0.01674166580935309
2.568,-0.016738732863116206
2.572,-0.016740680147093154
2.576,-0.01674231490401207
2.58,-0.016741930255325266
2.584,-0.016744214106903167
2.588,-0.016743805417673438
2.592,-0.016741834093153565
2.596,-0.016740415701120975
2.6,-0.016740992674151182
2.604,-0.016740920552522406
2.608,-0.01674055994437853
2.612,-0.016740752268721928
2.616,-0.01674140136338091
2.62,-0.01674116095795166
2.624,-0.016740656106550227
2.628,-0.016740680147093154
2.632,-0.016739742565919067
2.636,-0.016738732863116206
2.64,-0.016738131849543075
2.644,-0.016738997309088385
2.648,-0.01673678557913926
2.652,-0.016733564146387277
2.656,-0.01673334778150095
2.66,-0.016735992241222727
2.664,-0.016735799916879325
2.668,-0.016734718092447688
2.672,-0.016738035687371373
2.676,-0.01673892518745961
2.68,-0.01673892518745961
2.684,-0.0167383482144294
2.688,-0.016741737930981864
2.692,-0.01674373329604466
2.696,-0.01674423814744609
2.7,-0.01674207449858282
2.704,-0.016741136917408733
2.708,-0.016740583984921453
2.712,-0.016740079133520023
2.716,-0.016742050458039892
2.72,-0.0167403435794922
2.724,-0.01673724234945484
2.728,-0.016735198903306193
2.732,-0.01673572779525055
2.736,-0.016737530835969943
2.74,-0.0167403435794922
2.744,-0.016741786012067716
2.748,-0.016741761971524792
2.7520000000000002,-0.016740656106550227
2.7560000000000002,-0.01673962236320444
2.7600000000000002,-0.016738396295515254
2.7640000000000002,-0.016739454079403963
2.7680000000000002,-0.0167405359038356
2.7720000000000002,-0.016738708822573282
2.7760000000000002,-0.016738756903659134
2.7800000000000002,-0.01673887710637376
2.7840000000000003,-0.016737771241399198
2.7880000000000003,-0.016739910849719545
2.7920000000000003,-0.016738131849543075
2.7960000000000003,-0.016737290430540692
2.8000000000000003,-0.016738588619858656
2.8040000000000003,-0.01673988680917662
2.8080000000000003,-0.016740151255148796
2.8120000000000003,-0.016740079133520023
2.816,-0.016743685214958812
2.82,-0.016739646403747366
2.824,-0.016737050025111437
2.828,-0.016736304768280755
2.832,-0.01673692982239681
2.836,-0.016737410633255317
2.84,-0.016740415701120975
2.844,-0.016741233079580434
2.848,-0.016741497525552613
2.852,-0.01674197833641112
2.856,-0.016737723160313345
2.86,-0.016736449011538305
2.864,-0.01673724234945484
2.868,-0.016738997309088385
2.872,-0.01673938195777519
2.876,-0.016742963998671055
2.88,-0.01674116095795166
2.884,-0.016741689849896015
2.888,-0.01674313228247153
2.892,-0.016740920552522406
2.896,-0.016739670444290294
2.9,-0.016739910849719545
2.904,-0.016738997309088385
2.908,-0.016736497092624158
2.912,-0.016738684782030357
2.916,-0.016740415701120975
2.92,-0.01673911751180301
2.924,-0.016739958930805397
2.928,-0.016738035687371373
2.932,-0.016740175295691724
2.936,-0.01673993489026247
2.94,-0.016740728228179003
2.944,-0.016741641768810163
2.948,-0.016741281160666286
2.952,-0.01673892518745961
2.956,-0.016739862768633696
2.96,-0.01673993489026247
2.964,-0.016736881741310963
2.968,-0.01673695386293974
2.972,-0.01673801164682845
2.976,-0.016739093471260087
2.98,-0.01673897326854546
2.984,-0.016738540538772804
2.988,-0.016740608025464378
2.992,-0.016741761971524792
2.996,-0.016740776309264856
3.0,-0.01674120903903751
3.004,-0.01674144944446676
3.008,-0.01674373329604466
3.012,-0.016746209471965964
3.016,-0.016742362985097924
3.02,-0.016742699552698876
3.024,-0.01674414198527439
3.028,-0.016747267255854674
3.032,-0.016746666242281542
3.036,-0.016744598755589972
3.04,-0.016744863201562148
3.044,-0.016744935323190924
3.048,-0.016745127647534327
3.052,-0.016746666242281542
3.056,-0.016743781377130514
3.06,-0.016742338944554996
3.064,-0.016741521566095537
3.068,-0.01674212257966867
3.072,-0.016743012079756904
3.076,-0.016743372687900784
3.08,-0.016743613093330036
3.084,-0.016744214106903167
3.088,-0.016743252485186155
3.092,-0.016742555309441323
3.096,-0.016743348647357856
3.1,-0.016742050458039892
3.104,-0.01674414198527439
3.108,-0.01674693068825372
3.112,-0.016748036553228283
3.116,-0.0167470028098825
3.12,-0.016744574715047048
3.124,-0.016743925620388064
3.128,-0.016744742998847522
3.132,-0.01674156964718139
3.136,-0.016740319538949274
3.14,-0.016743348647357856
3.144,-0.016743180363557382
3.148,-0.01674308420138568
3.152,-0.01674207449858282
3.156,-0.016743060160842753
3.16,-0.01674308420138568
3.164,-0.01674257934998425
3.168,-0.016743516931158334
3.172,-0.016743709255501737
3.176,-0.01674476703939045
3.18,-0.016747267255854674
3.184,-0.016745127647534327
3.188,-0.016743805417673438
3.192,-0.016743661174415884
3.196,-0.016740487822749752
3.2,-0.016743565012244187
3.204,-0.016744839161019223
3.208,-0.01674154560663846
3.212,-0.016740776309264856
3.216,-0.01674094459306533
3.22,-0.016741281160666286
3.224,-0.016742338944554996
3.228,-0.016743685214958812
3.232,-0.016744887242105076
3.236,-0.01674322844464323
3.24,-0.016740151255148796
3.244,-0.01673928579560349
3.248,-0.016741786012067716
3.2520000000000002,-0.016741930255325266
3.2560000000000002,-0.016744983404276777
3.2600000000000002,-0.01674618543142304
3.2640000000000002,-0.016743781377130514
3.2680000000000002,-0.01673952620103274
3.2720000000000002,-0.016737314471083616
3.2760000000000002,-0.016739718525376143
3.2800000000000002,-0.016741377322837987
3.2840000000000003,-0.01674120903903751
3.2880000000000003,-0.016741930255325266
3.2920000000000003,-0.01674217066075452
3.2960000000000003,-0.016744286228531944
3.3000000000000003,-0.016744262187989016
3.3040000000000003,-0.01674515168807725
3.3080000000000003,-0.01674289187704228
3.3120000000000003,-0.01674505552590555
3.3160000000000003,-0.016749358783089172
3.3200000000000003,-0.016749046256031144
3.3240000000000003,-0.016748228877571686
3.3280000000000003,-0.01674618543142304
3.332,-0.016745896944907936
3.336,-0.01674541613404943
3.34,-0.016746017147622562
3.344,-0.016745440174592355
3.348,-0.016746618161195694
3.352,-0.016747627863998554
3.356,-0.01674750766128393
3.36,-0.016747483620741004
3.364,-0.01674962322906135
3.368,-0.01675120990489442
3.372,-0.016748469283000937
3.376,-0.016746257553051813
3.38,-0.01674774806671318
3.384,-0.016748132715399985
3.388,-0.01674556037730698
3.392,-0.016745295931334805
3.396,-0.016745223809706028
3.4,-0.01674531997187773
3.404,-0.01674608926925134
3.408,-0.016746257553051813
3.412,-0.01674834908028631
3.416,-0.016749094337116997
3.42,-0.01674765190454148
3.424,-0.01674810867485706
3.428,-0.01674834908028631
3.432,-0.016750007877748156
3.436,-0.016751161823808567
3.44,-0.016751426269780746
3.444,-0.016750368485892033
3.448,-0.01674774806671318
3.452,-0.01674861352625849
3.456,-0.016749551107432575
3.46,-0.016745488255678207
3.464,-0.016746521999023992
3.468,-0.01674769998562733
3.472,-0.016747940391056582
3.476,-0.016750104039919857
3.48,-0.01675104162109394
3.484,-0.0167518589995534
3.488,-0.01675262829692701
3.492,-0.01675221960769728
3.496,-0.016754479418732253
3.5,-0.016752844661813336
3.504,-0.01675212344552558
3.508,-0.016751498391409523
3.512,-0.016749142418202845
3.516,-0.01674678644499617
3.52,-0.01674837312082924
3.524,-0.01674902221548822
3.528,-0.01674962322906135
3.532,-0.016749695350690128
3.536,-0.01674887797223067
3.54,-0.016746906647710797
3.544,-0.016746810485539096
3.548,-0.016750825256207615
3.552,-0.016750368485892033
3.556,-0.01675145031032367
3.56,-0.01674988767503353
3.564,-0.01675161859412415
3.568,-0.016755609324249743
3.572,-0.016755176594477086
3.576,-0.01675390244570205
3.58,-0.016750656972407137
3.584,-0.016750921418379316
3.588,-0.016752339810411906
3.592,-0.016750224242634483
3.596,-0.016749406864175025
3.6,-0.016748589485715566
3.604,-0.016748829891144817
3.608,-0.016750512729149587
3.612,-0.01675286870235626
3.616,-0.016753181229414292
3.62,-0.016754383256560555
3.624,-0.016754166891674225
3.628,-0.016755993972936548
3.632,-0.0167564267027092
3.636,-0.016755032351219536
3.64,-0.016756306499994576
3.644,-0.01675916732460268
3.648,-0.01676048955446357
3.652,-0.016760729959892823
3.656,-0.01675750852714084
3.66,-0.016756306499994576
3.664,-0.016757869135284716
3.668,-0.016755441040449265
3.672,-0.016752796580727487
3.676,-0.016751594553581224
3.68,-0.01675481598633321
3.684,-0.01675892691917343
3.688,-0.016756955594653556
3.692,-0.016755537202620966
3.696,-0.01675440729710348
3.7,-0.016756042054022396
3.704,-0.016754984270133687
3.708,-0.016750873337293463
3.712,-0.016753157188871364
3.716,-0.016752508094212384
3.72,-0.01675258021584116
3.724,-0.01675596993239362
3.728,-0.01675683539193893
3.732,-0.016755200635020014
3.736,-0.016754743864704432
3.74,-0.016756498824337978
3.744,-0.016759287527317306
3.748,-0.016760922284236226
3.7520000000000002,-0.01676068187880697
3.7560000000000002,-0.016760225108491393
3.7600000000000002,-0.016757941256913492
3.7640000000000002,-0.01675825378397152
3.7680000000000002,-0.01675774893257009
3.7720000000000002,-0.01675719600008281
3.7760000000000002,-0.016755080432305385
3.7800000000000002,-0.01675700367573941
3.7840000000000003,-0.01675911924351683
3.7880000000000003,-0.016760104905776767
3.7920000000000003,-0.016761138649122553
3.7960000000000003,-0.016759239446231457
3.8000000000000003,-0.016758830757001728
3.8040000000000003,-0.016759287527317306
3.8080000000000003,-0.016757532567683763
3.8120000000000003,-0.016755609324249743
3.8160000000000003,-0.016759047121888054
3.8200000000000003,-0.016760152986862616
3.8240000000000003,-0.016758085500171042
3.8280000000000003,-0.01676020106794847
3.8320000000000003,-0.016763975433187733
3.8360000000000003,-0.016762581081698067
3.84,-0.016762148351925413
3.844,-0.01676171562215276
3.848,-0.016760465513920644
3.852,-0.01675892691917343
3.856,-0.01676104248695085
3.86,-0.0167631820952712
3.864,-0.01676212431138249
3.868,-0.016761282892380103
3.872,-0.016759960662519214
3.876,-0.016758950959716353
3.88,-0.01675834994614322
3.884,-0.016759311567860233
3.888,-0.016758686513744174
3.892,-0.016762244514097115
3.896,-0.016761427135637656
3.9,-0.01675765277039839
3.904,-0.016758301865057373
3.908,-0.01675856631102955
3.912,-0.016758085500171042
3.916,-0.016758277824514445
3.92,-0.01676085016260745
3.924,-0.016760225108491393
3.928,-0.016757556608226688
3.932,-0.01676058571663527
3.936,-0.016763518662872155
3.94,-0.01676491301436182
3.944,-0.016763566743958003
3.948,-0.01676029723012017
3.952,-0.01675875863537295
3.956,-0.01675810954071397
3.96,-0.016757989337999345
3.964,-0.016758325905600297
3.968,-0.01676048955446357
3.972,-0.016762196433011266
3.976,-0.016761907946496162
3.98,-0.016762605122240995
3.984,-0.016760513595006497
3.988,-0.01676104248695085
3.992,-0.016761595419438134
3.996,-0.01676368694667263
4.0,-0.016762100270839565
4.0040000000000004,-0.01675774893257009
4.008,-0.016758133581256895
4.0120000000000005,-0.016760369351748943
4.016,-0.016760609757178198
4.0200000000000005,-0.01676339846015753
4.024,-0.016764239879159912
4.0280000000000005,-0.01676404755481651
4.032,-0.016762989770927796
4.0360000000000005,-0.016759696216547038
4.04,-0.01676368694667263
4.0440000000000005,-0.016764263919702836
4.048,-0.016765273622505697
4.0520000000000005,-0.016764095635902358
4.056,-0.016763662906129705
4.0600000000000005,-0.016766283325308558
4.064,-0.016765802514450055
4.0680000000000005,-0.01676647564965196
4.072,-0.016764720690018418
4.0760000000000005,-0.01676313401418535
4.08,-0.01676541786576325
4.0840000000000005,-0.016766619892909514
4.088,-0.01676597079825053
4.0920000000000005,-0.016766211203679784
4.096,-0.01676592271716468
4.1,-0.016765225541419848
4.104,-0.016766523730737812
4.108,-0.016767268987568494
4.112,-0.01676587463607883
4.116,-0.016767172825396793
4.12,-0.016764888973818892
4.124,-0.016762292595182963
4.128,-0.016760826122064525
4.132,-0.016761403095094732
4.136,-0.01676464856838964
4.14,-0.01676700454159632
4.144,-0.016766259284765633
4.148,-0.01676683625779584
4.152,-0.016770129812176602
4.156,-0.016769384555345917
4.16,-0.016769336474260068
4.164,-0.01676892778503034
4.168,-0.016770826987921435
4.172,-0.016766860298338765
4.176,-0.01676573039282128
4.18,-0.01676760555516945
4.184,-0.01676734110919727
4.188,-0.016767701717341148
4.192,-0.01676633140639441
4.196,-0.01676779787951285
4.2,-0.016767942122770402
4.204,-0.016769216271545442
4.208,-0.016770778906835582
4.212,-0.01677034617706293
4.216,-0.01676801424439918
4.22,-0.016769096068830813
4.224,-0.016767124744310944
4.228,-0.0167655621090208
4.232,-0.016762076230296637
4.236,-0.016759503892203636
4.24,-0.016764360081874537
4.244,-0.01676700454159632
4.248,-0.016766187163136857
4.252,-0.01676738919028312
4.256,-0.016764600487303792
4.26,-0.016762340676268816
4.264,-0.016761114608579628
4.268,-0.016760922284236226
4.272,-0.016765105338705222
4.276,-0.016766547771280737
4.28,-0.016764432203503314
4.284,-0.016763807149387258
4.288,-0.01676623524422271
4.292,-0.016764336041331613
4.296,-0.01676363886558678
4.3,-0.01676226855464004
4.304,-0.016760609757178198
4.308,-0.016762749365498545
4.312,-0.016764167757531135
4.316,-0.016764937054904745
4.32,-0.016764239879159912
4.324,-0.016763206135814127
4.328,-0.016765369784677398
4.332,-0.01676551402793495
4.336,-0.016765177460333996
4.34,-0.01676820656874258
4.344,-0.016771668406923818
4.348,-0.016769408595888845
4.352,-0.016769456676974694
4.356,-0.016768134447113805
4.36,-0.016766812217252916
4.364,-0.01676582655499298
4.368,-0.016766259284765633
4.372,-0.016767533433540673
4.376,-0.016769817285118574
4.38,-0.016768062325485028
4.384,-0.01676861525797231
4.388,-0.016767966163313327
4.392,-0.016766091000965155
4.396,-0.0167654659468491
4.4,-0.01676698050105339
4.404,-0.016765081298162295
4.408,-0.01676573039282128
4.412,-0.01676789404168455
4.416,-0.016769889406747347
4.42,-0.016770634663578032
4.424,-0.016770225974348303
4.428,-0.016769504758060542
4.432,-0.01677085102846436
4.436,-0.01677125971769409
4.44,-0.016768783541772785
4.444,-0.01676866333905816
4.448,-0.01677049042032048
4.452,-0.01677104335280776
4.456,-0.016770706785206806
4.46,-0.016769216271545442
4.464,-0.016767677676798223
4.468,-0.016771307798779937
4.472,-0.01677181265018137
4.476,-0.016768687379601084
4.48,-0.01676890374448741
4.484,-0.016768591217429383
4.488,-0.016767966163313327
4.492,-0.016767052622682167
4.496,-0.01676760555516945
4.5,-0.01676875950122986
4.5040000000000004,-0.016767533433540673
4.508,-0.016766860298338765
4.5120000000000005,-0.01676688433888169
4.516,-0.016767172825396793
4.5200000000000005,-0.016768591217429383
4.524,-0.016768591217429383
4.5280000000000005,-0.016768326771457207
4.532,-0.016768831622858638
4.5360000000000005,-0.016770009609461976
4.54,-0.01677171648800967
4.5440000000000005,-0.016771740528552594
4.548,-0.01677034617706293
4.5520000000000005,-0.01676830273091428
4.556,-0.016766451609109036
4.5600000000000005,-0.016766042919879307
4.564,-0.016767966163313327
4.5680000000000005,-0.016768326771457207
4.572,-0.016767052622682167
4.5760000000000005,-0.016764576446760864
4.58,-0.016768879703944486
4.5840000000000005,-0.01677017789326245
4.588,-0.016772149217782324
4.5920000000000005,-0.016772413663754503
4.596,-0.016770899109550208
4.6000000000000005,-0.016770418298691706
4.604,-0.01677277427189838
4.6080000000000005,-0.016773591650357838
4.612,-0.016771692447466742
4.616,-0.01677125971769409
4.62,-0.016771788609638443
4.624,-0.016770250014891228
4.628,-0.016771788609638443
4.632,-0.016773615690900766
4.636,-0.016776019745193292
4.64,-0.016776260150622543
4.644,-0.016775346609991384
4.648,-0.016774384988274372
4.652,-0.016775635096506487
4.656,-0.016776188028993767
4.66,-0.01677674096148105
4.664,-0.01677541873162016
4.668,-0.01677623611007962
4.672,-0.01677671692093812
4.676,-0.016776909245281524
4.68,-0.016776500556051795
4.684,-0.01677633227225132
4.688,-0.016776957326367376
4.692,-0.01677952966446038
4.696,-0.01677890461034432
4.7,-0.016779145015773576
4.704,-0.016780106637490584
4.708,-0.01678140482680855
4.712,-0.016780395124005688
4.716,-0.016777822785912687
4.72,-0.01677671692093812
4.724,-0.016777269853425404
4.728,-0.016780467245634464
4.732,-0.01678085189432127
4.736,-0.016781525029523174
4.74,-0.01678049128617739
4.744,-0.01677984219151841
4.748,-0.01677657267768057
4.752,-0.01677638035333717
4.756,-0.016775346609991384
4.76,-0.016775635096506487
4.764,-0.016776692880395197
4.768,-0.01677729389396833
4.772,-0.01677739005614003
4.776,-0.016773856096330017
4.78,-0.016771139514979463
4.784,-0.016771331839322865
4.788,-0.016770225974348303
4.792,-0.016768999906659112
4.796,-0.016768639298515235
4.8,-0.01676760555516945
4.804,-0.01676866333905816
4.808,-0.016770610623035108
4.812,-0.01677246174484035
4.816,-0.01677373589361539
4.82,-0.01677505812347628
4.824,-0.01677529852890553
4.828,-0.0167746975153324
4.832,-0.0167723175015828
4.836,-0.016773832055787093
4.84,-0.01677551489379186
4.844,-0.016774577312617774
4.848,-0.016772942555698857
4.852,-0.01677267810972668
4.856,-0.016773976299044643
4.86,-0.016775274488362607
4.864,-0.016777918948084385
4.868,-0.016778135312970715
4.872,-0.01677693328582445
4.876,-0.01677551489379186
4.88,-0.016774986001847503
4.884,-0.016773856096330017
4.888,-0.0167726059880979
4.892,-0.016771980933981846
4.896,-0.016775034082933356
4.9,-0.01677529852890553
4.904,-0.016774673474789475
4.908,-0.016773759934158316
4.912,-0.016775250447819683
4.916,-0.01677842379948582
4.92,-0.016777077529082002
4.924,-0.01677419266393097
4.928,-0.016772822352984232
4.932,-0.01677313488004226
4.936,-0.016772654069183754
4.94,-0.016775034082933356
4.944,-0.016776668839852273
4.948,-0.01677815935351364
4.952,-0.01677683712365275
4.956,-0.01677419266393097
4.96,-0.016777510258854655
4.964,-0.016775755299221113
4.968,-0.016778952691430173
4.972,-0.016779241177945277
4.976,-0.01677835167785704
4.98,-0.016777918948084385
4.984,-0.01677789490754146
4.988,-0.016775226407276758
4.992,-0.016774312866645595
4.996,-0.01677647651550887
5.0,-0.0167746975153324
5.0040000000000004,-0.016777702583198058
5.008,-0.016776356312794245
5.0120000000000005,-0.016775899542478663
5.016,-0.016776188028993767
5.0200000000000005,-0.016775995704650364
5.024,-0.016775178326190906
5.0280000000000005,-0.016775250447819683
5.032,-0.016774673474789475
5.0360000000000005,-0.016774865799132878
5.04,-0.016774721555875328
5.0440000000000005,-0.016773832055787093
5.048,-0.016776500556051795
5.0520000000000005,-0.016777774704826835
5.056,-0.016775995704650364
5.0600000000000005,-0.016773062758413483
5.064,-0.016774745596418252
5.0680000000000005,-0.01677638035333717
5.072,-0.016775947623564515
5.0760000000000005,-0.016775274488362607
5.08,-0.01677871228600092
5.0840000000000005,-0.016778231475142416
5.088,-0.016774577312617774
5.0920000000000005,-0.01677253386646913
5.096,-0.016773663771986615
5.1000000000000005,-0.016775947623564515
5.104,-0.016776548637137647
5.1080000000000005,-0.01677748621831173
5.112,-0.016780154718576436
5.1160000000000005,-0.016780635529434942
5.12,-0.01678017875911936
5.124,-0.01678118846192222
5.128,-0.016780924015950043
5.132,-0.01678032300237691
5.136,-0.016781164421379297
5.14,-0.01678068361052079
5.144,-0.01678053936726324
5.148,-0.016781669272780728
5.152,-0.01678058744834909
5.156,-0.016782438570154337
5.16,-0.016783400191871346
5.164,-0.016782486651240186
5.168,-0.016781789475495353
5.172,-0.01677962582663208
5.176,-0.01678008259694766
5.18,-0.01678032300237691
5.184,-0.016778784407629695
5.188,-0.016778519961657516
5.192,-0.01677623611007962
5.196,-0.01677496196130458
5.2,-0.016777173691253703
5.204,-0.016776452474965946
5.208,-0.016777414096682954
5.212,-0.016777029447996153
5.216,-0.016777774704826835
5.22,-0.016778976731973098
5.224,-0.016778880569801397
5.228,-0.01677842379948582
5.232,-0.016775538934334786
5.236,-0.01677623611007962
5.24,-0.01677734197505418
5.244,-0.01677714965071078
5.248,-0.016777702583198058
5.252,-0.01677962582663208
5.256,-0.016778519961657516
5.26,-0.016779120975230648
5.264,-0.016782198164725082
5.268,-0.016783832921644003
5.272,-0.01678210200255338
5.276,-0.016780250880748138
5.28,-0.016778688245457994
5.284,-0.016779505623917453
5.288,-0.016780274921291062
5.292,-0.016778183394056564
5.296,-0.016779120975230648
5.3,-0.016779601786089154
5.304,-0.016782751097212365
5.308,-0.016782558772868963
5.312,-0.016783159786442094
5.316,-0.016780924015950043
5.32,-0.01678032300237691
5.324,-0.01678303958372747
5.328,-0.01678465030010346
5.332,-0.016782654935040664
5.336,-0.01678032300237691
5.34,-0.016782198164725082
5.344,-0.016783472313500122
5.348,-0.016784121408159103
5.352,-0.016784241610873732
5.356,-0.0167813567457227
5.36,-0.016777702583198058
5.364,-0.016777870866998536
5.368,-0.01678085189432127
5.372,-0.016781981799838756
5.376,-0.016782246245810935
5.38,-0.01678479454336101
5.384,-0.016784433935217134
5.388,-0.01678556384073462
5.392,-0.01678460221901761
5.396,-0.016785323435305366
5.4,-0.01678510707041904
5.404,-0.016782727056669437
5.408,-0.01678263089449774
5.412,-0.0167840252459874
5.416,-0.016783255948613796
5.42,-0.016783159786442094
5.424,-0.016782991502641616
5.428,-0.016784169489244955
5.432,-0.016784121408159103
5.436,-0.016780803813235417
5.44,-0.016781212502465146
5.444,-0.01678227028635386
5.448,-0.016781933718752907
5.452,-0.016784578178474684
5.456,-0.01678657354353748
5.46,-0.01678460221901761
5.464,-0.0167861167732219
5.468,-0.016787054354395987
5.472,-0.01678587636779265
5.476,-0.016785443638019995
5.48,-0.016784361813588358
5.484,-0.016781885637667054
5.488,-0.01677952966446038
5.492,-0.01678099613757882
5.496,-0.01678099613757882
5.5,-0.016781789475495353
5.5040000000000004,-0.016781068259207596
5.508,-0.01678068361052079
5.5120000000000005,-0.016783304029699644
5.516,-0.016784530097388832
5.5200000000000005,-0.016783472313500122
5.524,-0.01678287129992699
5.5280000000000005,-0.01678186159712413
5.532,-0.016780395124005688
5.5360000000000005,-0.016781717353866576
5.54,-0.016779241177945277
5.5440000000000005,-0.016778039150799014
5.548,-0.01678008259694766
5.5520000000000005,-0.01677623611007962
5.556,-0.016778640164372145
5.5600000000000005,-0.016780515326720313
5.564,-0.016781549070066102
5.5680000000000005,-0.016781789475495353
5.572,-0.016779746029346707
5.5760000000000005,-0.016778544002200444
5.58,-0.0167790728941448
5.5840000000000005,-0.016781068259207596
5.588,-0.016780467245634464
5.5920000000000005,-0.016780419164548612
5.596,-0.0167791690563165
5.6000000000000005,-0.01677943350228868
5.604,-0.01678068361052079
5.6080000000000005,-0.01677892865088725
5.612,-0.016781284624093923
5.6160000000000005,-0.016781669272780728
5.62,-0.016780467245634464
5.6240000000000006,-0.016777053488539077
5.628,-0.01677775066428391
5.632,-0.01678044320509154
5.636,-0.016779794110432556
5.64,-0.016778087231884863
5.644,-0.016777125610167854
5.648,-0.016777630461569285
5.652,-0.016776789042566898
5.656,-0.016776260150622543
5.66,-0.01677546681270601
5.664,-0.016774889839675802
5.668,-0.016775899542478663
5.672,-0.016776356312794245
5.676,-0.01677890461034432
5.68,-0.01678236644852556
5.684,-0.016779890272604257
5.688,-0.016780563407806166
5.692,-0.01677984219151841
5.696,-0.01677931329957405
5.7,-0.01677835167785704
5.704,-0.01677693328582445
5.708,-0.016777077529082002
5.712,-0.016777510258854655
5.716,-0.016777077529082002
5.72,-0.016778135312970715
5.724,-0.016781260583551
5.728,-0.01678465030010346
5.732,-0.016784674340646386
5.736,-0.01678291938101284
5.74,-0.016782174124182158
5.744,-0.0167814529078944
5.748,-0.01678150098898025
5.752,-0.016782342407982636
5.756,-0.0167839290838157
5.76,-0.01678301554318454
5.764,-0.016783496354043047
5.768,-0.016785227273133665
5.772,-0.0167836405973006
5.776,-0.016784313732502505
5.78,-0.016786261016479453
5.784,-0.016786164854307752
5.788,-0.016784722421732234
5.792,-0.01678510707041904
5.796,-0.016785948489421425
5.8,-0.016786862030052585
5.804,-0.0167837367594723
5.808,-0.016782222205268007
5.812,-0.016782895340469915
5.816,-0.016786333138108227
5.82,-0.01678671778679503
5.824,-0.016784914746075637
5.828,-0.016786862030052585
5.832,-0.01678597252996435
5.836,-0.016787198597653537
5.84,-0.016787727489597892
5.844,-0.016786164854307752
5.848,-0.016787198597653537
5.852,-0.016789121841087558
5.856,-0.016788857395115382
5.86,-0.01678957861140314
5.864,-0.016790299827690897
5.868,-0.01679118932777913
5.872,-0.01679008346280457
5.876,-0.016788520827514426
5.88,-0.01678880931402953
5.884,-0.016789338205973885
5.888,-0.016789891138461167
5.892,-0.016789915179004092
5.896,-0.016792126908953216
5.9,-0.016791381652122534
5.904,-0.016792944287412674
5.908,-0.016791525895380084
5.912,-0.01678981901683239
5.916,-0.016789939219547016
5.92,-0.016787198597653537
5.924,-0.01678729475982524
5.928,-0.016788544868057354
5.932,-0.016789338205973885
5.936,-0.016790972962892805
5.94,-0.01678907376000171
5.944,-0.01679008346280457
5.948,-0.01679150185483716
5.952,-0.016789338205973885
5.956,-0.01678972285466069
5.96,-0.016789650733031916
5.964,-0.01678789577339837
5.968,-0.01678765536796912
5.972,-0.016789482449231438
5.976,-0.01678729475982524
5.98,-0.01678570808399217
5.984,-0.016789650733031916
5.988,-0.016790395989862598
5.992,-0.01679008346280457
5.996,-0.01679022770606212
6.0,-0.01679186246298104
6.0040000000000004,-0.01679246347655417
6.008,-0.016789458408688514
6.0120000000000005,-0.01678816021937055
6.016,-0.01679013154389042
6.0200000000000005,-0.016787318800368163
6.024,-0.01678520323259074
6.0280000000000005,-0.016784361813588358
6.032,-0.016786645665166258
6.0360000000000005,-0.01678748708416864
6.04,-0.016789362246516813
6.0440000000000005,-0.016788232340999323
6.048,-0.01678693415168136
6.0520000000000005,-0.016787366881454015
6.056,-0.016789290124888036
6.0600000000000005,-0.01678957861140314
6.064,-0.01678813617882762
6.0680000000000005,-0.016788953557287083
6.072,-0.016788641030229055
6.0760000000000005,-0.016787102435481836
6.08,-0.016787198597653537
6.0840000000000005,-0.01678561192182047
6.088,-0.016787463043625717
6.0920000000000005,-0.016788833354572454
6.096,-0.016789602651946064
6.1000000000000005,-0.016790564273663076
6.104,-0.016791573976465936
6.1080000000000005,-0.01679176630080934
6.112,-0.016790299827690897
6.1160000000000005,-0.016789097800544633
6.12,-0.016789434368145586
6.1240000000000006,-0.016788376584256876
6.128,-0.016788737192400753
6.132000000000001,-0.016789338205973885
6.136,-0.0167904921520343
6.140000000000001,-0.01679063639529185
6.144,-0.01679176630080934
6.148,-0.01679013154389042
6.152,-0.016792535598182945
6.156,-0.016790107503347494
6.16,-0.016788472746428577
6.164,-0.016792703881983423
6.168,-0.01679328085501363
6.172,-0.0167951560173618
6.176,-0.016795035814647172
6.18,-0.016793857828043837
6.184,-0.016794771368674997
6.188,-0.016793545300985806
6.192,-0.016790540233120148
6.196,-0.016790588314206
6.2,-0.016789698814117765
6.204,-0.016790251746605048
6.208,-0.016793665503700435
6.212,-0.016795829152563706
6.216,-0.016797728355454802
6.22,-0.016797151382424595
6.224,-0.01679729562568215
6.228,-0.016797704314911878
6.232,-0.016799146747487392
6.236,-0.016794627125417443
6.24,-0.016792896206326825
6.244,-0.016796093598535886
6.248,-0.016798473612285487
6.252,-0.016797151382424595
6.256,-0.01679493965247547
6.26,-0.016794579044331594
6.264,-0.016795732990392005
6.268,-0.01679368954424336
6.272,-0.0167953483417052
6.276,-0.016797103301338746
6.28,-0.016796237841793436
6.284,-0.016794819449760846
6.288,-0.0167953483417052
6.292,-0.016797752395997727
6.296,-0.016796358044508065
6.3,-0.016793857828043837
6.304,-0.01679236731438247
6.308,-0.01679241539546832
6.312,-0.016793256814470706
6.316,-0.016795252179533503
6.32,-0.016795396422791053
6.324,-0.016796093598535886
6.328,-0.01679570894984908
6.332,-0.01679469924704622
6.336,-0.016793304895556554
6.34,-0.016793208733384853
6.344,-0.016794891571389622
6.348,-0.0167954445038769
6.352,-0.0167950598551901
6.356,-0.01679597339582126
6.36,-0.01679537238224813
6.364,-0.01679469924704622
6.368,-0.01679433863890234
6.372,-0.016793256814470706
6.376,-0.016795324301162276
6.38,-0.01679813704468453
6.384,-0.0167974398689397
6.388,-0.016792992368498526
6.392,-0.016793256814470706
6.396,-0.01679806492305576
6.4,-0.016796694612109017
6.404,-0.016794146314558937
6.408,-0.016792655800897574
6.412,-0.016793208733384853
6.416,-0.016791573976465936
6.42,-0.016794675206503296
6.424,-0.016797103301338746
6.428,-0.0167974398689397
6.432,-0.01679712734188167
6.436,-0.01679597339582126
6.44,-0.016796454206679766
6.444,-0.016796814814823643
6.448,-0.016796141679621734
6.452,-0.016793040449584375
6.456,-0.01679301640904145
6.46,-0.01679409823347309
6.464,-0.01679556470659153
6.468,-0.016797704314911878
6.472,-0.016796959058081196
6.476,-0.016797680274368954
6.48,-0.016798497652828412
6.484,-0.016794867530846698
6.488,-0.016795636828220304
6.492,-0.016797319666225073
6.496,-0.016796502287765615
6.5,-0.016795131976818874
6.5040000000000004,-0.016797415828396774
6.508,-0.016797608152740177
6.5120000000000005,-0.016794891571389622
6.516,-0.01679546854441983
6.5200000000000005,-0.016795925314735408
6.524,-0.01679662249048024
6.5280000000000005,-0.01679739178785385
6.532,-0.016798473612285487
6.5360000000000005,-0.01679693501753827
6.54,-0.016796358044508065
6.5440000000000005,-0.016798233206856233
6.548,-0.016799002504229842
6.5520000000000005,-0.016800661301691687
6.556,-0.016802344139696453
6.5600000000000005,-0.016803762531729043
6.564,-0.016804147180415847
6.5680000000000005,-0.01680176716666625
6.572,-0.016799747761060524
6.5760000000000005,-0.0168019114099238
6.58,-0.016802752828926182
6.5840000000000005,-0.016801622923408695
6.588,-0.01679602147690711
6.5920000000000005,-0.016794987733561324
6.596,-0.016795492584962754
6.6000000000000005,-0.016796838855366567
6.604,-0.016797848558169428
6.6080000000000005,-0.01679703117970997
6.612,-0.01679474732813207
6.6160000000000005,-0.016792150949496144
6.62,-0.016791021043978654
6.6240000000000006,-0.016792223071124917
6.628,-0.016794074192930164
6.632000000000001,-0.01679433863890234
6.636,-0.01679392994967261
6.640000000000001,-0.01679657440939439
6.644,-0.01679638208505099
6.648000000000001,-0.016793905909129686
6.652,-0.016796093598535886
6.656000000000001,-0.016798834220429364
6.66,-0.01679907462585862
6.664,-0.016801935450466723
6.668,-0.016800757463863385
6.672,-0.016800973828749715
6.676,-0.01680022857191903
6.68,-0.0167998198826893
6.684,-0.01679844957174256
6.688,-0.01679895442314399
6.692,-0.016799194828573245
6.696,-0.01680032473409073
6.7,-0.016802031612638425
6.704,-0.016802608585668632
6.708,-0.016800805544949237
6.712,-0.016799507355631273
6.716,-0.01680164696395162
6.72,-0.016804387585845102
6.724,-0.016799892004318077
6.728,-0.016799507355631273
6.732,-0.016799387152916647
6.736,-0.016798473612285487
6.74,-0.016797199463510448
6.744,-0.01679662249048024
6.748,-0.016797584112197252
6.752,-0.016798185125770384
6.756,-0.016799387152916647
6.76,-0.01679881017988644
6.764,-0.01679871401771474
6.768,-0.01679967563943175
6.772,-0.016801190193636042
6.776,-0.01680155080177992
6.78,-0.01680159888286577
6.784,-0.01680063726114876
6.788,-0.01680155080177992
6.792,-0.016801478680151145
6.796,-0.016799771801603452
6.8,-0.01680032473409073
6.804,-0.016800709382777536
6.808,-0.016802800910012034
6.812,-0.016804555869645577
6.816,-0.0168021037342672
6.82,-0.01680073342332046
6.824,-0.016801983531552576
6.828,-0.016800036247575627
6.832,-0.01679871401771474
6.836,-0.016796237841793436
6.84,-0.016796814814823643
6.844,-0.016799002504229842
6.848,-0.016801478680151145
6.852,-0.0168021037342672
6.856,-0.016801190193636042
6.86,-0.016799435234002496
6.864,-0.01679739178785385
6.868,-0.016799026544772767
6.872,-0.016799916044861002
6.876,-0.01679967563943175
6.88,-0.016801622923408695
6.884,-0.01680058918006291
6.888,-0.01680150272069407
6.892,-0.016802199896438903
6.896,-0.016800757463863385
6.9,-0.016800348774633656
6.904,-0.016800372815176583
6.908,-0.016799795842146376
6.912,-0.0167998198826893
6.916,-0.016799435234002496
6.92,-0.016803762531729043
6.924,-0.01680671951850885
6.928,-0.016806431031993748
6.932,-0.016802536464039855
6.936,-0.016805830018420616
6.94,-0.01680352212629979
6.944,-0.01680484435616068
6.948,-0.01680474819398898
6.952,-0.01680352212629979
6.956,-0.01680241626132523
6.96,-0.016802584545125707
6.964,-0.016803113437070062
6.968,-0.016804627991274353
6.972,-0.016806599315794226
6.976,-0.016805805977877692
6.98,-0.016806695477965927
6.984,-0.0168063829509079
6.988,-0.01680739265371076
6.992,-0.01681049388374812
6.996,-0.01680986882963206
7.0,-0.01680890720791505
7.0040000000000004,-0.01681205651903826
7.008,-0.01681073428917737
7.0120000000000005,-0.01680948418094526
7.016,-0.01681232096501044
7.0200000000000005,-0.016813595113785478
7.024,-0.01681068620809152
7.0280000000000005,-0.01681200843795241
7.032,-0.01681366723541425
7.0360000000000005,-0.016814027843558132
7.04,-0.016813763397585953
7.0440000000000005,-0.016815903005906303
7.048,-0.016818499384542232
7.0520000000000005,-0.016819172519744137
7.056,-0.01681635977622188
7.0600000000000005,-0.016814220167901534
7.064,-0.016813619154328403
7.0680000000000005,-0.016814364411159084
7.072,-0.016815734722105825
7.0760000000000005,-0.016815157749075618
7.08,-0.016813643194871327
7.0840000000000005,-0.016813402789442076
7.088,-0.016814412492244937
7.0920000000000005,-0.016811215100035876
7.096,-0.01680977266746036
7.1000000000000005,-0.016813090262384048
7.104,-0.01681397976247228
7.1080000000000005,-0.016812753694783092
7.112,-0.016815013505818068
7.1160000000000005,-0.01681241712718214
7.12,-0.016811359343293426
7.1240000000000006,-0.016812729654240167
7.128,-0.01681099873514955
7.132000000000001,-0.01681241712718214
7.136,-0.016811984397409486
7.140000000000001,-0.016813547032699626
7.144,-0.01681369127595718
7.148000000000001,-0.01681383551921473
7.152,-0.01681494138418929
7.156000000000001,-0.016815013505818068
7.16,-0.016815085627446845
7.164000000000001,-0.01681768200608277
7.168,-0.0168179945331408
7.172,-0.016818475343999304
7.176,-0.016817465641196443
7.18,-0.016814220167901534
7.184,-0.016813763397585953
7.188,-0.016814725019302965
7.192,-0.016815181789618543
7.196,-0.016814148046272757
7.2,-0.016814725019302965
7.204,-0.01681140742437928
7.208,-0.01680972458637451
7.212,-0.016810253478318864
7.216,-0.016809508221488183
7.22,-0.016810421762119342
7.224,-0.016809892870174988
7.228,-0.01681109489732125
7.232,-0.016811311262207577
7.236,-0.016809916910717912
7.24,-0.016810205397233016
7.244,-0.01681049388374812
7.248,-0.016809604383659884
7.252,-0.016811864194694857
7.256,-0.016814316330073235
7.26,-0.01681037368103349
7.264,-0.016808762964657498
7.268,-0.01680881104574335
7.272,-0.016807849424026338
7.276,-0.016810061153975462
7.28,-0.016813210465098673
7.284,-0.016814220167901534
7.288,-0.01681626361405018
7.292,-0.016814556735502487
7.296,-0.016812585410982617
7.3,-0.01681470097876004
7.304,-0.016816071289706778
7.308,-0.016816576141108208
7.312,-0.01681566260047705
7.316,-0.01681419612735861
7.32,-0.01681424420844446
7.324,-0.016812176721752885
7.328,-0.0168111429784071
7.332,-0.016810566005376892
7.336,-0.0168133306678133
7.34,-0.016813883600300582
7.344,-0.01681292197858357
7.348,-0.016812801775868944
7.352,-0.016814027843558132
7.356,-0.01681688866816624
7.36,-0.01681821089802713
7.364,-0.01681676846545161
7.368,-0.016816960789795013
7.372,-0.016815542397762423
7.376,-0.016814484613873713
7.38,-0.016814484613873713
7.384,-0.01681458077604541
7.388,-0.016815734722105825
7.392,-0.016818475343999304
7.396,-0.016817008870880865
7.4,-0.016813955721929355
7.404,-0.016815398154504873
7.408,-0.016816047249163853
7.412,-0.016815301992333172
7.416,-0.016815542397762423
7.42,-0.016817056951966714
7.424,-0.016816479978936507
7.428,-0.01681717715468134
7.432,-0.016816576141108208
7.436,-0.016816864627623312
7.44,-0.016819292722458766
7.444,-0.016819509087345093
7.448,-0.016817153114138415
7.452,-0.01681708099250964
7.456,-0.016814893303103443
7.46,-0.016814965424732216
7.464,-0.016816239573507256
7.468,-0.016816335735678957
7.472,-0.016815133708532694
7.476,-0.016814124005729833
7.48,-0.016817225235767192
7.484,-0.016818162816941276
7.488,-0.01681813877639835
7.492,-0.01681672038436576
7.496,-0.016817417560110594
7.5,-0.01681840322237053
7.5040000000000004,-0.016817513722282296
7.508,-0.016818258979112977
7.5120000000000005,-0.01681931676300169
7.516,-0.016820422627976252
7.5200000000000005,-0.016818980195400735
7.524,-0.016816383816764806
7.5280000000000005,-0.016816239573507256
7.532,-0.016816840587080387
7.5360000000000005,-0.01681703291142379
7.54,-0.016817874330426173
7.5440000000000005,-0.016821624655122516
7.548,-0.016823307493127285
7.5520000000000005,-0.016822033344352245
7.556,-0.0168203745468904
7.5600000000000005,-0.016820158182004073
7.564,-0.016818331100741754
7.5680000000000005,-0.016822345871410273
7.572,-0.01682551922307641
7.5760000000000005,-0.016824870128417425
7.58,-0.016824870128417425
7.5840000000000005,-0.016820807276663057
7.588,-0.016818018573683726
7.5920000000000005,-0.0168181868574842
7.596,-0.016818619587256858
7.6000000000000005,-0.01681727331685304
7.604,-0.016817321397938893
7.6080000000000005,-0.016818114735855427
7.612,-0.016817706046625698
7.6160000000000005,-0.016815975127535077
7.62,-0.016818379181827603
7.6240000000000006,-0.016819436965716316
7.628,-0.016819533127888017
7.632000000000001,-0.01682013414146115
7.636,-0.016822994966069253
7.640000000000001,-0.01682347577692776
7.644,-0.016821985263266392
7.648000000000001,-0.01682306708769803
7.652,-0.016822081425438094
7.656000000000001,-0.016822273749781496
7.66,-0.016824317195930145
7.664000000000001,-0.016824269114844293
7.668,-0.01682407679050089
7.672000000000001,-0.016821528492950814
7.676,-0.016819124438658288
7.68,-0.016821167884806934
7.684,-0.016820590911776727
7.688,-0.016817706046625698
7.692,-0.016817105033052566
7.696,-0.016816984830337937
7.7,-0.016820158182004073
7.704,-0.01682124000643571
7.708,-0.01682097556046353
7.712,-0.01682097556046353
7.716,-0.016820590911776727
7.72,-0.016821937182180544
7.724,-0.016820518790147954
7.728,-0.01682090343883476
7.732,-0.016821937182180544
7.736,-0.0168202783847187
7.74,-0.016820013938746523
7.744,-0.01682013414146115
7.748,-0.016821696776751292
7.752,-0.016822345871410273
7.756,-0.016819653330602643
7.76,-0.016819436965716316
7.764,-0.01682090343883476
7.768,-0.01682251415521075
7.772,-0.016821624655122516
7.776,-0.016819917776574822
7.78,-0.016819941817117746
7.784,-0.01682174485783714
7.788,-0.016821624655122516
7.792,-0.01682097556046353
7.796,-0.016819268681915838
7.8,-0.016819653330602643
7.804,-0.01682083131720598
7.808,-0.016820614952319655
7.812,-0.016824509520273548
7.816,-0.016825230736561305
7.82,-0.016824317195930145
7.824,-0.01682424507430137
7.828,-0.01682508649330375
7.832,-0.01682160061457959
7.836,-0.01682104768209231
7.84,-0.01682215354706687
7.844,-0.016823115168783882
7.848,-0.016822802641725854
7.852,-0.01682333153367021
7.856,-0.016821985263266392
7.86,-0.016818258979112977
7.864,-0.01681936484408754
7.868,-0.01682150445240789
7.872,-0.016822994966069253
7.876,-0.016825038412217903
7.88,-0.016825687506876883
7.884,-0.016827370344881652
7.888,-0.016829269547772748
7.892,-0.016826601047508043
7.896,-0.0168249422500462
7.9,-0.016823235371498508
7.904,-0.016824509520273548
7.908,-0.016825134574389604
7.912,-0.016826793371851445
7.916,-0.016826817412394373
7.92,-0.01682727418270995
7.924,-0.016827346304338728
7.928,-0.01682621639882124
7.932,-0.016824028709415042
7.936,-0.01682398062832919
7.94,-0.01682383638507164
7.944,-0.016822081425438094
7.948,-0.016824269114844293
7.952,-0.01682489416896035
7.956,-0.01682342769584191
7.96,-0.016822946884983404
7.964,-0.016821816979465918
7.968,-0.016822994966069253
7.972,-0.01682347577692776
7.976,-0.01682398062832919
7.98,-0.016825062452760827
7.984,-0.016826384682621716
7.988,-0.016826552966422194
7.992,-0.01682626447990709
7.996,-0.01682571154741981
8.0,-0.016826432763707568
8.004,-0.016826408723164644
8.008000000000001,-0.01682612023664954
8.012,-0.016829437831573226
8.016,-0.016832346737267183
8.02,-0.01683292371029739
8.024000000000001,-0.01683280350758276
8.028,-0.0168292214666869
8.032,-0.01682535093927593
8.036,-0.01682357193909946
8.040000000000001,-0.016824773966245724
8.044,-0.016827875196283083
8.048,-0.016827923277368935
8.052,-0.016826504885336345
8.056000000000001,-0.0168247499257028
8.06,-0.01682804348008356
8.064,-0.016827009736737775
8.068,-0.016825951952849062
8.072000000000001,-0.016826889534023146
8.076,-0.016823235371498508
8.08,-0.01682508649330375
8.084,-0.016828524290942067
8.088000000000001,-0.016827730953025533
8.092,-0.016829149345058123
8.096,-0.01682652892587927
8.1,-0.016826793371851445
8.104000000000001,-0.016828115601712337
8.108,-0.016828404088227437
8.112,-0.016826072155563688
8.116,-0.01682585579067736
8.120000000000001,-0.016825975993391987
8.124,-0.016824317195930145
8.128,-0.016826937615109
8.132,-0.016826913574566074
8.136000000000001,-0.016826096196106612
8.14,-0.016827418425967505
8.144,-0.016827202061081174
8.148,-0.01682676933130852
8.152000000000001,-0.01682424507430137
8.156,-0.016822898803897555
8.16,-0.016825831750134437
8.164,-0.016826745290765596
8.168000000000001,-0.016824124871586743
8.172,-0.01682636064207879
8.176,-0.01682859641257084
8.18,-0.016829341669401525
8.184000000000001,-0.016829798439717103
8.188,-0.016827514588139206
8.192,-0.01682575962850566
8.196,-0.016827851155740158
8.2,-0.016826745290765596
8.204,-0.016827562669225055
8.208,-0.016828067520626485
8.212,-0.016826456804250493
8.216,-0.01682987056134588
8.22,-0.016829509953202003
8.224,-0.01682854833148499
8.228,-0.01682727418270995
8.232,-0.016829149345058123
8.236,-0.01682708185836655
8.24,-0.01682919742614397
8.244,-0.016828932980171796
8.248,-0.016826721250222672
8.252,-0.016826697209679744
8.256,-0.016827322263795803
8.26,-0.016826552966422194
8.264,-0.01682768287193968
8.268,-0.016827514588139206
8.272,-0.016829149345058123
8.276,-0.01683155339935065
8.28,-0.016831000466863366
8.284,-0.016832851588668613
8.288,-0.016831168750663844
8.292,-0.01682987056134588
8.296,-0.01683164956152235
8.3,-0.01682963015591663
8.304,-0.016829894601888804
8.308,-0.016828836818000095
8.312,-0.016830086926232207
8.316,-0.016833356440070044
8.32,-0.01683330835898419
8.324,-0.016831841885865752
8.328,-0.016832034210209155
8.332,-0.016830928345234593
8.336,-0.016832130372380856
8.34,-0.016831433196636023
8.344,-0.016830086926232207
8.348,-0.016827899236826007
8.352,-0.016827754993568457
8.356,-0.016826384682621716
8.36,-0.01682963015591663
8.364,-0.016832226534552557
8.368,-0.01683256310215351
8.372,-0.016829437831573226
8.376,-0.016826985696194847
8.38,-0.016829846520802955
8.384,-0.016831721683151127
8.388,-0.01683383725092855
8.392,-0.016833957453643175
8.396,-0.01683525564296114
8.4,-0.01683424594015828
8.404,-0.016834101696900725
8.408,-0.016832875629211538
8.412,-0.016832539061610585
8.416,-0.016833380480612968
8.42,-0.01683727504856686
8.424,-0.016837900102682917
8.428,-0.01683566433219087
8.432,-0.01683383725092855
8.436,-0.016832082291295004
8.44,-0.01683138511555017
8.444,-0.01683246693998181
8.448,-0.016835279683504064
8.452,-0.016834462305044606
8.456,-0.016833957453643175
8.46,-0.01683357280495637
8.464,-0.016834053615814876
8.468,-0.016835736453819646
8.472,-0.01683357280495637
8.476,-0.016832875629211538
8.48,-0.016833765129299773
8.484,-0.01683265926432521
8.488,-0.016833284318441267
8.492,-0.016834005534729024
8.496,-0.01683352472387052
8.5,-0.016833260277898342
8.504,-0.016833957453643175
8.508000000000001,-0.01683576049436257
8.512,-0.016837202926938084
8.516,-0.016836048980877674
8.52,-0.01683239481835303
8.524000000000001,-0.016829485912659075
8.528,-0.016828524290942067
8.532,-0.016830952385777517
8.536,-0.016832683304868135
8.540000000000001,-0.016834221899615354
8.544,-0.016832539061610585
8.548,-0.016831168750663844
8.552,-0.01683220249400963
8.556000000000001,-0.016832851588668613
8.56,-0.016835327764589916
8.564,-0.01683580857544842
8.568,-0.016834101696900725
8.572000000000001,-0.016834005534729024
8.576,-0.01683681827825128
8.58,-0.016837226967481012
8.584,-0.016836601913364953
8.588000000000001,-0.016840376278604224
8.592,-0.01684145810303586
8.596,-0.016837202926938084
8.6,-0.016835544129476243
8.604000000000001,-0.01683580857544842
8.608,-0.016836601913364953
8.612,-0.01683893384602871
8.616,-0.016841482143578786
8.620000000000001,-0.01684186679226559
8.624,-0.016841169616520758
8.628,-0.01684100133272028
8.632,-0.01684109749489198
8.636000000000001,-0.01683984738665987
8.64,-0.016836842318794207
8.644,-0.016837323129652713
8.648,-0.016835207561875287
8.652000000000001,-0.016834558467216307
8.656,-0.016834029575271952
8.66,-0.01683316411572664
8.664,-0.016834462305044606
8.668000000000001,-0.016836962521508833
8.672,-0.016836601913364953
8.676,-0.016835039278074813
8.68,-0.016834798872645558
8.684000000000001,-0.01683984738665987
8.688,-0.016841674467922188
8.692,-0.016843982360043013
8.696,-0.01684523246827513
8.700000000000001,-0.016841794670636814
8.704,-0.016841337900321236
8.708,-0.016842059116608993
8.712,-0.016844391049272742
8.716,-0.01684379003569961
8.72,-0.016842972657240152
8.724,-0.016843429427555734
8.728,-0.016842804373439674
8.732,-0.016843309224841105
8.736,-0.016840424359690076
8.74,-0.016838380913541427
8.744,-0.01683948677851599
8.748,-0.016840015670460347
8.752,-0.016840135873174972
8.756,-0.01683948677851599
8.76,-0.016839967589374494
8.764,-0.016841674467922188
8.768,-0.01684049648131885
8.772,-0.016840736886748104
8.776,-0.016839703143402315
8.78,-0.016838861724399933
8.784,-0.01683907808928626
8.788,-0.016839246373086737
8.792,-0.016838308791912646
8.796,-0.016839054048743335
8.8,-0.016839727183945243
8.804,-0.016839655062316466
8.808,-0.016840063751546196
8.812,-0.016839823346116944
8.816,-0.01683917425145796
8.82,-0.016839558900144765
8.824,-0.016843429427555734
8.828,-0.016844246806015192
8.832,-0.016846626819764794
8.836,-0.016845905603477034
8.84,-0.016845400752075603
8.844,-0.016846674900850643
8.848,-0.016848237536140787
8.852,-0.016847588441481803
8.856,-0.01684715571170915
8.86,-0.016844895900674173
8.864,-0.01684328518429818
8.868,-0.016845352670989754
8.872,-0.016843886197871312
8.876,-0.016843116900497706
8.88,-0.016845136306103427
8.884,-0.016844006400585938
8.888,-0.016842155278780694
8.892,-0.01684537671153268
8.896,-0.0168448237790454
8.9,-0.016844511251987368
8.904,-0.01684405448167179
8.908,-0.016842972657240152
8.912,-0.016843261143755256
8.916,-0.016844270846558117
8.92,-0.01684379003569961
8.924,-0.016842828413982602
8.928,-0.01684338134646988
8.932,-0.016842588008553348
8.936,-0.016841025373263208
8.94,-0.01684150618412171
8.944,-0.016841385981407084
8.948,-0.016840256075889598
8.952,-0.016841554265207562
8.956,-0.01684237164366702
8.96,-0.01683934253525844
8.964,-0.016839799305574017
8.968,-0.016840376278604224
8.972,-0.016840135873174972
8.976,-0.016840304156975447
8.98,-0.016838477075713128
8.984,-0.016836457670107403
8.988,-0.016838068386483395
8.992,-0.01683994354883157
8.996,-0.016840159913717897
9.0,-0.01684061668403348
9.004,-0.016839967589374494
9.008000000000001,-0.016839222332543813
9.012,-0.016838501116256052
9.016,-0.01683943869743014
9.02,-0.01684090517054858
9.024000000000001,-0.016843405387012806
9.028,-0.01684345346809866
9.032,-0.01684506418447465
9.036,-0.01684237164366702
9.040000000000001,-0.0168405445624047
9.044,-0.01684213123823777
9.048,-0.01684160234629341
9.052,-0.016842467805838722
9.056000000000001,-0.01684237164366702
9.06,-0.016840400319147148
9.064,-0.016840833048919805
9.068,-0.016840664765119327
9.072000000000001,-0.016842708211267973
9.076,-0.016846867225194045
9.08,-0.016847179752252073
9.084,-0.016847468238767177
9.088000000000001,-0.016845593076419006
9.092,-0.016843573670813284
9.096,-0.01684222740040947
9.1,-0.016844895900674173
9.104000000000001,-0.016846578738678942
9.108,-0.016845953684562886
9.112,-0.0168449199412171
9.116,-0.016843910238414236
9.120000000000001,-0.016844631454701997
9.124,-0.016843910238414236
9.128,-0.016843982360043013
9.132,-0.016844391049272742
9.136000000000001,-0.016844342968186893
9.14,-0.016845905603477034
9.144,-0.016845256508818053
9.148,-0.016845280549360978
9.152000000000001,-0.01684470357633077
9.156,-0.016842948616697228
9.16,-0.01684338134646988
9.164,-0.016840929211091506
9.168000000000001,-0.016843116900497706
9.172,-0.016845136306103427
9.176,-0.016845304589903902
9.18,-0.016844775697959547
9.184000000000001,-0.016844631454701997
9.188,-0.01684496802230295
9.192,-0.01684395831950009
9.196,-0.016841650427379264
9.200000000000001,-0.01684121769760661
9.204,-0.016844030441128865
9.208,-0.01684278033289675
9.212,-0.01684210719769484
9.216000000000001,-0.01684109749489198
9.22,-0.016840664765119327
9.224,-0.016840256075889598
9.228,-0.016842708211267973
9.232,-0.016846410454878464
9.236,-0.01684698742790867
9.24,-0.016844511251987368
9.244,-0.016841410021950012
9.248,-0.016841482143578786
9.252,-0.016846915306279894
9.256,-0.016848501982112962
9.26,-0.016848501982112962
9.264,-0.016847636522567655
9.268,-0.016846915306279894
9.272,-0.016846506617050165
9.276,-0.01684583348184826
9.28,-0.016845040143931726
9.284,-0.016848958752428544
9.288,-0.01684999249577433
9.292,-0.016849559766001675
9.296,-0.016847997130711532
9.3,-0.016846698941393567
9.304,-0.01684547287370438
9.308,-0.016848838549713918
9.312,-0.016851651293236174
9.316,-0.01685136280672107
9.32,-0.016851242604006444
9.324,-0.016853406252869716
9.328,-0.016855401617932513
9.332,-0.016854271712415027
9.336,-0.016852853320382437
9.34,-0.016854752523273533
9.344,-0.016854512117844278
9.348,-0.016855593942275916
9.352,-0.016853213928526314
9.356,-0.01685292544201121
9.36,-0.016854271712415027
9.364,-0.016854584239473055
9.368,-0.01685263695549611
9.372,-0.01685556990173299
9.376,-0.016855449699018366
9.38,-0.016853502415041417
9.384,-0.016856411320735374
9.388,-0.0168563391991066
9.392,-0.016854848685445234
9.396,-0.016857012334308506
9.4,-0.016859512550772733
9.404,-0.01685487272598816
9.408,-0.016854992928702784
9.412,-0.01685629111802075
9.416,-0.016858743253399127
9.42,-0.01685665172616463
9.424,-0.016856771928879254
9.428,-0.01685583434770517
9.432,-0.016856363239649525
9.436,-0.01685456019893013
9.44,-0.016854079388071624
9.444,-0.016854271712415027
9.448,-0.016853334131240943
9.452,-0.016852084023008827
9.456,-0.01685318988798339
9.46,-0.016857589307338713
9.464,-0.016857372942452386
9.468,-0.016857445064081163
9.472,-0.01685679596942218
9.476,-0.0168563391991066
9.48,-0.016857276780280685
9.484,-0.016857541226252864
9.488,-0.016857108496480207
9.492,-0.016855666063904692
9.496,-0.016853911104271146
9.5,-0.0168540553475287
9.504,-0.016856315158563673
9.508000000000001,-0.016856194955849047
9.512,-0.016855642023361768
9.516,-0.01685501696924571
9.52,-0.016857613347881637
9.524000000000001,-0.016859368307515183
9.528,-0.01686049821303267
9.532,-0.016860402050860968
9.536,-0.016855401617932513
9.540000000000001,-0.016854439996215505
9.544,-0.01685460828001598
9.548,-0.016852156144637604
9.552,-0.01685338221232679
9.556000000000001,-0.016852492712238556
9.56,-0.016850280982289433
9.564,-0.016849896333602628
9.568,-0.016849655928173377
9.572000000000001,-0.016848958752428544
9.576,-0.016850881995862564
9.58,-0.01685035310391821
9.584,-0.01685049734717576
9.588000000000001,-0.01685054542826161
9.592,-0.016849896333602628
9.596,-0.016850280982289433
9.6,-0.016852444631152708
9.604000000000001,-0.016854848685445234
9.608,-0.01685287736092536
9.612,-0.016852805239296584
9.616,-0.01685292544201121
9.620000000000001,-0.0168541515097004
9.624,-0.01685364665829897
9.628,-0.016850665630976237
9.632,-0.016850785833690863
9.636000000000001,-0.016851723414864947
9.64,-0.01685537757738959
9.644,-0.01685583434770517
9.648,-0.01685607475313442
9.652000000000001,-0.01685780567222504
9.656,-0.016857324861366534
9.66,-0.01685826244254062
9.664,-0.01685972891565906
9.668000000000001,-0.01685968083457321
9.672,-0.01686095498334825
9.676,-0.016861027104977024
9.68,-0.016858526888512797
9.684000000000001,-0.01685857496959865
9.688,-0.016858695172313275
9.692,-0.01685612283422027
9.696,-0.016857733550596263
9.700000000000001,-0.01686045013194682
9.704,-0.016859560631858585
9.708,-0.016858839415570828
9.712,-0.016858959618285454
9.716000000000001,-0.016858046077654294
9.72,-0.016858022037111366
9.724,-0.0168610030644341
9.728,-0.016859921240002462
9.732,-0.01686013760488879
9.736,-0.016861387713120905
9.74,-0.016860113564345865
9.744,-0.01685621899639197
9.748,-0.016857012334308506
9.752,-0.01685958467240151
9.756,-0.016860257807603418
9.76,-0.016859801037287837
9.764,-0.016859608712944434
9.768,-0.016864248537729012
9.772,-0.016862349334837917
9.776,-0.016862349334837917
9.78,-0.016862758024067646
9.784,-0.016860618415747295
9.788,-0.016861940645608184
9.792,-0.016862493578095467
9.796,-0.01686242145646669
9.8,-0.016862229132123287
9.804,-0.016862205091580363
9.808,-0.01686343115926955
9.812,-0.01686292630786812
9.816,-0.016860281848146343
9.82,-0.016862445497009618
9.824,-0.016862301253752064
9.828,-0.01686076265900485
9.832,-0.01686013760488879
9.836,-0.016865138037817244
9.84,-0.01686922493011454
9.844,-0.01686857583545556
9.848,-0.01686872007871311
9.852,-0.016866340064963507
9.856,-0.0168654746054182
9.86,-0.016867614213738547
9.864,-0.016866243902791806
9.868,-0.016865450564875276
9.872,-0.01686496975401677
9.876,-0.01686496975401677
9.88,-0.01686597945681963
9.884,-0.016865138037817244
9.888,-0.016864945713473842
9.892,-0.016866243902791806
9.896,-0.016863815807956355
9.9,-0.016864128335014383
9.904,-0.016866267943334734
9.908,-0.016866267943334734
9.912,-0.016864585105329965
9.916,-0.01686410429447146
9.92,-0.016862229132123287
9.924,-0.016863094591668598
9.928,-0.01686415237555731
9.932,-0.01686496975401677
9.936,-0.01686444086207241
9.94,-0.016862349334837917
9.944,-0.016861483875292606
9.948,-0.016860570334661446
9.952,-0.016859368307515183
9.956,-0.016858238401997697
9.96,-0.01685917598317178
9.964,-0.016858647091227426
9.968,-0.016858022037111366
9.972,-0.016857589307338713
9.976,-0.016859296185886406
9.98,-0.016859416388601032
9.984,-0.016860017402174163
9.988,-0.01686073861846192
9.992,-0.01685968083457321
9.996,-0.01685963275348736
10.0,-0.01685831052362647
10.004,-0.01685912790208593
10.008000000000001,-0.016857613347881637
10.012,-0.016859969321088315
10.016,-0.01686218105103744
10.02,-0.01686292630786812
10.024000000000001,-0.01686126751040628
10.028,-0.01685944042914396
10.032,-0.016857973956025517
10.036,-0.016858046077654294
10.040000000000001,-0.016857685469510414
10.044,-0.016859200023714705
10.048,-0.016856050712591497
10.052,-0.016856675766707553
10.056000000000001,-0.016856868091050956
10.06,-0.016857925874939665
10.064,-0.016856675766707553
10.068,-0.016857372942452386
10.072000000000001,-0.01685790183439674
10.076,-0.01685984911837369
10.08,-0.016857853753310892
10.084,-0.016858142239825995
10.088000000000001,-0.016860161645431717
10.092,-0.016862036807779885
10.096,-0.016862301253752064
10.1,-0.016859464469686884
10.104000000000001,-0.016859007699371303
10.108,-0.016857829712767964
10.112,-0.016860882861719474
10.116,-0.016860546294118522
10.120000000000001,-0.016861051145519952
10.124,-0.016863527321441252
10.128,-0.01686278206461057
10.132,-0.016862854186239347
10.136000000000001,-0.01686201276723696
10.14,-0.016862036807779885
10.144,-0.01686160407800723
10.148,-0.01686333499709785
10.152000000000001,-0.01686364752415588
10.156,-0.016865426524332348
10.16,-0.016866316024420583
10.164,-0.016866412186592284
10.168000000000001,-0.016864176416100236
10.172,-0.01686561884867575
10.176,-0.016864777429673367
10.18,-0.016865354402703574
10.184000000000001,-0.01686665259202154
10.188,-0.01686506591618847
10.192,-0.01686405621338561
10.196,-0.016864681267501666
10.200000000000001,-0.0168653784432465
10.204,-0.016864993794559694
10.208,-0.016866412186592284
10.212,-0.016865907335190854
10.216000000000001,-0.016867349767766368
10.22,-0.01686501783510262
10.224,-0.016863118632211523
10.228,-0.016864392780986562
10.232000000000001,-0.016866868956907866
10.236,-0.016866099659534256
10.24,-0.016866412186592284
10.244,-0.016866243902791806
10.248,-0.0168654746054182
10.252,-0.0168654746054182
10.256,-0.016866820875822013
10.26,-0.016866965119079567
10.264,-0.01686771037591025
10.268,-0.016868936443599436
10.272,-0.01686855179491263
10.276,-0.016865931375733778
10.28,-0.016866460267678136
10.284,-0.01686561884867575
10.288,-0.0168653784432465
10.292,-0.016864368740443638
10.296,-0.0168653784432465
10.3,-0.016863911970128057
10.304,-0.016863479240355403
10.308,-0.016865859254105005
10.312,-0.01686932109228624
10.316,-0.016868191186768754
10.32,-0.016868119065139978
10.324,-0.016869104727399914
10.328,-0.0168702346329174
10.332,-0.016866508348763985
10.336,-0.01686446490261534
10.34,-0.016865787132476228
10.344,-0.016865138037817244
10.348,-0.016865811173019152
10.352,-0.01686739784885222
10.356,-0.016867013200165416
10.36,-0.016866412186592284
10.364,-0.016866364105506435
10.368,-0.016864993794559694
10.372,-0.0168655707675899
10.376,-0.016867373808309296
10.38,-0.01686713340288004
10.384,-0.016867109362337117
10.388,-0.016866820875822013
10.392,-0.016869513416629643
10.396,-0.01687124433572026
10.4,-0.016870667362690057
10.404,-0.016870523119432504
10.408,-0.016867998862425352
10.412,-0.0168675661326527
10.416,-0.01686807098405413
10.42,-0.01686891240305651
10.424,-0.01686689299745079
10.428,-0.01686588329464793
10.432,-0.016866580470392762
10.436,-0.01686521015944602
10.44,-0.016868623916541408
10.444,-0.01686963361934427
10.448,-0.01687073948431883
10.452,-0.01687136453843489
10.456,-0.016872205957437273
10.46,-0.01687141261952074
10.464,-0.01687302333589673
10.468,-0.016874321525214696
10.472,-0.016872614646667002
10.476,-0.016872806971010405
10.48,-0.01686867199762726
10.484,-0.016867373808309296
10.488,-0.01686715744342297
10.492,-0.016867518051566846
10.496,-0.01686790270025365
10.5,-0.0168679507813395
10.504,-0.01686739784885222
10.508000000000001,-0.01686867199762726
10.512,-0.016867782497539025
10.516,-0.01686807098405413
10.52,-0.01686790270025365
10.524000000000001,-0.016868888362513587
10.528,-0.016870378876174954
10.532,-0.01687155686277829
10.536,-0.016874489809015174
10.540000000000001,-0.016874008998156668
10.544,-0.01687191747092217
10.548,-0.01687182130875047
10.552,-0.016871628984407066
10.556000000000001,-0.01687049907888958
10.56,-0.016868936443599436
10.564,-0.016868599875998484
10.568,-0.01686917684902869
10.572000000000001,-0.01687278293046748
10.576,-0.016876052444305314
10.58,-0.016875547592903883
10.584,-0.016874033038699592
10.588000000000001,-0.016873816673813265
10.592,-0.016873504146755237
10.596,-0.016873912835984967
10.6,-0.016874081119785445
10.604000000000001,-0.016872061714179723
10.608,-0.016873552227841086
10.612,-0.01687535526856048
10.616,-0.016875042741502453
10.620000000000001,-0.016876148606477015
10.624,-0.01687424940358592
10.628,-0.01687283101155333
10.632,-0.016872109795265572
10.636000000000001,-0.016872470403409452
10.64,-0.0168725184844953
10.644,-0.016870811605947608
10.648,-0.01687126837626319
10.652000000000001,-0.016871941511465094
10.656,-0.016871701106035843
10.66,-0.016871797268207544
10.664,-0.01687648517407797
10.668000000000001,-0.016877518917423756
10.672,-0.016875836079418987
10.676,-0.01687537930910341
10.68,-0.016874634052272724
10.684000000000001,-0.01687343202512646
10.688,-0.016873624349469863
10.692,-0.01687607648484824
10.696,-0.016874802336073202
10.700000000000001,-0.016873239700783058
10.704,-0.016872638687209927
10.708,-0.01687174918712169
10.712,-0.016872061714179723
10.716000000000001,-0.016874585971186875
10.72,-0.016876413052449194
10.724,-0.016875307187474632
10.728,-0.016870787565404683
10.732000000000001,-0.01686958553825842
10.736,-0.016869104727399914
10.74,-0.016869345132829165
10.744,-0.016868503713826782
10.748000000000001,-0.016866412186592284
10.752,-0.01686780653808195
10.756,-0.01687227807906605
10.76,-0.016873359903497684
10.764,-0.016875307187474632
10.768,-0.01687561971453266
10.772,-0.016873311822411835
10.776,-0.016873071416982584
10.78,-0.016874081119785445
10.784,-0.016874153241414218
10.788,-0.01687278293046748
10.792,-0.01687302333589673
10.796,-0.0168725184844953
10.8,-0.016873864754899118
10.804,-0.016874513849558098
10.808,-0.016875186984760007
10.812,-0.01687521102530293
10.816,-0.01687506678204538
10.82,-0.016874922538787827
10.824,-0.016874730214444425
10.828,-0.016873311822411835
10.832,-0.016874057079242517
10.836,-0.016874393646843473
10.84,-0.01687547547127511
10.844,-0.01687602840376239
10.848,-0.016875739917247286
10.852,-0.01687557163344681
10.856,-0.01687576395779021
10.86,-0.016875186984760007
10.864,-0.016872758889924552
10.868,-0.01687124433572026
10.872,-0.01687124433572026
10.876,-0.016872061714179723
10.88,-0.016869753822058894
10.884,-0.016871701106035843
10.888,-0.016876557295706744
10.892,-0.01687602840376239
10.896,-0.01687607648484824
10.9,-0.016875812038876063
10.904,-0.01687547547127511
10.908,-0.016874994660416604
10.912,-0.016875283146931708
10.916,-0.016875042741502453
10.92,-0.016875667795618512
10.924,-0.01687535526856048
10.928,-0.016872951214267955
10.932,-0.016873407984583536
10.936,-0.01687511486313123
10.94,-0.01687730255253743
10.944,-0.016875956282133613
10.948,-0.01687516294421708
10.952,-0.016874634052272724
10.956,-0.016874946579330752
10.96,-0.016875283146931708
10.964,-0.01687434556575762
10.968,-0.016876677498421373
10.972,-0.016877062147108175
10.976,-0.016875042741502453
10.98,-0.01687607648484824
10.984,-0.01687506678204538
10.988,-0.016874008998156668
10.992,-0.016873528187298162
10.996,-0.016872758889924552
11.0,-0.016873624349469863
11.004,-0.016874994660416604
11.008000000000001,-0.016875595673989736
11.012,-0.016875283146931708
11.016,-0.01687586011996191
11.02,-0.016877110228194027
11.024000000000001,-0.016876581336249672
11.028,-0.01687744679579498
11.032,-0.016877278511994505
11.036,-0.01687643709299212
11.040000000000001,-0.016874177281957146
11.044,-0.016874826376616126
11.048,-0.016872229997980197
11.052,-0.016871532822235365
11.056000000000001,-0.016874393646843473
11.06,-0.01687638901190627
11.064,-0.01687434556575762
11.068,-0.01687424940358592
11.072000000000001,-0.016876268809191644
11.076,-0.01687571587670436
11.08,-0.016873912835984967
11.084,-0.016872350200694823
11.088000000000001,-0.016872999295353807
11.092,-0.01687475425498735
11.096,-0.016874369606300548
11.1,-0.016872350200694823
11.104000000000001,-0.016872903133182106
11.108,-0.01687186938983632
11.112,-0.016871941511465094
11.116,-0.01687379263327034
11.120000000000001,-0.016875836079418987
11.124,-0.016872710808838703
11.128,-0.016871701106035843
11.132,-0.016870667362690057
11.136000000000001,-0.016873672430555715
11.14,-0.016874537890101023
11.144,-0.01687557163344681
11.148,-0.016876725579507222
11.152000000000001,-0.016875307187474632
11.156,-0.01687475425498735
11.16,-0.016876268809191644
11.164,-0.016877422755252055
11.168000000000001,-0.01687369647109864
11.172,-0.016872229997980197
11.176,-0.0168724223223236
11.18,-0.01687379263327034
11.184000000000001,-0.016875836079418987
11.188,-0.01687552355236096
11.192,-0.01687780740393886
11.196,-0.016876196687562867
11.200000000000001,-0.016873239700783058
11.204,-0.016876677498421373
11.208,-0.01687629284973457
11.212,-0.016873552227841086
11.216000000000001,-0.016873504146755237
11.22,-0.01687283101155333
11.224,-0.0168724223223236
11.228,-0.016876196687562867
11.232000000000001,-0.01687867286348417
11.236,-0.01687643709299212
11.24,-0.01687662941733552
11.244,-0.0168769900254794
11.248000000000001,-0.016874946579330752
11.252,-0.016875547592903883
11.256,-0.016876917903850625
11.26,-0.016875932241590688
11.264,-0.016873359903497684
11.268,-0.016872590606124078
11.272,-0.016872590606124078
11.276,-0.01687100393029101
11.28,-0.016871580903321217
11.284,-0.016870378876174954
11.288,-0.01686826330839753
11.292,-0.016870835646490532
11.296,-0.01687073948431883
11.3,-0.016870667362690057
11.304,-0.016871124133005636
11.308,-0.01687287909263918
11.312,-0.016871484741149516
11.316,-0.01687369647109864
11.32,-0.016873984957613743
11.324,-0.016872398281780675
11.328,-0.016870715443775906
11.332,-0.016871124133005636
11.336,-0.01687319161969721
11.34,-0.016874225363042995
11.344,-0.01687287909263918
11.348,-0.016871797268207544
11.352,-0.01687302333589673
11.356,-0.016874081119785445
11.36,-0.01687586011996191
11.364,-0.01687516294421708
11.368,-0.016872302119608974
11.372,-0.016875787998333138
11.376,-0.01687571587670436
11.38,-0.016873720511641564
11.384,-0.016869056646314065
11.388,-0.016869152808485763
11.392,-0.016871220295177337
11.396,-0.01687165302494999
11.4,-0.016869753822058894
11.404,-0.016872085754722647
11.408,-0.016872302119608974
11.412,-0.01687319161969721
11.416,-0.016874129200871293
11.42,-0.016872109795265572
11.424,-0.016870715443775906
11.428,-0.016871076051919787
11.432,-0.016874321525214696
11.436,-0.016875235065845855
11.44,-0.016875307187474632
11.444,-0.01687182130875047
11.448,-0.01687155686277829
11.452,-0.01687114817354856
11.456,-0.016870955849205158
11.46,-0.01687186938983632
11.464,-0.01687278293046748
11.468,-0.01686912876794284
11.472,-0.016870450997803727
11.476,-0.01687136453843489
11.48,-0.016869273011200392
11.484,-0.01686821522731168
11.488,-0.016870426957260803
11.492,-0.01687150878169244
11.496,-0.016873504146755237
11.5,-0.016872903133182106
11.504,-0.016874513849558098
11.508000000000001,-0.016872903133182106
11.512,-0.016871316457349038
11.516,-0.016872758889924552
11.52,-0.016874778295530277
11.524000000000001,-0.016871941511465094
11.528,-0.016873311822411835
11.532,-0.0168747061739015
11.536,-0.016875499511818035
11.540000000000001,-0.01687586011996191
11.544,-0.01687552355236096
11.548,-0.01687485041715905
11.552,-0.01687393687652789
11.556000000000001,-0.016873311822411835
11.56,-0.016873047376439656
11.564,-0.016874177281957146
11.568,-0.016872302119608974
11.572000000000001,-0.016874057079242517
11.576,-0.016874008998156668
11.58,-0.016872470403409452
11.584,-0.016873480106212313
11.588000000000001,-0.016873984957613743
11.592,-0.016873720511641564
11.596,-0.016874129200871293
11.6,-0.016872398281780675
11.604000000000001,-0.01687227807906605
11.608,-0.016877663160681306
11.612,-0.016877687201224234
11.616,-0.016879153674342673
11.620000000000001,-0.016880043174430908
11.624,-0.01688049994474649
11.628,-0.016880379742031864
11.632,-0.016879418120314852
11.636000000000001,-0.016876725579507222
11.64,-0.016877206390365728
11.644,-0.016877062147108175
11.648,-0.016876653457878445
11.652000000000001,-0.016877110228194027
11.656,-0.01687795164719641
11.66,-0.01687547547127511
11.664,-0.01687602840376239
11.668000000000001,-0.016875932241590688
11.672,-0.01687607648484824
11.676,-0.016874513849558098
11.68,-0.01687424940358592
11.684000000000001,-0.01687576395779021
11.688,-0.016875787998333138
11.692,-0.01687713426873695
11.696,-0.016876773660593074
11.700000000000001,-0.016878240133711513
11.704,-0.016880572066375263
11.708,-0.016878528620226617
11.712,-0.01687867286348417
11.716000000000001,-0.016880716309632816
11.72,-0.016879802769001657
11.724,-0.0168768938633077
11.728,-0.016877062147108175
11.732000000000001,-0.016877687201224234
11.736,-0.016877879525567636
11.74,-0.016877350633623278
11.744,-0.01687739871470913
11.748000000000001,-0.016878769025655868
11.752,-0.016878240133711513
11.756,-0.016876845782221848
11.76,-0.016876605376792597
11.764000000000001,-0.01687586011996191
11.768,-0.01687552355236096
11.772,-0.016874922538787827
11.776,-0.016876461133535043
11.78,-0.01687703810656525
11.784,-0.016876845782221848
11.788,-0.016874946579330752
11.792,-0.016874561930643947
11.796,-0.01687516294421708
11.8,-0.016875427390189258
11.804,-0.016873576268384014
11.808,-0.01687360030892694
11.812,-0.01687521102530293
11.816,-0.01687215787635142
11.82,-0.016872061714179723
11.824,-0.016871797268207544
11.828,-0.016870378876174954
11.832,-0.01687146070060659
11.836,-0.01686963361934427
11.84,-0.01687150878169244
11.844,-0.01687444172792932
11.848,-0.016874033038699592
11.852,-0.0168724223223236
11.856,-0.01687648517407797
11.86,-0.01687845649859784
11.864,-0.016876581336249672
11.868,-0.01687571587670436
11.872,-0.01687552355236096
11.876,-0.016878095890453963
11.88,-0.01688232702600881
11.884,-0.01688167793134983
11.888,-0.016878480539140768
11.892,-0.016879922971716282
11.896,-0.01687795164719641
11.9,-0.01687922579597145
11.904,-0.016878769025655868
11.908,-0.016875547592903883
11.912,-0.01687763912013838
11.916,-0.01687973064737288
11.92,-0.01687857670131247
11.924,-0.016879442160857776
11.928,-0.016879562363572402
11.932,-0.01687932195814315
11.936,-0.016879394079771928
11.94,-0.016874513849558098
11.944,-0.01687319161969721
11.948,-0.016876677498421373
11.952,-0.016876004363219465
11.956,-0.01687771124176716
11.96,-0.01687607648484824
11.964,-0.016874922538787827
11.968,-0.016874658092815648
11.972,-0.016874393646843473
11.976,-0.016876052444305314
11.98,-0.016877278511994505
11.984,-0.016876148606477015
11.988,-0.01687807184991104
11.992,-0.016877470836337907
11.996,-0.01687420132250007
12.0,-0.016874994660416604
12.004,-0.01687831225534029
12.008000000000001,-0.016880283579860163
12.012,-0.01687973064737288
12.016,-0.016880764390718665
12.02,-0.016880716309632816
12.024000000000001,-0.016881437525920574
12.028,-0.016880668228546964
12.032,-0.016881028836690844
12.036,-0.016884779161387184
12.040000000000001,-0.016882735715238538
12.044,-0.016881726012435677
12.048,-0.01688247126926636
12.052,-0.016878769025655868
12.056000000000001,-0.01687922579597145
12.06,-0.016881197120491322
12.064,-0.016879297917600226
12.068,-0.016878889228370497
12.072000000000001,-0.016876917903850625
12.076,-0.016878480539140768
12.08,-0.01688369733695555
12.084,-0.016882375107094658
12.088000000000001,-0.016881894296236155
12.092,-0.016884779161387184
12.096,-0.016882759755781462
12.1,-0.016879658525744103
12.104000000000001,-0.01687886518782757
12.108,-0.016879562363572402
12.112,-0.016878696904027095
12.116,-0.016874994660416604
12.120000000000001,-0.01687629284973457
12.124,-0.016878240133711513
12.128,-0.01687840841751199
12.132,-0.016879562363572402
12.136000000000001,-0.016880259539317235
12.14,-0.016879706606829956
12.144,-0.01687831225534029
12.148,-0.01688054802583234
12.152000000000001,-0.01688201449895078
12.156,-0.016882735715238538
12.16,-0.016880043174430908
12.164,-0.01687997105280213
12.168000000000001,-0.016880836512347442
12.172,-0.016881701971892753
12.176,-0.016882543390895136
12.18,-0.01688369733695555
12.184000000000001,-0.016879610444658254
12.188,-0.016878889228370497
12.192,-0.01688297612066779
12.196,-0.016882302985465884
12.200000000000001,-0.01687790356611056
12.204,-0.016877591039052533
12.208,-0.01687881710674172
12.212,-0.016880307620403087
12.216000000000001,-0.01688009125551676
12.22,-0.016878240133711513
12.224,-0.0168768938633077
12.228,-0.01687648517407797
12.232000000000001,-0.016875812038876063
12.236,-0.016879345998686075
12.24,-0.016880812471804518
12.244,-0.016882447228723434
12.248000000000001,-0.016880884593433294
12.252,-0.016879009431085123
12.256,-0.016878696904027095
12.26,-0.01688023549877431
12.264000000000001,-0.016875787998333138
12.268,-0.01687561971453266
12.272,-0.01687922579597145
12.276,-0.016878648822941242
12.280000000000001,-0.016877927606653485
12.284,-0.016880523985289414
12.288,-0.01688319248555412
12.292,-0.01688059610691819
12.296,-0.016880355701488936
12.3,-0.01687999509334506
12.304,-0.016879345998686075
12.308,-0.016880379742031864
12.312,-0.016883889661298952
12.316,-0.016883625215326773
12.32,-0.01688232702600881
12.324,-0.01688049994474649
12.328,-0.016880427823117713
12.332,-0.01688501956681644
12.336,-0.016885452296589092
12.34,-0.01688576482364712
12.344,-0.016884009864013578
12.348,-0.016883312688268745
12.352,-0.01688316844501119
12.356,-0.016882615512523912
12.36,-0.016882855917953164
12.364,-0.01688268763415269
12.368,-0.016883360769354594
12.372,-0.016882375107094658
12.376,-0.016881365404291797
12.38,-0.016883456931526295
12.384,-0.016881798134064454
12.388,-0.016881485607006426
12.392,-0.01688324056663997
12.396,-0.016882495309809287
12.4,-0.01688360117478385
12.404,-0.016885404215503243
12.408,-0.016886726445364132
12.412,-0.016885476337132017
12.416,-0.016884514715415008
12.42,-0.016884178147814052
12.424,-0.016886341796677327
12.428,-0.016888168877939647
12.432,-0.016885572499303718
12.436,-0.016885187850616917
12.44,-0.016886918769707535
12.444,-0.016885452296589092
12.448,-0.016883961782927726
12.452,-0.016882206823294183
12.456,-0.016882903999039016
12.46,-0.01688653412102073
12.464,-0.016884418553243307
12.468,-0.016885043607359363
12.472,-0.016888024634682097
12.476,-0.016889058378027882
12.48,-0.016886918769707535
12.484,-0.01688790443196747
12.488,-0.016888024634682097
12.492,-0.016888745850969854
12.496,-0.01688785635088162
12.5,-0.016885139769531064
12.504,-0.016886702404821208
12.508000000000001,-0.01688739958056604
12.512,-0.016888601607712304
12.516,-0.01688922666182836
12.52,-0.016885644620932495
12.524000000000001,-0.01688287995849609
12.528,-0.01688525997224569
12.532,-0.016890188283545368
12.536,-0.01689151051340626
12.540000000000001,-0.01689410689204219
12.544,-0.016894058810956337
12.548,-0.01689283274326715
12.552,-0.01689175091883551
12.556000000000001,-0.01689038060788877
12.56,-0.01689151051340626
12.564,-0.016891029702547754
12.568,-0.01689105374309068
12.572000000000001,-0.016892616378380822
12.576,-0.016892544256752046
12.58,-0.016891222026891157
12.584,-0.016891486472863333
12.588000000000001,-0.016893553959554906
12.592,-0.016892856783810074
12.596,-0.016892712540552524
12.6,-0.016890981621461902
12.604000000000001,-0.01689014020245952
12.608,-0.01689009212137367
12.612,-0.016889587269972237
12.616,-0.016887615945452367
12.620000000000001,-0.016887423621108965
12.624,-0.016889515148343463
12.628,-0.01688913049965666
12.632,-0.016886005229076375
12.636000000000001,-0.01688667836427828
12.64,-0.01688977959431564
12.644,-0.016890452729517547
12.648,-0.016889899797030268
12.652000000000001,-0.016888649688798153
12.656,-0.016888649688798153
12.66,-0.016892712540552524
12.664,-0.01689603013547621
12.668000000000001,-0.016895429121903078
12.672,-0.01689475598670117
12.676,-0.016893361635211504
12.68,-0.016891895162093065
12.684000000000001,-0.016892039405350615
12.688,-0.01689182304046429
12.692,-0.016892255770236942
12.696,-0.016890212324088296
12.700000000000001,-0.01688999595920197
12.704,-0.016888168877939647
12.708,-0.016889851715944416
12.712,-0.016888890094227407
12.716000000000001,-0.01689028444571707
12.72,-0.016890452729517547
12.724,-0.016888938175313256
12.728,-0.0168882169590255
12.732000000000001,-0.016891173945805305
12.736,-0.01688913049965666
12.74,-0.01688638987776318
12.744,-0.0168860292696193
12.748000000000001,-0.01688268763415269
12.752,-0.016881846215150303
12.756,-0.01688429835052868
12.76,-0.016886750485907057
12.764000000000001,-0.016886606242649507
12.768,-0.016887255337308487
12.772,-0.016889587269972237
12.776,-0.01689074121603265
12.780000000000001,-0.016890044040287818
12.784,-0.016888697769884005
12.788,-0.016888745850969854
12.792,-0.0168882169590255
12.796000000000001,-0.016889202621285435
12.8,-0.016889539188886388
12.804,-0.016888769891512778
12.808,-0.01688949110780054
12.812,-0.01688913049965666
12.816,-0.016889106459113734
12.82,-0.01688845736445475
12.824,-0.016887664026538216
12.828,-0.01688617351287685
12.832,-0.016884154107271128
12.836,-0.01688648603993488
12.84,-0.016889587269972237
12.844,-0.016890717175489726
12.848,-0.016890837378204352
12.852,-0.016892592337837894
12.856,-0.016894179013670962
12.86,-0.016892351932408643
12.864,-0.01689338567575443
12.868,-0.016894900229958723
12.872,-0.016895381040817226
12.876,-0.01689718408153662
12.88,-0.01689800145999608
12.884,-0.01689576568950403
12.888,-0.01689576568950403
12.892,-0.016895501243531855
12.896,-0.01689369820281246
12.9,-0.01688922666182836
12.904,-0.016886053310162224
12.908,-0.016888745850969854
12.912,-0.016890933540376053
12.916,-0.016895693567875254
12.92,-0.016896102257104986
12.924,-0.0168953570002743
12.928,-0.016896006094933285
12.932,-0.016895381040817226
12.936,-0.01689338567575443
12.94,-0.016892856783810074
12.944,-0.016894828108329946
12.948,-0.01689607821656206
12.952,-0.016897063878821995
12.956,-0.016896462865248863
12.96,-0.016895885892218656
12.964,-0.016893818405527086
12.968,-0.0168930731486964
12.972,-0.01689338567575443
12.976,-0.016892856783810074
12.98,-0.016892231729694018
12.984,-0.016891534553949185
12.988,-0.01689252021620912
12.992,-0.016894010729870488
12.996,-0.016893049108153476
13.0,-0.016895453162446002
13.004,-0.01689333759466858
13.008000000000001,-0.01689151051340626
13.012,-0.016890621013318025
13.016,-0.016892448094580344
13.02,-0.016892111526979392
13.024000000000001,-0.01689256829729497
13.028,-0.016891438391777484
13.032,-0.016891077783633603
13.036,-0.016893145270325177
13.040000000000001,-0.01689398668932756
13.044,-0.016891029702547754
13.048,-0.016892760621638372
13.052,-0.01689653498687764
13.056000000000001,-0.01689607821656206
13.06,-0.016893505878469058
13.064,-0.016892616378380822
13.068,-0.016893217391953954
13.072000000000001,-0.016895645486789405
13.076,-0.016893457797383205
13.08,-0.016893626081183683
13.084,-0.016891943243178914
13.088000000000001,-0.01689105374309068
13.092,-0.016892183648608165
13.096,-0.016892688500009596
13.1,-0.016892856783810074
13.104000000000001,-0.016895236797559676
13.108,-0.01689408285149926
13.112,-0.016895236797559676
13.116,-0.01689586185167573
13.120000000000001,-0.016897881257281453
13.124,-0.016896390743620086
13.128,-0.016894058810956337
13.132,-0.016895501243531855
13.136000000000001,-0.016896559027420564
13.14,-0.01689374628389831
13.144,-0.016891534553949185
13.148,-0.016892760621638372
13.152000000000001,-0.0168952608381026
13.156,-0.016896799432849816
13.16,-0.01689562144624648
13.164,-0.01689502043267335
13.168000000000001,-0.01689283274326715
13.172,-0.01689252021620912
13.176,-0.01689283274326715
13.18,-0.016896559027420564
13.184000000000001,-0.016899588135829147
13.188,-0.016898482270854585
13.192,-0.01689946793311452
13.196,-0.016898506311397513
13.200000000000001,-0.016896510946334715
13.204,-0.016894828108329946
13.208,-0.016895813770589883
13.212,-0.016896390743620086
13.216000000000001,-0.016897424486965875
13.22,-0.016896462865248863
13.224,-0.016895837811132807
13.228,-0.016895308919188452
13.232000000000001,-0.01689449154072899
13.236,-0.016895501243531855
13.24,-0.016895140635387974
13.244,-0.016895501243531855
13.248000000000001,-0.01689771297348098
13.252,-0.01689881883845554
13.256,-0.016897400446422947
13.26,-0.01689562144624648
13.264000000000001,-0.01689343375684028
13.268,-0.01689360204064076
13.272,-0.01689475598670117
13.276,-0.016896198419276684
13.280000000000001,-0.016895188716473823
13.284,-0.016895885892218656
13.288,-0.0168953570002743
13.292,-0.0168953570002743
13.296000000000001,-0.016896510946334715
13.3,-0.016896895595021517
13.304,-0.016895573365160628
13.308,-0.016895837811132807
13.312000000000001,-0.016897833176195604
13.316,-0.016901367136005617
13.32,-0.016898650554655063
13.324,-0.016896655189592266
13.328,-0.016894227094756815
13.332,-0.016893529919011982
13.336,-0.01689434729747144
13.34,-0.016892904864895926
13.344,-0.016892808702724225
13.348,-0.01689309718923933
13.352,-0.01689309718923933
13.356,-0.016891462432320408
13.36,-0.016892375972951568
13.364,-0.01688932282400006
13.368,-0.01689110182417653
13.372,-0.01689420305421389
13.376,-0.016893818405527086
13.38,-0.016896799432849816
13.384,-0.01689790529782438
13.388,-0.01689718408153662
13.392,-0.01689771297348098
13.396,-0.016899804500715473
13.4,-0.01690155946034902
13.404,-0.01690069400080371
13.408,-0.016900405514288605
13.412,-0.0169020162306646
13.416,-0.016901463298177318
13.42,-0.01690292977129576
13.424,-0.01690252108206603
13.428,-0.016903963514641546
13.432,-0.01690091036569004
13.436,-0.01690115077111929
13.44,-0.016901439257634394
13.444,-0.01689932368985697
13.448,-0.016902184514465075
13.452,-0.016901319054919768
13.456,-0.01690216047392215
13.46,-0.016900573798089083
13.464,-0.016900429554831533
13.468,-0.01690079016297541
13.472,-0.0169019200684929
13.476,-0.01689872267628384
13.48,-0.01689730428425125
13.484,-0.016896847513935668
13.488,-0.016895501243531855
13.492,-0.016895909932761584
13.496,-0.016898794797912613
13.5,-0.016897160040993696
13.504,-0.01689603013547621
13.508000000000001,-0.01689730428425125
13.512,-0.01689408285149926
13.516,-0.016895958013847433
13.52,-0.016899443892571597
13.524000000000001,-0.01689913136551357
13.528,-0.01689819378433948
13.532,-0.016897761054566827
13.536,-0.0168931693108681
13.540000000000001,-0.016892544256752046
13.544,-0.01689232789186572
13.548,-0.016890933540376053
13.552,-0.01689266445946667
13.556000000000001,-0.0168930731486964
13.56,-0.01689393860824171
13.564,-0.016894010729870488
13.568,-0.01689434729747144
13.572000000000001,-0.016891871121550137
13.576,-0.016891726878292587
13.58,-0.016892736581095448
13.584,-0.01689593397330451
13.588000000000001,-0.01689485214887287
13.592,-0.016894058810956337
13.596,-0.016893505878469058
13.6,-0.016892688500009596
13.604000000000001,-0.016892087486436464
13.608,-0.016890933540376053
13.612,-0.01689141435123456
13.616,-0.016890572932232173
13.620000000000001,-0.01689242405403742
13.624,-0.01689348183792613
13.628,-0.01689360204064076
13.632,-0.01689408285149926
13.636000000000001,-0.01689499639213042
13.64,-0.01689439537855729
13.644,-0.016894828108329946
13.648,-0.016893529919011982
13.652000000000001,-0.016895429121903078
13.656,-0.016896150338190835
13.66,-0.01689562144624648
13.664,-0.01689658306796349
13.668000000000001,-0.016899059243884792
13.672,-0.016894179013670962
13.676,-0.016893626081183683
13.68,-0.016895284878645524
13.684000000000001,-0.016898338027597035
13.688,-0.016898674595197987
13.692,-0.01689429921638559
13.696,-0.01689410689204219
13.700000000000001,-0.016895837811132807
13.704,-0.016895405081360153
13.708,-0.016895909932761584
13.712,-0.0168952608381026
13.716000000000001,-0.016896054176019134
13.72,-0.016899107324970644
13.724,-0.01689800145999608
13.728,-0.016897400446422947
13.732000000000001,-0.016898121662710708
13.736,-0.01689809762216778
13.74,-0.01689841014922581
13.744,-0.016898915000627242
13.748000000000001,-0.016899155406056493
13.752,-0.016899588135829147
13.756,-0.016900477635917382
13.76,-0.016896414784163014
13.764000000000001,-0.016897881257281453
13.768,-0.01689855439248336
13.772,-0.0168998285412584
13.776,-0.01689800145999608
13.780000000000001,-0.01689703983827907
13.784,-0.016895597405703552
13.788,-0.016898746716826764
13.792,-0.016901078649490513
13.796000000000001,-0.01690196814957875
13.8,-0.01690139117654854
13.804,-0.016896919635564445
13.808,-0.016896054176019134
13.812000000000001,-0.016897640851852202
13.816,-0.016896318621991313
13.82,-0.016894972351587496
13.824,-0.016896342662534237
13.828,-0.0168952608381026
13.832,-0.016898121662710708
13.836,-0.016899299649314043
13.84,-0.016898626514112138
13.844,-0.016898386108682883
13.848,-0.01689927560877112
13.852,-0.016899083284427716
13.856,-0.016900982487318812
13.86,-0.01690179986577827
13.864,-0.016899395811485744
13.868,-0.01689881883845554
13.872,-0.016898650554655063
13.876,-0.016899179446599417
13.88,-0.0169018239063212
13.884,-0.016901078649490513
13.888,-0.016899708338543776
13.892,-0.016899083284427716
13.896,-0.01689800145999608
13.9,-0.016898145703253632
13.904,-0.016901439257634394
13.908,-0.016899035203341867
13.912,-0.016898482270854585
13.916,-0.01689804954108193
13.92,-0.016902208555008
13.924,-0.016900838244061262
13.928,-0.016897208122079548
13.932,-0.016898987122256015
13.936,-0.016900597838632007
13.94,-0.016900261271031055
13.944,-0.016903915433555697
13.948,-0.01690324229835379
13.952,-0.016901679663063645
13.956,-0.016900838244061262
13.96,-0.016901727744149497
13.964,-0.016900429554831533
13.968,-0.01690064591971786
13.972,-0.01689922752768527
13.976,-0.016901078649490513
13.98,-0.016902256636093852
13.984,-0.016899107324970644
13.988,-0.01689809762216778
13.992,-0.016899395811485744
13.996,-0.01689922752768527
14.0,-0.01689869863574091
14.004,-0.016899347730399895
14.008000000000001,-0.016900838244061262
14.012,-0.016901126730576366
14.016,-0.01690408371735617
14.02,-0.01690247300098018
14.024000000000001,-0.016903410582154263
14.028,-0.016904324122785426
14.032,-0.016902593203694805
14.036,-0.01690317017672501
14.040000000000001,-0.01690307401455331
14.044,-0.016903290379439637
14.048,-0.016902689365866506
14.052,-0.016904684730929303
14.056000000000001,-0.01690535786613121
14.06,-0.016901270973833916
14.064,-0.016901944109035824
14.068,-0.01690256916315188
14.072000000000001,-0.01690115077111929
14.076,-0.016901078649490513
14.08,-0.016900405514288605
14.084,-0.016899924703430103
14.088000000000001,-0.016899443892571597
14.092,-0.01690091036569004
14.096,-0.016899948743973027
14.1,-0.016902184514465075
14.104000000000001,-0.016901847946864123
14.108,-0.01690466069038638
14.112,-0.016905285744502434
14.116,-0.01690516554178781
14.120000000000001,-0.016904011595727395
14.124,-0.01690119885220514
14.128,-0.016900621879174935
14.132,-0.01690292977129576
14.136000000000001,-0.01690499725798733
14.14,-0.016903963514641546
14.144,-0.016903530784868892
14.148,-0.01690384331192692
14.152000000000001,-0.016902040271207525
14.156,-0.01690129501437684
14.16,-0.016902713406409434
14.164,-0.01690141521709147
14.168000000000001,-0.016900669960260784
14.172,-0.016902256636093852
14.176,-0.016900525717003234
14.18,-0.01689845823031166
14.184000000000001,-0.016899179446599417
14.188,-0.016900597838632007
14.192,-0.016901487338720243
14.196,-0.01690088632514711
14.200000000000001,-0.01689987662234425
14.204,-0.01690151137926317
14.208,-0.016901078649490513
14.212,-0.016900958446775888
14.216000000000001,-0.016901631581977796
14.22,-0.016901439257634394
14.224,-0.016898987122256015
14.228,-0.01689804954108193
14.232000000000001,-0.016900477635917382
14.236,-0.01689821782488241
14.24,-0.016896919635564445
14.244,-0.016896607108506417
14.248000000000001,-0.0168975446896805
14.252,-0.0168997323790867
14.256,-0.01689896308171309
14.26,-0.016898386108682883
14.264000000000001,-0.016898482270854585
14.268,-0.016900429554831533
14.272,-0.016899852581801326
14.276,-0.016898842878998465
14.280000000000001,-0.016898482270854585
14.284,-0.016900405514288605
14.288,-0.01690151137926317
14.292,-0.01690384331192692
14.296000000000001,-0.01690139117654854
14.3,-0.01690124693329099
14.304,-0.016902208555008
14.308,-0.016904011595727395
14.312000000000001,-0.01690252108206603
14.316,-0.016903314419982565
14.32,-0.016903194217267936
14.324,-0.01690292977129576
14.328000000000001,-0.016902593203694805
14.332,-0.01690586271753264
14.336,-0.016906295447305295
14.34,-0.01690581463644679
14.344,-0.016909444758428507
14.348,-0.01690502129853026
14.352,-0.016895092554302122
14.356,-0.016903675028126442
14.36,-0.016902593203694805
14.364,-0.016902761487495283
14.368,-0.01690571847427509
14.372,-0.016906199285133594
14.376,-0.016903314419982565
14.38,-0.016899155406056493
14.384,-0.016898265905968258
14.388,-0.016897664892395126
14.392,-0.016896510946334715
14.396,-0.01689708791936492
14.4,-0.016899516014200373
14.404,-0.016899708338543776
14.408,-0.016897424486965875
14.412,-0.016897111959907847
14.416,-0.01690124693329099
14.42,-0.01689896308171309
14.424,-0.016898650554655063
14.428,-0.01689896308171309
14.432,-0.016900405514288605
14.436,-0.01689937177094282
14.44,-0.016899756419629625
14.444,-0.016899299649314043
14.448,-0.016900044906144728
14.452,-0.016900044906144728
14.456,-0.016901487338720243
14.46,-0.016900621879174935
14.464,-0.016900117027773505
14.468,-0.0168998285412584
14.472,-0.016900020865601804
14.476,-0.016898915000627242
14.48,-0.01689790529782438
14.484,-0.01689987662234425
14.488,-0.01689593397330451
14.492,-0.01689607821656206
14.496,-0.016897785095109752
14.5,-0.016899035203341867
14.504,-0.016899636216915
14.508000000000001,-0.016896967716650294
14.512,-0.016897664892395126
14.516,-0.01689946793311452
14.52,-0.01689809762216778
14.524000000000001,-0.01689718408153662
14.528,-0.01690023723048813
14.532,-0.016900573798089083
14.536,-0.01689987662234425
14.540000000000001,-0.016900453595374457
14.544,-0.01689987662234425
14.548,-0.016899035203341867
14.552,-0.016901439257634394
14.556000000000001,-0.016901343095462693
14.56,-0.016901030568404665
14.564,-0.016900429554831533
14.568,-0.01689790529782438
14.572000000000001,-0.016896967716650294
14.576,-0.016897328324794174
14.58,-0.016898890960084314
14.584,-0.016900453595374457
14.588000000000001,-0.016900165108859354
14.592,-0.016899107324970644
14.596,-0.016899588135829147
14.6,-0.016899155406056493
14.604000000000001,-0.016901463298177318
14.608,-0.016900044906144728
14.612,-0.016897640851852202
14.616,-0.01689804954108193
14.620000000000001,-0.01689841014922581
14.624,-0.016898650554655063
14.628,-0.01689694367610737
14.632,-0.016899443892571597
14.636000000000001,-0.01689730428425125
14.64,-0.01689841014922581
14.644,-0.01689855439248336
14.648,-0.016897111959907847
14.652000000000001,-0.01689607821656206
14.656,-0.016897520649137576
14.66,-0.01689937177094282
14.664,-0.016901126730576366
14.668000000000001,-0.016899924703430103
14.672,-0.01689987662234425
14.676,-0.016901343095462693
14.68,-0.016901583500891944
14.684000000000001,-0.016899564095286222
14.688,-0.0168998285412584
14.692,-0.016902400879351402
14.696,-0.01690252108206603
14.700000000000001,-0.01690280956858113
14.704,-0.0169019200684929
14.708,-0.016901319054919768
14.712,-0.01690139117654854
14.716000000000001,-0.01690283360912406
14.72,-0.016903915433555697
14.724,-0.016903915433555697
14.728,-0.01690324229835379
14.732000000000001,-0.01690343462269719
14.736,-0.016903626947040593
14.74,-0.01690603100133312
14.744,-0.016901367136005617
14.748000000000001,-0.016898674595197987
14.752,-0.01690028531157398
14.756,-0.016900309352116907
14.76,-0.016898890960084314
14.764000000000001,-0.016898987122256015
14.768,-0.01690091036569004
14.772,-0.01689804954108193
14.776,-0.016899684298000848
14.780000000000001,-0.016898434189768736
14.784,-0.016898386108682883
14.788,-0.016899996825058876
14.792,-0.016900405514288605
14.796000000000001,-0.01690023723048813
14.8,-0.0169019200684929
14.804,-0.016902088352293374
14.808,-0.016901102690033438
14.812000000000001,-0.016901439257634394
14.816,-0.01690338654161134
14.82,-0.016905237663416586
14.824,-0.016905045339073183
14.828000000000001,-0.016906151204047745
14.832,-0.016906391609476996
14.836,-0.016905237663416586
14.84,-0.016906151204047745
14.844000000000001,-0.016905045339073183
14.848,-0.01690499725798733
14.852,-0.01690567039318924
14.856,-0.016908411015082718
14.86,-0.016906968582507204
14.864,-0.01690444432550005
14.868,-0.01690466069038638
14.872,-0.016905141501244884
14.876,-0.016904973217444406
14.88,-0.016903290379439637
14.884,-0.01690451644712883
14.888,-0.016906199285133594
14.892,-0.016906607974363323
14.896,-0.016908290812368092
14.9,-0.016909180312456328
14.904,-0.016906896460878427
14.908,-0.016906824339249654
14.912,-0.016906848379792578
14.916,-0.016907112825764754
14.92,-0.016906896460878427
14.924,-0.01690800232585299
14.928,-0.016903915433555697
14.932,-0.016906151204047745
14.936,-0.01690641565001992
14.94,-0.016906920501421355
14.944,-0.01690466069038638
14.948,-0.016902689365866506
14.952,-0.016905694433732164
14.956,-0.016910069812544563
14.96,-0.01690749747445156
14.964,-0.016906704136535024
14.968,-0.016910214055802113
14.972,-0.016910358299059666
14.976,-0.01690562231210339
14.98,-0.01690444432550005
14.984,-0.016904732812015155
14.988,-0.016906920501421355
14.992,-0.01690718494739353
14.996,-0.016904949176901482
15.0,-0.016906728177077952
15.004,-0.016907329190651084
15.008000000000001,-0.016908675461054897
15.012,-0.01690872354214075
15.016,-0.01690850717725442
15.02,-0.01691129588023375
15.024000000000001,-0.016911848812721033
15.028,-0.016914204785927707
15.032,-0.01691394033995553
15.036,-0.016911175677519125
15.040000000000001,-0.016909805366572384
15.044,-0.01690937263679973
15.048,-0.016906848379792578
15.052,-0.016908891825941224
15.056000000000001,-0.01690932455571388
15.06,-0.01690869950159782
15.064,-0.016911776691092256
15.068,-0.016911993055978583
15.072000000000001,-0.016908531217797347
15.076,-0.016906968582507204
15.08,-0.01690785808259544
15.084,-0.016907160906850606
15.088000000000001,-0.01690641565001992
15.092,-0.016906463731105773
15.096,-0.01690819465019639
15.1,-0.01690744939336571
15.104000000000001,-0.016906607974363323
15.108,-0.01690444432550005
15.112,-0.016907569596080335
15.116,-0.016907882123138363
15.120000000000001,-0.016904949176901482
15.124,-0.016903819271383996
15.128,-0.016904468366042976
15.132,-0.016904564528214677
15.136000000000001,-0.016906055041876044
15.14,-0.01690735323119401
15.144,-0.01690643969056285
15.148,-0.016908170609653467
15.152000000000001,-0.016907521514994486
15.156,-0.016908531217797347
15.16,-0.01690809848802469
15.164,-0.016905694433732164
15.168000000000001,-0.016904564528214677
15.172,-0.016905093420159032
15.176,-0.016902593203694805
15.18,-0.016907305150108156
15.184000000000001,-0.016907473433908634
15.188,-0.016905958879704343
15.192,-0.0169065839338204
15.196,-0.016906848379792578
15.200000000000001,-0.016907233028479383
15.204,-0.016907305150108156
15.208,-0.016909156271913403
15.212,-0.016908386974539794
15.216000000000001,-0.016910959312632798
15.22,-0.01690862737996905
15.224,-0.01690932455571388
15.228,-0.016911584366748854
15.232000000000001,-0.016914108623756006
15.236,-0.016913411448011173
15.24,-0.016909589001686057
15.244,-0.01690901202865585
15.248000000000001,-0.01691160840729178
15.252,-0.01691165648837763
15.256,-0.01690869950159782
15.26,-0.016908074447481766
15.264000000000001,-0.016904324122785426
15.268,-0.016904708771472227
15.272,-0.01690805040693884
15.276,-0.016912762353352193
15.280000000000001,-0.016912497907380013
15.284,-0.016909156271913403
15.288,-0.016909589001686057
15.292,-0.016909925569287013
15.296000000000001,-0.016908074447481766
15.3,-0.01690855525834027
15.304,-0.0169087716232266
15.308,-0.0169066800959921
15.312000000000001,-0.016907233028479383
15.316,-0.01690627140676237
15.32,-0.016906487771648698
15.324,-0.016908122528567618
15.328000000000001,-0.016906487771648698
15.332,-0.016904973217444406
15.336,-0.016905886758075566
15.34,-0.016905574231017538
15.344000000000001,-0.016907016663593052
15.348,-0.016908651420511973
15.352,-0.016909204352999252
15.356,-0.01691088719100402
15.36,-0.016908122528567618
15.364,-0.01690499725798733
15.368,-0.016902953811838685
15.372,-0.01690612716350482
15.376,-0.01690516554178781
15.38,-0.01690499725798733
15.384,-0.016906103122961893
15.388,-0.01690641565001992
15.392,-0.016906896460878427
15.396,-0.016903795230841068
15.4,-0.016904468366042976
15.404,-0.01690451644712883
15.408,-0.01690451644712883
15.412,-0.016902689365866506
15.416,-0.016902280676636777
15.42,-0.016902497041523103
15.424,-0.016903362501068414
15.428,-0.016904732812015155
15.432,-0.01690526170395951
15.436,-0.01690511746070196
15.44,-0.016903290379439637
15.444,-0.01690475685255808
15.448,-0.01690718494739353
15.452,-0.016905141501244884
15.456,-0.016903194217267936
15.46,-0.01690389139301277
15.464,-0.016904468366042976
15.468,-0.01690302593346746
15.472,-0.016903915433555697
15.476,-0.016904155838984948
15.48,-0.016902280676636777
15.484,-0.016902184514465075
15.488,-0.01690179986577827
15.492,-0.016901992190121673
15.496,-0.016903098055096235
15.5,-0.01690115077111929
15.504,-0.016901727744149497
15.508000000000001,-0.016904059676813247
15.512,-0.016904324122785426
15.516,-0.016902881690209908
15.52,-0.01690317017672501
15.524000000000001,-0.01690485301472978
15.528,-0.016906103122961893
15.532,-0.01690333846052549
15.536,-0.01689855439248336
15.540000000000001,-0.016898025500539007
15.544,-0.016898770757369688
15.548,-0.016900044906144728
15.552,-0.01690357886595474
15.556000000000001,-0.016903554825411816
15.56,-0.01690466069038638
15.564,-0.016903290379439637
15.568,-0.01690139117654854
15.572000000000001,-0.01690179986577827
15.576,-0.01690124693329099
15.58,-0.016903266338896713
15.584,-0.016905478068845837
15.588000000000001,-0.016903867352469844
15.592,-0.016904877055272705
15.596,-0.016904035636270322
15.6,-0.016901727744149497
15.604000000000001,-0.01690119885220514
15.608,-0.016898794797912613
15.612,-0.016900862284604187
15.616,-0.016899107324970644
15.620000000000001,-0.01689790529782438
15.624,-0.01690119885220514
15.628,-0.016902713406409434
15.632,-0.016902761487495283
15.636000000000001,-0.016903001892924534
15.64,-0.01690064591971786
15.644,-0.016898169743796557
15.648,-0.016899203487142342
15.652000000000001,-0.016899996825058876
15.656,-0.016900068946687653
15.66,-0.016899011162798943
15.664,-0.0168998285412584
15.668000000000001,-0.016901896027949972
15.672,-0.016902376838808478
15.676,-0.01690567039318924
15.68,-0.016906704136535024
15.684000000000001,-0.01690540594721706
15.688,-0.016907064744678905
15.692,-0.01690653585273455
15.696,-0.01690663201490625
15.700000000000001,-0.016906559893277474
15.704,-0.016906728177077952
15.708,-0.01690581463644679
15.712,-0.016906752217620877
15.716000000000001,-0.016908386974539794
15.72,-0.016907641717709112
15.724,-0.01690749747445156
15.728,-0.016908146569110542
15.732000000000001,-0.016909084150284626
15.736,-0.01690845909616857
15.74,-0.0169088677853983
15.744,-0.016908651420511973
15.748000000000001,-0.016910045772001638
15.752,-0.01691038233960259
15.756,-0.016909901528744085
15.76,-0.01690896394757
15.764000000000001,-0.016910502542317216
15.768,-0.016912738312809268
15.772,-0.016911007393718647
15.776,-0.01690961304222898
15.780000000000001,-0.016908579298883196
15.784,-0.016909060109741702
15.788,-0.016909204352999252
15.792,-0.016908483136711495
15.796000000000001,-0.016908531217797347
15.8,-0.01690850717725442
15.804,-0.016907641717709112
15.808,-0.01690535786613121
15.812000000000001,-0.01690749747445156
15.816,-0.01691011789363041
15.82,-0.016909709204400682
15.824,-0.01690845909616857
15.828000000000001,-0.01690869950159782
15.832,-0.016908795663769523
15.836,-0.016906848379792578
15.84,-0.016908170609653467
15.844000000000001,-0.01690499725798733
15.848,-0.016904324122785426
15.852,-0.016906728177077952
15.856,-0.01690694454196428
15.860000000000001,-0.016905958879704343
15.864,-0.01690759363662326
15.868,-0.016908242731282244
15.872,-0.016907160906850606
15.876,-0.01690795424476714
15.88,-0.016909180312456328
15.884,-0.016910863150461097
15.888,-0.016910454461231367
15.892,-0.016910622745031842
15.896,-0.016913651853440428
15.9,-0.016912257501950762
15.904,-0.016910526582860144
15.908,-0.016907713839337885
15.912,-0.01690343462269719
15.916,-0.016904276041699574
15.92,-0.01690735323119401
15.924,-0.016905574231017538
15.928,-0.016903194217267936
15.932,-0.016907473433908634
15.936,-0.01690704070413598
15.94,-0.01690901202865585
15.944,-0.01691074294774647
15.948,-0.016907978285310064
15.952,-0.016906223325676522
15.956,-0.016905742514818016
15.96,-0.016906992623050128
15.964,-0.01690600696079019
15.968,-0.01690800232585299
15.972,-0.01690571847427509
15.976,-0.01690653585273455
15.98,-0.016908242731282244
15.984,-0.01690951688005728
15.988,-0.01691074294774647
15.992,-0.016912089218150284
15.996,-0.016911343961319603
16.0,-0.01690860333942612
16.004,-0.016908411015082718
16.008,-0.016909300515170953
16.012,-0.0169112477991479
16.016000000000002,-0.016913411448011173
16.02,-0.016913699934526277
16.024,-0.016912545988465866
16.028,-0.016912690231723416
16.032,-0.016911584366748854
16.036,-0.016910093853087487
16.04,-0.01690937263679973
16.044,-0.01691011789363041
16.048000000000002,-0.016910406380145515
16.052,-0.0169133393263824
16.056,-0.016912425785751237
16.06,-0.01691206517760736
16.064,-0.016911848812721033
16.068,-0.01691247386683709
16.072,-0.016912906596609743
16.076,-0.016912642150637567
16.080000000000002,-0.01691261811009464
16.084,-0.016915094286015942
16.088,-0.016915454894159822
16.092,-0.016912545988465866
16.096,-0.016910430420688443
16.1,-0.016910983353175722
16.104,-0.016910766988289395
16.108,-0.01691069486666062
16.112000000000002,-0.016912017096521507
16.116,-0.01691129588023375
16.12,-0.016912401745208312
16.124,-0.0169133393263824
16.128,-0.01691257002900879
16.132,-0.016911896893806882
16.136,-0.016910262136887965
16.14,-0.016911007393718647
16.144000000000002,-0.016912089218150284
16.148,-0.016914974083301317
16.152,-0.01691338740746825
16.156,-0.01691297871823852
16.16,-0.016914108623756006
16.164,-0.016915142367101794
16.168,-0.01691425286701356
16.172,-0.016915527015788596
16.176000000000002,-0.016915575096874448
16.18,-0.01691490196167254
16.184,-0.016915887623932476
16.188,-0.016917618543023094
16.192,-0.01691783490790942
16.196,-0.016916488637505608
16.2,-0.01691516640764472
16.204,-0.016914709637329137
16.208000000000002,-0.016914541353528663
16.212,-0.016916031867190026
16.216,-0.016916753083477787
16.22,-0.016917209853793365
16.224,-0.016916031867190026
16.228,-0.016914877921129615
16.232,-0.016917378137593843
16.236,-0.01691910905668446
