0.0,0.0020070487666585565
0.004,0.0020051495637674606
0.008,0.0020057024962547416
0.012,0.002004019658249973
0.016,0.0020055342124542645
0.02,0.002003490766305617
0.024,0.0020050534015957594
0.028,0.002012193442844563
0.032,0.0020149821458238936
0.036000000000000004,0.002011760713071908
0.04,0.0020111837400417017
0.044,0.0020131550645615735
0.048,0.002012554050988442
0.052000000000000005,0.002007986347832642
0.056,0.002007289172087809
0.06,0.002011111618412926
0.064,0.0020087316046633248
0.068,0.0020083229154335956
0.07200000000000001,0.0020110635373270756
0.076,0.0020128184969606198
0.08,0.002010101915610065
0.084,0.002006543915257126
0.088,0.002009933631809588
0.092,0.002008370996519446
0.096,0.0020063515909137237
0.1,0.0020046447123660298
0.10400000000000001,0.0020012790363564932
0.108,0.0020015915634145212
0.112,0.0020009905498413897
0.116,0.002007649780231688
0.12,0.0020127944564176945
0.124,0.002010222118324691
0.128,0.002014309010621986
0.132,0.0020195017678938426
0.136,0.0020196700516943197
0.14,0.002017867010974925
0.14400000000000002,0.002013227186190349
0.148,0.002008923929006727
0.152,0.002007000685572706
0.156,0.002004548550194329
0.16,0.002005005320509909
0.164,0.00200236086078813
0.168,0.0020023127797022793
0.17200000000000001,0.0020024089418739805
0.176,0.0020019040904725497
0.18,0.0020004856984399593
0.184,0.002000750144412137
0.188,0.001999187509121995
0.192,0.00199870669826349
0.196,0.0019984662928342373
0.2,0.001993802427506736
0.20400000000000001,0.001995076576281775
0.20800000000000002,0.001989403008151413
0.212,0.0019825995345035636
0.216,0.0019883692648056265
0.22,0.002000629941697511
0.224,0.002007193009916108
0.228,0.002011472226556805
0.232,0.0020125300104455166
0.23600000000000002,0.0020110635373270756
0.24,0.0020129867807610964
0.244,0.0020155591188541
0.248,0.0020123376861021143
0.252,0.002011640510357282
0.256,0.0020147176998517153
0.26,0.002014212848450285
0.264,0.00201149626709973
0.268,0.002015751443197502
0.272,0.0020201989436386754
0.276,0.0020176266055456724
0.28,0.002014669618765865
0.28400000000000003,0.002016256294598932
0.28800000000000003,0.0020084431181482216
0.292,0.002010943334612449
0.296,0.0020179872136895515
0.3,0.0020227232006458282
0.304,0.0020233963358477357
0.308,0.0020220260249009954
0.312,0.0020214730924137145
0.316,0.0020212086464415366
0.32,0.002021256727527387
0.324,0.0020202229841816007
0.328,0.002009813429094962
0.332,0.001999355792922472
0.336,0.0019975767927460026
0.34,0.002005654415168891
0.34400000000000003,0.002027363025430404
0.34800000000000003,0.0020509948791259383
0.352,0.0020825120309009588
0.356,0.0021212173050106334
0.36,0.0019899078595528434
0.364,0.001993177373390679
0.368,0.0019955573871402806
0.372,0.0019918070624439393
0.376,0.001992985049047277
0.38,0.00199687961700117
0.384,0.002001880049929625
0.388,0.0020056063340830404
0.392,0.002004596631280179
0.396,0.0020046927934518803
0.4,0.0020063275503707984
0.404,0.002004452388022628
0.40800000000000003,0.001997071941344572
0.41200000000000003,0.001997721036003554
0.41600000000000004,0.002003082077075888
0.42,0.0020096932263803354
0.424,0.0020123617266450395
0.428,0.0020098855507237373
0.432,0.00200418794205045
0.436,0.0020041639015075247
0.44,0.0020036830906490196
0.444,0.0020101980777817658
0.448,0.0020160158891696796
0.452,0.0020170736730583914
0.456,0.0020135637537913027
0.46,0.0020119530374153104
0.464,0.0020132512267332743
0.468,0.0020123376861021143
0.47200000000000003,0.002011303942756328
0.47600000000000003,0.0020108952535265985
0.48,0.0020096932263803354
0.484,0.002004019658249973
0.488,0.002003370563590991
0.492,0.00200144732015697
0.496,0.001997721036003554
0.5,0.0019979133603469563
0.504,0.0019985624550059385
0.508,0.001997745076546479
0.512,0.002004404306936777
0.516,0.002010486564296869
0.52,0.0020149100241951177
0.524,0.002016136091884306
0.528,0.0020187565110631597
0.532,0.0020235886601911376
0.536,0.002021617335671266
0.54,0.0020193815651792166
0.544,0.0020175544839168965
0.548,0.002014140726821509
0.552,0.0020144532538795374
0.556,0.002013659915963004
0.56,0.0020137079970488545
0.5640000000000001,0.0020127944564176945
0.5680000000000001,0.0020108712129836732
0.5720000000000001,0.002007649780231688
0.5760000000000001,0.002006640077428827
0.58,0.002006736239600528
0.584,0.002000629941697511
0.588,0.0019947640492237466
0.592,0.0020003174146394826
0.596,0.0020065679558000514
0.6,0.0020269543362006746
0.604,0.0020262090793699912
0.608,0.002025800390140262
0.612,0.0020175544839168965
0.616,0.002007289172087809
0.62,0.0020102461588676164
0.624,0.002022266430330248
0.628,0.002018419943462206
0.632,0.0020101259561529903
0.636,0.0020170736730583914
0.64,0.0020207518761259564
0.644,0.002020319146353302
0.648,0.00201373203759178
0.652,0.002008130591090193
0.656,0.002009308577693531
0.66,0.002015583159397025
0.664,0.0020181795380329534
0.668,0.0020155110377682492
0.672,0.0020231318898755574
0.676,0.00202108844372691
0.68,0.0020118087941577586
0.684,0.0020066881585146775
0.6880000000000001,0.0020045725907372543
0.6920000000000001,0.002005173604310386
0.6960000000000001,0.0020104144426680935
0.7000000000000001,0.0020113279832992535
0.704,0.0020103423210393176
0.708,0.0020101499966959156
0.712,0.0020089960506355026
0.716,0.002005005320509909
0.72,0.0020035148068485425
0.724,0.002003827333906571
0.728,0.0020037071311919444
0.732,0.001998442252291312
0.736,0.001993874549135512
0.74,0.001995797792569533
0.744,0.001997600833288928
0.748,0.001994331319451092
0.752,0.0019860613726848013
0.756,0.0019839938859932287
0.76,0.0019936581842491846
0.764,0.001998514373920088
0.768,0.0019950284951959244
0.772,0.001992961008504352
0.776,0.001994788089766672
0.78,0.001996807495372394
0.784,0.001989691494666516
0.788,0.0019844025752229584
0.792,0.0019901482649820963
0.796,0.001994956373567149
0.8,0.001998874982063967
0.804,0.001999836603780977
0.808,0.0019973844684026
0.812,0.001994788089766672
0.8160000000000001,0.0019978652792611057
0.8200000000000001,0.0020015915634145212
0.8240000000000001,0.0020041398609645994
0.8280000000000001,0.002011303942756328
0.8320000000000001,0.002010294239953467
0.836,0.0020002212524677814
0.84,0.0020046447123660298
0.844,0.0020087796857491754
0.848,0.002008563320862848
0.852,0.002006519874714201
0.856,0.002005750577340592
0.86,0.0020095009020369334
0.864,0.002009020091178428
0.868,0.0020151023485385196
0.872,0.0020187565110631597
0.876,0.002020150862552825
0.88,0.0020147417403946406
0.884,0.0020057986584264423
0.888,0.0020067602801434534
0.892,0.0020155110377682492
0.896,0.0020174583217451953
0.9,0.0020119049563294598
0.904,0.002008395037062371
0.908,0.0020128665780464704
0.912,0.002017939132603701
0.916,0.002014789821480491
0.92,0.0020089960506355026
0.924,0.0020059909827698447
0.928,0.0020103423210393176
0.932,0.002010101915610065
0.936,0.002010558685925645
0.9400000000000001,0.002012746375331844
0.9440000000000001,0.002010005753438364
0.9480000000000001,0.0020056784557118163
0.9520000000000001,0.002011279902213403
0.9560000000000001,0.002012602132074292
0.96,0.0020107750508119725
0.964,0.0020108952535265985
0.968,0.002012025159044086
0.972,0.0020096932263803354
0.976,0.002010101915610065
0.98,0.002013467591619602
0.984,0.0020170977136013163
0.988,0.0020185641867197577
0.992,0.0020159437675409037
0.996,0.0020144532538795374
1.0,0.0020166409432857365
1.004,0.002015583159397025
1.008,0.0020154629566823986
1.012,0.0020213288491561627
1.016,0.0020241175521354933
1.02,0.002017506402831046
1.024,0.0020179872136895515
1.028,0.002016689024371587
1.032,0.00201469365930879
1.036,0.0020063996719995743
1.04,0.0019951006168247003
1.044,0.0019937783869638107
1.048,0.002001110752556016
1.052,0.002007072807201482
1.056,0.0020083229154335956
1.06,0.0020093326182364563
1.064,0.0020089479695496524
1.068,0.0020110875778700005
1.072,0.002014429213336612
1.076,0.0020113279832992535
1.08,0.0020073853342595102
1.084,0.002005389969196713
1.088,0.0020043562258509266
1.092,0.0020129867807610964
1.096,0.002020872078840583
1.1,0.0020218337005575935
1.104,0.002026088876655365
1.108,0.0020220260249009954
1.112,0.0020095249425798587
1.116,0.002010486564296869
1.12,0.0020158716459121283
1.124,0.0020231559304184827
1.1280000000000001,0.0020222423897873227
1.1320000000000001,0.002023901187249166
1.1360000000000001,0.002028565052576667
1.1400000000000001,0.0020307287014399407
1.1440000000000001,0.002030560417639464
1.1480000000000001,0.0020270745389153006
1.1520000000000001,0.002023276133133109
1.156,0.0020210403626410595
1.16,0.0020221221870726966
1.164,0.002025079173852504
1.168,0.002025175336024205
1.172,0.002023540579105287
1.176,0.002019790254408946
1.18,0.002013395469990826
1.184,0.0020106067670114954
1.188,0.0020074093748024355
1.192,0.0020028176311037097
1.196,0.0020096211047515595
1.2,0.0020355127694820685
1.204,0.0020660682995400784
1.208,0.0020990278838906146
1.212,0.0021377571985432145
1.216,0.0021599947007490835
1.22,0.0021664856473389044
1.224,0.0021554991192220593
1.228,0.0021311700897816924
1.232,0.002102441640986002
1.236,0.002087656707086965
1.24,0.0020718861109279923
1.244,0.002052725798216557
1.248,0.0020363061073986025
1.252,0.002024454119736447
1.256,0.002022434714130725
1.26,0.002024526241365223
1.264,0.00202423775485012
1.268,0.0020258725117690375
1.272,0.0020242137143071945
1.276,0.002020319146353302
1.28,0.00202382906562039
1.284,0.0020252234171100553
1.288,0.0020227472411887535
1.292,0.002023444416933586
1.296,0.002021857741100519
1.3,0.0020211365248127607
1.304,0.0020170736730583914
1.308,0.0020186603488914585
1.312,0.002019814294951871
1.316,0.0020214730924137145
1.32,0.0020222904708731733
1.324,0.0020198383354947964
1.328,0.0020197181327801703
1.332,0.0020134435510766767
1.336,0.0020045245096514037
1.34,0.0020117366725289827
1.344,0.0020166409432857365
1.348,0.0020175304433739712
1.352,0.0020146215376800145
1.356,0.002007024726115631
1.36,0.002009452820951083
1.364,0.002013659915963004
1.368,0.0020143330511649114
1.372,0.0020143570917078367
1.3760000000000001,0.0020115203076426554
1.3800000000000001,0.0020064958341712755
1.3840000000000001,0.002007096847744407
1.3880000000000001,0.0020087316046633248
1.3920000000000001,0.0020076016991458375
1.3960000000000001,0.0020080825100043426
1.4000000000000001,0.0020067602801434534
1.4040000000000001,0.002005389969196713
1.408,0.0019979854819757318
1.412,0.0019966632521148425
1.416,0.002000197211924856
1.42,0.0019992355902078455
1.424,0.0019948361708525225
1.428,0.001992961008504352
1.432,0.0019982018468620594
1.436,0.0019989711442356677
1.44,0.001995076576281775
1.444,0.0019953169817110276
1.448,0.002001303076899418
1.452,0.002001880049929625
1.456,0.002002721468932009
1.46,0.0020041639015075247
1.464,0.0020045004691084784
1.468,0.002003923496078272
1.472,0.0019983941712054614
1.476,0.0019974806305743014
1.48,0.0019971921440591982
1.484,0.0020025291445886066
1.488,0.002010751010269047
1.492,0.002016112051341381
1.496,0.002023179970961408
1.5,0.002026088876655365
1.504,0.0020218337005575935
1.508,0.002012217483387488
1.512,0.0020079382667467912
1.516,0.0020086114019486987
1.52,0.002009597064208634
1.524,0.0020148138620234165
1.528,0.002018419943462206
1.532,0.002017794889346149
1.536,0.002013948402478107
1.54,0.002013756078134705
1.544,0.0020163043756847828
1.548,0.002016616902742811
1.552,0.002015054267452669
1.556,0.002013467591619602
1.56,0.0020073372531736597
1.564,0.0020038513744494962
1.568,0.0020067602801434534
1.572,0.0020126261726172174
1.576,0.002014140726821509
1.58,0.0020167130649145124
1.584,0.002017217916315943
1.588,0.0020132752672761996
1.592,0.0020106067670114954
1.596,0.0020126982942459933
1.6,0.0020155350783111745
1.604,0.00201464557822294
1.608,0.0020142609295361355
1.612,0.002015583159397025
1.616,0.0020144532538795374
1.62,0.002015751443197502
1.624,0.0020150783079955943
1.6280000000000001,0.002013587794334228
1.6320000000000001,0.002015342753967772
1.6360000000000001,0.0020164245783994093
1.6400000000000001,0.0020146215376800145
1.6440000000000001,0.0020140926457356584
1.6480000000000001,0.002013467591619602
1.6520000000000001,0.0020098855507237373
1.6560000000000001,0.0020061833071132467
1.6600000000000001,0.0020152946728819216
1.6640000000000001,0.002018900754320711
1.668,0.002016761146000363
1.672,0.0020108712129836732
1.676,0.0020015675228715964
1.68,0.002000557820068735
1.684,0.002007361293716585
1.688,0.00201058272646857
1.692,0.0020083229154335956
1.696,0.0020030580365329627
1.7,0.0020055582529971898
1.704,0.002006664117971752
1.708,0.00201373203759178
1.712,0.002021352889699088
1.716,0.0020239492683350167
1.72,0.0020243098764788953
1.724,0.0020241415926784186
1.728,0.002026088876655365
1.732,0.0020211846058986113
1.736,0.00201738620011642
1.74,0.0020255359441680837
1.744,0.002032147093472532
1.748,0.002031281633927222
1.752,0.0020276995930313575
1.756,0.002025848471226112
1.76,0.002028637174205443
1.764,0.0020269302956577493
1.768,0.0020269543362006746
1.772,0.002029574755379528
1.776,0.0020296949580941546
1.78,0.0020268822145718987
1.784,0.0020242137143071945
1.788,0.00202515129548128
1.792,0.0020256801874256355
1.796,0.002025295538738831
1.8,0.0020307767825257913
1.804,0.002031137390669671
1.808,0.0020266898902284967
1.812,0.002017049632515466
1.816,0.002010294239953467
1.82,0.0020155110377682492
1.824,0.002038493796804801
1.828,0.0020616929207276807
1.832,0.0020993644514915684
1.836,0.0021451136046783453
1.84,0.0021622304712411327
1.844,0.002165908674308698
1.848,0.0021587205519740444
1.852,0.0021347521306775566
1.856,0.0021105673444947416
1.86,0.002093738964447057
1.864,0.0020681598267745763
1.868,0.00204748495985885
1.872,0.002037267729115613
1.8760000000000001,0.002030031525695108
1.8800000000000001,0.00202880545800592
1.8840000000000001,0.002028829498548845
1.8880000000000001,0.0020272428227157777
1.8920000000000001,0.002024790687337401
1.8960000000000001,0.0020235886601911376
1.9000000000000001,0.0020205595517825544
1.9040000000000001,0.002019237321921665
1.9080000000000001,0.002017794889346149
1.9120000000000001,0.00201423688899321
1.9160000000000001,0.002011568388728506
1.92,0.0020118087941577586
1.924,0.0020120972806728617
1.928,0.002007433415345361
1.932,0.0020103182804963923
1.936,0.002012265564473339
1.94,0.0020120972806728617
1.944,0.002016592862199886
1.948,0.002018780551606085
1.952,0.002023805025077465
1.956,0.002025992714483664
1.96,0.0020220260249009954
1.964,0.0020128906185893952
1.968,0.00201058272646857
1.972,0.002007553618059987
1.976,0.0020079623072897165
1.98,0.002008899888463802
1.984,0.002007649780231688
1.988,0.0020035148068485425
1.992,0.0019986105360917886
1.996,0.001999980847038529
2.0,0.0019981056846903582
2.004,0.001999355792922472
2.008,0.00199687961700117
2.012,0.0019964468872285153
2.016,0.0019943794005369423
2.02,0.0019905569542118255
2.024,0.0019901963460679465
2.028,0.001985652683455072
2.032,0.001988297143176851
2.036,0.0019971200224304223
2.04,0.0019956775898549066
2.044,0.001986686426800858
2.048,0.0019901001838962457
2.052,0.001998802860435191
2.056,0.002000726103869212
2.06,0.002006519874714201
2.064,0.0020108231318978226
2.068,0.0020082507938048197
2.072,0.0020056784557118163
2.076,0.002004933198881133
2.08,0.00200327440141929
2.084,0.002004284104222151
2.088,0.002008010388375567
2.092,0.002008683523577474
2.096,0.0020056063340830404
2.1,0.002003562887934393
2.104,0.002004548550194329
2.108,0.002006087144941546
2.112,0.0020064237125424996
2.116,0.002005870780055218
2.12,0.0020061592665703214
2.124,0.0020029618743612615
2.128,0.0020055582529971898
2.132,0.002010847172440748
2.136,0.0020144772944224627
2.14,0.0020123376861021143
2.144,0.0020140445646498082
2.148,0.0020159197269979784
2.152,0.0020165688216569606
2.156,0.002012217483387488
2.16,0.0020094287804081575
2.164,0.002010919294069524
2.168,0.0020145253755083133
2.172,0.002016136091884306
2.176,0.00201647265948526
2.18,0.00202108844372691
2.184,0.002022434714130725
2.188,0.00201647265948526
2.192,0.0020108231318978226
2.196,0.0020108231318978226
2.2,0.0020086594830345493
2.204,0.0020101259561529903
2.208,0.0020123617266450395
2.212,0.0020133473889049755
2.216,0.0020176266055456724
2.22,0.002023468457476511
2.224,0.00202474260625155
2.228,0.0020202710652674513
2.232,0.0020160158891696796
2.236,0.0020158235648262777
2.24,0.002020727835583031
2.244,0.002023468457476511
2.248,0.002023276133133109
2.2520000000000002,0.0020209922815552094
2.2560000000000002,0.0020193575246362913
2.2600000000000002,0.002014934064738043
2.2640000000000002,0.0020110635373270756
2.2680000000000002,0.0020088037262921007
2.2720000000000002,0.0020066160368859016
2.2760000000000002,0.002004308144765076
2.2800000000000002,0.002002841671646635
2.2840000000000003,0.002000389536268258
2.2880000000000003,0.0019953169817110276
2.2920000000000003,0.00199916346857907
2.2960000000000003,0.002007914226203866
2.3000000000000003,0.0020195738895226185
2.3040000000000003,0.002016616902742811
2.308,0.0020107750508119725
2.312,0.0020201268220098995
2.316,0.0020263292820846177
2.32,0.0020244781602793724
2.324,0.0020158716459121283
2.328,0.0020195738895226185
2.332,0.002024165633221344
2.336,0.0020271226200011512
2.34,0.0020289737418063966
2.344,0.0020276034308596568
2.348,0.002025920592854888
2.352,0.0020270745389153006
2.356,0.0020291420256068732
2.36,0.002030271931124361
2.364,0.0020322913367300834
2.368,0.0020283246471474144
2.372,0.002027194741629927
2.376,0.0020292381877785744
2.38,0.0020302959716672862
2.384,0.002028997782349322
2.388,0.002023805025077465
2.392,0.0020163764973135587
2.396,0.0020259686739407387
2.4,0.002033108715189542
2.404,0.002030896985240418
2.408,0.002025632106339785
2.412,0.002026641809142646
2.416,0.0020240454305067174
2.42,0.002017794889346149
2.424,0.0020173621595734946
2.428,0.002015895686455053
2.432,0.0020245022008222977
2.436,0.002054913487622756
2.44,0.0020882336801171715
2.444,0.00212732360291365
2.448,0.002159946619663233
2.452,0.0021651153363921646
2.456,0.0021620141063548055
2.46,0.0021522536459271484
2.464,0.002132876968329386
2.468,0.0021065766143691478
2.472,0.0020838342607618484
2.476,0.0020653470832523208
2.48,0.0020491918384065435
2.484,0.0020356810532825456
2.488,0.002029646877008304
2.492,0.002029286268864425
2.496,0.002022554916845351
2.5,0.0020193815651792166
2.504,0.002018419943462206
2.508,0.00202611291719829
2.512,0.002028565052576667
2.516,0.0020219298627292943
2.52,0.0020113279832992535
2.524,0.002011664550900207
2.528,0.0020241415926784186
2.532,0.0020312095122984467
2.536,0.002035176201881115
2.54,0.0020304161743819123
2.544,0.0020256561468827102
2.548,0.0020231559304184827
2.552,0.0020259686739407387
2.556,0.002025271498195906
2.56,0.002025007052223728
2.564,0.0020239252277920914
2.568,0.002021857741100519
2.572,0.0020183718623763554
2.576,0.0020161841729701567
2.58,0.0020149100241951177
2.584,0.002014381132250762
2.588,0.002014212848450285
2.592,0.0020123617266450395
2.596,0.0020112558616704776
2.6,0.002012217483387488
2.604,0.0020113520238421788
2.608,0.0020134195105337514
2.612,0.002014429213336612
2.616,0.0020114241454709542
2.62,0.0020036109690202437
2.624,0.0019997885226951265
2.628,0.0020033224825051405
2.632,0.002006519874714201
2.636,0.002007721901860464
2.64,0.002007096847744407
2.644,0.002011135658955851
2.648,0.0020119049563294598
2.652,0.002007000685572706
2.656,0.0020072651315448838
2.66,0.0020065679558000514
2.664,0.002004668752908955
2.668,0.002001807928300849
2.672,0.002002553185131532
2.676,0.0020045725907372543
2.68,0.001999283671293696
2.684,0.0019965911304860666
2.688,0.0019993077118366214
2.692,0.0020042360231363006
2.696,0.0020074093748024355
2.7,0.0020019521715584003
2.704,0.0019995721578087993
2.708,0.0020063275503707984
2.712,0.0020161841729701567
2.716,0.00202017490309575
2.72,0.002013467591619602
2.724,0.0020149581052809683
2.728,0.002015126389081445
2.732,0.0020165447811140353
2.736,0.0020189969164924122
2.74,0.002016616902742811
2.744,0.002020872078840583
2.748,0.002027555349773806
2.7520000000000002,0.0020307767825257913
2.7560000000000002,0.0020263292820846177
2.7600000000000002,0.0020234203763906606
2.7640000000000002,0.0020213769302420133
2.7680000000000002,0.002023444416933586
2.7720000000000002,0.0020199104571235723
2.7760000000000002,0.0020179150920607756
2.7800000000000002,0.0020199104571235723
2.7840000000000003,0.0020218337005575935
2.7880000000000003,0.002019886416580647
2.7920000000000003,0.002021809660014668
2.7960000000000003,0.002018876713777786
2.8000000000000003,0.002017722767717373
2.8040000000000003,0.002019044997578263
2.8080000000000003,0.002019141159749964
2.8120000000000003,0.0020181074164041775
2.816,0.0020164245783994093
2.82,0.0020200787409240493
2.824,0.0020187565110631597
2.828,0.0020208480382976576
2.832,0.0020199104571235723
2.836,0.002018900754320711
2.84,0.002021232686984462
2.844,0.0020262090793699912
2.848,0.0020296228364653788
2.852,0.0020275072686879556
2.856,0.002026617768599721
2.86,0.0020221943087014725
2.864,0.0020185401461768324
2.868,0.0020213048086132374
2.872,0.00202291552498923
2.876,0.002018588227262683
2.88,0.002015318713424847
2.884,0.002010174037238841
2.888,0.0020086594830345493
2.892,0.002007986347832642
2.896,0.002007649780231688
2.9,0.002005365928653788
2.904,0.0020066160368859016
2.908,0.002007024726115631
2.912,0.002002937833818336
2.916,0.0019980335630615824
2.92,0.0020050774421386847
2.924,0.0020076978613175387
2.928,0.0020146215376800145
2.932,0.002017217916315943
2.936,0.002014934064738043
2.94,0.0020156312404828753
2.944,0.0020260407955695146
2.948,0.0020322913367300834
2.952,0.002034983877537713
2.956,0.00203423862070703
2.96,0.0020282525255186385
2.964,0.0020299594040663325
2.968,0.0020300555662380333
2.972,0.002030848904154567
2.976,0.002028372728233265
2.98,0.0020300796067809585
2.984,0.0020331327557324675
2.988,0.0020313777960989233
2.992,0.0020304161743819123
2.996,0.0020235165385623618
3.0,0.0020211124842698354
3.004,0.0020251032143954292
3.008,0.002029117985063948
3.012,0.0020333731611617205
3.016,0.0020325798232451865
3.02,0.0020327481070456636
3.024,0.0020364263101132285
3.028,0.0020317624447857277
3.032,0.002020247024724526
3.036,0.0020114241454709542
3.04,0.0020050534015957594
3.044,0.0020140926457356584
3.048,0.0020443596892785656
3.052,0.0020761172464828386
3.056,0.0021104231012371902
3.06,0.0021446087532769145
3.064,0.002157710849171183
3.068,0.0021580714573150622
3.072,0.002152421929727625
3.076,0.0021360984010813716
3.08,0.0021184045614883774
3.084,0.002097946059458978
3.088,0.0020675107321155945
3.092,0.002044864540679996
3.096,0.0020358493370830223
3.1,0.002033613566590973
3.104,0.00202332421421896
3.108,0.002014381132250762
3.112,0.0020228674439033796
3.116,0.002036618634456631
3.12,0.002042196040415292
3.124,0.0020398641077515414
3.128,0.0020336856882197485
3.132,0.002027651511945507
3.136,0.002025367660367607
3.14,0.002028733336377144
3.144,0.0020251993765671304
3.148,0.0020255359441680837
3.152,0.002028228484975713
3.156,0.002027531309230881
3.16,0.002028925660720546
3.164,0.0020294545526649017
3.168,0.0020268822145718987
3.172,0.002019958538209423
3.176,0.002014309010621986
3.18,0.0020184439840051313
3.184,0.0020202710652674513
3.188,0.002022338551959024
3.192,0.0020250310927666534
3.196,0.002029839201351706
3.2,0.0020297189986370795
3.204,0.0020270504983723753
3.208,0.0020231559304184827
3.212,0.002017217916315943
3.216,0.002017506402831046
3.22,0.0020145494160512386
3.224,0.0020120972806728617
3.228,0.0020107750508119725
3.232,0.002010486564296869
3.236,0.002009476861494008
3.24,0.0020040917798787488
3.244,0.0020000529686673048
3.248,0.0020026253067603078
3.2520000000000002,0.0020038032933636456
3.2560000000000002,0.0020032503608763646
3.2600000000000002,0.0019940187923930637
3.2640000000000002,0.0019829841831903675
3.2680000000000002,0.0019868066295154847
3.2720000000000002,0.001997961441432807
3.2760000000000002,0.0020043321853080013
3.2800000000000002,0.0020036109690202437
3.2840000000000003,0.0020084431181482216
3.2880000000000003,0.0020088518073779513
3.2920000000000003,0.0020126502131601427
3.2960000000000003,0.0020139003213922564
3.3000000000000003,0.002013131024018648
3.3040000000000003,0.0020110875778700005
3.3080000000000003,0.0020067121990576028
3.3120000000000003,0.0020061833071132467
3.3160000000000003,0.0020083229154335956
3.3200000000000003,0.0020103423210393176
3.3240000000000003,0.0020129867807610964
3.3280000000000003,0.002013227186190349
3.332,0.0020145253755083133
3.336,0.002014429213336612
3.34,0.0020145974971370892
3.344,0.0020130108213040217
3.348,0.0020154389161394733
3.352,0.0020180352947754016
3.356,0.002014573456594164
3.36,0.002013227186190349
3.364,0.002011207780584627
3.368,0.0020053178475679372
3.372,0.0020002452930107067
3.376,0.0019980576036045077
3.38,0.0020107029291831966
3.384,0.0020195017678938426
3.388,0.002020102781466974
3.392,0.0020184680245480566
3.396,0.002019333484093366
3.4,0.002019405605722142
3.404,0.002018419943462206
3.408,0.002018900754320711
3.412,0.0020207518761259564
3.416,0.0020196700516943197
3.42,0.002021449051870789
3.424,0.002022074105986846
3.428,0.0020202229841816007
3.432,0.002020511470696704
3.436,0.002022362592501949
3.44,0.002021064403183985
3.444,0.002016400537856484
3.448,0.0020091643344359797
3.452,0.0020111596994987764
3.456,0.0020126502131601427
3.46,0.002016761146000363
3.464,0.002019886416580647
3.468,0.002019958538209423
3.472,0.002018516105633907
3.476,0.0020181074164041775
3.48,0.002010510604839794
3.484,0.002007649780231688
3.488,0.0020139724430210323
3.492,0.0020129146591323205
3.496,0.002017217916315943
3.5,0.002019237321921665
3.504,0.0020155110377682492
3.508,0.002013515672705452
3.512,0.0020079382667467912
3.516,0.0020061592665703214
3.52,0.002006279469284948
3.524,0.002008899888463802
3.528,0.002011376064385104
3.532,0.0020100538345242144
3.536,0.002003899455535347
3.54,0.002004019658249973
3.544,0.002003202279790514
3.548,0.00200327440141929
3.552,0.0020028897527324856
3.556,0.0020038032933636456
3.56,0.0020060390638556953
3.564,0.0020096932263803354
3.568,0.002010654848097346
3.572,0.0020112558616704776
3.576,0.0020117366725289827
3.58,0.002011688591443132
3.584,0.002017674686631523
3.588,0.0020197421733230956
3.592,0.0020181795380329534
3.596,0.0020198383354947964
3.6,0.002023684822362839
3.604,0.00202200198435807
3.608,0.002023973308877942
3.612,0.00203428670179288
3.616,0.0020401525942666445
3.62,0.0020378447021458194
3.624,0.0020251272549383545
3.628,0.0020202229841816007
3.632,0.002028637174205443
3.636,0.0020345030666792077
3.64,0.00204017663480957
3.644,0.0020398641077515414
3.648,0.0020343828639645812
3.652,0.0020235646196482123
3.656,0.0020155110377682492
3.66,0.002010726969726122
3.664,0.0020196700516943197
3.668,0.002044600094707818
3.672,0.0020740016787054154
3.676,0.0021109279526386206
3.68,0.0021479744292864514
3.684,0.002155475078679134
3.688,0.002152133443212522
3.692,0.0021451376452212706
3.696,0.002129655535577401
3.7,0.002108932587575824
3.704,0.0020932341130456265
3.708,0.002072294800157722
3.712,0.0020545047983930266
3.716,0.002046282932712587
3.72,0.0020385178373477264
3.724,0.002031906688043279
3.728,0.0020279159579176848
3.732,0.002024598362993999
3.736,0.002024165633221344
3.74,0.0020272428227157777
3.744,0.0020305363770965388
3.748,0.0020244060386505965
3.7520000000000002,0.002029358390493201
3.7560000000000002,0.0020331327557324675
3.7600000000000002,0.002026834133486048
3.7640000000000002,0.002028180403889863
3.7680000000000002,0.0020317384042428024
3.7720000000000002,0.0020325077016164106
3.7760000000000002,0.0020344790261362824
3.7800000000000002,0.0020349598369947875
3.7840000000000003,0.002034094377449478
3.7880000000000003,0.002030560417639464
3.7920000000000003,0.0020274111065162544
3.7960000000000003,0.0020256801874256355
3.8000000000000003,0.002026737971314347
3.8040000000000003,0.002028444849862041
3.8080000000000003,0.002030488296010688
3.8120000000000003,0.0020275793903167315
3.8160000000000003,0.002022530876302426
3.8200000000000003,0.0020182757002046546
3.8240000000000003,0.0020191171192070387
3.8280000000000003,0.002021064403183985
3.8320000000000003,0.0020245502819081483
3.8360000000000003,0.0020301757689526597
3.84,0.002024910890052027
3.844,0.0020167130649145124
3.848,0.0020149100241951177
3.852,0.002012385767187965
3.856,0.002014861943109267
3.86,0.0020149821458238936
3.864,0.0020165447811140353
3.868,0.00201423688899321
3.872,0.002007649780231688
3.876,0.002008899888463802
3.88,0.0020118809157865345
3.884,0.0020155350783111745
3.888,0.0020158235648262777
3.892,0.0020095730236657093
3.896,0.002005918861141069
3.9,0.0020013271174423434
3.904,0.002003009955447112
3.908,0.002014212848450285
3.912,0.002020703795040106
3.916,0.002020391267982078
3.92,0.002015342753967772
3.924,0.0020153908350536228
3.928,0.0020142609295361355
3.932,0.0020119049563294598
3.936,0.002015583159397025
3.94,0.002016232254056007
3.944,0.002013659915963004
3.948,0.002011303942756328
3.952,0.0020130589023898723
3.956,0.0020178429704319997
3.96,0.0020251993765671304
3.964,0.002024261795393045
3.968,0.0020246224035369237
3.972,0.00202793999846061
3.976,0.002028444849862041
3.98,0.0020255359441680837
3.984,0.002020439349067928
3.988,0.002021521173499565
3.992,0.0020277957552030587
3.996,0.002028372728233265
4.0,0.002027170701087002
4.0040000000000004,0.002028012120089386
4.008,0.00202611291719829
4.0120000000000005,0.002024526241365223
4.016,0.002022362592501949
4.0200000000000005,0.002024021389963792
4.024,0.002022146227615622
4.0280000000000005,0.0020150783079955943
4.032,0.0020206557139542556
4.0360000000000005,0.0020299594040663325
4.04,0.0020315460798994004
4.0440000000000005,0.0020318345664145036
4.048,0.0020324596205305604
4.0520000000000005,0.00202976707972293
4.056,0.0020255119036251584
4.0600000000000005,0.00202423775485012
4.064,0.0020254157414534577
4.0680000000000005,0.002027314944344553
4.072,0.0020257763495973367
4.0760000000000005,0.0020202229841816007
4.08,0.002022795322274604
4.0840000000000005,0.0020282525255186385
4.088,0.0020316903231569518
4.0920000000000005,0.002029574755379528
4.096,0.0020274111065162544
4.1,0.002031618201528176
4.104,0.0020324836610734853
4.108,0.0020277957552030587
4.112,0.002022795322274604
4.116,0.002025728268511486
4.12,0.0020278678768318346
4.124,0.0020274351470591797
4.128,0.0020269543362006746
4.132,0.0020256561468827102
4.136,0.0020289016201776207
4.14,0.0020267860524001975
4.144,0.0020188286326919356
4.148,0.002016256294598932
4.152,0.0020205595517825544
4.156,0.0020256561468827102
4.16,0.0020255119036251584
4.164,0.0020221221870726966
4.168,0.002021905822186369
4.172,0.0020205835923254797
4.176,0.0020193815651792166
4.18,0.0020222904708731733
4.184,0.0020254878630822336
4.188,0.0020264975658850944
4.192,0.0020268822145718987
4.196,0.0020218337005575935
4.2,0.002023973308877942
4.204,0.0020308008230687166
4.208,0.0020350559991664887
4.212,0.002037748539974118
4.216,0.0020427970539884234
4.22,0.002041018053811954
4.224,0.002032964471931991
4.228,0.0020289497012634713
4.232,0.002031281633927222
4.236,0.0020413546214129077
4.24,0.0020482782977753835
4.244,0.0020458021218540813
4.248,0.0020469079868286433
4.252,0.002044383729821491
4.256,0.0020377004588882676
4.26,0.0020389024860345308
4.264,0.0020439990811346865
4.268,0.0020465954597706153
4.272,0.002044311608192715
4.276,0.0020408738105544026
4.28,0.002035080039709414
4.284,0.002020679754497181
4.288,0.00201469365930879
4.292,0.002020872078840583
4.296,0.0020378687426887447
4.3,0.0020670058807141637
4.304,0.0020978498972872768
4.308,0.002130785441094888
4.312,0.0021573502410273046
4.316,0.0021592013628325495
4.32,0.0021600668223778594
4.324,0.002152301727012999
4.328,0.002130569076208561
4.332,0.0021070574252276533
4.336,0.0020878971125162177
4.34,0.002067847299716548
4.344,0.0020526777171307065
4.348,0.002044936662308772
4.352,0.002048879311348515
4.356,0.0020481100139749064
4.36,0.00203702732368636
4.364,0.0020326759854168877
4.368,0.0020375081345448656
4.372,0.0020363782290273784
4.376,0.0020363782290273784
4.38,0.00203606570196935
4.384,0.0020290458634351725
4.388,0.0020279640390035354
4.392,0.0020314018366418486
4.396,0.00202976707972293
4.4,0.002024646444079849
4.404,0.002025848471226112
4.408,0.0020317384042428024
4.412,0.0020336376071338983
4.416,0.0020352964045957413
4.42,0.0020345030666792077
4.424,0.0020276755524884322
4.428,0.002026737971314347
4.432,0.00203068062035409
4.436,0.002029093944521023
4.44,0.002028372728233265
4.444,0.0020304161743819123
4.448,0.0020238531061633155
4.452,0.002019694092237245
4.456,0.002020872078840583
4.46,0.002020319146353302
4.464,0.0020239252277920914
4.468,0.002025007052223728
4.472,0.0020227232006458282
4.476,0.002021713497842967
4.48,0.002019141159749964
4.484,0.0020156552810258006
4.488,0.0020135637537913027
4.492,0.0020100778750671397
4.496,0.002011207780584627
4.5,0.0020091643344359797
4.5040000000000004,0.002004019658249973
4.508,0.0020060390638556953
4.5120000000000005,0.002006640077428827
4.516,0.0020048851177952827
4.5200000000000005,0.0020057746178835175
4.524,0.0020093326182364563
4.5280000000000005,0.002009645145294485
4.532,0.002007721901860464
4.5360000000000005,0.0020092845371506057
4.54,0.002009044131721353
4.5440000000000005,0.0020111596994987764
4.548,0.0020141647673644343
4.5520000000000005,0.002013948402478107
4.556,0.002011664550900207
4.5600000000000005,0.0020150302269097437
4.564,0.002019982578752348
4.5680000000000005,0.0020218337005575935
4.572,0.002013876280849331
4.5760000000000005,0.002013227186190349
4.58,0.002019790254408946
4.5840000000000005,0.0020270504983723753
4.588,0.002029743039180005
4.5920000000000005,0.00202789191737476
4.596,0.0020282525255186385
4.6000000000000005,0.0020267860524001975
4.604,0.0020305123365536135
4.6080000000000005,0.0020292381877785744
4.612,0.0020232280520472586
4.616,0.0020185641867197577
4.62,0.0020197181327801703
4.624,0.0020276755524884322
4.628,0.002030103647323884
4.632,0.002031281633927222
4.636,0.002031714363699877
4.64,0.0020318105258715783
4.644,0.002029117985063948
4.648,0.0020291420256068732
4.652,0.002029021822892247
4.656,0.002029550714836603
4.66,0.0020277717146601334
4.664,0.0020276995930313575
4.668,0.002024814727880326
4.672,0.002021160565355686
4.676,0.0020211846058986113
4.68,0.0020243098764788953
4.684,0.0020277957552030587
4.688,0.002021977943815145
4.692,0.0020204153085250027
4.696,0.002026281200998767
4.7,0.002031522039356475
4.704,0.002035536810024994
4.708,0.002037532175087791
4.712,0.002033613566590973
4.716,0.002032892350303215
4.72,0.0020319307285862043
4.724,0.002031642242071101
4.728,0.0020272428227157777
4.732,0.0020264014037133936
4.736,0.002030560417639464
4.74,0.0020317384042428024
4.744,0.002026353322627543
4.748,0.0020269302956577493
4.752,0.0020320028502149802
4.756,0.0020340462963636275
4.76,0.0020333010395329446
4.764,0.002031281633927222
4.768,0.0020240694710496427
4.772,0.002017025591972541
4.776,0.002021857741100519
4.78,0.0020246945251656996
4.784,0.0020276755524884322
4.788,0.00203332508007587
4.792,0.002035825296540097
4.796,0.00203515216133819
4.8,0.0020313777960989233
4.804,0.0020272428227157777
4.808,0.002026473525342169
4.812,0.002029117985063948
4.816,0.0020265696875138703
4.82,0.002020703795040106
4.824,0.002023444416933586
4.828,0.0020249589711378775
4.832,0.002025175336024205
4.836,0.0020251272549383545
4.84,0.0020255119036251584
4.844,0.002028276566061564
4.848,0.002030824863611642
4.852,0.0020330125530178414
4.856,0.0020352483235098907
4.86,0.002027651511945507
4.864,0.002033180836818318
4.868,0.002041474824127534
4.872,0.002037460053459015
4.876,0.002038445715718951
4.88,0.0020422441215011424
4.884,0.0020408738105544026
4.888,0.0020437827162483593
4.892,0.0020421719998723665
4.896,0.0020463790948842876
4.9,0.002049215878949469
4.904,0.0020411382565265804
4.908,0.002041859472814338
4.912,0.002046787784114017
4.916,0.002046763743571092
4.92,0.002048686987005113
4.924,0.0020462348516267362
4.928,0.0020432297837610783
4.932,0.002036618634456631
4.936,0.0020326519448739624
4.94,0.002027723633574283
4.944,0.0020167851865432883
4.948,0.0020187565110631597
4.952,0.002034983877537713
4.956,0.002056812690513852
4.96,0.0020885221666322746
4.964,0.0021323721169279556
4.968,0.0021714860802673594
4.972,0.0021832178652148883
4.976,0.0021817994731822975
4.98,0.002168913742174356
4.984,0.00214874372666006
4.988,0.002123404994416832
4.992,0.002105975600796016
4.996,0.0020812859632117703
5.0,0.002059336947521005
5.0040000000000004,0.0020502015412094047
5.008,0.0020465954597706153
5.0120000000000005,0.0020459223245687078
5.016,0.002046763743571092
5.0200000000000005,0.002043854837877135
5.024,0.0020406093645822243
5.0280000000000005,0.00203926309417841
5.032,0.0020322432556442328
5.0360000000000005,0.0020252474576529806
5.04,0.0020249589711378775
5.0440000000000005,0.002034262661249955
5.048,0.002046282932712587
5.0520000000000005,0.0020494803249216467
5.056,0.0020489995140631416
5.0600000000000005,0.002048302338318309
5.064,0.0020432297837610783
5.0680000000000005,0.00204200371607189
5.072,0.0020429893783318258
5.0760000000000005,0.0020407055267539255
5.08,0.0020396958239510643
5.0840000000000005,0.0020395034996076623
5.088,0.002035560850567919
5.0920000000000005,0.002035176201881115
5.096,0.0020336616476768236
5.1000000000000005,0.0020311854717555214
5.104,0.002030271931124361
5.1080000000000005,0.002031233552841372
5.112,0.0020320028502149802
5.1160000000000005,0.0020327481070456636
5.12,0.00203068062035409
5.124,0.0020226751195599776
5.128,0.0020156552810258006
5.132,0.002015847605369203
5.136,0.002021352889699088
5.14,0.00202515129548128
5.144,0.002027194741629927
5.148,0.0020247666467944755
5.152,0.002021641376214191
5.156,0.002021785619471743
5.16,0.0020205835923254797
5.164,0.0020235646196482123
5.168,0.002025704227968561
5.172,0.002024910890052027
5.176,0.002018588227262683
5.18,0.0020161841729701567
5.184,0.0020193575246362913
5.188,0.0020196460111513944
5.192,0.0020202951058103766
5.196,0.0020184680245480566
5.2,0.0020161601324272314
5.204,0.002015486997225324
5.208,0.0020118087941577586
5.212,0.0020110875778700005
5.216,0.002011832834700684
5.22,0.0020235165385623618
5.224,0.0020298151608087807
5.228,0.002021232686984462
5.232,0.0020172659974017934
5.236,0.0020244060386505965
5.24,0.002028637174205443
5.244,0.0020307046608970154
5.248,0.0020279159579176848
5.252,0.002029839201351706
5.256,0.002029093944521023
5.26,0.002028661214748368
5.264,0.002029839201351706
5.268,0.002029574755379528
5.272,0.0020327481070456636
5.276,0.002032627904331037
5.28,0.0020339260936490015
5.284,0.0020358012559971717
5.288,0.00203332508007587
5.292,0.0020293343499502756
5.296,0.0020307046608970154
5.3,0.002036354188484453
5.304,0.002039070769835008
5.308,0.002032964471931991
5.312,0.002029935363523407
5.316,0.002031618201528176
5.32,0.002030320012210211
5.324,0.0020322432556442328
5.328,0.002029478593207827
5.332,0.0020270504983723753
5.336,0.002031137390669671
5.34,0.002034527107222133
5.344,0.002036907120971734
5.348,0.0020361137830552
5.352,0.002032531742159336
5.356,0.0020296949580941546
5.36,0.002032555782702261
5.364,0.00203515216133819
5.368,0.002034647309936759
5.372,0.002034647309936759
5.376,0.002036185904683976
5.38,0.0020404170402388224
5.384,0.0020384697562618763
5.388,0.0020303680932960617
5.392,0.002034527107222133
5.396,0.0020389505671203813
5.4,0.002035176201881115
5.404,0.0020308008230687166
5.408,0.0020327240665027383
5.412,0.0020346953910226097
5.416,0.0020324836610734853
5.42,0.0020298151608087807
5.424,0.0020274832281450303
5.428,0.0020274111065162544
5.432,0.00203520024242404
5.436,0.0020377725805170435
5.44,0.0020359454992547234
5.444,0.0020408978510973274
5.448,0.0020412584592412065
5.452,0.0020375802561736415
5.456,0.002032147093472532
5.46,0.002029550714836603
5.464,0.002028444849862041
5.468,0.0020332048773612434
5.472,0.0020374840940019403
5.476,0.0020356089316537697
5.48,0.0020370513642292854
5.484,0.00203520024242404
5.488,0.0020307767825257913
5.492,0.002029550714836603
5.496,0.0020328683097602896
5.5,0.002034791553194311
5.5040000000000004,0.0020296949580941546
5.508,0.0020209442004693588
5.5120000000000005,0.0020263773631704683
5.516,0.0020323874989017846
5.5200000000000005,0.002038373594090175
5.524,0.0020408978510973274
5.5280000000000005,0.002044119283849313
5.532,0.0020480619328890563
5.5360000000000005,0.0020420758377006657
5.54,0.002034527107222133
5.5440000000000005,0.002034454985593357
5.548,0.0020367147966283317
5.5520000000000005,0.0020391428914637833
5.556,0.0020419556349860393
5.5600000000000005,0.002040296837524196
5.564,0.0020386139995194276
5.5680000000000005,0.002042123918786516
5.572,0.0020454655542531276
5.5760000000000005,0.002046042527283334
5.58,0.002045513635338978
5.5840000000000005,0.0020470762706291203
5.588,0.002053639338847717
5.5920000000000005,0.002052701757673632
5.596,0.00204885527080559
5.6000000000000005,0.0020454655542531276
5.604,0.0020466435408564654
5.6080000000000005,0.0020430614999606012
5.612,0.0020360416614264246
5.6160000000000005,0.0020321230529296067
5.62,0.002029117985063948
5.6240000000000006,0.002032700025959813
5.628,0.002061620799098905
5.632,0.0020960708971108073
5.636,0.002135064657735585
5.64,0.0021705965801791247
5.644,0.0021852372708206103
5.648,0.002182184121869102
5.652,0.0021663654446242783
5.656,0.002142204698984388
5.66,0.0021185007236600786
5.664,0.0020984749514033336
5.668,0.0020840987067340263
5.672,0.002079531003578226
5.676,0.0020731121786171807
5.68,0.0020638806101338798
5.684,0.0020641450561060576
5.688,0.00206255838027299
5.692,0.002057365623001133
5.696,0.002053062365817511
5.7,0.002051042960211789
5.704,0.0020515718521561446
5.708,0.0020547692443652044
5.712,0.002054889447079831
5.716,0.00205068235206791
5.72,0.0020497207303508992
5.724,0.002047340716601298
5.728,0.0020478455680027286
5.732,0.002050153460123554
5.736,0.002046859905742793
5.74,0.0020424604863874696
5.744,0.002041186337612431
5.748,0.002042027756614815
5.752,0.002041667148470936
5.756,0.002041378661955833
5.76,0.0020443356487356403
5.764,0.0020453453515385015
5.768,0.002045850202939932
5.772,0.002040945932183178
5.776,0.0020352964045957413
5.78,0.0020329163908461402
5.784,0.002031858606957429
5.788,0.0020335654855051224
5.792,0.002036546512827855
5.796,0.0020326519448739624
5.8,0.0020258965523119628
5.804,0.0020233963358477357
5.808,0.0020230116871609314
5.812,0.0020298151608087807
5.816,0.0020350559991664887
5.82,0.0020335654855051224
5.824,0.0020288775796346954
5.828,0.0020235646196482123
5.832,0.0020236607818199135
5.836,0.0020277957552030587
5.84,0.0020233722953048104
5.844,0.0020179872136895515
5.848,0.0020204633896108532
5.852,0.0020201989436386754
5.856,0.002020343186896227
5.86,0.00201738620011642
5.864,0.0020135637537913027
5.868,0.0020160639702555302
5.872,0.002018588227262683
5.876,0.0020235165385623618
5.88,0.002024165633221344
5.884,0.0020227232006458282
5.888,0.0020216894573000417
5.892,0.002027363025430404
5.896,0.0020231318898755574
5.9,0.0020223145114160986
5.904,0.002030488296010688
5.908,0.0020317624447857277
5.912,0.002029214147235649
5.916,0.0020331327557324675
5.92,0.0020392390536354845
5.924,0.0020405132024105235
5.928,0.002039984310466168
5.932,0.002043277864846929
5.936,0.0020429893783318258
5.94,0.0020432297837610783
5.944,0.0020390226887491572
5.948,0.002028372728233265
5.952,0.002031714363699877
5.956,0.0020399602699232426
5.96,0.002048518703204636
5.964,0.0020466435408564654
5.968,0.0020455617164248287
5.972,0.002044864540679996
5.976,0.0020430855405035265
5.98,0.0020424604863874696
5.984,0.002038710161691129
5.988,0.0020347675126513856
5.992,0.0020392390536354845
5.996,0.002040465121324673
6.0,0.002041378661955833
6.0040000000000004,0.0020422681620440677
6.008,0.0020403449186100465
6.0120000000000005,0.0020439029189629854
6.016,0.002043398067561555
6.0200000000000005,0.00203794086431752
6.024,0.002034623269393834
6.0280000000000005,0.002034911755908937
6.032,0.0020354646883962184
6.0360000000000005,0.00203702732368636
6.04,0.0020390948103779327
6.0440000000000005,0.002043277864846929
6.048,0.0020427970539884234
6.0520000000000005,0.0020390948103779327
6.056,0.0020426047296450214
6.0600000000000005,0.0020453453515385015
6.064,0.002043470189190331
6.0680000000000005,0.0020422681620440677
6.072,0.0020471724328008215
6.0760000000000005,0.0020481821356036823
6.08,0.002043398067561555
6.0840000000000005,0.0020432538243040036
6.088,0.0020466435408564654
6.0920000000000005,0.002046956067914494
6.096,0.002043277864846929
6.1000000000000005,0.0020433499864757044
6.104,0.0020419556349860393
6.1080000000000005,0.0020433019053898538
6.112,0.0020455617164248287
6.1160000000000005,0.0020439990811346865
6.12,0.002037460053459015
6.1240000000000006,0.0020323153772730087
6.128,0.0020343828639645812
6.132000000000001,0.002040032391552018
6.136,0.002042220080958217
6.140000000000001,0.0020459223245687078
6.144,0.002037267729115613
6.148,0.0020352483235098907
6.152,0.0020348396342801615
6.156,0.0020342145801641046
6.16,0.002035777215454247
6.164,0.002034815593737236
6.168,0.002032339417815934
6.172,0.002029839201351706
6.176,0.0020385899589765023
6.18,0.002037363891287314
6.184,0.0020365705533707803
6.188,0.002038638040062353
6.192,0.0020371234858580613
6.196,0.0020330125530178414
6.2,0.0020339501341919267
6.204,0.0020339260936490015
6.208,0.002036354188484453
6.212,0.0020402487564383457
6.216,0.0020466675813993907
6.22,0.0020476292031164013
6.224,0.0020504419466386573
6.228,0.0020463069732555117
6.232,0.0020452011082809497
6.236,0.0020501053790377036
6.24,0.0020558029877109914
6.244,0.0020519084197570983
6.248,0.0020504659871815826
6.252,0.0020560193525973186
6.256,0.0020571011770289553
6.26,0.002053086406360436
6.264,0.00204885527080559
6.268,0.002053639338847717
6.272,0.0020578464338596386
6.276,0.002056692487799226
6.28,0.002055899149882692
6.284,0.0020570050148572545
6.288,0.002055081771423233
6.292,0.0020556347039105143
6.296,0.0020532306496179875
6.3,0.002042652810730872
6.304,0.002028733336377144
6.308,0.0020230838087897073
6.312,0.002032820228674439
6.316,0.0020621737315861858
6.32,0.0020922244102427653
6.324,0.002123284791702206
6.328,0.002155571240850835
6.332,0.002168288688058299
6.336,0.002172928512842875
6.34,0.002174178621074989
6.344,0.0021584561060018666
6.348,0.0021375648741998126
6.352,0.002119991237321445
6.356,0.002100518397551981
6.36,0.002080973436153742
6.364,0.002062822826245168
6.368,0.0020533268117896887
6.372,0.002051812257585397
6.376,0.0020528460009311836
6.38,0.002054889447079831
6.384,0.0020500813384947783
6.388,0.002048518703204636
6.392,0.002048590824833412
6.396,0.0020463790948842876
6.4,0.0020465233381418394
6.404,0.0020504659871815826
6.408,0.0020511150818405643
6.412,0.002048518703204636
6.416,0.002048518703204636
6.42,0.0020482782977753835
6.424,0.002041018053811954
6.428,0.0020424604863874696
6.432,0.0020439750405917612
6.436,0.0020475570814876254
6.44,0.0020439990811346865
6.444,0.0020397919861227655
6.448,0.0020428932161601246
6.452,0.0020442635271068644
6.456,0.002045874243482857
6.46,0.002048951432977291
6.464,0.002048518703204636
6.468,0.002044600094707818
6.472,0.0020416190673850855
6.476,0.0020397919861227655
6.48,0.002038662080605278
6.484,0.0020403689591529718
6.488,0.0020411382565265804
6.492,0.002039551580693513
6.496,0.0020377725805170435
6.5,0.0020354646883962184
6.5040000000000004,0.002032147093472532
6.508,0.0020263292820846177
6.5120000000000005,0.002024093511592568
6.516,0.0020242858359359704
6.5200000000000005,0.0020206316734113303
6.524,0.0020214009707849386
6.5280000000000005,0.0020241415926784186
6.532,0.0020236367412769882
6.5360000000000005,0.0020225789573882764
6.54,0.002019141159749964
6.5440000000000005,0.002023444416933586
6.548,0.0020227232006458282
6.5520000000000005,0.0020196460111513944
6.556,0.0020200787409240493
6.5600000000000005,0.0020195017678938426
6.564,0.002015126389081445
6.5680000000000005,0.002014212848450285
6.572,0.0020176266055456724
6.5760000000000005,0.00202793999846061
6.58,0.0020337818503914497
6.5840000000000005,0.0020305363770965388
6.588,0.002035705093825471
6.5920000000000005,0.002039743905036915
6.596,0.0020400083510090927
6.6000000000000005,0.0020400804726378686
6.604,0.0020388784454916055
6.6080000000000005,0.0020396958239510643
6.612,0.0020393352158071857
6.6160000000000005,0.0020367869182571076
6.62,0.0020364263101132285
6.6240000000000006,0.002042123918786516
6.628,0.002044864540679996
6.632000000000001,0.002039623702322289
6.636,0.0020356570127396203
6.640000000000001,0.002036546512827855
6.644,0.0020400564320949433
6.648000000000001,0.0020385899589765023
6.652,0.0020397919861227655
6.656000000000001,0.0020389505671203813
6.66,0.002032772147588589
6.664,0.0020343828639645812
6.668,0.002044768378508295
6.672,0.0020459223245687078
6.676,0.002044119283849313
6.68,0.0020426768512737973
6.684,0.0020445279730790422
6.688,0.0020473647571442235
6.692,0.0020463790948842876
6.696,0.0020433499864757044
6.7,0.002038012985946296
6.704,0.002036089742512275
6.708,0.002046138689455035
6.712,0.0020489273924343657
6.716,0.002047605162573476
6.72,0.002044239486563939
6.724,0.0020402247158954204
6.728,0.0020314739582706245
6.732,0.0020337578098485244
6.736,0.002040200675352495
6.74,0.002042220080958217
6.744,0.002044600094707818
6.748,0.0020468839462857184
6.752,0.0020456819191394552
6.756,0.0020488312302626645
6.76,0.002046763743571092
6.764,0.002045297270452651
6.768,0.0020452011082809497
6.772,0.0020439990811346865
6.776,0.002044600094707818
6.78,0.002045585756967754
6.784,0.0020415229052133843
6.788,0.002043686554076658
6.792,0.0020481100139749064
6.796,0.002047412838230074
6.8,0.002044383729821491
6.804,0.0020415950268421602
6.808,0.0020426768512737973
6.812,0.0020419796755289646
6.816,0.0020423402836728436
6.82,0.002039551580693513
6.824,0.002038662080605278
6.828,0.0020373398507443886
6.832,0.002035705093825471
6.836,0.00203606570196935
6.84,0.00203606570196935
6.844,0.0020274111065162544
6.848,0.0020251272549383545
6.852,0.0020323153772730087
6.856,0.0020463069732555117
6.86,0.0020418354322714128
6.864,0.002034623269393834
6.868,0.0020355127694820685
6.872,0.0020358733776259475
6.876,0.002033060634103692
6.88,0.002029550714836603
6.884,0.0020298632418946313
6.888,0.0020346953910226097
6.892,0.0020375802561736415
6.896,0.0020407776483827014
6.9,0.002039984310466168
6.904,0.0020378927832316695
6.908,0.0020385899589765023
6.912,0.002040296837524196
6.916,0.0020405853240392994
6.92,0.002042941297245975
6.924,0.002044383729821491
6.928,0.00204200371607189
6.932,0.002039070769835008
6.936,0.002034094377449478
6.94,0.0020378687426887447
6.944,0.0020455617164248287
6.948,0.0020475570814876254
6.952,0.002051812257585397
6.956,0.0020572935013723577
6.96,0.0020615005963842787
6.964,0.002059168663720528
6.968,0.0020562116769407206
6.972,0.0020540239875345215
6.976,0.0020490475951489917
6.98,0.0020503698250098814
6.984,0.002055971271511468
6.988,0.002061356353126727
6.992,0.0020609717044399226
6.996,0.002055177933594934
7.0,0.0020420758377006657
7.0040000000000004,0.0020307767825257913
7.008,0.0020310412284979696
7.0120000000000005,0.0020457540407682307
7.016,0.0020708283270392805
7.0200000000000005,0.002098571113575035
7.024,0.0021298478599208032
7.0280000000000005,0.002164634525533659
7.032,0.0021735295264160067
7.0360000000000005,0.0021736016480447826
7.04,0.0021730727561004265
7.0440000000000005,0.0021573262004843793
7.048,0.0021285496706028384
7.0520000000000005,0.002110615425580592
7.056,0.0020940755320480106
7.0600000000000005,0.0020777279628588314
7.064,0.0020660682995400784
7.0680000000000005,0.0020603466503238657
7.072,0.002061164028783325
7.0760000000000005,0.002061019785525773
7.08,0.002053350852332614
7.0840000000000005,0.0020450087839375478
7.088,0.002043037459417676
7.0920000000000005,0.0020484706221187855
7.096,0.0020480619328890563
7.1000000000000005,0.0020474368787729994
7.104,0.002045585756967754
7.1080000000000005,0.002042027756614815
7.112,0.0020435423108191068
7.1160000000000005,0.002046427175970138
7.12,0.0020495524465504226
7.1240000000000006,0.002050249622295255
7.128,0.002048326378861234
7.132000000000001,0.002040032391552018
7.136,0.0020322432556442328
7.140000000000001,0.0020355848911108444
7.144,0.002040945932183178
7.148000000000001,0.0020412584592412065
7.152,0.002038710161691129
7.156000000000001,0.0020464752570559888
7.16,0.002046403135427213
7.164000000000001,0.0020466675813993907
7.168,0.0020507544736966857
7.172,0.0020493120411211696
7.176,0.0020442875676497897
7.18,0.0020445520136219675
7.184,0.002045032824480473
7.188,0.0020402247158954204
7.192,0.0020408497700114773
7.196,0.002036642674999556
7.2,0.0020354646883962184
7.204,0.002038734202234054
7.208,0.0020404410807817477
7.212,0.0020387822833199047
7.216,0.002034983877537713
7.22,0.0020300555662380333
7.224,0.0020247666467944755
7.228,0.0020283246471474144
7.232,0.002029214147235649
7.236,0.00202474260625155
7.24,0.0020211365248127607
7.244,0.0020205835923254797
7.248,0.0020256080657968596
7.252,0.0020329404313890655
7.256,0.002035705093825471
7.26,0.0020342145801641046
7.264,0.0020319547691291296
7.268,0.002028925660720546
7.272,0.0020295266742936776
7.276,0.002030560417639464
7.28,0.0020324836610734853
7.284,0.0020360176208834993
7.288,0.002038565918433577
7.292,0.002036546512827855
7.296,0.0020379649048604454
7.3,0.002036282066855677
7.304,0.0020375562156307162
7.308,0.0020388063238628296
7.312,0.0020390948103779327
7.316,0.002039190972549634
7.32,0.0020367869182571076
7.324,0.0020364263101132285
7.328,0.0020414267430416836
7.332,0.0020472205138866717
7.336,0.002045513635338978
7.34,0.0020425085674733202
7.344,0.002048711027548038
7.348,0.002055610663367589
7.352,0.002057341582458208
7.356,0.002053831663191119
7.36,0.002052076703557575
7.364,0.002051042960211789
7.368,0.002046282932712587
7.372,0.002044191405478089
7.376,0.0020442635271068644
7.38,0.0020433019053898538
7.384,0.0020494082032928708
7.388,0.0020518362981283224
7.392,0.0020497447708938245
7.396,0.002048686987005113
7.4,0.002048879311348515
7.404,0.0020494803249216467
7.408,0.002045874243482857
7.412,0.0020455376758819034
7.416,0.0020497447708938245
7.42,0.0020548654065369056
7.424,0.002054360555135475
7.428,0.0020552981363095605
7.432,0.002056692487799226
7.436,0.0020550096497944574
7.44,0.002049143757320693
7.444,0.0020429653377889005
7.448,0.002036089742512275
7.452,0.002036907120971734
7.456,0.0020395756212364382
7.46,0.002044960702851697
7.464,0.002041018053811954
7.468,0.0020466675813993907
7.472,0.0020529421631028844
7.476,0.0020536874199335677
7.48,0.0020569088526855533
7.484,0.0020569328932284786
7.488,0.002058423406889845
7.492,0.0020549375281656815
7.496,0.0020559953120543933
7.5,0.002052437311701454
7.5040000000000004,0.0020474368787729994
7.508,0.0020522209468151267
7.5120000000000005,0.0020552981363095605
7.516,0.002054961568708607
7.5200000000000005,0.002054192271334998
7.524,0.0020571011770289553
7.5280000000000005,0.0020598417989224353
7.532,0.002059409069149781
7.5360000000000005,0.002052894082017034
7.54,0.0020477013247451772
7.5440000000000005,0.002044960702851697
7.548,0.0020352964045957413
7.5520000000000005,0.002031353755555998
7.556,0.0020390948103779327
7.5600000000000005,0.002047677284202252
7.564,0.002048422541032935
7.5680000000000005,0.002039623702322289
7.572,0.0020369552020575847
7.5760000000000005,0.0020424364458445443
7.58,0.0020415469457563096
7.5840000000000005,0.0020436384729908075
7.588,0.002044191405478089
7.5920000000000005,0.002037532175087791
7.596,0.0020373158102014633
7.6000000000000005,0.0020423162431299183
7.604,0.0020404170402388224
7.6080000000000005,0.0020381331886609225
7.612,0.002043037459417676
7.6160000000000005,0.00204474433796537
7.62,0.002042220080958217
7.6240000000000006,0.0020466675813993907
7.628,0.0020511872034693402
7.632000000000001,0.0020556347039105143
7.636,0.002059745636750734
7.640000000000001,0.002060899582811147
7.644,0.0020574137040869837
7.648000000000001,0.0020548413659939803
7.652,0.0020546730821935037
7.656000000000001,0.0020498168925226004
7.66,0.0020479176896315045
7.664000000000001,0.002056259758026571
7.668,0.0020633997992753742
7.672000000000001,0.0020660202184542282
7.676,0.002068304070032128
7.68,0.002068760840347708
7.684,0.0020637844479621786
7.688,0.00205981775837951
7.692,0.0020561395553119447
7.696,0.0020552260146807846
7.7,0.002056067433683169
7.704,0.0020511872034693402
7.708,0.002042027756614815
7.712,0.0020346953910226097
7.716,0.002034094377449478
7.72,0.002054721163279354
7.724,0.0020872480178572355
7.728,0.0021156879801378227
7.732,0.0021485273617737324
7.736,0.0021777847025137784
7.74,0.002182544730012981
7.744,0.002183842919330945
7.748,0.0021752604455066256
7.752,0.002154489416419198
7.756,0.002130665238380262
7.76,0.0021088123848611974
7.764,0.002090180964094118
7.768,0.0020789299900050946
7.772,0.0020765980573413437
7.776,0.0020701551918373734
7.78,0.0020603947314097163
7.784,0.002062197772129111
7.788,0.0020640729344772817
7.792,0.0020616688801847554
7.796,0.0020586878528620228
7.8,0.0020610438260686985
7.804,0.0020589282582912753
7.808,0.0020539278253628203
7.812,0.002056331879655347
7.816,0.002054913487622756
7.82,0.0020523892306156034
7.824,0.0020505140682674327
7.828,0.0020508506358683865
7.832,0.002053158527989212
7.836,0.002052894082017034
7.84,0.0020517641764995465
7.844,0.0020516439737849205
7.848,0.0020528460009311836
7.852,0.00206164483964183
7.856,0.002063447880361225
7.86,0.0020532066090750626
7.864,0.0020533748928755393
7.868,0.0020574617851728343
7.872,0.0020571011770289553
7.876,0.0020515478116132193
7.88,0.0020452491893668003
7.884,0.0020442635271068644
7.888,0.0020471724328008215
7.892,0.002048686987005113
7.896,0.002047244554429597
7.9,0.0020430614999606012
7.904,0.002042027756614815
7.908,0.0020435182702761815
7.912,0.0020423162431299183
7.916,0.0020356089316537697
7.92,0.002029983444609258
7.924,0.002030945066326269
7.928,0.0020369311615146594
7.932,0.0020423402836728436
7.936,0.0020418354322714128
7.94,0.002037243688572688
7.944,0.0020343828639645812
7.948,0.00203241153944471
7.952,0.002033060634103692
7.956,0.0020361618641410507
7.96,0.0020333010395329446
7.964,0.0020329404313890655
7.968,0.0020294064715790515
7.972,0.002024381998107671
7.976,0.0020236607818199135
7.98,0.0020262090793699912
7.984,0.0020226029979312017
7.988,0.0020200787409240493
7.992,0.002033805890934375
7.996,0.002046691621942316
8.0,0.0020526777171307065
8.004,0.0020536633793906424
8.008000000000001,0.002052870041474109
8.012,0.0020549375281656815
8.016,0.0020556587444534396
8.02,0.002052076703557575
8.024000000000001,0.0020479176896315045
8.028,0.002047388797687149
8.032,0.0020485667842904867
8.036,0.0020445520136219675
8.040000000000001,0.0020435182702761815
8.044,0.002050345784466956
8.048,0.002046427175970138
8.052,0.0020369311615146594
8.056000000000001,0.0020467397030281666
8.06,0.002051163162926415
8.064,0.0020547692443652044
8.068,0.0020565722850845996
8.072000000000001,0.002059697555664884
8.076,0.002060250488152165
8.08,0.0020578223933167133
8.084,0.0020550577308803076
8.088000000000001,0.0020586878528620228
8.092,0.0020582310825464425
8.096,0.002051331446726892
8.1,0.002051042960211789
8.104000000000001,0.0020538797442769697
8.108,0.002055177933594934
8.112,0.0020537355010194183
8.116,0.0020546009605647278
8.120000000000001,0.002054913487622756
8.124,0.002052365190072678
8.128,0.002052894082017034
8.132,0.0020535672172189413
8.136000000000001,0.0020521247846434255
8.14,0.0020504419466386573
8.144,0.0020500813384947783
8.148,0.0020518603386712477
8.152000000000001,0.0020518362981283224
8.156,0.0020497207303508992
8.16,0.0020528219603882583
8.164,0.0020593850286068555
8.168000000000001,0.0020615967585559795
8.172,0.00206073129901067
8.176,0.00205525005522371
8.18,0.002052894082017034
8.184000000000001,0.0020521247846434255
8.188,0.002059336947521005
8.192,0.002061019785525773
8.196,0.002057581987887461
8.2,0.0020594811907785563
8.204,0.002059457150235631
8.208,0.002056812690513852
8.212,0.0020515478116132193
8.216,0.0020503938655528067
8.22,0.002054721163279354
8.224,0.0020583032041752184
8.228,0.002059745636750734
8.232,0.0020563559201982723
8.236,0.002059529271864407
8.24,0.0020560193525973186
8.244,0.0020540480280774468
8.248,0.0020565001634558237
8.252,0.0020565722850845996
8.256,0.0020545769200218025
8.26,0.00204976881143675
8.264,0.002049600527636273
8.268,0.002044383729821491
8.272,0.0020376283372594917
8.276,0.0020314018366418486
8.28,0.0020364263101132285
8.284,0.0020419075539001887
8.288,0.002042220080958217
8.292,0.0020352964045957413
8.296,0.0020335654855051224
8.3,0.002037003283143435
8.304,0.0020468118246569425
8.308,0.0020527498387594824
8.312,0.0020506342709820592
8.316,0.00204936012220702
8.32,0.0020520286224717244
8.324,0.0020566444067133755
8.328,0.0020616929207276807
8.332,0.002062991110045645
8.336,0.002061572718013054
8.34,0.0020584474474327702
8.344,0.002059962001637062
8.348,0.002061091907154549
8.352,0.002059721596207809
8.356,0.0020616688801847554
8.36,0.0020642652588206837
8.364,0.002061572718013054
8.368,0.002054072068620372
8.372,0.0020470041490003445
8.376,0.002049696689807974
8.38,0.0020618612045281573
8.384,0.002064553745335787
8.388,0.0020617650423564566
8.392,0.002064096975020207
8.396,0.002066549110398584
8.4,0.0020679194213453237
8.404,0.002070227313466149
8.408,0.002066549110398584
8.412,0.0020541201497062222
8.416,0.002035344485681592
8.42,0.0020328442692173643
8.424,0.002044239486563939
8.428,0.0020644816237070113
8.432,0.0020900607613794915
8.436,0.0021220346834700922
8.44,0.002164249876846855
8.444,0.0021892520414891294
8.448,0.0021924013526123387
8.452,0.0021891077982315777
8.456,0.0021801406757204545
8.46,0.00216239875504161
8.464,0.0021386707391743746
8.468,0.0021184766831171533
8.472,0.002094652505078217
8.476,0.002073040056988405
8.48,0.0020626545424446913
8.484,0.002062534339730065
8.488,0.002065130718365993
8.492,0.0020692416512062134
8.496,0.0020697224620647185
8.5,0.002067654975373146
8.504,0.002063616164161702
8.508000000000001,0.002066380826598107
8.512,0.002059048461005902
8.516,0.0020560914742260945
8.52,0.0020571011770289553
8.524000000000001,0.0020572935013723577
8.528,0.0020583753258039943
8.532,0.002049864973608451
8.536,0.002054168230792073
8.540000000000001,0.002065635569767424
8.544,0.0020612601909550258
8.548,0.0020596494745790334
8.552,0.002060875542268222
8.556000000000001,0.002057581987887461
8.56,0.002058255123089368
8.564,0.00205753390680161
8.568,0.0020555625822817384
8.572000000000001,0.0020545769200218025
8.576,0.002054625001107653
8.58,0.002054961568708607
8.584,0.0020526536765877812
8.588000000000001,0.0020508506358683865
8.592,0.002053615298304792
8.596,0.002054697122736429
8.6,0.0020514756899844434
8.604000000000001,0.0020529662036458097
8.608,0.0020500092168660024
8.612,0.0020449126217658466
8.616,0.002043854837877135
8.620000000000001,0.002045585756967754
8.624,0.002041306540327057
8.628,0.0020310171879550443
8.632,0.0020283967687761903
8.636000000000001,0.002029214147235649
8.64,0.002031978809672055
8.644,0.002034022255820702
8.648,0.0020360176208834993
8.652000000000001,0.002040753607839776
8.656,0.0020390226887491572
8.66,0.0020336856882197485
8.664,0.0020339260936490015
8.668000000000001,0.0020323634583588593
8.672,0.0020395756212364382
8.676,0.0020449847433946225
8.68,0.002045297270452651
8.684000000000001,0.00204109017544073
8.688,0.0020374840940019403
8.692,0.002042556648559171
8.696,0.0020471483922578962
8.700000000000001,0.002046042527283334
8.704,0.00204844658157586
8.708,0.002051403568355668
8.712,0.0020531344874462868
8.716,0.002054528838935952
8.72,0.002050970838583013
8.724,0.002051716095413696
8.728,0.002056043393140244
8.732,0.0020565482445416743
8.736,0.002052365190072678
8.74,0.002049792851979675
8.744,0.002047893649088579
8.748,0.00205027366283818
8.752,0.002054889447079831
8.756,0.0020557308660822155
8.76,0.0020587359339478734
8.764,0.0020578464338596386
8.768,0.0020535672172189413
8.772,0.002049913054694301
8.776,0.0020550577308803076
8.78,0.002061620799098905
8.784,0.002060538974667268
8.788,0.0020581830014605924
8.792,0.0020540480280774468
8.796,0.0020558510687968415
8.8,0.002059745636750734
8.804,0.002060995744982848
8.808,0.002056524203998749
8.812,0.0020516680143278457
8.816,0.0020489754735202163
8.82,0.002044479891993192
8.824,0.002050490027724508
8.828,0.0020545047983930266
8.832,0.00205433651459255
8.836,0.0020590244204629765
8.84,0.0020571252175718806
8.844,0.0020527738793024077
8.848,0.0020524132711585287
8.852,0.0020521247846434255
8.856,0.0020550096497944574
8.86,0.002056716528342151
8.864,0.002058543609604471
8.868,0.002059336947521005
8.872,0.0020585195690615457
8.876,0.0020577743122308628
8.88,0.0020599139205512112
8.884,0.0020620294883286344
8.888,0.0020595052313214816
8.892,0.002058086839288891
8.896,0.0020567646094280015
8.9,0.0020550577308803076
8.904,0.0020494803249216467
8.908,0.0020503698250098814
8.912,0.002052990244188735
8.916,0.002052437311701454
8.92,0.0020511872034693402
8.924,0.002050153460123554
8.928,0.00204936012220702
8.932,0.002051884379214173
8.936,0.0020525575144160805
8.94,0.002053999946991596
8.944,0.0020560193525973186
8.948,0.0020557308660822155
8.952,0.002052076703557575
8.956,0.002052629636044856
8.96,0.0020580147176601153
8.964,0.0020599139205512112
8.968,0.0020540480280774468
8.972,0.0020463790948842876
8.976,0.002045128986652174
8.98,0.002055442379567112
8.984,0.0020589282582912753
8.988,0.0020565001634558237
8.992,0.0020504419466386573
8.996,0.002046282932712587
9.0,0.0020476292031164013
9.004,0.002045297270452651
9.008000000000001,0.0020433019053898538
9.012,0.0020422441215011424
9.016,0.002039743905036915
9.02,0.0020393832968930363
9.024000000000001,0.0020416911890138614
9.028,0.002046835865199868
9.032,0.002056067433683169
9.036,0.002059986042179987
9.040000000000001,0.0020634959614470754
9.044,0.002061452515298428
9.048,0.002056884812142628
9.052,0.002060250488152165
9.056000000000001,0.00206484223185089
9.06,0.0020641210155631323
9.064,0.0020616688801847554
9.068,0.002061572718013054
9.072000000000001,0.0020631353533031964
9.076,0.0020633036371036735
9.08,0.002062630501901766
9.084,0.0020642171777348335
9.088000000000001,0.0020630632316744205
9.092,0.0020583272447181437
9.096,0.0020574137040869837
9.1,0.0020613323125838016
9.104000000000001,0.0020621496910432605
9.108,0.0020604908935814175
9.112,0.002061452515298428
9.116,0.002057918555488414
9.120000000000001,0.0020549375281656815
9.124,0.002051451649441518
9.128,0.002045585756967754
9.132,0.0020354166073103678
9.136000000000001,0.0020395996617793635
9.14,0.0020626545424446913
9.144,0.002087296098943086
9.148,0.002118717088546406
9.152000000000001,0.0021632642145869192
9.156,0.0021947813663619397
9.16,0.002195887231336502
9.164,0.002191511852524104
9.168000000000001,0.002179347337803921
9.172,0.002157302159941454
9.176,0.0021310979681529165
9.18,0.0021149667638500646
9.184000000000001,0.002098571113575035
9.188,0.0020789780710909448
9.192,0.0020727515704733017
9.196,0.0020731121786171807
9.200000000000001,0.0020675107321155945
9.204,0.002061428474755503
9.208,0.0020605870557531187
9.212,0.0020602745286950903
9.216000000000001,0.002059625434036108
9.22,0.0020618612045281573
9.224,0.00206662123202736
9.228,0.0020652268805376943
9.232,0.002062894947873944
9.236,0.0020585195690615457
9.24,0.0020509948791259383
9.244,0.002047893649088579
9.248,0.0020541201497062222
9.252,0.0020590244204629765
9.256,0.0020617650423564566
9.26,0.0020621016099574103
9.264,0.002054961568708607
9.268,0.002049432243835796
9.272,0.0020500092168660024
9.276,0.0020490235546060664
9.28,0.002046956067914494
9.284,0.0020520045819287995
9.288,0.0020557308660822155
9.292,0.002061019785525773
9.296,0.002059192704263453
9.3,0.0020533268117896887
9.304,0.0020521969062722014
9.308,0.002050129419580629
9.312,0.002046403135427213
9.316,0.0020453453515385015
9.32,0.0020436384729908075
9.324,0.002042147959329441
9.328,0.0020420517971577404
9.332,0.0020375802561736415
9.336,0.0020332289179041687
9.34,0.002036810958800033
9.344,0.0020359695397976487
9.348,0.002036642674999556
9.352,0.0020311854717555214
9.356,0.0020206316734113303
9.36,0.002021593295128341
9.364,0.0020270745389153006
9.368,0.0020310412284979696
9.372,0.002038926526577456
9.376,0.002044311608192715
9.38,0.002045393432624352
9.384,0.002042700891816722
9.388,0.0020410661348978045
9.392,0.002039840067208616
9.396,0.002036185904683976
9.4,0.002036810958800033
9.404,0.002039070769835008
9.408,0.0020418354322714128
9.412,0.0020435423108191068
9.416,0.0020440952433063877
9.42,0.0020456097975106793
9.424,0.0020469320273715686
9.428,0.002047124351714971
9.432,0.0020480619328890563
9.436,0.002048230216689533
9.44,0.00204844658157586
9.444,0.0020519324603000236
9.448,0.0020515718521561446
9.452,0.002051259325098116
9.456,0.002053639338847717
9.46,0.0020567646094280015
9.464,0.0020583032041752184
9.468,0.002051980541385874
9.472,0.0020528219603882583
9.476,0.002051163162926415
9.48,0.0020465233381418394
9.484,0.0020494082032928708
9.488,0.0020530383252745856
9.492,0.0020538557037340444
9.496,0.002055899149882692
9.5,0.002056404001284123
9.504,0.002054889447079831
9.508000000000001,0.0020523171089868275
9.512,0.0020513554872698173
9.516,0.002052701757673632
9.52,0.0020550577308803076
9.524000000000001,0.0020515718521561446
9.528,0.002049504365464572
9.532,0.002048254257232458
9.536,0.0020492880005782447
9.540000000000001,0.0020505621493532833
9.544,0.0020553221768524854
9.548,0.002059601393493183
9.552,0.002053447014504315
9.556000000000001,0.0020493841627499455
9.56,0.002050490027724508
9.564,0.0020510910412976395
9.568,0.002056812690513852
9.572000000000001,0.00206529900216647
9.576,0.0020678953808023984
9.58,0.0020642652588206837
9.584,0.0020591205826346773
9.588000000000001,0.0020563799607411976
9.592,0.0020546490416505784
9.596,0.002055442379567112
9.6,0.0020521247846434255
9.604000000000001,0.002051956500842949
9.608,0.002048590824833412
9.612,0.0020489995140631416
9.616,0.002052437311701454
9.620000000000001,0.0020552740957666352
9.624,0.002053783582105269
9.628,0.002056043393140244
9.632,0.0020558510687968415
9.636000000000001,0.0020533748928755393
9.64,0.0020494803249216467
9.644,0.0020450087839375478
9.648,0.0020470281895432698
9.652000000000001,0.002059529271864407
9.656,0.0020668616374566124
9.66,0.00206575577248205
9.664,0.002056812690513852
9.668000000000001,0.0020471724328008215
9.672,0.002049432243835796
9.676,0.002054408636221326
9.68,0.0020537355010194183
9.684000000000001,0.002051740135956621
9.688,0.00204844658157586
9.692,0.002046859905742793
9.696,0.0020463550543413623
9.700000000000001,0.0020465473786847647
9.704,0.002050538108810358
9.708,0.0020505861898962086
9.712,0.0020494082032928708
9.716000000000001,0.002048254257232458
9.72,0.0020523171089868275
9.724,0.002056067433683169
9.728,0.0020566684472563008
9.732,0.0020546009605647278
9.736,0.0020495284060074973
9.74,0.0020477974869168784
9.744,0.002048783149176814
9.748,0.00205159589269907
9.752,0.0020569328932284786
9.756,0.002062702623530542
9.76,0.002059745636750734
9.764,0.002053495095590166
9.768,0.0020557549066251408
9.772,0.0020612601909550258
9.776,0.0020693618539208395
9.78,0.0020733045029605827
9.784,0.0020739295570766396
9.788,0.002069121448491587
9.792,0.0020608515017252966
9.796,0.0020611880693262503
9.8,0.0020647701102221145
9.804,0.002064914353479666
9.808,0.002068784880890633
9.812,0.002070684083781729
9.816,0.002068784880890633
9.82,0.0020592167448063785
9.824,0.00204844658157586
9.828,0.0020437346351625087
9.832,0.0020519324603000236
9.836,0.002074410367935145
9.84,0.002097801816201426
9.844,0.002122202967270569
9.848,0.002161340971152898
9.852,0.002184299689646525
9.856,0.0021852613113635356
9.86,0.002181222500152091
9.864,0.002176943283511394
9.868,0.0021596581331481297
9.872,0.0021386707391743746
9.876,0.0021205682103516512
9.88,0.002096407464711761
9.884,0.0020834015309891935
9.888,0.0020816465713556494
9.892,0.0020744824895639205
9.896,0.0020701792323802987
9.9,0.002069482056635466
9.904,0.0020677030564589965
9.908,0.002064649907507488
9.912,0.002064457583164086
9.916,0.0020655153670527974
9.92,0.002063111312760271
9.924,0.0020638806101338798
9.928,0.002065635569767424
9.932,0.0020651547589089184
9.936,0.0020634959614470754
9.94,0.0020599379610941365
9.944,0.002057918555488414
9.948,0.00205753390680161
9.952,0.0020560914742260945
9.956,0.0020546490416505784
9.96,0.0020479417301744298
9.964,0.0020469079868286433
9.968,0.0020489754735202163
9.972,0.0020539518659057456
9.976,0.002056692487799226
9.98,0.0020520526630146496
9.984,0.002050970838583013
9.988,0.002058158960917667
9.992,0.002064577785878712
9.996,0.002059336947521005
10.0,0.002048951432977291
10.004,0.00204976881143675
10.008000000000001,0.002053615298304792
10.012,0.002053975906448671
10.016,0.0020546009605647278
10.02,0.002055971271511468
10.024000000000001,0.0020548654065369056
10.028,0.0020511150818405643
10.032,0.0020521969062722014
10.036,0.0020504419466386573
10.040000000000001,0.002045513635338978
10.044,0.0020428691756171993
10.048,0.002042388364758694
10.052,0.0020393832968930363
10.056000000000001,0.002038181269746773
10.06,0.002038662080605278
10.064,0.002040272796981271
10.068,0.002039359256350111
10.072000000000001,0.0020333972017046453
10.076,0.00203108930958382
10.08,0.0020393111752642604
10.084,0.0020442635271068644
10.088000000000001,0.002038181269746773
10.092,0.0020390948103779327
10.096,0.002039743905036915
10.1,0.0020417873511855626
10.104000000000001,0.0020448405001370707
10.108,0.002055105811966158
10.112,0.0020621016099574103
10.116,0.0020644335426211607
10.120000000000001,0.0020586638123190975
10.124,0.002056043393140244
10.128,0.002051451649441518
10.132,0.00205616359585487
10.136000000000001,0.0020579425960313394
10.14,0.0020608515017252966
10.144,0.0020629430289597944
10.148,0.002060370690866791
10.152000000000001,0.0020603466503238657
10.156,0.002061813123442307
10.16,0.0020604668530384922
10.164,0.002060250488152165
10.168000000000001,0.0020574617851728343
10.172,0.00204291725670305
10.176,0.0020379889454033707
10.18,0.0020448405001370707
10.184000000000001,0.002048879311348515
10.188,0.0020542163118779234
10.192,0.0020588561366624994
10.196,0.00206073129901067
10.200000000000001,0.0020679194213453237
10.204,0.0020733766245893586
10.208,0.0020694339755496153
10.212,0.0020675107321155945
10.216000000000001,0.0020667895158278365
10.22,0.002066188502254705
10.224,0.002063279596560748
10.228,0.0020595052313214816
10.232000000000001,0.002058976339377126
10.236,0.0020576541095162363
10.24,0.002058255123089368
10.244,0.0020574858257157596
10.248,0.0020609717044399226
10.252,0.002060370690866791
10.256,0.0020615005963842787
10.26,0.0020593850286068555
10.264,0.0020563078391124217
10.268,0.0020542163118779234
10.272,0.002055875109339767
10.276,0.002057606028430386
10.28,0.002062894947873944
10.284,0.002066116380625929
10.288,0.002065996177911303
10.292,0.002065130718365993
10.296,0.002066116380625929
10.3,0.0020696262998930173
10.304,0.0020699388269510457
10.308,0.002070756205410505
10.312,0.002070131151294448
10.316,0.0020695060971783912
10.32,0.002068111745688726
10.324,0.0020689050836052597
10.328,0.00207215055690017
10.332,0.002066909718542463
10.336,0.0020651066778230682
10.34,0.0020597696772936594
10.344,0.002058615731233247
10.348,0.002058615731233247
10.352,0.0020557308660822155
10.356,0.0020529421631028844
10.36,0.0020518362981283224
10.364,0.002050610230439134
10.368,0.0020502977033811055
10.372,0.002053495095590166
10.376,0.002054528838935952
10.38,0.0020512112440122655
10.384,0.0020489995140631416
10.388,0.002046403135427213
10.392,0.0020509467980400877
10.396,0.0020567405688850762
10.4,0.0020554183390241866
10.404,0.0020512112440122655
10.408,0.0020519084197570983
10.412,0.0020520526630146496
10.416,0.0020572213797435818
10.42,0.0020668856779995377
10.424,0.002072318840700647
10.428,0.0020693858944637647
10.432,0.0020669818401712384
10.436,0.0020692416512062134
10.44,0.0020674386104868187
10.444,0.002066380826598107
10.448,0.002068640637633082
10.452,0.002070203272923224
10.456,0.0020637604074192533
10.46,0.002063904650676805
10.464,0.002067029921257089
10.468,0.0020690252863198857
10.472,0.0020707081243246544
10.476,0.002070491759438327
10.48,0.0020696262998930173
10.484,0.0020682559889462775
10.488,0.0020667895158278365
10.492,0.0020621496910432605
10.496,0.0020638806101338798
10.5,0.002065467285966947
10.504,0.002062462218101289
10.508000000000001,0.0020548413659939803
10.512,0.002050970838583013
10.516,0.002058976339377126
10.52,0.002088570247718125
10.524000000000001,0.002119822953520968
10.528,0.0021511718214955117
10.532,0.0021835784733587674
10.536,0.002197618150427121
10.540000000000001,0.002195526623192623
10.544,0.002194805406904865
10.548,0.002178145310657657
10.552,0.0021420364151839115
10.556000000000001,0.002126121575767387
10.56,0.002116914047827011
10.564,0.002099628897463746
10.568,0.0020869114502562822
10.572000000000001,0.0020720303541855436
10.576,0.002056524203998749
10.58,0.002059721596207809
10.584,0.002068304070032128
10.588000000000001,0.002074049759791266
10.592,0.002078377057517813
10.596,0.002075420070738006
10.6,0.0020723669217864974
10.604000000000001,0.0020700109485798216
10.608,0.002065491326509872
10.612,0.002062197772129111
10.616,0.0020600581638087626
10.620000000000001,0.002064649907507488
10.624,0.0020624141370154388
10.628,0.0020611159476974744
10.632,0.0020616688801847554
10.636000000000001,0.0020651066778230682
10.64,0.002062822826245168
10.644,0.0020588561366624994
10.648,0.0020566444067133755
10.652000000000001,0.0020577743122308628
10.656,0.0020562837985694964
10.66,0.002052605595501931
10.664,0.002051812257585397
10.668000000000001,0.0020503938655528067
10.672,0.0020414267430416836
10.676,0.002046042527283334
10.68,0.0020582070420035177
10.684000000000001,0.0020685444754613806
10.688,0.00207123701626901
10.692,0.0020654432454240215
10.696,0.00205981775837951
10.700000000000001,0.0020536874199335677
10.704,0.0020542403524208487
10.708,0.002052605595501931
10.712,0.0020531344874462868
10.716000000000001,0.00205433651459255
10.72,0.002048302338318309
10.724,0.0020452732299097256
10.728,0.0020420758377006657
10.732000000000001,0.0020439750405917612
10.736,0.002046138689455035
10.74,0.002045513635338978
10.744,0.00204383079733421
10.748000000000001,0.002040945932183178
10.752,0.0020367869182571076
10.756,0.0020292381877785744
10.76,0.002027314944344553
10.764,0.0020305363770965388
10.768,0.00203332508007587
10.772,0.002030464255467763
10.776,0.002037748539974118
10.78,0.0020506342709820592
10.784,0.0020506342709820592
10.788,0.0020549375281656815
10.792,0.00206073129901067
10.796,0.0020608515017252966
10.8,0.002060875542268222
10.804,0.0020591205826346773
10.808,0.002061284231497951
10.812,0.002060538974667268
10.816,0.0020583753258039943
10.82,0.0020612601909550258
10.824,0.0020616929207276807
10.828,0.0020644335426211607
10.832,0.0020627266640734668
10.836,0.002059553312407332
10.84,0.002058784015033724
10.844,0.0020578945149454892
10.848,0.0020591446231776026
10.852,0.0020568367310567774
10.856,0.0020533268117896887
10.86,0.0020496726492650486
10.864,0.002047749405831028
10.868,0.002056067433683169
10.872,0.002061572718013054
10.876,0.0020655874886815733
10.88,0.002070467718895402
10.884,0.002073785313819088
10.888,0.0020752758274804545
10.892,0.0020750354220512015
10.896,0.002071140854097309
10.9,0.0020627747451593174
10.904,0.0020621737315861858
10.908,0.0020669818401712384
10.912,0.002068111745688726
10.916,0.0020676309348302206
10.92,0.002065996177911303
10.924,0.0020632315154748976
10.928,0.002062269893757887
10.932,0.0020655394075957227
10.936,0.0020690733674057363
10.94,0.0020694339755496153
10.944,0.0020698667053222703
10.948,0.0020676068942872953
10.952,0.0020645056642499366
10.956,0.0020658038535679006
10.96,0.002058134920374742
10.964,0.002053254690160913
10.968,0.002061837163985232
10.972,0.002071020651382683
10.976,0.002073689151647387
10.98,0.002069674380978868
10.984,0.002069554178264242
10.988,0.002072775611016227
10.992,0.002076886543856447
10.996,0.0020777279628588314
11.0,0.0020789540305480195
11.004,0.0020760932059399133
11.008000000000001,0.0020723909623294227
11.012,0.0020707081243246544
11.016,0.0020702994350949248
11.02,0.0020657798130249753
11.024000000000001,0.0020629670695027197
11.028,0.0020607793800965207
11.032,0.002058255123089368
11.036,0.0020569809743143292
11.040000000000001,0.002057606028430386
11.044,0.0020538076226481942
11.048,0.0020524613522443793
11.052,0.002057726231145012
11.056000000000001,0.0020567646094280015
11.06,0.00205342297396139
11.064,0.0020560193525973186
11.068,0.0020641450561060576
11.072000000000001,0.002062269893757887
11.076,0.0020605870557531187
11.08,0.002062630501901766
11.084,0.0020707081243246544
11.088000000000001,0.002077439476343728
11.092,0.002077319273629102
11.096,0.002074506530106846
11.1,0.0020693858944637647
11.104000000000001,0.002063736366876328
11.108,0.002063183434389047
11.112,0.002066741434741986
11.116,0.0020799396928079554
11.120000000000001,0.0020875845854581893
11.124,0.002089099139662481
11.128,0.0020857334636529444
11.132,0.002088978936947855
11.136000000000001,0.00208763266654404
11.14,0.002082896679587763
11.144,0.0020805407063810874
11.148,0.002076766341141821
11.152000000000001,0.002076694219513045
11.156,0.002076886543856447
11.16,0.002078737665661692
11.164,0.0020786895845758416
11.168000000000001,0.0020786895845758416
11.172,0.00207443440847807
11.176,0.002068760840347708
11.18,0.0020648662723938152
11.184000000000001,0.0020602985692380156
11.188,0.0020587359339478734
11.192,0.0020663567860551815
11.196,0.0020913349101545305
11.200000000000001,0.0021220346834700922
11.204,0.0021585522681735678
11.208,0.002198459569429505
11.212,0.002209181651574173
11.216000000000001,0.0022026907049843515
11.22,0.0021999741236337967
11.224,0.0021907906362363463
11.228,0.0021669183771115593
11.232000000000001,0.002148647564488359
11.236,0.002127876535400931
11.24,0.002107393992828607
11.244,0.0020932581535885513
11.248000000000001,0.002087079734056759
11.252,0.002081766774070276
11.256,0.002081406165926397
11.26,0.00207991565226503
11.264,0.00207621340865454
11.268,0.002074795016621949
11.272,0.0020740257192483407
11.276,0.0020753960301950806
11.28,0.0020747709760790237
11.284,0.002069962867493971
11.288,0.0020642412182777584
11.292,0.0020647941507650398
11.296,0.002068568516004306
11.3,0.0020720303541855436
11.304,0.002067102042885865
11.308,0.002064577785878712
11.312,0.0020670539618000143
11.316,0.0020641450561060576
11.32,0.0020649864751084417
11.324,0.0020661404211688543
11.328,0.002069001245776961
11.332,0.0020712850973548607
11.336,0.0020773673547149524
11.34,0.0020768144222276714
11.344,0.002073328543503508
11.348,0.0020696262998930173
11.352,0.0020648903129367405
11.356,0.0020627747451593174
11.36,0.0020622939343008123
11.364,0.0020566444067133755
11.368,0.002052148825186351
11.372,0.002058255123089368
11.376,0.002062342015386663
11.38,0.0020655874886815733
11.384,0.0020614044342125775
11.388,0.0020561155147690194
11.392,0.0020516439737849205
11.396,0.0020552019741378593
11.4,0.0020580147176601153
11.404,0.0020585676501473963
11.408,0.0020552019741378593
11.412,0.002047605162573476
11.416,0.002046787784114017
11.42,0.0020481821356036823
11.424,0.0020503698250098814
11.428,0.002052870041474109
11.432,0.002052725798216557
11.436,0.0020478215274598033
11.44,0.0020507304331537604
11.444,0.002051235284555191
11.448,0.0020485427437475614
11.452,0.002050538108810358
11.456,0.0020462348516267362
11.46,0.00204661950031354
11.464,0.002059336947521005
11.468,0.0020705157999812525
11.472,0.0020748430977077996
11.476,0.0020732323813318068
11.48,0.002071669746041665
11.484,0.002071789948756291
11.488,0.0020774875574295784
11.492,0.0020729919759025542
11.496,0.0020687127592618577
11.5,0.002072318840700647
11.504,0.0020778481655734575
11.508000000000001,0.0020771269492857
11.512,0.00207580471942481
11.516,0.002075973003225287
11.52,0.0020716937865845903
11.524000000000001,0.002070611962152953
11.528,0.0020734727867610598
11.532,0.002073592989475686
11.536,0.0020724630839581985
11.540000000000001,0.0020725352055869744
11.544,0.0020714774216982626
11.548,0.0020694339755496153
11.552,0.0020700830702085975
11.556000000000001,0.002071140854097309
11.56,0.002075516232909707
11.564,0.0020764538140837924
11.568,0.002073881475990789
11.572000000000001,0.0020742901652205186
11.576,0.002072126516357245
11.58,0.00207397763816249
11.584,0.002074867138250725
11.588000000000001,0.0020723669217864974
11.592,0.0020732804624176574
11.596,0.0020706360026958785
11.6,0.002065996177911303
11.604000000000001,0.002064169096648983
11.608,0.002067029921257089
11.612,0.0020732804624176574
11.616,0.0020805647469240127
11.620000000000001,0.0020791223143484965
11.624,0.00207443440847807
11.628,0.002074867138250725
11.632,0.002077319273629102
11.636000000000001,0.0020761893681116145
11.64,0.002077800084487607
11.644,0.0020754681518238565
11.648,0.002074121881420042
11.652000000000001,0.0020721024758143195
11.656,0.002070587921610028
11.66,0.0020696022593500924
11.664,0.002071789948756291
11.668000000000001,0.0020693137728349893
11.672,0.002067823259173623
11.676,0.002069193570120363
11.68,0.002070684083781729
11.684000000000001,0.0020682559889462775
11.688,0.0020664529482268827
11.692,0.00207443440847807
11.696,0.002077968368288084
11.700000000000001,0.002068207907860427
11.704,0.0020633517181895236
11.708,0.0020675588132014447
11.712,0.0020718380298421417
11.716000000000001,0.002076357651912091
11.72,0.0020716457054987397
11.724,0.0020666933536561353
11.728,0.002066188502254705
11.732000000000001,0.00206347192090415
11.736,0.002065082637280143
11.74,0.002069049326862811
11.744,0.002072078435271394
11.748000000000001,0.002077319273629102
11.752,0.00207717503037155
11.756,0.002074530570649771
11.76,0.002074674813907323
11.764000000000001,0.0020757566383389596
11.768,0.0020788578683763187
11.772,0.0020780645304597847
11.776,0.00207991565226503
11.78,0.002078809787290468
11.784,0.002080973436153742
11.788,0.0020776558412300555
11.792,0.002081069598325443
11.796,0.002085444977137841
11.8,0.00208260819307266
11.804,0.0020799396928079554
11.808,0.0020757566383389596
11.812,0.0020753960301950806
11.816,0.002079338679234824
11.82,0.002081406165926397
11.824,0.0020845795175925314
11.828,0.0020842189094486528
11.832,0.002086887409713357
11.836,0.002088906815319079
11.84,0.0020957343295098536
11.844,0.0020962872619971346
11.848,0.0020923205724144665
11.852,0.0020878249908874423
11.856,0.0020875845854581893
11.86,0.002083641936418446
11.864,0.002075420070738006
11.868,0.002065827894110826
11.872,0.00206347192090415
11.876,0.0020684723538326047
11.88,0.00209585453222448
11.884,0.002124607021563095
11.888,0.002157302159941454
11.892,0.002198267245086103
11.896,0.0022117059085813256
11.9,0.0022093499353746495
11.904,0.0022148071386186843
11.908,0.002202185853582921
11.912,0.0021735295264160067
11.916,0.0021539845650177672
11.92,0.002130208468064682
11.924,0.0021051822628794827
11.928,0.0020953256402801244
11.932,0.0020924167345861672
11.936,0.0020920801669852135
11.94,0.0020910704641823527
11.944,0.0020885462071752
11.948,0.002083377490446268
11.952,0.002085420936594916
11.956,0.0020905175316950717
11.96,0.002086190233968524
11.964,0.0020814542470122474
11.968,0.002083786179675998
11.972,0.0020798194900933293
11.976,0.0020750354220512015
11.98,0.0020745786517356217
11.984,0.002073328543503508
11.988,0.0020731602597030313
11.992,0.0020719822730996935
11.996,0.002068929124148185
12.0,0.0020715495433270385
12.004,0.0020799637333508807
12.008000000000001,0.002079362719777749
12.012,0.0020796512062928522
12.016,0.0020806609090957134
12.02,0.0020789299900050946
12.024000000000001,0.002071140854097309
12.028,0.0020703475161807754
12.032,0.0020754681518238565
12.036,0.0020813100037546956
12.040000000000001,0.0020821995038429303
12.044,0.0020802762604089095
12.048,0.0020740257192483407
12.052,0.002071140854097309
12.056000000000001,0.0020734727867610598
12.06,0.0020759008815965114
12.064,0.002072126516357245
12.068,0.0020672222456004914
12.072000000000001,0.002063111312760271
12.076,0.00206575577248205
12.08,0.0020691695295774375
12.084,0.0020649864751084417
12.088000000000001,0.0020570290554001794
12.092,0.002050970838583013
12.096,0.002047677284202252
12.1,0.0020512112440122655
12.104000000000001,0.002062462218101289
12.108,0.0020700830702085975
12.112,0.0020694339755496153
12.116,0.0020685925565472312
12.120000000000001,0.0020677030564589965
12.124,0.002062894947873944
12.128,0.0020644335426211607
12.132,0.0020652268805376943
12.136000000000001,0.002061019785525773
12.14,0.0020630632316744205
12.144,0.0020688810430623344
12.148,0.002070876408125131
12.152000000000001,0.0020693618539208395
12.156,0.0020706360026958785
12.16,0.002069337813377914
12.164,0.002072967935359629
12.168000000000001,0.002077415435800803
12.172,0.0020724630839581985
12.176,0.0020727996515591523
12.18,0.0020750113815082767
12.184000000000001,0.0020737131921903123
12.188,0.0020719822730996935
12.192,0.0020684002322038293
12.196,0.0020687367998047826
12.200000000000001,0.0020693858944637647
12.204,0.002070756205410505
12.208,0.0020730881380742554
12.212,0.002078256854803187
12.216000000000001,0.0020820793011283043
12.22,0.002086382558311926
12.224,0.002086190233968524
12.228,0.002079555044121151
12.232000000000001,0.0020838583013047737
12.236,0.002089267423462958
12.24,0.0020857334636529444
12.244,0.0020832092066457916
12.248000000000001,0.0020808051523532652
12.252,0.0020744824895639205
12.256,0.0020751315842229027
12.26,0.002079266557606048
12.264000000000001,0.0020763816924550165
12.268,0.0020781366520885606
12.272,0.002073208340788882
12.276,0.002071164894640234
12.280000000000001,0.0020768625033135216
12.284,0.0020826562741585106
12.288,0.0020813821253834715
12.292,0.002078160692631486
12.296,0.0020723909623294227
12.3,0.002071789948756291
12.304,0.0020727515704733017
12.308,0.002071789948756291
12.312,0.002069001245776961
12.316,0.002073592989475686
12.32,0.0020834976931608947
12.324,0.002082896679587763
12.328,0.0020777760439446816
12.332,0.0020790982738055712
12.336,0.002081406165926397
12.34,0.0020857575041958692
12.344,0.0020898684370360895
12.348,0.0020887385315186023
12.352,0.002089099139662481
12.356,0.0020876807476298905
12.36,0.002083786179675998
12.364,0.0020842910310774282
12.368,0.0020809253550678917
12.372,0.0020844112337920547
12.376,0.0020839785040194
12.38,0.0020836900175042966
12.384,0.002080300300951835
12.388,0.0020801320171513578
12.392,0.0020827764768731366
12.396,0.00208671912591288
12.4,0.0020871518556855348
12.404,0.0020810936388683684
12.408,0.0020727996515591523
12.412,0.0020732323813318068
12.416,0.0020749873409653514
12.42,0.002079266557606048
12.424,0.002078737665661692
12.428,0.0020752758274804545
12.432,0.0020724630839581985
12.436,0.0020693858944637647
12.44,0.002073256421874732
12.444,0.0020689050836052597
12.448,0.0020692416512062134
12.452,0.0020740738003341913
12.456,0.0020805407063810874
12.46,0.0020793146386918985
12.464,0.0020779443277451587
12.468,0.002080420503666461
12.472,0.0020807570712674146
12.476,0.0020797714090074787
12.48,0.002081141719954219
12.484,0.0020840265851052504
12.488,0.0020825120309009588
12.492,0.002084266990534503
12.496,0.002083377490446268
12.5,0.0020807330307244893
12.504,0.0020802041387801336
12.508000000000001,0.002083617895875521
12.512,0.0020855651798524673
12.516,0.0020897722748643884
12.52,0.0020917916804701103
12.524000000000001,0.0020926571400154198
12.528,0.0020913108696116053
12.532,0.002090036720836566
12.536,0.0020884500450034987
12.540000000000001,0.00208534881496614
12.544,0.002081406165926397
12.548,0.002074049759791266
12.552,0.002079338679234824
12.556000000000001,0.0020884019639176485
12.56,0.002090998342553577
12.564,0.0020879451936020683
12.568,0.002081261922668845
12.572000000000001,0.0020771269492857
12.576,0.0020731602597030313
12.58,0.002081886976784902
12.584,0.0021118895743556312
12.588000000000001,0.0021443443073047366
12.592,0.002181727351553522
12.596,0.0022169227063961075
12.6,0.0022224039501830676
12.604000000000001,0.002219062314716456
12.608,0.002208628719086892
12.612,0.0021870162709970798
12.616,0.0021667020122252316
12.620000000000001,0.0021484792806878822
12.624,0.002125857129795209
12.628,0.0021043648844200234
12.632,0.00209357068064658
12.636000000000001,0.002091022383096502
12.64,0.0020865027610265526
12.644,0.0020843150716203535
12.648,0.0020817427335273505
12.652000000000001,0.002079362719777749
12.656,0.002081334044297621
12.66,0.002089555909978061
12.664,0.002086743166455805
12.668000000000001,0.002082175463300005
12.672,0.00208260819307266
12.676,0.0020803724225806103
12.68,0.0020805407063810874
12.684000000000001,0.002083353449903343
12.688,0.0020873441800289367
12.692,0.0020905175316950717
12.696,0.0020906377344096978
12.700000000000001,0.002085132450079813
12.704,0.0020794108008635997
12.708,0.002078521300775365
12.712,0.0020795790846640763
12.716000000000001,0.002080228179323059
12.72,0.0020808051523532652
12.724,0.0020759008815965114
12.728,0.002075155624765828
12.732000000000001,0.0020771990709144753
12.736,0.0020769586654852228
12.74,0.002072679448844526
12.744,0.0020727275299303764
12.748000000000001,0.0020736410705615364
12.752,0.002068424272746754
12.756,0.002063375758732449
12.76,0.0020653470832523208
12.764000000000001,0.0020663087049693314
12.768,0.0020673424483151175
12.772,0.0020663567860551815
12.776,0.002062894947873944
12.780000000000001,0.002061837163985232
12.784,0.002063664245247552
12.788,0.002066116380625929
12.792,0.0020651787994518437
12.796000000000001,0.0020592888664351544
12.8,0.002054625001107653
12.804,0.002059264825892229
12.808,0.002063375758732449
12.812,0.002063664245247552
12.816,0.0020638565695909545
12.82,0.002061572718013054
12.824,0.002061981407242784
12.828,0.002062077569414485
12.832,0.002060875542268222
12.836,0.0020584474474327702
12.84,0.0020592167448063785
12.844,0.0020644095020782354
12.848,0.002067318407772192
12.852,0.002070587921610028
12.856,0.0020709244892109816
12.86,0.0020717659082133658
12.864,0.002074963300422426
12.868,0.002073328543503508
12.872,0.002074145921962967
12.876,0.0020761172464828386
12.88,0.002073400665132284
12.884,0.002076357651912091
12.888,0.0020792184765201977
12.892,0.002072847732645003
12.896,0.002065827894110826
12.9,0.002066044258997153
12.904,0.0020794829224923756
12.908,0.002088642369346901
12.912,0.002087800950344517
12.916,0.002080853233439116
12.92,0.0020733525840464333
12.924,0.0020749152193365755
12.928,0.002081550409183948
12.932,0.00208260819307266
12.936,0.0020872239773143107
12.94,0.00208945974780636
12.944,0.0020873922611147873
12.948,0.002083593855332596
12.952,0.0020830649633882398
12.956,0.002082536071443884
12.96,0.0020816706118985747
12.964,0.002080420503666461
12.968,0.0020762374491974647
12.972,0.002075997043768212
12.976,0.0020790501927197206
12.98,0.0020799637333508807
12.984,0.0020789299900050946
12.988,0.002075251786937529
12.992,0.0020722707596147966
12.996,0.002071597624412889
13.0,0.002068784880890633
13.004,0.002071309137897786
13.008000000000001,0.0020790982738055712
13.012,0.00208900297749078
13.016,0.0020910464236394274
13.02,0.0020921522886139894
13.024000000000001,0.0020940034104192347
13.028,0.002091479153412082
13.032,0.002089555909978061
13.036,0.002086743166455805
13.040000000000001,0.0020831370850170157
13.044,0.0020837621391330725
13.048,0.0020884981260893493
13.052,0.002088281761203022
13.056000000000001,0.0020846756797642326
13.06,0.002082175463300005
13.064,0.0020832092066457916
13.068,0.0020827764768731366
13.072000000000001,0.0020829207201306884
13.076,0.0020813821253834715
13.08,0.002076069165396988
13.084,0.002071789948756291
13.088000000000001,0.0020724630839581985
13.092,0.002073592989475686
13.096,0.002068304070032128
13.1,0.0020670780023429396
13.104000000000001,0.0020739295570766396
13.108,0.0020814542470122474
13.112,0.0020836900175042966
13.116,0.0020802041387801336
13.120000000000001,0.0020757325977960343
13.124,0.002072679448844526
13.128,0.0020715255027841132
13.132,0.002075780678881885
13.136000000000001,0.002075155624765828
13.14,0.0020737131921903123
13.144,0.0020725592461298997
13.148,0.0020729198542737788
13.152000000000001,0.0020761653275686892
13.156,0.002078641503489991
13.16,0.0020732804624176574
13.164,0.0020683281105750534
13.168000000000001,0.002070467718895402
13.172,0.0020695060971783912
13.176,0.0020709725702968322
13.18,0.0020734727867610598
13.184000000000001,0.002071934192013843
13.188,0.002076910584399372
13.192,0.0020803964631235356
13.196,0.002075973003225287
13.200000000000001,0.002079338679234824
13.204,0.0020768144222276714
13.208,0.002080444544209386
13.212,0.0020867912475416557
13.216000000000001,0.0020907579371243243
13.22,0.0020923686535003166
13.224,0.002095758370052779
13.228,0.0020959506943961813
13.232000000000001,0.002092753302187121
13.236,0.0020908781398389503
13.24,0.0020880413557737695
13.244,0.002085901747453421
13.248000000000001,0.0020863104366831507
13.252,0.0020869354907992075
13.256,0.002087079734056759
13.26,0.002085709423110019
13.264000000000001,0.00208352173370382
13.268,0.00209128682906868
13.272,0.0020941476536767865
13.276,0.002094724626706993
13.280000000000001,0.0020888587342332283
13.284,0.0020791223143484965
13.288,0.002069337813377914
13.292,0.0020651787994518437
13.296000000000001,0.0020821514227570797
13.3,0.0021123703852141363
13.304,0.0021418440908405095
13.308,0.002177207729483572
13.312000000000001,0.0022151196656767127
13.316,0.002224086788187836
13.32,0.0022199998958905413
13.324,0.0022097826651473044
13.328,0.002185357473535237
13.332,0.002156580943653696
13.336,0.0021413873205249293
13.34,0.0021273476434565753
13.344,0.00210950956060603
13.348,0.002095013113222096
13.352,0.0020873922611147873
13.356,0.002089555909978061
13.36,0.002089748234321463
13.364,0.0020890270180337054
13.368,0.0020872239773143107
13.372,0.002085420936594916
13.376,0.00208352173370382
13.38,0.00208489204465056
13.384,0.0020835457742467453
13.388,0.0020790982738055712
13.392,0.0020807330307244893
13.396,0.0020802522198659842
13.4,0.0020789780710909448
13.404,0.002071862070385067
13.408,0.0020708523675822058
13.412,0.002078881908919244
13.416,0.0020874163016577126
13.42,0.0020921042075281388
13.424,0.0020871518556855348
13.428,0.0020885942882610505
13.432,0.0020913108696116053
13.436,0.00209037328843752
13.44,0.0020879451936020683
13.444,0.002087296098943086
13.448,0.002084531436506681
13.452,0.002084146787819877
13.456,0.002081911017327827
13.46,0.0020759249221394367
13.464,0.0020761653275686892
13.468,0.0020790501927197206
13.472,0.00207534794910923
13.476,0.0020739295570766396
13.48,0.002071309137897786
13.484,0.00206662123202736
13.488,0.0020634959614470754
13.492,0.0020616929207276807
13.496,0.002061428474755503
13.5,0.002061548677470129
13.504,0.0020591205826346773
13.508000000000001,0.0020574617851728343
13.512,0.0020651066778230682
13.516,0.0020728958137308535
13.52,0.0020745786517356217
13.524000000000001,0.00207032347563785
13.528,0.002064361420992385
13.532,0.002070876408125131
13.536,0.002072222678528946
13.540000000000001,0.0020690974079486616
13.544,0.0020677992186306977
13.548,0.002067198205057566
13.552,0.0020653951643381714
13.556000000000001,0.002062005447785709
13.56,0.002064193137191908
13.564,0.0020692656917491387
13.568,0.0020705157999812525
13.572000000000001,0.0020727996515591523
13.576,0.0020694339755496153
13.58,0.0020673424483151175
13.584,0.0020690974079486616
13.588000000000001,0.0020681838673175016
13.592,0.0020640729344772817
13.596,0.0020663567860551815
13.6,0.002076766341141821
13.604000000000001,0.0020854930582236914
13.608,0.0020847478013930085
13.612,0.0020836659769613713
13.616,0.002088978936947855
13.620000000000001,0.0020879692341449936
13.624,0.0020888106531473777
13.628,0.0020898684370360895
13.632,0.0020903252073516693
13.636000000000001,0.0020827764768731366
13.64,0.002084170828362802
13.644,0.0020883779233747232
13.648,0.0020885942882610505
13.652000000000001,0.002086622963741179
13.656,0.0020836900175042966
13.66,0.0020866710448270293
13.664,0.002085420936594916
13.668000000000001,0.002082968801216539
13.672,0.0020812859632117703
13.676,0.0020823677876434074
13.68,0.002083882341847699
13.684000000000001,0.0020808291928961905
13.688,0.0020751315842229027
13.692,0.0020826322336155853
13.696,0.0020908781398389503
13.700000000000001,0.0020944601807348145
13.704,0.002093041788702224
13.708,0.002089676112692687
13.712,0.0020816946524415
13.716000000000001,0.00207626148974039
13.72,0.0020736410705615364
13.724,0.0020817186929844252
13.728,0.002091503193955007
13.732000000000001,0.0020933543157602525
13.736,0.0020949890726791706
13.74,0.002094123613133861
13.744,0.0020937149239041316
13.748000000000001,0.002091094504725278
13.752,0.002088281761203022
13.756,0.002085709423110019
13.76,0.002086887409713357
13.764000000000001,0.0020889548964049295
13.768,0.0020873922611147873
13.772,0.002084339112163279
13.776,0.0020804685847523115
13.780000000000001,0.0020776558412300555
13.784,0.0020823677876434074
13.788,0.002090950261467726
13.792,0.002091575315583783
13.796000000000001,0.002084988206822261
13.8,0.0020889548964049295
13.804,0.0020940034104192347
13.808,0.0020957102889669283
13.812000000000001,0.00209631130254006
13.816,0.0020949650321362453
13.82,0.002092008045356438
13.824,0.002084531436506681
13.828,0.002085132450079813
13.832,0.0020867672069987304
13.836,0.0020875845854581893
13.84,0.0020890270180337054
13.844,0.002088834693690303
13.848,0.0020858536663675704
13.852,0.002079987773893806
13.856,0.0020749152193365755
13.86,0.0020735208678469104
13.864,0.0020761172464828386
13.868,0.0020730160164454795
13.872,0.002073689151647387
13.876,0.002072847732645003
13.88,0.0020733045029605827
13.884,0.002071789948756291
13.888,0.0020761653275686892
13.892,0.0020759008815965114
13.896,0.0020756123950814082
13.9,0.002081141719954219
13.904,0.0020870316529709083
13.908,0.0020864065988548514
13.912,0.00208763266654404
13.916,0.002089820355950239
13.92,0.002089195301834182
13.924,0.002091479153412082
13.928,0.0020949650321362453
13.932,0.0020940755320480106
13.936,0.002091719558841335
13.94,0.002093402396846103
13.944,0.002094748667249918
13.948,0.002089820355950239
13.952,0.0020903973289804452
13.956,0.002089339545091734
13.96,0.0020891712612912568
13.964,0.0020870556935138336
13.968,0.0020905175316950717
13.972,0.002090950261467726
13.976,0.002089099139662481
13.98,0.0020899405586648654
13.984,0.0020930658292451494
13.988,0.0020959506943961813
13.992,0.0020925128967578684
13.996,0.002087103774599684
14.0,0.002074410367935145
14.004,0.0020708283270392805
14.008000000000001,0.002072126516357245
14.012,0.0020755643139955576
14.016,0.0020793146386918985
14.02,0.0020940755320480106
14.024000000000001,0.0021222510483564195
14.028,0.002148166753629854
14.032,0.002184948784305507
14.036,0.0022205528283778223
14.040000000000001,0.002226731247909615
14.044,0.002224615680132192
14.048,0.002212114597811055
14.052,0.0021927619607562177
14.056000000000001,0.0021686973772880288
14.06,0.00215285465950028
14.064,0.002133526062988368
14.068,0.002113139682587745
14.072000000000001,0.0021011915327538884
14.076,0.002094123613133861
14.08,0.002090180964094118
14.084,0.0020915993561267084
14.088000000000001,0.002089628031606837
14.092,0.0020903252073516693
14.096,0.0020923205724144665
14.1,0.0020934264373890284
14.104000000000001,0.0020898443964931642
14.108,0.0020906858154955484
14.112,0.0020949890726791706
14.116,0.002094772707792843
14.120000000000001,0.0020921042075281388
14.124,0.0020886664098898264
14.128,0.002087993274687919
14.132,0.0020879451936020683
14.136000000000001,0.002088618328803976
14.14,0.0020858536663675704
14.144,0.0020790261521767953
14.148,0.0020751315842229027
14.152000000000001,0.002073256421874732
14.156,0.0020742661246775933
14.16,0.0020801320171513578
14.164,0.002085829625824645
14.168000000000001,0.002087536504372339
14.172,0.0020873441800289367
14.176,0.0020897241937785378
14.18,0.0020887866126044524
14.184000000000001,0.002084074666191101
14.188,0.002083377490446268
14.192,0.002082800517416062
14.196,0.002079555044121151
14.200000000000001,0.0020785693818612156
14.204,0.0020768384627705963
14.208,0.0020731121786171807
14.212,0.002071573583869964
14.216000000000001,0.0020710687324685334
14.22,0.0020714533811553373
14.224,0.0020708283270392805
14.228,0.0020674386104868187
14.232000000000001,0.002066404867141032
14.236,0.0020664289076839574
14.24,0.002066188502254705
14.244,0.0020644095020782354
14.248000000000001,0.0020614044342125775
14.252,0.0020538797442769697
14.256,0.0020530142847316603
14.26,0.0020551298525090834
14.264000000000001,0.0020615246369272036
14.268,0.0020732323813318068
14.272,0.002077463516886653
14.276,0.0020791944359772724
14.280000000000001,0.002081069598325443
14.284,0.002080492625295237
14.288,0.002079987773893806
14.292,0.0020775596790583543
14.296000000000001,0.0020752037058516786
14.3,0.0020785453413182903
14.304,0.0020801320171513578
14.308,0.0020821995038429303
14.312000000000001,0.0020822956660146315
14.316,0.0020828485985019125
14.32,0.002085276693337364
14.324,0.0020852286122515135
14.328000000000001,0.0020847478013930085
14.332,0.0020855170987666167
14.336,0.002085252652794439
14.34,0.002085613260938318
14.344,0.0020850122473651863
14.348,0.0020813821253834715
14.352,0.002082896679587763
14.356,0.0020841227472769516
14.36,0.0020730160164454795
14.364,0.002069914786408121
14.368,0.0020840987067340263
14.372,0.0020907819776672496
14.376,0.0020946284645352916
14.38,0.0020894357072634346
14.384,0.0020802762604089095
14.388,0.0020857575041958692
14.392,0.002090998342553577
14.396,0.0020912627885257547
14.4,0.0020864065988548514
14.404,0.002086526801569478
14.408,0.0020878971125162177
14.412,0.0020889548964049295
14.416,0.002089676112692687
14.42,0.002081983138956603
14.424,0.0020825841525297347
14.428,0.0020828485985019125
14.432,0.0020839304229335496
14.436,0.0020827283957872865
14.44,0.0020822956660146315
14.444,0.0020815744497268735
14.448,0.002084146787819877
14.452,0.002084170828362802
14.456,0.002081983138956603
14.46,0.0020779202872022334
14.464,0.0020815263686410233
14.468,0.0020856613420241685
14.472,0.002083257287731642
14.476,0.0020786655440329163
14.48,0.0020801320171513578
14.484,0.0020840987067340263
14.488,0.0020899645992077903
14.492,0.0020913108696116053
14.496,0.002084170828362802
14.5,0.002080516665838162
14.504,0.00207900211163387
14.508000000000001,0.0020827283957872865
14.512,0.002091479153412082
14.516,0.0020919840048135127
14.52,0.0020916233966696337
14.524000000000001,0.0020910464236394274
14.528,0.002093763004989982
14.532,0.00209448422127774
14.536,0.0020936187617324304
14.540000000000001,0.002086815288084581
14.544,0.0020844593148779053
14.548,0.002085829625824645
14.552,0.0020858536663675704
14.556000000000001,0.002086598923198254
14.56,0.002088353882831798
14.564,0.0020890510585766303
14.568,0.0020905175316950717
14.572000000000001,0.002084988206822261
14.576,0.002082247584928781
14.58,0.002085084368993962
14.584,0.0020878971125162177
14.588000000000001,0.002088185599031321
14.592,0.0020909743020106515
14.596,0.0020937149239041316
14.6,0.0020871999367713854
14.604000000000001,0.0020843150716203535
14.608,0.0020856613420241685
14.612,0.002085901747453421
14.616,0.0020847718419359338
14.620000000000001,0.0020855892203953926
14.624,0.002085132450079813
14.628,0.0020836900175042966
14.632,0.0020805407063810874
14.636000000000001,0.0020790982738055712
14.64,0.0020739295570766396
14.644,0.0020740738003341913
14.648,0.0020832092066457916
14.652000000000001,0.0020853968960519906
14.656,0.0020806128280098633
14.66,0.002079338679234824
14.664,0.002080973436153742
14.668000000000001,0.002085901747453421
14.672,0.002089267423462958
14.676,0.0020902771262658187
14.68,0.0020940034104192347
14.684000000000001,0.00209357068064658
14.688,0.0020895799505209864
14.692,0.0020927052211012704
14.696,0.0020950852348508714
14.700000000000001,0.0020977056540297254
14.704,0.0020954458429947504
14.708,0.0020944601807348145
14.712,0.0020938110860758328
14.716000000000001,0.002092969667073448
14.72,0.002092392694043242
14.724,0.0020917916804701103
14.728,0.0020914551128691566
14.732000000000001,0.002089676112692687
14.736,0.0020940034104192347
14.74,0.0020953977619089
14.744,0.0020942678563914126
14.748000000000001,0.0020940755320480106
14.752,0.0020965757485122377
14.756,0.0020913108696116053
14.76,0.002080588787466938
14.764000000000001,0.002073881475990789
14.768,0.002070684083781729
14.772,0.0020850362879081116
14.776,0.0021169380883699364
14.780000000000001,0.002144921280334943
14.784,0.0021743469048754655
14.788,0.002199902002005021
14.792,0.002216393814451752
14.796000000000001,0.0022219231393245625
14.8,0.0022097826651473044
14.804,0.002187304757512183
14.808,0.0021665577689676803
14.812000000000001,0.002154417294790422
14.816,0.002133333738644966
14.82,0.002112779074443866
14.824,0.002102081032842123
14.828000000000001,0.0020961670592825085
14.832,0.002093306234674402
14.836,0.002090301166808744
14.84,0.002094388059106039
14.844000000000001,0.0020976335324009495
14.848,0.002098955762261839
14.852,0.0020957102889669283
14.856,0.0020914310723262317
14.86,0.0020894357072634346
14.864,0.002090926220924801
14.868,0.002096599789055163
14.872,0.00209722484317122
14.876,0.0020949650321362453
14.88,0.0020923686535003166
14.884,0.0020886664098898264
14.888,0.002087272058400161
14.892,0.0020839785040194
14.896,0.002078881908919244
14.9,0.002077054827656924
14.904,0.002078232814260262
14.908,0.0020807330307244893
14.912,0.0020846756797642326
14.916,0.0020871999367713854
14.92,0.0020851084095368875
14.924,0.002084988206822261
14.928,0.0020820793011283043
14.932,0.00207626148974039
14.936,0.002070587921610028
14.94,0.0020763816924550165
14.944,0.002075780678881885
14.948,0.0020752037058516786
14.952,0.002077439476343728
14.956,0.0020747469355360984
14.96,0.0020790261521767953
14.964,0.0020808051523532652
14.968,0.002078160692631486
14.972,0.0020792425170631226
14.976,0.002078256854803187
14.98,0.002074121881420042
14.984,0.002072679448844526
14.988,0.0020696262998930173
14.992,0.0020660202184542282
14.996,0.002064553745335787
15.0,0.002061813123442307
15.004,0.0020621737315861858
15.008000000000001,0.0020652509210806196
15.012,0.002062269893757887
15.016,0.0020598417989224353
15.02,0.002061981407242784
15.024000000000001,0.002062822826245168
15.028,0.002064193137191908
15.032,0.002065130718365993
15.036,0.0020687127592618577
15.040000000000001,0.002074795016621949
15.044,0.0020764778546267177
15.048,0.0020778481655734575
15.052,0.0020805407063810874
15.056000000000001,0.0020764778546267177
15.06,0.002080228179323059
15.064,0.0020844593148779053
15.068,0.0020869835718850577
15.072000000000001,0.002089676112692687
15.076,0.0020874643827435632
15.08,0.0020877528692586664
15.084,0.002091358950697456
15.088000000000001,0.0020891472207483315
15.092,0.0020885462071752
15.096,0.002090108842465342
15.1,0.0020907819776672496
15.104000000000001,0.00208717589622846
15.108,0.0020853728555090653
15.112,0.002084507395963756
15.116,0.002085637301481243
15.120000000000001,0.002088209639574246
15.124,0.002085637301481243
15.128,0.002083641936418446
15.132,0.0020835698147896706
15.136000000000001,0.0020853007338802894
15.14,0.0020847478013930085
15.144,0.002081766774070276
15.148,0.0020800358549796566
15.152000000000001,0.0020760932059399133
15.156,0.0020759489626823615
15.16,0.002069554178264242
15.164,0.0020764778546267177
15.168000000000001,0.0020910464236394274
15.172,0.002091911883184737
15.176,0.0020801800982372083
15.18,0.002077679881772981
15.184000000000001,0.0020816946524415
15.188,0.0020869354907992075
15.192,0.0020842189094486528
15.196,0.002085541139309542
15.200000000000001,0.002091479153412082
15.204,0.002090950261467726
15.208,0.00208945974780636
15.212,0.0020865027610265526
15.216000000000001,0.0020865027610265526
15.22,0.0020872480178572355
15.224,0.002090084801922417
15.228,0.0020869114502562822
15.232000000000001,0.0020839544634764745
15.236,0.0020827283957872865
15.24,0.002082680314701436
15.244,0.0020835698147896706
15.248000000000001,0.002080853233439116
15.252,0.0020808051523532652
15.256,0.0020771509898286247
15.26,0.0020784732196895144
15.264000000000001,0.0020826562741585106
15.268,0.0020839063823906243
15.272,0.0020869114502562822
15.276,0.0020876807476298905
15.280000000000001,0.002084146787819877
15.284,0.0020819350578707525
15.288,0.002084266990534503
15.292,0.0020878730719732924
15.296000000000001,0.002087536504372339
15.3,0.0020867912475416557
15.304,0.0020869835718850577
15.308,0.002084339112163279
15.312000000000001,0.0020842910310774282
15.316,0.0020865027610265526
15.32,0.00208763266654404
15.324,0.002090541572237997
15.328000000000001,0.002086454679940702
15.332,0.0020880413557737695
15.336,0.0020959506943961813
15.34,0.002095205437565498
15.344000000000001,0.002090541572237997
15.348,0.0020858536663675704
15.352,0.0020828245579589872
15.356,0.0020812378821259197
15.36,0.0020810936388683684
15.364,0.0020833053688174927
15.368,0.002083329409360418
15.372,0.0020794108008635997
15.376,0.002081502328098098
15.38,0.00208489204465056
15.384,0.0020847718419359338
15.388,0.0020848680041076345
15.392,0.002085180531165663
15.396,0.0020831370850170157
15.4,0.002084146787819877
15.404,0.0020861421528826736
15.408,0.00208808943685962
15.412,0.002090661774952623
15.416,0.002093763004989982
15.42,0.002092753302187121
15.424,0.0020904213695233705
15.428,0.0020921042075281388
15.432,0.002096191099825434
15.436,0.0020961670592825085
15.44,0.0020971767620853693
15.444,0.002099148086605241
15.448,0.0020988115190042874
15.452,0.0020985470730321095
15.456,0.0020988355595472127
15.46,0.002100326073208579
15.464,0.0020972008026282946
15.468,0.002093041788702224
15.472,0.002091839761555961
15.476,0.002092825423815897
15.48,0.0020982585865170064
15.484,0.00209722484317122
15.488,0.0020947967483357683
15.492,0.002097321005342921
15.496,0.0021000856677793264
15.5,0.0020995327352920454
15.504,0.0020866710448270293
15.508000000000001,0.002067029921257089
15.512,0.0020741940030488174
15.516,0.0021002779921227284
15.52,0.0021318913060694505
15.524000000000001,0.0021596581331481297
15.528,0.002199637556032843
15.532,0.002225529220763352
15.536,0.002222908801584498
15.540000000000001,0.0022217788960670107
15.544,0.0022106962057784644
15.548,0.00219158397415288
15.552,0.002170740823436676
15.556000000000001,0.0021533595109017103
15.56,0.0021300882653500558
15.564,0.0021137406961608766
15.568,0.002106865100884251
15.572000000000001,0.0021021291139279737
15.576,0.002100590519180757
15.58,0.002101095370582187
15.584,0.002097585451315099
15.588000000000001,0.0020932821941314766
15.592,0.0020894357072634346
15.596,0.0020846516392213073
15.6,0.0020835457742467453
15.604000000000001,0.00208763266654404
15.608,0.002095758370052779
15.612,0.002096599789055163
15.616,0.002090445410066296
15.620000000000001,0.0020794108008635997
15.624,0.0020845795175925314
15.628,0.0020940034104192347
15.632,0.0020923446129573918
15.636000000000001,0.0020874643827435632
15.64,0.0020924167345861672
15.644,0.002094652505078217
15.648,0.002097128680999519
15.652000000000001,0.0020958304916815548
15.656,0.0020916714777554843
15.66,0.0020893155045488086
15.664,0.0020876086260011146
15.668000000000001,0.0020904213695233705
15.672,0.0020897241937785378
15.676,0.002088185599031321
15.68,0.0020883779233747232
15.684000000000001,0.002087512463829414
15.688,0.0020867912475416557
15.692,0.002083882341847699
15.696,0.0020779202872022334
15.700000000000001,0.0020731121786171807
15.704,0.0020723669217864974
15.708,0.00207621340865454
15.712,0.002075708557253109
15.716000000000001,0.0020754921923667818
15.72,0.0020745546111926964
15.724,0.00207671826005597
15.728,0.0020794829224923756
15.732000000000001,0.0020742180435917427
15.736,0.0020670780023429396
15.74,0.002072967935359629
15.744,0.0020816465713556494
15.748000000000001,0.0020840506256481757
15.752,0.0020801320171513578
15.756,0.0020752758274804545
15.76,0.002075852800510661
15.764000000000001,0.0020755643139955576
15.768,0.002075852800510661
15.772,0.002074410367935145
15.776,0.00207534794910923
15.780000000000001,0.002078328976431963
15.784,0.0020809253550678917
15.788,0.0020802522198659842
15.792,0.002080444544209386
15.796000000000001,0.002079338679234824
15.8,0.002082463949815108
15.804,0.0020873922611147873
15.808,0.0020895078288922105
15.812000000000001,0.002087728828715741
15.816,0.002088618328803976
15.82,0.0020855892203953926
15.824,0.002083329409360418
15.828000000000001,0.0020846516392213073
15.832,0.0020861421528826736
15.836,0.0020894116667205093
15.84,0.00209220036969984
15.844000000000001,0.0020881134774025454
15.848,0.002092921585987598
15.852,0.0020959987754820314
15.856,0.0020953256402801244
15.860000000000001,0.002096888275570266
15.864,0.0020954698835376757
15.868,0.002095061194307946
15.872,0.0020911906668969788
15.876,0.002088185599031321
15.88,0.002089555909978061
15.884,0.0020907579371243243
15.888,0.0020930898697880747
15.892,0.0020959506943961813
15.896,0.002098979802804764
15.9,0.0020956622078810777
15.904,0.0020856613420241685
15.908,0.0020762855302833153
15.912,0.002072871773187928
15.916,0.0020801320171513578
15.92,0.0020891472207483315
15.924,0.0020916955182984096
15.928,0.0020904213695233705
15.932,0.002095782410595704
15.936,0.002095638167338153
15.94,0.002099075964976465
15.944,0.0021046533709351265
15.948,0.002103691749218116
15.952,0.002098691316289661
15.956,0.0020958304916815548
15.96,0.002098859600090138
15.964,0.0020956141267952275
15.968,0.00208945974780636
15.972,0.002092272491328616
15.976,0.0020958785727674054
15.98,0.0020948929105074694
15.984,0.0020958064511386295
15.988,0.002093113910331
15.992,0.002091022383096502
15.996,0.002091935923727662
16.0,0.0020927052211012704
16.004,0.002092560977843719
16.008,0.0020959506943961813
16.012,0.002098234545974081
16.016000000000002,0.0020987393973755115
16.02,0.0020990278838906146
16.024,0.002095758370052779
16.028,0.002095421802451825
16.032,0.0020970565593707432
16.036,0.0020964555457976116
16.04,0.0020969123161131914
16.044,0.002096215140368359
16.048000000000002,0.0020967199917697895
16.052,0.0020969363566561167
16.056,0.0020976335324009495
16.06,0.0020944361401918896
16.064,0.0020867912475416557
16.068,0.0020796031252070016
16.072,0.0020759008815965114
16.076,0.002084339112163279
16.080000000000002,0.002090541572237997
16.084,0.002093666842818281
16.088,0.0020899645992077903
16.092,0.0020829447606736137
16.096,0.002074674813907323
16.1,0.002078256854803187
16.104,0.0020891472207483315
16.108,0.0020993163704057178
16.112000000000002,0.002101528100354842
16.116,0.002095974734939106
16.12,0.0020923446129573918
16.124,0.0020923446129573918
16.128,0.0020988355595472127
16.132,0.002098234545974081
16.136,0.0020964315052546863
16.14,0.002093306234674402
16.144000000000002,0.002095301599737199
16.148,0.002097248883714145
16.152,0.002100975167867561
16.156,0.0021014078976402156
16.16,0.002100061627236401
16.164,0.002101239613839739
16.168,0.002102417600443077
16.172,0.002100133748865177
16.176000000000002,0.002096335343082985
16.18,0.0020970805999136685
16.184,0.002103884073561518
16.188,0.0021032349789025357
16.192,0.0020960228160249567
16.196,0.0020940514915050853
16.2,0.002096888275570266
16.204,0.0020958064511386295
16.208000000000002,0.002098931721718914
16.212,0.0021014559787260662
16.216,0.002103138816730835
16.22,0.0020976335324009495
16.224,0.0020843871932491294
16.228,0.0020775596790583543
16.232,0.002079170395434347
16.236,0.0020954698835376757
16.240000000000002,0.0021271553191131733
16.244,0.0021579752951433615
16.248,0.0021930023661854703
16.252,0.0022216827338953095
16.256,0.0022269716533388677
16.26,0.002226827410081316
16.264,0.0022176439226838656
16.268,0.0021976662315129716
16.272000000000002,0.0021765345942816646
16.276,0.002157013673426351
16.28,0.0021376610363715138
16.284,0.00211818819660205
16.288,0.002107658438800785
16.292,0.0020997250596354474
