0.0,-0.011220851288738006
0.004,-0.011219985829192697
0.008,-0.011219384815619566
0.012,-0.011219336734533715
0.016,-0.01121976946430637
0.02,-0.0112201781535361
0.024,-0.011220346437336576
0.028,-0.01122113977525311
0.032,-0.011222077356427195
0.036000000000000004,-0.011222582207828626
0.04,-0.011221740788826241
0.044,-0.011220298356250725
0.048,-0.011219408856162492
0.052000000000000005,-0.011219168450733239
0.056,-0.011218855923675209
0.06,-0.011218254910102077
0.064,-0.011217341369470918
0.068,-0.011216716315354862
0.07200000000000001,-0.011217100964041665
0.076,-0.011217918342501125
0.08,-0.01121794238304405
0.084,-0.011218182788473302
0.088,-0.011219889667020996
0.092,-0.011221524423939915
0.096,-0.011222341802399373
0.1,-0.011222678370000327
0.10400000000000001,-0.011222341802399373
0.108,-0.011221788869912092
0.112,-0.011222005234798419
0.116,-0.011223495748459785
0.12,-0.011215442166579822
0.124,-0.011214696909749139
0.128,-0.011214047815090156
0.132,-0.011213206396087774
0.136,-0.011213230436630698
0.14,-0.01121291790957267
0.14400000000000002,-0.011212316895999538
0.148,-0.011212076490570285
0.152,-0.011211884166226883
0.156,-0.011210874463424022
0.16,-0.011209984963335787
0.164,-0.011209335868676805
0.168,-0.011208999301075852
0.17200000000000001,-0.011209600314648984
0.176,-0.011209960922792863
0.18,-0.011209600314648984
0.184,-0.011208278084788094
0.188,-0.011207508787414486
0.192,-0.011206859692755504
0.196,-0.011206330800811147
0.2,-0.011205849989952643
0.20400000000000001,-0.011206354841354073
0.20800000000000002,-0.011207604949586187
0.212,-0.011209432030848506
0.216,-0.011210513855280144
0.22,-0.011211283152653751
0.224,-0.01121195628785566
0.228,-0.011212076490570285
0.232,-0.01121200436894151
0.23600000000000002,-0.011211980328398584
0.24,-0.011211812044598108
0.244,-0.011211932247312734
0.248,-0.01121246113925709
0.252,-0.011213014071744371
0.256,-0.011212797706858044
0.26,-0.011212052450027361
0.264,-0.011212557301428791
0.268,-0.011212797706858044
0.272,-0.011212557301428791
0.276,-0.01121286982848682
0.28,-0.011212172652741987
0.28400000000000003,-0.011211932247312734
0.28800000000000003,-0.011211403355368379
0.292,-0.0112112350715679
0.296,-0.011211090828310349
0.3,-0.01121164376079763
0.304,-0.011212653463600493
0.308,-0.0112133265988024
0.312,-0.011213542963688726
0.316,-0.011213807409660905
0.32,-0.011213975693461381
0.324,-0.011214119936718933
0.328,-0.011214817112463766
0.332,-0.01121520176115057
0.336,-0.011215225801693495
0.34,-0.011215370044951047
0.34400000000000003,-0.01121520176115057
0.34800000000000003,-0.011215177720607645
0.352,-0.011215273882779346
0.356,-0.011215009436807168
0.36,-0.011214432463776961
0.364,-0.011214071855633083
0.368,-0.011213855490746756
0.372,-0.011213350639345325
0.376,-0.011212557301428791
0.38,-0.011212893869029744
0.384,-0.011213446801517025
0.388,-0.01121337467988825
0.392,-0.011212845787943893
0.396,-0.011213062152830222
0.4,-0.011212893869029744
0.404,-0.011212316895999538
0.40800000000000003,-0.011212485179800015
0.41200000000000003,-0.011211812044598108
0.41600000000000004,-0.011212028409484435
0.42,-0.011211571639168855
0.424,-0.011211595679711781
0.428,-0.01121250922034294
0.432,-0.011213759328575055
0.436,-0.01121433630160526
0.44,-0.011214817112463766
0.444,-0.011215802774723702
0.448,-0.011216283585582206
0.452,-0.011217052882955814
0.456,-0.01121890400476106
0.46,-0.011220370477879502
0.464,-0.011221452302311138
0.468,-0.011222389883485223
0.47200000000000003,-0.011223087059230056
0.47600000000000003,-0.01122342362683101
0.48,-0.011223615951174413
0.484,-0.011223303424116383
0.488,-0.01122311109977298
0.492,-0.011222846653800803
0.496,-0.011222077356427195
0.5,-0.011220803207652156
0.504,-0.011220009869735623
0.508,-0.011219913707563922
0.512,-0.011219529058877117
0.516,-0.01121926461290494
0.52,-0.011219817545392221
0.524,-0.011220081991364398
0.528,-0.011220322396793651
0.532,-0.011220827248195082
0.536,-0.01122118785633896
0.54,-0.011221860991540867
0.544,-0.011221211896881886
0.548,-0.011219649261591743
0.552,-0.011219336734533715
0.556,-0.011219697342677594
0.56,-0.011219480977791267
0.5640000000000001,-0.011219336734533715
0.5680000000000001,-0.011219408856162492
0.5720000000000001,-0.011220538761679978
0.5760000000000001,-0.011221909072626718
0.58,-0.011221957153712568
0.584,-0.011222822613257879
0.588,-0.011222534126742775
0.592,-0.011221235937424811
0.596,-0.0112201781535361
0.6,-0.011217870261415274
0.604,-0.01121839915335963
0.608,-0.01121921653181909
0.612,-0.011219336734533715
0.616,-0.01121931269399079
0.62,-0.01121972138322052
0.624,-0.011219096329104462
0.628,-0.011220370477879502
0.632,-0.011221909072626718
0.636,-0.0112225581672857
0.64,-0.011223495748459785
0.644,-0.011223904437689515
0.648,-0.011224048680947066
0.652,-0.011224625653977274
0.656,-0.01122525070809333
0.66,-0.01122570747840891
0.664,-0.011225322829722106
0.668,-0.011225875762209387
0.672,-0.01122671718121177
0.676,-0.01122698162718395
0.68,-0.011227438397499529
0.684,-0.011227702843471707
0.6880000000000001,-0.01122794324890096
0.6920000000000001,-0.01122936164093355
0.6960000000000001,-0.011230395384279336
0.7000000000000001,-0.011231236803281721
0.704,-0.011232078222284104
0.708,-0.01123311196562989
0.712,-0.011234073587346901
0.716,-0.011235035209063913
0.72,-0.011235131371235612
0.724,-0.011235780465894595
0.728,-0.011236309357838951
0.732,-0.01123525157395024
0.736,-0.011234506317119556
0.74,-0.011233785100831799
0.744,-0.011232799438571863
0.748,-0.011231861857397777
0.752,-0.011231549330339749
0.756,-0.011231717614140225
0.76,-0.011232006100655329
0.764,-0.01123306388454404
0.768,-0.01123448227657663
0.772,-0.011235564101008268
0.776,-0.01123580450643752
0.78,-0.011236357438924802
0.784,-0.011237535425528139
0.788,-0.011237775830957392
0.792,-0.011237246939013037
0.796,-0.011236694006525756
0.8,-0.011237246939013037
0.804,-0.011237727749871541
0.808,-0.011238208560730047
0.812,-0.011238929777017804
0.8160000000000001,-0.011238689371588551
0.8200000000000001,-0.011238328763444673
0.8240000000000001,-0.011239049979732432
0.8280000000000001,-0.011239675033848488
0.8320000000000001,-0.01123941058787631
0.836,-0.011239290385161683
0.84,-0.011239122101361207
0.844,-0.01123885765538903
0.848,-0.011238713412131477
0.852,-0.011238977858103655
0.856,-0.011239314425704609
0.86,-0.011239650993305563
0.864,-0.011240179885249918
0.868,-0.011240035641992366
0.872,-0.011240107763621143
0.876,-0.011240516452850872
0.88,-0.011241093425881078
0.884,-0.011241309790767406
0.888,-0.011241213628595705
0.892,-0.011241189588052779
0.896,-0.011241862723254687
0.9,-0.011242223331398566
0.904,-0.011242127169226864
0.908,-0.011241622317825434
0.912,-0.011241141506966928
0.916,-0.011241117466424004
0.92,-0.011240804939365976
0.924,-0.011240540493393797
0.928,-0.011240973223166452
0.932,-0.011241622317825434
0.936,-0.011242247371941492
0.9400000000000001,-0.01124215120976979
0.9440000000000001,-0.011242824344971697
0.9480000000000001,-0.0112431128314868
0.9520000000000001,-0.011243208993658502
0.9560000000000001,-0.011243665763974082
0.96,-0.011243593642345305
0.964,-0.011243665763974082
0.968,-0.011243810007231634
0.972,-0.011243329196373128
0.976,-0.011243040709858024
0.98,-0.011243281115287277
0.984,-0.01124443506134769
0.988,-0.011245973656094907
0.992,-0.011246526588582188
0.996,-0.011247536291385049
1.0,-0.011249171048303967
1.004,-0.011250853886308735
1.008,-0.01125133469716724
1.012,-0.011252320359427177
1.016,-0.011253330062230038
1.02,-0.011253810873088542
1.024,-0.011253089656800785
1.028,-0.011251719345854045
1.032,-0.011251647224225269
1.036,-0.011252320359427177
1.04,-0.01125347430548759
1.044,-0.011254123400146572
1.048,-0.011253762792002691
1.052,-0.01125352238657344
1.056,-0.011254508048833375
1.06,-0.011255373508378685
1.064,-0.011256238967923994
1.068,-0.011256070684123518
1.072,-0.011255661994893787
1.076,-0.011255686035436713
1.08,-0.011255613913807937
1.084,-0.011255012900234805
1.088,-0.011254315724489972
1.092,-0.01125371471091684
1.096,-0.011253378143315888
1.1,-0.011253834913631468
1.104,-0.011253882994717319
1.108,-0.011254387846118749
1.112,-0.011254772494805554
1.116,-0.011255301386749909
1.12,-0.011256070684123518
1.124,-0.01125595048140889
1.1280000000000001,-0.011254748454262628
1.1320000000000001,-0.011253306021687112
1.1360000000000001,-0.011253907035260243
1.1400000000000001,-0.01125301753517201
1.1440000000000001,-0.011252873291914458
1.1480000000000001,-0.011253185818972486
1.1520000000000001,-0.011253257940601261
1.156,-0.011253137737886635
1.16,-0.01125275308919983
1.164,-0.011252103994540848
1.168,-0.011250349034907304
1.172,-0.011248113264415256
1.176,-0.01124717568324117
1.18,-0.011245564966865178
1.184,-0.011244675466776943
1.188,-0.011244338899175988
1.192,-0.011243737885602857
1.196,-0.011243834047774558
1.2,-0.01124402637211796
1.204,-0.011244411020804765
1.208,-0.01124534860197885
1.212,-0.011245468804693477
1.216,-0.01124534860197885
1.22,-0.011244507182976466
1.224,-0.011243737885602857
1.228,-0.011243858088317484
1.232,-0.01124393020994626
1.236,-0.011244338899175988
1.24,-0.011244771628948644
1.244,-0.011245540926322252
1.248,-0.011245781331751505
1.252,-0.011245180318178373
1.256,-0.011244459101890616
1.26,-0.01124402637211796
1.264,-0.011243184953115576
1.268,-0.011243233034201426
1.272,-0.011243954250489185
1.276,-0.011243737885602857
1.28,-0.011243906169403335
1.284,-0.01124393020994626
1.288,-0.011243593642345305
1.292,-0.011244002331575036
1.296,-0.01124448314243354
1.3,-0.011245540926322252
1.304,-0.011246791034554365
1.308,-0.011246526588582188
1.312,-0.011246286183152935
1.316,-0.011246839115640216
1.32,-0.011247295885955796
1.324,-0.0112475843724709
1.328,-0.011247969021157704
1.332,-0.011247319926498722
1.336,-0.011246911237268993
1.34,-0.01124667083183974
1.344,-0.011246983358897768
1.348,-0.011246382345324636
1.352,-0.011246190020981234
1.356,-0.011246141939895383
1.36,-0.011246863156183142
1.364,-0.011246406385867562
1.368,-0.011245973656094907
1.372,-0.011245661129036879
1.3760000000000001,-0.01124498799383497
1.3800000000000001,-0.011245540926322252
1.3840000000000001,-0.011246021737180758
1.3880000000000001,-0.011246574669668039
1.3920000000000001,-0.011247656494099676
1.3960000000000001,-0.011248954683417639
1.4000000000000001,-0.011250445197079005
1.4040000000000001,-0.011251190453909689
1.408,-0.01125179146748282
1.412,-0.01125265692702813
1.416,-0.011252945413543233
1.42,-0.011253185818972486
1.424,-0.011253786832545618
1.428,-0.011254219562318273
1.432,-0.011254147440689496
1.436,-0.011254604211005076
1.44,-0.011255686035436713
1.444,-0.011256214927381068
1.448,-0.01125736887344148
1.452,-0.011258450697873118
1.456,-0.011259292116875503
1.46,-0.011260157576420812
1.464,-0.011259917170991559
1.468,-0.011259075751989176
1.472,-0.011258811306016997
1.476,-0.011259316157418427
1.48,-0.011259171914160876
1.484,-0.011258931508731624
1.488,-0.011258955549274549
1.492,-0.011258931508731624
1.496,-0.011258931508731624
1.5,-0.011258955549274549
1.504,-0.01125905171144625
1.508,-0.011259436360133055
1.512,-0.011259869089905708
1.516,-0.011259845049362784
1.52,-0.01125955656284768
1.524,-0.011259652725019382
1.528,-0.011260205657506663
1.532,-0.01126092687379442
1.536,-0.011261503846824627
1.54,-0.011261816373882655
1.544,-0.01126133556302415
1.548,-0.011262128900940683
1.552,-0.011262898198314292
1.556,-0.01126275395505674
1.56,-0.011262898198314292
1.564,-0.011262994360485994
1.568,-0.011262970319943067
1.572,-0.011262802036142591
1.576,-0.011262441427998713
1.58,-0.01126220102256946
1.584,-0.011262128900940683
1.588,-0.01126169617116803
1.592,-0.011261071117051972
1.596,-0.011261167279223673
1.6,-0.01126097495488027
1.604,-0.011262128900940683
1.608,-0.011262970319943067
1.612,-0.011263547292973275
1.616,-0.011263931941660078
1.62,-0.011263811738945452
1.624,-0.011264004063288854
1.6280000000000001,-0.01126448487414736
1.6320000000000001,-0.011265061847177566
1.6360000000000001,-0.011265326293149743
1.6400000000000001,-0.011265326293149743
1.6440000000000001,-0.011265158009349267
1.6480000000000001,-0.011264725279576612
1.6520000000000001,-0.011264340630889809
1.6560000000000001,-0.01126494164446294
1.6600000000000001,-0.011265831144551174
1.6640000000000001,-0.011265734982379472
1.668,-0.011265109928263416
1.672,-0.011264556995776135
1.676,-0.011264100225460556
1.68,-0.011264605076861986
1.684,-0.0112658551850941
1.688,-0.011266047509437502
1.692,-0.011266624482467708
1.696,-0.011267129333869138
1.7,-0.011267057212240363
1.704,-0.011266239833780905
1.708,-0.011264773360662462
1.712,-0.011263090522657695
1.716,-0.011262369306369936
1.72,-0.01126169617116803
1.724,-0.011261383644110001
1.728,-0.01126047010347884
1.732,-0.011259652725019382
1.736,-0.011259580603390607
1.74,-0.011259244035789652
1.744,-0.011259123833075025
1.748,-0.011259123833075025
1.752,-0.011258763224931146
1.756,-0.011258811306016997
1.76,-0.011259075751989176
1.764,-0.011259195954703802
1.768,-0.011259292116875503
1.772,-0.011259532522304756
1.776,-0.011260085454792037
1.78,-0.011259484441218905
1.784,-0.01125905171144625
1.788,-0.011259292116875503
1.792,-0.011259484441218905
1.796,-0.01126001333316326
1.8,-0.011260397981850065
1.804,-0.011262008698226057
1.808,-0.011262489509084563
1.812,-0.01126220102256946
1.816,-0.011262080819854834
1.82,-0.011262369306369936
1.824,-0.011262321225284085
1.828,-0.011261215360309523
1.832,-0.01125955656284768
1.836,-0.011258258373529716
1.84,-0.011257440995070258
1.844,-0.011257801603214136
1.848,-0.011258618981673595
1.852,-0.01125946040067598
1.856,-0.011260566265650541
1.86,-0.011261455765738776
1.864,-0.011261768292796804
1.868,-0.011262922238857217
1.872,-0.01126438871197566
1.8760000000000001,-0.011265182049892191
1.8800000000000001,-0.011265590739121922
1.8840000000000001,-0.011266263874323829
1.8880000000000001,-0.011267153374412064
1.8920000000000001,-0.011268066915043224
1.8960000000000001,-0.011268139036671999
1.9000000000000001,-0.011268379442101252
1.9040000000000001,-0.011269749753047993
1.9080000000000001,-0.011270326726078198
1.9120000000000001,-0.011270855618022555
1.9160000000000001,-0.011271600874853238
1.92,-0.011271721077567864
1.924,-0.011271144104537657
1.928,-0.011270783496393778
1.932,-0.011270951780194256
1.936,-0.011271264307252284
1.94,-0.011270735415307927
1.944,-0.011270302685535274
1.948,-0.011269990158477244
1.952,-0.011269749753047993
1.956,-0.011269869955762618
1.96,-0.011268403482644178
1.964,-0.011267249536583765
1.968,-0.011267513982555943
1.972,-0.011266744685182335
1.976,-0.011266624482467708
1.98,-0.011266648523010634
1.984,-0.01126636003649553
1.988,-0.011266432158124305
1.992,-0.011266143671609203
1.996,-0.011265879225637024
2.0,-0.011266023468894576
2.004,-0.011266528320296006
2.008,-0.011266961050068662
2.012,-0.011267586104184718
2.016,-0.01126859580698758
2.02,-0.01126910065838901
2.024,-0.011268860252959758
2.028,-0.011269196820560712
2.032,-0.011269076617846084
2.036,-0.011268836212416831
2.04,-0.011268860252959758
2.044,-0.011268211158300775
2.048,-0.011268163077214925
2.052,-0.011268259239386626
2.056,-0.011267898631242747
2.06,-0.011268499644815879
2.064,-0.011268427523187102
2.068,-0.01126828327992955
2.072,-0.011269172780017786
2.076,-0.011270374807164049
2.08,-0.011270615212593302
2.084,-0.011270254604449423
2.088,-0.01126996611793432
2.092,-0.011270446928792826
2.096,-0.01127143259105276
2.1,-0.011272105726254669
2.104,-0.0112727067398278
2.108,-0.01127265865874195
2.112,-0.01127138450996691
2.116,-0.011270735415307927
2.12,-0.011270591172050376
2.124,-0.011270711374765003
2.128,-0.011270446928792826
2.132,-0.011270182482820646
2.136,-0.011270831577479629
2.14,-0.011272033604625892
2.144,-0.011272514415484398
2.148,-0.011273812604802362
2.152,-0.011274269375117942
2.156,-0.011273403915572633
2.16,-0.011271865320825416
2.164,-0.011271216226166433
2.168,-0.011271071982908882
2.172,-0.011271793199196639
2.176,-0.01127224996951222
2.18,-0.011271793199196639
2.184,-0.011271624915396163
2.188,-0.011272033604625892
2.192,-0.011271769158653714
2.196,-0.01127143259105276
2.2,-0.011271913401911266
2.204,-0.011273259672315081
2.208,-0.011274750185976446
2.212,-0.011275014631948627
2.216,-0.011274221294032091
2.22,-0.011272899064171202
2.224,-0.011271336428881059
2.228,-0.011270374807164049
2.232,-0.011270543090964525
2.236,-0.011271144104537657
2.24,-0.011271336428881059
2.244,-0.011271408550509836
2.248,-0.011270951780194256
2.2520000000000002,-0.011270591172050376
2.2560000000000002,-0.011270711374765003
2.2600000000000002,-0.011270735415307927
2.2640000000000002,-0.011270302685535274
2.2680000000000002,-0.011270182482820646
2.2720000000000002,-0.011270783496393778
2.2760000000000002,-0.011270999861280107
2.2800000000000002,-0.011270567131507451
2.2840000000000003,-0.011270663293679152
2.2880000000000003,-0.011271192185623507
2.2920000000000003,-0.011271576834310312
2.2960000000000003,-0.011272418253312697
2.3000000000000003,-0.011273091388514603
2.3040000000000003,-0.01127366836154481
2.308,-0.01127412513186039
2.312,-0.011273740483173585
2.316,-0.011273860685888213
2.32,-0.011273500077744334
2.324,-0.011273788564259436
2.328,-0.01127311542905753
2.332,-0.011272538456027322
2.336,-0.011272850983085352
2.34,-0.011272634618199023
2.344,-0.011272778861456575
2.348,-0.011273235631772155
2.352,-0.011273067347971679
2.356,-0.01127311542905753
2.36,-0.011272802901999501
2.364,-0.011272875023628276
2.368,-0.011271865320825416
2.372,-0.011270591172050376
2.376,-0.01126946126653289
2.38,-0.011268788131330981
2.384,-0.01126828327992955
2.388,-0.011267970752871522
2.392,-0.011267417820384242
2.396,-0.011267057212240363
2.4,-0.011267874590699821
2.404,-0.01126859580698758
2.408,-0.011269389144904112
2.412,-0.011270350766621124
2.416,-0.011270495009878676
2.42,-0.011269581469247515
2.424,-0.011269365104361188
2.428,-0.01126900449621731
2.432,-0.01126900449621731
2.436,-0.011269437225989963
2.44,-0.011269413185447039
2.444,-0.011268523685358803
2.448,-0.011267970752871522
2.452,-0.011266840847354036
2.456,-0.01126544649586437
2.46,-0.011265662860750697
2.464,-0.01126681680681111
2.468,-0.011267754387985196
2.472,-0.011267682266356419
2.476,-0.01126777842852812
2.48,-0.011268259239386626
2.484,-0.011269605509790441
2.488,-0.011270855618022555
2.492,-0.01127362028045896
2.496,-0.011274918469776926
2.5,-0.01127520695629203
2.504,-0.01127571180769346
2.508,-0.01127571180769346
2.512,-0.011276024334751488
2.516,-0.011277394645698227
2.52,-0.011278187983614761
2.524,-0.01127850051067279
2.528,-0.011279197686417622
2.532,-0.011280567997364363
2.536,-0.011281842146139401
2.54,-0.011282539321884234
2.544,-0.011282322956997907
2.548,-0.01128210659211158
2.552,-0.011282082551568654
2.556,-0.011282443159712533
2.56,-0.011282298916454981
2.564,-0.011281096889308718
2.568,-0.011281096889308718
2.572,-0.011281000727137017
2.576,-0.011281313254195046
2.58,-0.011281193051480419
2.584,-0.011281361335280897
2.588,-0.011281818105596477
2.592,-0.011281673862338925
2.596,-0.01128179406505355
2.6,-0.011282683565141786
2.604,-0.011283260538171993
2.608,-0.011283597105772945
2.612,-0.011283597105772945
2.616,-0.011284077916631451
2.62,-0.011284847214005059
2.624,-0.011285279943777714
2.628,-0.011285424187035266
2.632,-0.011285929038436697
2.636,-0.011286481970923978
2.64,-0.011286746416896155
2.644,-0.011286938741239557
2.648,-0.011286818538524932
2.652,-0.011287371471012213
2.656,-0.011287203187211735
2.66,-0.01128713106558296
2.664,-0.011286938741239557
2.668,-0.011287539754812689
2.672,-0.01128814076838582
2.676,-0.011287756119699016
2.68,-0.011286289646580575
2.684,-0.011285640551921593
2.688,-0.011285929038436697
2.692,-0.011286049241151322
2.696,-0.011286289646580575
2.7,-0.011286097322237173
2.704,-0.011285832876264995
2.708,-0.01128576075463622
2.712,-0.01128590499789377
2.716,-0.0112862175249518
2.72,-0.011287443592640988
2.724,-0.011288765822501878
2.728,-0.011289294714446233
2.732,-0.011288886025216504
2.736,-0.011289679363133038
2.74,-0.011290496741592496
2.744,-0.011290208255077393
2.748,-0.011288886025216504
2.7520000000000002,-0.01128809268729997
2.7560000000000002,-0.011288236930557522
2.7600000000000002,-0.011287804200784866
2.7640000000000002,-0.011286962781782484
2.7680000000000002,-0.011286506011466902
2.7720000000000002,-0.011286145403323023
2.7760000000000002,-0.011286097322237173
2.7800000000000002,-0.01128667429526738
2.7840000000000003,-0.011287467633183914
2.7880000000000003,-0.011287371471012213
2.7920000000000003,-0.011287034903411259
2.7960000000000003,-0.011286241565494725
2.8000000000000003,-0.011286049241151322
2.8040000000000003,-0.01128616944386595
2.8080000000000003,-0.011286938741239557
2.8120000000000003,-0.011287732079156091
2.816,-0.011288381173815074
2.82,-0.011289655322590112
2.824,-0.011290232295620319
2.828,-0.011291145836251478
2.832,-0.011291722809281686
2.836,-0.011292468066112367
2.84,-0.011292636349912845
2.844,-0.011293549890544005
2.848,-0.011294463431175164
2.852,-0.011295112525834147
2.856,-0.011295737579950204
2.86,-0.01129631455298041
2.864,-0.011296338593523336
2.868,-0.011295977985379457
2.872,-0.011295737579950204
2.876,-0.011295064444748296
2.88,-0.011294247066288838
2.884,-0.011294535552803941
2.888,-0.011295040404205372
2.892,-0.011295184647462923
2.896,-0.01129580970157898
2.9,-0.01129626647189456
2.904,-0.011296554958409663
2.908,-0.011296939607096467
2.912,-0.011296699201667215
2.916,-0.011295665458321428
2.92,-0.011295425052892175
2.924,-0.011294703836604417
2.928,-0.011294751917690268
2.932,-0.011295617377235577
2.936,-0.01129590586375068
2.94,-0.011296098188094083
2.944,-0.011296891526010617
2.948,-0.011297468499040822
2.952,-0.011297396377412047
2.956,-0.01129722809361157
2.96,-0.011296795363838916
2.964,-0.01129686748546769
2.968,-0.011297564661212523
2.972,-0.011298309918043207
2.976,-0.011298959012702189
2.98,-0.011299343661388994
2.984,-0.0112999206344192
2.988,-0.011300593769621108
2.992,-0.01130129094536594
2.996,-0.011302348729254652
3.0,-0.0113022044859971
3.004,-0.011302060242739548
3.008,-0.011301627512966893
3.012,-0.011301531350795192
3.016,-0.011302420850883427
3.02,-0.011302396810340502
3.024,-0.01130270933739853
3.028,-0.011302901661741933
3.032,-0.011303142067171186
3.036,-0.011302853580656082
3.04,-0.011302757418484381
3.044,-0.011302781459027305
3.048,-0.011302444891426353
3.052,-0.011302925702284857
3.056,-0.011303093986085335
3.06,-0.011303646918572616
3.064,-0.011303887324001867
3.068,-0.011303959445630644
3.072,-0.011304247932145748
3.076,-0.011304175810516971
3.08,-0.01130463258083255
3.084,-0.011305065310605206
3.088,-0.011305690364721262
3.092,-0.011306531783723647
3.096,-0.011308310783900117
3.1,-0.011308959878559099
3.104,-0.011308767554215697
3.108,-0.0113090560407308
3.112,-0.01130900795964495
3.116,-0.011308839675844472
3.12,-0.01130869543258692
3.124,-0.011307878054127462
3.128,-0.011307757851412836
3.132,-0.011308719473129846
3.136,-0.011309200283988352
3.14,-0.011309344527245902
3.144,-0.011308839675844472
3.148,-0.011307878054127462
3.152,-0.011307541486526507
3.156,-0.01130682027023875
3.16,-0.011306483702637796
3.164,-0.011306627945895348
3.168,-0.011307084716210928
3.172,-0.01130828674335719
3.176,-0.011308479067700593
3.18,-0.011308262702814266
3.184,-0.011308142500099639
3.188,-0.011307878054127462
3.192,-0.011307709770326985
3.196,-0.011307565527069434
3.2,-0.01130732512164018
3.204,-0.011307204918925555
3.208,-0.011307180878382629
3.212,-0.011307637648698209
3.216,-0.011307036635125077
3.22,-0.011307156837839704
3.224,-0.011307060675668003
3.228,-0.011306916432410451
3.232,-0.011306676026981198
3.236,-0.011306964513496302
3.24,-0.011307108756753854
3.244,-0.011307541486526507
3.248,-0.011308046337927938
3.2520000000000002,-0.011308262702814266
3.2560000000000002,-0.011307854013584537
3.2600000000000002,-0.011306724108067049
3.2640000000000002,-0.011305930770150515
3.2680000000000002,-0.011305594202549563
3.2720000000000002,-0.01130535379712031
3.2760000000000002,-0.011305281675491533
3.2800000000000002,-0.011306050972865142
3.2840000000000003,-0.011306892391867525
3.2880000000000003,-0.011307517445983583
3.2920000000000003,-0.011307757851412836
3.2960000000000003,-0.011308142500099639
3.3000000000000003,-0.011308214621728416
3.3040000000000003,-0.011307902094670388
3.3080000000000003,-0.01130773381086991
3.3120000000000003,-0.01130828674335719
3.3160000000000003,-0.01130869543258692
3.3200000000000003,-0.01130869543258692
3.3240000000000003,-0.011308430986614743
3.3280000000000003,-0.01130773381086991
3.332,-0.01130626733775147
3.336,-0.011306243297208543
3.34,-0.011306411581009021
3.344,-0.011306844310781675
3.348,-0.011307204918925555
3.352,-0.01130682027023875
3.356,-0.011306603905352423
3.36,-0.011306026932322216
3.364,-0.011306050972865142
3.368,-0.011305546121463712
3.372,-0.011305642283635411
3.376,-0.011306291378294394
3.38,-0.011307204918925555
3.384,-0.01130727704055433
3.388,-0.01130768572978406
3.392,-0.011308575229872294
3.396,-0.011309440689417603
3.4,-0.011309825338104408
3.404,-0.011310570594935091
3.408,-0.011311484135566251
3.412,-0.011312277473482785
3.416,-0.011312277473482785
3.42,-0.011312181311311084
3.424,-0.011311724540995504
3.428,-0.011311604338280878
3.432,-0.011311099486879446
3.436,-0.011310402311134615
3.44,-0.011309368567788828
3.444,-0.011308887756930322
3.448,-0.011308406946071818
3.452,-0.011308334824443041
3.456,-0.011308214621728416
3.46,-0.011308671392043996
3.464,-0.011308959878559099
3.468,-0.011308262702814266
3.472,-0.01130823866227134
3.476,-0.011307998256842089
3.48,-0.011307613608155284
3.484,-0.011307036635125077
3.488,-0.011306844310781675
3.492,-0.011307301081097256
3.496,-0.011307926135213312
3.5,-0.011309296446160052
3.504,-0.011309873419190259
3.508,-0.011310282108419988
3.512,-0.011310089784076586
3.516,-0.011309753216475633
3.52,-0.011308479067700593
3.524,-0.011307757851412836
3.528,-0.011307517445983583
3.532,-0.011308334824443041
3.536,-0.011310137865162436
3.54,-0.011311724540995504
3.544,-0.01131285444651299
3.548,-0.011313743946601226
3.552,-0.011313647784429524
3.556,-0.01131412859528803
3.56,-0.011314248798002656
3.564,-0.011313551622257823
3.568,-0.011311772622081355
3.572,-0.01130992150027611
3.576,-0.011309392608331753
3.58,-0.01130946472996053
3.584,-0.011309657054303932
3.588,-0.01130992150027611
3.592,-0.011310498473306315
3.596,-0.011311291811222849
3.6,-0.011312061108596458
3.604,-0.011312541919454962
3.608,-0.01131234959511156
3.612,-0.011312013027510608
3.616,-0.011312037068053532
3.62,-0.01131194090588183
3.624,-0.011311820703167205
3.628,-0.011311628378823803
3.632,-0.011311291811222849
3.636,-0.01131097928416482
3.64,-0.011310378270591689
3.644,-0.011310041702990735
3.648,-0.011310618676020942
3.652,-0.011311556257195028
3.656,-0.011312013027510608
3.66,-0.011312013027510608
3.664,-0.011312133230225233
3.668,-0.011311219689594074
3.672,-0.011309272405617127
3.676,-0.011307805932498687
3.68,-0.011306002891779292
3.684,-0.011304872986261804
3.688,-0.01130412772943112
3.692,-0.011303238229342885
3.696,-0.011302901661741933
3.7,-0.011303767121287242
3.704,-0.011304728743004252
3.708,-0.01130581056743589
3.712,-0.011307060675668003
3.716,-0.011307950175756238
3.72,-0.011308815635301547
3.724,-0.011308983919102024
3.728,-0.01130946472996053
3.732,-0.011309536851589305
3.736,-0.011309200283988352
3.74,-0.011308935838016173
3.744,-0.011309104121816651
3.748,-0.011310450392220464
3.7520000000000002,-0.01131266212216959
3.7560000000000002,-0.011313359297914423
3.7600000000000002,-0.011314104554745104
3.7640000000000002,-0.011314224757459732
3.7680000000000002,-0.011314104554745104
3.7720000000000002,-0.0113136237438866
3.7760000000000002,-0.011312782324884215
3.7800000000000002,-0.011312734243798365
3.7840000000000003,-0.011312734243798365
3.7880000000000003,-0.011311460095023327
3.7920000000000003,-0.011310522513849241
3.7960000000000003,-0.01130996958136196
3.8000000000000003,-0.011309657054303932
3.8040000000000003,-0.011308671392043996
3.8080000000000003,-0.011307421283811882
3.8120000000000003,-0.011306483702637796
3.8160000000000003,-0.011306531783723647
3.8200000000000003,-0.01130636349992317
3.8240000000000003,-0.011306195216122694
3.8280000000000003,-0.011306603905352423
3.8320000000000003,-0.011307517445983583
3.8360000000000003,-0.011308358864985968
3.84,-0.01130828674335719
3.844,-0.011308142500099639
3.848,-0.011307854013584537
3.852,-0.01130819058118549
3.856,-0.011308887756930322
3.86,-0.011309200283988352
3.864,-0.011309777257018558
3.868,-0.011310089784076586
3.872,-0.011311291811222849
3.876,-0.011312253432939859
3.88,-0.011313094851942243
3.884,-0.011313743946601226
3.888,-0.011313816068230002
3.892,-0.01131458536560361
3.896,-0.011315619108949397
3.9,-0.011315787392749873
3.904,-0.01131631628469423
3.908,-0.011317542352383417
3.912,-0.011318912663330157
3.916,-0.011319417514731589
3.92,-0.011319177109302336
3.924,-0.011318383771385802
3.928,-0.011318600136272129
3.932,-0.011318335690299951
3.936,-0.011318672257900906
3.94,-0.01131910498767356
3.944,-0.011319465595817438
3.948,-0.011319417514731589
3.952,-0.011319345393102812
3.956,-0.011319273271474037
3.96,-0.011320307014819822
3.964,-0.01132138883925146
3.968,-0.011321989852824592
3.972,-0.01132235046096847
3.976,-0.011322590866397723
3.98,-0.011322638947483574
3.984,-0.011323552488114733
3.988,-0.011324802596346847
3.992,-0.011325403609919979
3.996,-0.011325187245033652
4.0,-0.011324610272003445
4.0040000000000004,-0.011323480366485958
4.008,-0.011322951474541602
4.0120000000000005,-0.011322903393455751
4.016,-0.0113228553123699
4.0200000000000005,-0.011322542785311872
4.024,-0.011322662988026498
4.0280000000000005,-0.011322614906940648
4.032,-0.011322086014996293
4.0360000000000005,-0.01132138883925146
4.04,-0.011321196514908058
4.0440000000000005,-0.011321533082509012
4.048,-0.011321412879794384
4.0520000000000005,-0.011322182177167994
4.056,-0.011322230258253844
4.0600000000000005,-0.011321316717622683
4.064,-0.011320908028392954
4.0680000000000005,-0.011320739744592478
4.072,-0.011320715704049552
4.0760000000000005,-0.011320908028392954
4.08,-0.011320787825678328
4.0840000000000005,-0.011320643582420777
4.088,-0.011321148433822207
4.0920000000000005,-0.011321100352736356
4.096,-0.011320234893191047
4.1,-0.011319297312016962
4.104,-0.01131992236613302
4.108,-0.011320547420249075
4.112,-0.01132093206893588
4.116,-0.011320787825678328
4.12,-0.011320619541877852
4.124,-0.011321148433822207
4.128,-0.011321701366309488
4.132,-0.011321725406852414
4.136,-0.011322158136625068
4.14,-0.011322590866397723
4.144,-0.011322687028569424
4.148,-0.011322518744768946
4.152,-0.01132230237988262
4.156,-0.011322037933910442
4.16,-0.011321460960880235
4.164,-0.011322037933910442
4.168,-0.011322951474541602
4.172,-0.011323047636713303
4.176,-0.01132239854205432
4.18,-0.011322182177167994
4.184,-0.011321581163594862
4.188,-0.011321653285223637
4.192,-0.011322831271826976
4.196,-0.011322951474541602
4.2,-0.011323672690829359
4.204,-0.01132403329897324
4.208,-0.011323985217887389
4.212,-0.011323792893543986
4.216,-0.01132463431254637
4.22,-0.011325403609919979
4.224,-0.01132600462349311
4.228,-0.01132687008303842
4.232,-0.011326846042495495
4.236,-0.011326846042495495
4.24,-0.011326894123581345
4.244,-0.01132768746149788
4.248,-0.011328360596699786
4.252,-0.011328961610272918
4.256,-0.011329394340045573
4.26,-0.011330043434704555
4.264,-0.011331509907822996
4.268,-0.011332519610625856
4.272,-0.011333529313428717
4.276,-0.011334827502746682
4.28,-0.01133550063794859
4.284,-0.01133473134057498
4.288,-0.011334611137860355
4.292,-0.01133514002980471
4.296,-0.01133605357043587
4.3,-0.01133641417857975
4.304,-0.011335813165006618
4.308,-0.011334803462203757
4.312,-0.011334539016231578
4.316,-0.01133554871903444
4.32,-0.011336149732607572
4.324,-0.011337183475953357
4.328,-0.011337952773326967
4.332,-0.011338048935498668
4.336,-0.01133828934092792
4.34,-0.011338313381470845
4.344,-0.01133783257061234
4.348,-0.011337544084097236
4.352,-0.011336846908352405
4.356,-0.011336702665094853
4.36,-0.01133687094889533
4.364,-0.011337087313781656
4.368,-0.011337664286811863
4.372,-0.011337544084097236
4.376,-0.011338000854412817
4.38,-0.011338409543642547
4.384,-0.011337736408440638
4.388,-0.011337952773326967
4.392,-0.011338265300384995
4.396,-0.01133961157078881
4.4,-0.011340741476306296
4.404,-0.011341751179109157
4.408,-0.011343650382000253
4.412,-0.011344131192858759
4.416,-0.011344371598288012
4.42,-0.011344876449689442
4.424,-0.011345958274121078
4.428,-0.011347184341810267
4.432,-0.011346391003893733
4.436,-0.011345453422719648
4.44,-0.011344948571318217
4.444,-0.011346126557921556
4.448,-0.011346799693123463
4.452,-0.011347472828325371
4.456,-0.01134792959864095
4.46,-0.011348170004070204
4.464,-0.011348314247327754
4.468,-0.011348650814928708
4.472,-0.011348097882441427
4.476,-0.011346943936381014
4.48,-0.0113455976659772
4.484,-0.011345886152492303
4.488,-0.011345549584891349
4.492,-0.011345261098376247
4.496,-0.011345886152492303
4.5,-0.011346366963350809
4.5040000000000004,-0.011345838071406452
4.508,-0.011345789990320602
4.5120000000000005,-0.011345862111949379
4.516,-0.01134605443629278
4.5200000000000005,-0.011345285138919171
4.524,-0.011345092814575769
4.5280000000000005,-0.01134463604426019
4.532,-0.011342881084626645
4.5360000000000005,-0.011341174206078952
4.54,-0.011341390570965278
4.5440000000000005,-0.011341630976394531
4.548,-0.011342111787253037
4.5520000000000005,-0.011342881084626645
4.556,-0.011342977246798346
4.5600000000000005,-0.011343025327884197
4.564,-0.011343746544171954
4.5680000000000005,-0.011343674422543179
4.572,-0.011343482098199777
4.5760000000000005,-0.011344107152315833
4.58,-0.011344035030687058
4.5840000000000005,-0.011343337854942225
4.588,-0.01134295320625542
4.5920000000000005,-0.011342833003540794
4.596,-0.0113432176522276
4.6000000000000005,-0.011343289773856374
4.604,-0.011343337854942225
4.6080000000000005,-0.011343073408970047
4.612,-0.01134326573331345
4.616,-0.011343530179285627
4.62,-0.0113433138143993
4.624,-0.011342544517025691
4.628,-0.011342015625081336
4.632,-0.01134285704408372
4.636,-0.011344539882088488
4.64,-0.011346030395749855
4.644,-0.011346583328237136
4.648,-0.011346318882264958
4.652,-0.011345838071406452
4.656,-0.011344780287517741
4.66,-0.011345116855118695
4.664,-0.011345789990320602
4.668,-0.011346366963350809
4.672,-0.01134696797692394
4.676,-0.011347160301267341
4.68,-0.011347040098552716
4.684,-0.011346631409322986
4.688,-0.01134605443629278
4.692,-0.011345741909234751
4.696,-0.011345549584891349
4.7,-0.011345333220005022
4.704,-0.011344467760459713
4.708,-0.011343698463086103
4.712,-0.0113433138143993
4.716,-0.011342015625081336
4.72,-0.011341919462909635
4.724,-0.011341895422366709
4.728,-0.011341558854765756
4.732,-0.011341606935851607
4.736,-0.011341775219652083
4.74,-0.01134158289530868
4.744,-0.011341727138566233
4.748,-0.011341270368250653
4.752,-0.011341438652051129
4.756,-0.011342616638654468
4.76,-0.01134422735503046
4.764,-0.011345357260547946
4.768,-0.011345862111949379
4.772,-0.011345958274121078
4.776,-0.01134742474723952
4.78,-0.011348578693299933
4.784,-0.011348963341986736
4.788,-0.011349396071759391
4.792,-0.011350045166418373
4.796,-0.011350405774562252
4.8,-0.01135103082867831
4.804,-0.011351679923337292
4.808,-0.011351679923337292
4.812,-0.011351752044966067
4.816,-0.011352208815281647
4.82,-0.011352833869397705
4.824,-0.011352713666683077
4.828,-0.011351872247680694
4.832,-0.011351920328766543
4.836,-0.011351199112478786
4.84,-0.011350333652933477
4.844,-0.011350958707049533
4.848,-0.011350958707049533
4.852,-0.011350670220534431
4.856,-0.011350670220534431
4.86,-0.011350117288047148
4.864,-0.011348963341986736
4.868,-0.011347593031039997
4.872,-0.011346222720093257
4.876,-0.011346078476835705
4.88,-0.011346703530951761
4.884,-0.011347040098552716
4.888,-0.011348073841898502
4.892,-0.011348506571671156
4.896,-0.011349396071759391
4.9,-0.011349900923160822
4.904,-0.011349924963703748
4.908,-0.011348915260900885
4.912,-0.011348194044613128
4.916,-0.011347544949954146
4.92,-0.011346823733666389
4.924,-0.011346294841722032
4.928,-0.011344756246974815
4.932,-0.011343073408970047
4.936,-0.011342328152139364
4.94,-0.01134158289530868
4.944,-0.011341270368250653
4.948,-0.011341414611508204
4.952,-0.011341775219652083
4.956,-0.011342833003540794
4.96,-0.011343458057656852
4.964,-0.011343578260371478
4.968,-0.011343986949601207
4.972,-0.01134427543611631
4.976,-0.011343746544171954
4.98,-0.011343746544171954
4.984,-0.011343049368427121
4.988,-0.011341775219652083
4.992,-0.011341054003364326
4.996,-0.01134057319250582
5.0,-0.011341318449336503
5.0040000000000004,-0.011341390570965278
5.008,-0.011341895422366709
5.0120000000000005,-0.011342472395396916
5.016,-0.01134290512516957
5.0200000000000005,-0.011342592598111541
5.024,-0.011342784922454944
5.0280000000000005,-0.011343025327884197
5.032,-0.011342977246798346
5.0360000000000005,-0.011342712800826169
5.04,-0.01134290512516957
5.0440000000000005,-0.011342207949424738
5.048,-0.011342231989967663
5.0520000000000005,-0.01134249643593984
5.056,-0.011342833003540794
5.0600000000000005,-0.011343385936028075
5.064,-0.01134326573331345
5.0680000000000005,-0.011342929165712496
5.072,-0.011342568557568617
5.0760000000000005,-0.011342592598111541
5.08,-0.011343145530598822
5.0840000000000005,-0.011344107152315833
5.088,-0.01134473220643189
5.0920000000000005,-0.011345044733489918
5.096,-0.011345164936204546
5.1000000000000005,-0.011345477463262574
5.104,-0.011345333220005022
5.1080000000000005,-0.011345886152492303
5.112,-0.011346030395749855
5.1160000000000005,-0.011346679490408837
5.12,-0.011346943936381014
5.124,-0.01134641504443666
5.128,-0.011345741909234751
5.132,-0.01134473220643189
5.136,-0.01134473220643189
5.14,-0.011344443719916787
5.144,-0.0113433138143993
5.148,-0.011342231989967663
5.152,-0.011341198246621876
5.156,-0.01134057319250582
5.16,-0.011339900057303912
5.164,-0.011339851976218063
5.168,-0.011339371165359557
5.172,-0.011338698030157648
5.176,-0.011338914395043977
5.18,-0.011338866313958126
5.184,-0.011339010557215678
5.188,-0.011339924097846838
5.192,-0.011339972178932688
5.196,-0.011340380868162418
5.2,-0.011340693395220446
5.204,-0.011340789557392147
5.208,-0.011341005922278475
5.212,-0.011340909760106774
5.216,-0.011341342489879428
5.22,-0.011341342489879428
5.224,-0.011341174206078952
5.228,-0.011340957841192625
5.232,-0.011340885719563848
5.236,-0.011340789557392147
5.24,-0.011340308746533643
5.244,-0.011340092381647314
5.248,-0.01133920288155908
5.252,-0.011338818232872276
5.256,-0.011338577827443023
5.26,-0.011338097016584517
5.264,-0.011338409543642547
5.268,-0.011338505705814248
5.272,-0.011338361462556696
5.276,-0.011338313381470845
5.28,-0.011337736408440638
5.284,-0.011337616205726013
5.288,-0.011337784489526489
5.292,-0.011337183475953357
5.296,-0.011337135394867507
5.3,-0.01133742388138261
5.304,-0.01133838550309962
5.308,-0.011338169138213294
5.312,-0.011338409543642547
5.316,-0.011338866313958126
5.32,-0.011338673989614724
5.324,-0.011338698030157648
5.328,-0.011338217219299144
5.332,-0.011337520043554311
5.336,-0.011337087313781656
5.34,-0.011337688327354788
5.344,-0.011338938435586901
5.348,-0.01133915480047323
5.352,-0.011338698030157648
5.356,-0.011338505705814248
5.36,-0.011338698030157648
5.364,-0.011338722070700575
5.368,-0.011339010557215678
5.372,-0.011339010557215678
5.376,-0.011338818232872276
5.38,-0.011338601867985949
5.384,-0.011338505705814248
5.388,-0.011339226922102005
5.392,-0.011340452989791194
5.396,-0.01134098188173555
5.4,-0.011340789557392147
5.404,-0.011340933800649699
5.408,-0.011340909760106774
5.412,-0.011341342489879428
5.416,-0.011341462692594055
5.42,-0.011341438652051129
5.424,-0.011341775219652083
5.428,-0.011342424314311065
5.432,-0.011341919462909635
5.436,-0.011341462692594055
5.44,-0.011340885719563848
5.444,-0.011340597233048744
5.448,-0.01134057319250582
5.452,-0.011340501070877043
5.456,-0.011340308746533643
5.46,-0.01133956348970296
5.464,-0.011339491368074182
5.468,-0.011339323084273706
5.472,-0.011339948138389762
5.476,-0.011341198246621876
5.48,-0.011341414611508204
5.484,-0.011341414611508204
5.488,-0.011340717435763372
5.492,-0.01134052511141997
5.496,-0.011340092381647314
5.5,-0.011339827935675137
5.5040000000000004,-0.011339058638301529
5.508,-0.01133920288155908
5.5120000000000005,-0.011339900057303912
5.516,-0.011340669354677521
5.5200000000000005,-0.011342424314311065
5.524,-0.011343458057656852
5.5280000000000005,-0.011343914827972432
5.532,-0.011343938868515356
5.5360000000000005,-0.011343337854942225
5.54,-0.011343049368427121
5.5440000000000005,-0.011342881084626645
5.548,-0.011342568557568617
5.5520000000000005,-0.011342664719740318
5.556,-0.01134244835485399
5.5600000000000005,-0.011343025327884197
5.564,-0.011343097449512972
5.5680000000000005,-0.01134249643593984
5.572,-0.011341414611508204
5.5760000000000005,-0.011341342489879428
5.58,-0.011340452989791194
5.5840000000000005,-0.011338553786900098
5.588,-0.011337255597582134
5.5920000000000005,-0.011337231557039208
5.596,-0.011337856611155266
5.6000000000000005,-0.011338097016584517
5.604,-0.011338145097670367
5.6080000000000005,-0.01133879419232935
5.612,-0.01133934712481663
5.6160000000000005,-0.011340020260018539
5.62,-0.011341198246621876
5.6240000000000006,-0.011341751179109157
5.628,-0.011341871381823784
5.632,-0.011342616638654468
5.636,-0.01134295320625542
5.64,-0.011343914827972432
5.644,-0.011345549584891349
5.648,-0.011346511206608359
5.652,-0.011346992017466865
5.656,-0.011348049801355576
5.66,-0.011348530612214082
5.664,-0.011347665152668773
5.668,-0.011346318882264958
5.672,-0.011345573625434275
5.676,-0.011345741909234751
5.68,-0.011345285138919171
5.684,-0.011345501503805498
5.688,-0.011346270801179108
5.692,-0.011347665152668773
5.696,-0.01134884313927211
5.7,-0.011349179706873064
5.704,-0.011349323950130616
5.708,-0.011349468193388168
5.712,-0.011349997085332523
5.716,-0.011350550017819804
5.72,-0.011351607801708515
5.724,-0.011352377099082125
5.728,-0.011353434882970836
5.732,-0.011354612869574173
5.736,-0.01135564661291996
5.74,-0.01135660823463697
5.744,-0.01135665631572282
5.748,-0.011356367829207717
5.752,-0.011355814896720436
5.756,-0.011355766815634586
5.76,-0.011355454288576558
5.764,-0.011355069639889753
5.768,-0.01135518984260438
5.772,-0.011355334085861932
5.776,-0.011355814896720436
5.78,-0.01135559853183411
5.784,-0.01135559853183411
5.788,-0.011356247626493092
5.792,-0.011356175504864315
5.796,-0.011356319748121867
5.8,-0.011357810261783233
5.804,-0.011358699761871469
5.808,-0.01135853147807099
5.812,-0.011357089045495476
5.816,-0.011356247626493092
5.82,-0.01135665631572282
5.824,-0.011356800558980373
5.828,-0.011357040964409626
5.832,-0.01135747369418228
5.836,-0.011357738140154458
5.84,-0.01135838723481344
5.844,-0.011359228653815823
5.848,-0.011360286437704536
5.852,-0.011361344221593248
5.856,-0.011361656748651276
5.86,-0.011361704829737126
5.864,-0.011362426046024884
5.868,-0.011363628073171147
5.872,-0.011363940600229175
5.876,-0.011364902221946187
5.88,-0.011366008086920749
5.884,-0.011366392735607552
5.888,-0.011367426478953339
5.892,-0.011367186073524086
5.896,-0.011367234154609936
5.9,-0.011367402438410414
5.904,-0.011368412141213275
5.908,-0.011369518006187837
5.912,-0.011370888317134576
5.916,-0.011371994182109138
5.92,-0.01137218650645254
5.924,-0.011372715398396897
5.928,-0.011373148128169551
5.932,-0.011373388533598804
5.936,-0.011373797222828533
5.94,-0.01137523965540405
5.944,-0.011376537844722014
5.948,-0.01137651380417909
5.952,-0.011376585925807864
5.956,-0.01137711481775222
5.96,-0.011378052398926305
5.964,-0.01137798027729753
5.968,-0.011377715831325352
5.972,-0.011376994615037593
5.976,-0.011376393601464462
5.98,-0.011376177236578135
5.984,-0.011376802290694191
5.988,-0.01137721097992392
5.992,-0.01137675420960834
5.996,-0.011376105114949358
6.0,-0.011376321479835687
6.0040000000000004,-0.011376008952777657
6.008,-0.011374638641830918
6.0120000000000005,-0.011374638641830918
6.016,-0.011374446317487515
6.0200000000000005,-0.011373965506629011
6.024,-0.011373893385000234
6.0280000000000005,-0.01137386934445731
6.032,-0.011374157830972412
6.0360000000000005,-0.011374494398573366
6.04,-0.01137487904726017
6.0440000000000005,-0.011375095412146497
6.048,-0.011374999249974796
6.0520000000000005,-0.011375047331060647
6.056,-0.011375359858118675
6.0600000000000005,-0.01137574450680548
6.064,-0.01137711481775222
6.0680000000000005,-0.01137725906100977
6.072,-0.01137675420960834
6.0760000000000005,-0.011377138858295145
6.08,-0.0113774754258961
6.0840000000000005,-0.011377042696123444
6.088,-0.01137620127712106
6.0920000000000005,-0.011375359858118675
6.096,-0.011374518439116292
6.1000000000000005,-0.011374181871515338
6.104,-0.011373003884912
6.1080000000000005,-0.011372018222652065
6.112,-0.011372474992967644
6.1160000000000005,-0.011372066303737915
6.12,-0.01137117680364968
6.1240000000000006,-0.011370503668447773
6.128,-0.011370191141389744
6.132000000000001,-0.01137112872256383
6.136,-0.01137163357396526
6.140000000000001,-0.011371753776679885
6.144,-0.011371825898308662
6.148,-0.011371321046907232
6.152,-0.011370551749533622
6.156,-0.011369830533245865
6.16,-0.011369061235872257
6.164,-0.01136898911424348
6.168,-0.011369782452160014
6.172,-0.01136995073596049
6.176,-0.011370479627904847
6.18,-0.011371080641477979
6.184,-0.011371032560392128
6.188,-0.011370936398220427
6.192,-0.011370623871162399
6.196,-0.01136939780347321
6.2,-0.011368916992614705
6.204,-0.011368844870985929
6.208,-0.011368700627728379
6.212,-0.011367666884382592
6.216,-0.011366897587008984
6.22,-0.011366416776150478
6.224,-0.011365575357148093
6.228,-0.011365118586832514
6.232,-0.011365310911175916
6.236,-0.011365815762577346
6.24,-0.01136523878954714
6.244,-0.011365575357148093
6.248,-0.011365960005834898
6.252,-0.011365431113890542
6.256,-0.011364709897602784
6.26,-0.011364012721857952
6.264,-0.011362834735254613
6.268,-0.011361007653992294
6.272,-0.011360647045848415
6.276,-0.011360815329648891
6.28,-0.011360623005305489
6.284,-0.011360815329648891
6.288,-0.011361368262136172
6.292,-0.011362257762224407
6.296,-0.011362810694711688
6.3,-0.011363507870456521
6.304,-0.011364012721857952
6.308,-0.011363988681315025
6.312,-0.011364060802943802
6.316,-0.011364060802943802
6.32,-0.011364132924572577
6.324,-0.011363579992085296
6.328,-0.01136290685688339
6.332,-0.011362474127110734
6.336,-0.011362594329825362
6.34,-0.011363219383941418
6.344,-0.011363796356971625
6.348,-0.011364301208373055
6.352,-0.011365142627375438
6.356,-0.011365455154433468
6.36,-0.011365190708461289
6.364,-0.011364541613802306
6.368,-0.011365527276062243
6.372,-0.01136569555986272
6.376,-0.011365575357148093
6.38,-0.011365984046377823
6.384,-0.011366368695064627
6.388,-0.011366585059950954
6.392,-0.011366657181579731
6.396,-0.011366777384294357
6.4,-0.011366681222122655
6.404,-0.011367498600582115
6.408,-0.011367787087097217
6.412,-0.011368556384470827
6.416,-0.011369614168359538
6.42,-0.0113707200333341
6.424,-0.011370503668447773
6.428,-0.011369590127816612
6.432,-0.01136848426284205
6.436,-0.011367594762753815
6.44,-0.01136701778972361
6.444,-0.011367618803296741
6.448,-0.011368628506099602
6.452,-0.01136925356021566
6.456,-0.011369830533245865
6.46,-0.011369782452160014
6.464,-0.011370046898132192
6.468,-0.011370551749533622
6.472,-0.011369373762930285
6.476,-0.011368748708814227
6.48,-0.011368748708814227
6.484,-0.011368388100670349
6.488,-0.01136752264112504
6.492,-0.011368147695241096
6.496,-0.011368700627728379
6.5,-0.011367498600582115
6.5040000000000004,-0.011366536978865104
6.508,-0.011365671519319795
6.5120000000000005,-0.011365214749004215
6.516,-0.01136483010031741
6.5200000000000005,-0.011363940600229175
6.524,-0.01136382039751455
6.5280000000000005,-0.011364637775974008
6.532,-0.011365671519319795
6.5360000000000005,-0.011365887884206121
6.54,-0.011365455154433468
6.5440000000000005,-0.011365214749004215
6.548,-0.011365070505746663
6.5520000000000005,-0.011364661816516934
6.556,-0.011364517573259382
6.5600000000000005,-0.011365022424660812
6.564,-0.011365455154433468
6.5680000000000005,-0.011365455154433468
6.572,-0.011364589694888157
6.5760000000000005,-0.01136391655968625
6.58,-0.011363772316428699
6.5840000000000005,-0.011363387667741894
6.588,-0.011363195343398493
6.5920000000000005,-0.011363171302855567
6.596,-0.011363628073171147
6.6000000000000005,-0.011363892519143326
6.604,-0.01136442141108768
6.6080000000000005,-0.011364757978688635
6.612,-0.011364685857059858
6.6160000000000005,-0.011363988681315025
6.62,-0.01136483010031741
6.6240000000000006,-0.011365431113890542
6.628,-0.01136533495171884
6.632000000000001,-0.011365190708461289
6.636,-0.011366272532892926
6.640000000000001,-0.01136757072221089
6.644,-0.011368291938498648
6.648000000000001,-0.011368556384470827
6.652,-0.011368508303384976
6.656000000000001,-0.011369277600758584
6.66,-0.011369662249445389
6.664,-0.011369878614331716
6.668,-0.011370311344104371
6.672,-0.01137067195224825
6.676,-0.011371008519849204
6.68,-0.011370647911705323
6.684,-0.011370912357677503
6.688,-0.011370912357677503
6.692,-0.011371321046907232
6.696,-0.011371994182109138
6.7,-0.011373148128169551
6.704,-0.011373220249798328
6.708,-0.011373172168712477
6.712,-0.011372979844369075
6.716,-0.0113729077227403
6.72,-0.011373845303914384
6.724,-0.01137391742554316
6.728,-0.011373508736313431
6.732,-0.011372931763283224
6.736,-0.011372306709167168
6.74,-0.011371946101023288
6.744,-0.011371873979394513
6.748,-0.011371705695594037
6.752,-0.01137218650645254
6.756,-0.01137259519568227
6.76,-0.011373508736313431
6.764,-0.011374061668800712
6.768,-0.011373845303914384
6.772,-0.01137360489848513
6.776,-0.011372835601111523
6.78,-0.011371922060480363
6.784,-0.011371080641477979
6.788,-0.011371946101023288
6.792,-0.011373003884912
6.796,-0.011373340452512953
6.8,-0.01137386934445731
6.804,-0.011374278033687039
6.808,-0.011374398236401665
6.812,-0.011374278033687039
6.816,-0.01137432611477289
6.82,-0.011374494398573366
6.824,-0.01137360489848513
6.828,-0.01137254711459642
6.832,-0.011371825898308662
6.836,-0.011372162465909616
6.84,-0.01137360489848513
6.844,-0.011375095412146497
6.848,-0.011375888750063031
6.852,-0.011376008952777657
6.856,-0.011375047331060647
6.86,-0.011374590560745067
6.864,-0.011374422276944591
6.868,-0.011374013587714862
6.872,-0.011374205912058262
6.876,-0.011374903087803095
6.88,-0.01137584066897718
6.884,-0.011376105114949358
6.888,-0.011376321479835687
6.892,-0.011376922493408818
6.896,-0.011377355223181472
6.9,-0.011377595628610725
6.904,-0.01137716289883807
6.908,-0.01137721097992392
6.912,-0.01137716289883807
6.916,-0.011376922493408818
6.92,-0.011377739871868277
6.924,-0.011379302507158419
6.928,-0.011380696858648084
6.932,-0.011381442115478767
6.936,-0.01138136999384999
6.94,-0.011381009385706112
6.944,-0.011380528574847608
6.948,-0.011379278466615494
6.952,-0.011377547547524874
6.956,-0.011376874412322968
6.96,-0.011376922493408818
6.964,-0.011377355223181472
6.968,-0.011377763912411201
6.972,-0.011378316844898484
6.976,-0.01137944675041597
6.98,-0.01138117766950659
6.984,-0.011382860507511357
6.988,-0.01138360576434204
6.992,-0.011383677885970818
6.996,-0.011384038494114696
7.0,-0.011384855872574155
7.0040000000000004,-0.011385601129404838
7.008,-0.011386394467321372
7.0120000000000005,-0.011386779116008175
7.016,-0.011386851237636952
7.0200000000000005,-0.011387428210667157
7.024,-0.011387981143154438
7.0280000000000005,-0.011388798521613898
7.032,-0.011388726399985121
7.0360000000000005,-0.011388413872927093
7.04,-0.011388101345869065
7.0440000000000005,-0.01138716376469498
7.048,-0.011385721332119464
7.0520000000000005,-0.011384807791488304
7.056,-0.011384375061715649
7.0600000000000005,-0.0113843269806298
7.064,-0.0113845193049732
7.0680000000000005,-0.011384567386059051
7.072,-0.0113845193049732
7.0760000000000005,-0.01138478375094538
7.08,-0.011385168399632183
7.0840000000000005,-0.01138533668343266
7.088,-0.011385865575377015
7.0920000000000005,-0.011385961737548717
7.096,-0.011386226183520894
7.1000000000000005,-0.011386538710578924
7.104,-0.011387019521437428
7.1080000000000005,-0.01138766861609641
7.112,-0.011388029224240289
7.1160000000000005,-0.01138853407564172
7.12,-0.011388510035098795
7.1240000000000006,-0.01138762053501056
7.128,-0.011385913656462866
7.132000000000001,-0.011384663548230752
7.136,-0.011384447183344425
7.140000000000001,-0.01138447122388735
7.144,-0.0113843269806298
7.148000000000001,-0.011384206777915172
7.152,-0.011384182737372248
7.156000000000001,-0.011384543345516127
7.16,-0.011384855872574155
7.164000000000001,-0.011384927994202931
7.168,-0.011385264561803884
7.172,-0.011385553048318987
7.176,-0.011385937697005792
7.18,-0.011386370426778446
7.184,-0.011386418507864296
7.188,-0.011386947399808653
7.192,-0.01138762053501056
7.196,-0.01138771669718226
7.2,-0.011387981143154438
7.204,-0.011388678318899271
7.208,-0.011389591859530432
7.212,-0.011389159129757777
7.216,-0.011388558116184645
7.22,-0.011388413872927093
7.224,-0.011389135089214852
7.228,-0.011389712062245058
7.232,-0.01138935145410118
7.236,-0.011389303373015329
7.24,-0.011388750440528048
7.244,-0.011388750440528048
7.248,-0.011388510035098795
7.252,-0.011388389832384169
7.256,-0.01138817346749784
7.26,-0.01138939953518703
7.264,-0.011390793886676695
7.268,-0.011391659346222004
7.272,-0.011391659346222004
7.276,-0.011391154494820574
7.28,-0.011390890048848397
7.284,-0.01139182763002248
7.288,-0.011392260359795136
7.292,-0.011392620967939015
7.296,-0.01139254884631024
7.3,-0.01139223631925221
7.304,-0.011391659346222004
7.308,-0.01139209207599466
7.312,-0.011393438346398473
7.316,-0.011394303805943784
7.32,-0.011394784616802288
7.324,-0.01139497694114569
7.328,-0.01139497694114569
7.332,-0.01139406340051453
7.336,-0.011393582589656025
7.34,-0.011393462386941399
7.344,-0.011393534508570174
7.348,-0.011394159562686232
7.352,-0.011393702792370652
7.356,-0.011393173900426296
7.36,-0.01139310177879752
7.364,-0.011392861373368268
7.368,-0.011392957535539969
7.372,-0.011392717130110716
7.376,-0.011391947832737108
7.38,-0.011391755508393706
7.384,-0.011392428643595612
7.388,-0.011393149859883371
7.392,-0.011393798954542353
7.396,-0.011394303805943784
7.4,-0.011394616333001812
7.404,-0.011395000981688616
7.408,-0.011395121184403242
7.412,-0.01139502502223154
7.416,-0.011394327846486708
7.42,-0.011394231684315007
7.424,-0.01139442400865841
7.428,-0.01139538563037542
7.432,-0.011396034725034402
7.436,-0.011396034725034402
7.44,-0.011395121184403242
7.444,-0.011394183603229156
7.448,-0.011395337549289569
7.452,-0.01139675594132216
7.456,-0.011397573319781619
7.46,-0.011397789684667946
7.464,-0.011397501198152844
7.468,-0.011397429076524067
7.472,-0.011397525238695768
7.476,-0.011397549279238695
7.48,-0.01139762140086747
7.484,-0.011398006049554274
7.488,-0.011397957968468424
7.492,-0.011397573319781619
7.496,-0.0113981262522689
7.5,-0.011399159995614687
7.5040000000000004,-0.011400458184932651
7.508,-0.011400554347104352
7.5120000000000005,-0.011400746671447753
7.516,-0.011400602428190201
7.5200000000000005,-0.011400554347104352
7.524,-0.01140077071199068
7.5280000000000005,-0.011401299603935034
7.532,-0.011401419806649661
7.5360000000000005,-0.01140137172556381
7.54,-0.01140132364447796
7.5440000000000005,-0.011401756374250616
7.548,-0.011402020820222793
7.5520000000000005,-0.01140228526619497
7.556,-0.011403054563568578
7.5600000000000005,-0.011403367090626608
7.564,-0.011404040225828515
7.5680000000000005,-0.011403871942028038
7.572,-0.011404737401573347
7.5760000000000005,-0.011405242252974778
7.58,-0.011405723063833284
7.5840000000000005,-0.011406516401749818
7.588,-0.011406372158492266
7.5920000000000005,-0.011406420239578116
7.596,-0.011407189536951724
7.6000000000000005,-0.011407790550524856
7.604,-0.0114072616585805
7.6080000000000005,-0.011407333780209276
7.612,-0.011408103077582884
7.6160000000000005,-0.011408319442469212
7.62,-0.01140781459106778
7.6240000000000006,-0.011407574185638529
7.628,-0.011407285699123425
7.632000000000001,-0.011406540442292742
7.636,-0.011405674982747433
7.640000000000001,-0.011404617198858722
7.644,-0.011403679617684636
7.648000000000001,-0.011402453549995447
7.652,-0.011400938995791155
7.656000000000001,-0.011400890914705305
7.66,-0.011400890914705305
7.664000000000001,-0.0114004101038468
7.668,-0.011400842833619454
7.672000000000001,-0.01140132364447796
7.676,-0.01140173233370769
7.68,-0.011402573752710074
7.684,-0.011403487293341234
7.688,-0.011404689320487497
7.692,-0.011405170131346003
7.696,-0.011405218212431853
7.7,-0.011405458617861105
7.704,-0.011405795185462059
7.708,-0.011405578820575732
7.712,-0.011405146090803077
7.716,-0.011405362455689405
7.72,-0.011405314374603555
7.724,-0.01140492972591675
7.728,-0.011404809523202122
7.732,-0.011404641239401646
7.736,-0.0114048816448309
7.74,-0.011404905685373824
7.744,-0.011404785482659198
7.748,-0.011405362455689405
7.752,-0.011405699023290358
7.756,-0.011405170131346003
7.76,-0.01140420850962899
7.764,-0.011403847901485112
7.768,-0.011402645874338849
7.772,-0.011401564049907213
7.776,-0.011400746671447753
7.78,-0.011400722630904829
7.784,-0.011400626468733127
7.788,-0.011400722630904829
7.792,-0.011401011117419932
7.796,-0.011401756374250616
7.8,-0.011402573752710074
7.804,-0.0114026939554247
7.808,-0.011402838198682251
7.812,-0.011402838198682251
7.816,-0.01140396810419974
7.82,-0.011405194171888927
7.824,-0.011405458617861105
7.828,-0.011405723063833284
7.832,-0.011405963469262537
7.836,-0.011406612563921517
7.84,-0.011407021253151248
7.844,-0.011407405901838051
7.848,-0.011408030955954109
7.852,-0.011407958834325332
7.856,-0.011408367523555063
7.86,-0.011409016618214043
7.864,-0.011409689753415952
7.868,-0.01141045905078956
7.872,-0.01141132451033487
7.876,-0.011411901483365076
7.88,-0.011412165929337253
7.884,-0.011412406334766506
7.888,-0.011413488159198144
7.892,-0.011414017051142498
7.896,-0.011414449780915154
7.9,-0.01141493059177366
7.904,-0.011414521902543929
7.908,-0.011413776645713247
7.912,-0.011413223713225965
7.916,-0.011413031388882564
7.92,-0.011412983307796713
7.924,-0.011412550578024058
7.928,-0.011412069767165552
7.932,-0.01141218996988018
7.936,-0.011411901483365076
7.94,-0.011411300469791944
7.944,-0.011410987942733916
7.948,-0.011412021686079701
7.952,-0.01141269482128161
7.956,-0.011411973604993852
7.96,-0.011411588956307048
7.964,-0.011411084104905617
7.968,-0.011410531172418336
7.972,-0.011409858037216428
7.976,-0.01140949742907255
7.98,-0.011410098442645681
7.984,-0.011409737834501802
7.988,-0.011410098442645681
7.992,-0.011410146523731532
7.996,-0.011409305104729147
8.0,-0.011408271361383362
8.004,-0.011406684685550294
8.008000000000001,-0.011406011550348386
8.012,-0.011406949131522471
8.016,-0.011407526104552678
8.02,-0.011408247320840436
8.024000000000001,-0.01140949742907255
8.028,-0.011410386929160785
8.032,-0.01141142067250657
8.036,-0.0114118293617363
8.040000000000001,-0.011411925523908002
8.044,-0.011411300469791944
8.048,-0.011411204307620243
8.052,-0.011411997645536777
8.056000000000001,-0.01141228613205188
8.06,-0.011411853402279225
8.064,-0.011411685118478749
8.068,-0.011411156226534392
8.072000000000001,-0.011410819658933438
8.076,-0.01141096390219099
8.08,-0.011410675415675888
8.084,-0.011410843699476364
8.088000000000001,-0.01141146875359242
8.092,-0.0114117331995646
8.096,-0.011411180267077319
8.1,-0.011410891780562215
8.104000000000001,-0.011411108145448542
8.108,-0.01141132451033487
8.112,-0.011411492794135347
8.116,-0.011411540875221197
8.120000000000001,-0.011411637037392898
8.124,-0.011411901483365076
8.128,-0.011411805321193375
8.132,-0.011411612996849972
8.136000000000001,-0.0114118293617363
8.14,-0.011411877442822151
8.144,-0.011411925523908002
8.148,-0.011412165929337253
8.152000000000001,-0.01141269482128161
8.156,-0.011413968970056648
8.16,-0.011414954632316584
8.164,-0.011416276862177473
8.168000000000001,-0.011417238483894485
8.172,-0.011416974037922306
8.176,-0.011416084537834072
8.18,-0.011414858470144883
8.184000000000001,-0.01141315159159719
8.188,-0.011412093807708478
8.192,-0.011411348550877795
8.196,-0.011411204307620243
8.2,-0.011411108145448542
8.204,-0.01141101198327684
8.208,-0.011411492794135347
8.212,-0.011412983307796713
8.216,-0.01141488251068781
8.22,-0.011415916254033594
8.224,-0.01141690191629353
8.228,-0.011417551010952513
8.232,-0.011417382727152037
8.236,-0.011417166362265708
8.24,-0.011416925956836455
8.244,-0.01141594029457652
8.248,-0.011414449780915154
8.252,-0.01141365644299862
8.256,-0.011413584321369845
8.26,-0.011413223713225965
8.264,-0.011413175632140116
8.268,-0.011413872807884947
8.272,-0.011413968970056648
8.276,-0.011414065132228349
8.28,-0.011413968970056648
8.284,-0.01141497867285951
8.288,-0.011415291199917538
8.292,-0.011415195037745837
8.296,-0.011415507564803865
8.3,-0.011415603726975566
8.304,-0.011415747970233118
8.308,-0.011415507564803865
8.312,-0.011415459483718015
8.316,-0.01141543544317509
8.32,-0.01141507483503121
8.324,-0.01141512291611706
8.328,-0.011415098875574136
8.332,-0.011415098875574136
8.336,-0.011415868172947744
8.34,-0.011416469186520875
8.344,-0.011416373024349174
8.348,-0.011414786348516108
8.352,-0.011412935226710863
8.356,-0.011411637037392898
8.36,-0.011410579253504187
8.364,-0.011410338848074934
8.368,-0.011410026321016906
8.372,-0.011409906118302279
8.376,-0.01140949742907255
8.38,-0.011410218645360307
8.384,-0.01141127642924902
8.388,-0.01141045905078956
8.392,-0.011409882077759354
8.396,-0.011409521469615476
8.4,-0.011408872374956493
8.404,-0.01140858388844139
8.408,-0.01140853580735554
8.412,-0.011409016618214043
8.416,-0.01140949742907255
8.42,-0.011409377226357924
8.424,-0.011409809956130577
8.428,-0.0114095455101584
8.432,-0.011409353185814998
8.436,-0.011409569550701326
8.44,-0.011409377226357924
8.444,-0.011409449347986699
8.448,-0.011409521469615476
8.452,-0.011409689753415952
8.456,-0.011410435010246635
8.46,-0.011410867740019289
8.464,-0.011411204307620243
8.468,-0.01141178128065045
8.472,-0.011412718861824534
8.476,-0.0114141132133142
8.48,-0.011414377659286379
8.484,-0.011414786348516108
8.488,-0.011416036456748222
8.492,-0.011416276862177473
8.496,-0.01141634898380625
8.5,-0.011416373024349174
8.504,-0.011416709591950128
8.508000000000001,-0.011417454848780812
8.512,-0.011418200105611495
8.516,-0.011418993443528029
8.52,-0.01141995506524504
8.524000000000001,-0.01142055607881817
8.528,-0.011420796484247424
8.532,-0.011421613862706882
8.536,-0.011421589822163958
8.540000000000001,-0.011421445578906406
8.544,-0.011420772443704498
8.548,-0.011420532038275245
8.552,-0.011420748403161573
8.556000000000001,-0.011420483957189394
8.56,-0.011420075267959665
8.564,-0.011420676281532796
8.568,-0.011421205173477153
8.572000000000001,-0.011421036889676675
8.576,-0.01142101284913375
8.58,-0.011421229214020077
8.584,-0.011421277295105928
8.588000000000001,-0.011421349416734705
8.592,-0.011421181132934227
8.596,-0.011421157092391302
8.6,-0.011421084970762526
8.604000000000001,-0.01142091668696205
8.608,-0.011420940727504976
8.612,-0.01142142153836348
8.616,-0.011421661943792733
8.620000000000001,-0.011421253254563004
8.624,-0.011420676281532796
8.628,-0.011420483957189394
8.632,-0.011419786781444563
8.636000000000001,-0.011419474254386533
8.64,-0.01141949829492946
8.644,-0.011419113646242655
8.648,-0.011419522335472384
8.652000000000001,-0.01142000314633089
8.656,-0.0114209647680479
8.66,-0.011421998511393687
8.664,-0.011422551443880968
8.668000000000001,-0.011423032254739472
8.672,-0.0114232486196258
8.676,-0.011422262957365864
8.68,-0.011421205173477153
8.684000000000001,-0.011420988808590826
8.688,-0.011420195470674292
8.692,-0.01142000314633089
8.696,-0.011419738700358712
8.700000000000001,-0.01141904152461388
8.704,-0.011418608794841224
8.708,-0.011419402132757758
8.712,-0.011419882943616263
8.716,-0.011420219511217217
8.72,-0.01142000314633089
8.724,-0.011420027186873814
8.728,-0.01142055607881817
8.732,-0.011421084970762526
8.736,-0.011422022551936611
8.74,-0.011422527403338042
8.744,-0.01142243124116634
8.748,-0.011422527403338042
8.752,-0.011422046592479538
8.756,-0.011422094673565388
8.76,-0.01142274376822437
8.764,-0.011422551443880968
8.768,-0.01142288801148192
8.772,-0.011423801552113082
8.776,-0.011424811254915943
8.78,-0.01142507570088812
8.784,-0.01142598924151928
8.788,-0.01142644601183486
8.792,-0.011427551876809423
8.796,-0.011428561579612284
8.8,-0.01142923471481419
8.804,-0.011429018349927864
8.808,-0.011428369255268881
8.812,-0.01142872986341276
8.816,-0.011428970268842013
8.82,-0.011428874106670312
8.824,-0.011429042390470788
8.828,-0.0114300040121878
8.832,-0.011430172295988276
8.836,-0.011430028052730724
8.84,-0.011429451079700517
8.844,-0.011428249052554254
8.848,-0.011428176930925479
8.852,-0.011427744201152824
8.856,-0.0114278163227816
8.86,-0.01142832117418303
8.864,-0.011428801985041537
8.868,-0.011428609660698134
8.872,-0.011428922187756162
8.876,-0.011429499160786368
8.88,-0.011429451079700517
8.884,-0.011428922187756162
8.888,-0.011428801985041537
8.892,-0.011429619363500995
8.896,-0.011429859768930248
8.9,-0.011429258755357117
8.904,-0.011429210674271266
8.908,-0.011428705822869836
8.912,-0.011428922187756162
8.916,-0.011429042390470788
8.92,-0.011429042390470788
8.924,-0.011428393295811806
8.928,-0.01142735955246602
8.932,-0.011427143187579692
8.936,-0.011426998944322142
8.94,-0.011425844998261728
8.944,-0.011424979538716419
8.948,-0.01142457084948669
8.952,-0.011424210241342811
8.956,-0.011423777511570156
8.96,-0.011423633268312604
8.964,-0.011423296700711651
8.968,-0.011423945795370634
8.972,-0.011424450646772064
8.976,-0.011425219944145672
8.98,-0.01142603732260513
8.984,-0.011426325809120234
8.988,-0.011427623998438198
8.992,-0.011428994309384937
8.996,-0.011428850066127386
9.0,-0.011428176930925479
9.004,-0.011427455714637722
9.008000000000001,-0.01142685470106459
9.012,-0.011426734498349963
9.016,-0.011426830660521664
9.02,-0.011428080768753778
9.024000000000001,-0.01142832117418303
9.028,-0.011427167228122618
9.032,-0.011427503795723572
9.036,-0.0114277201606099
9.040000000000001,-0.011427648038981122
9.044,-0.011427527836266497
9.048,-0.011427383593008945
9.052,-0.011427335511923094
9.056000000000001,-0.01142639793074901
9.06,-0.011424835295458867
9.064,-0.011423537106140903
9.068,-0.011422719727681444
9.072000000000001,-0.011421710024878583
9.076,-0.011420628200446946
9.08,-0.011419858903073338
9.084,-0.011420123349045515
9.088000000000001,-0.011421301335648854
9.092,-0.01142283993039607
9.096,-0.011424090038628184
9.1,-0.011424859336001793
9.104000000000001,-0.011425099741431046
9.108,-0.011424811254915943
9.112,-0.011424715092744241
9.116,-0.011424811254915943
9.120000000000001,-0.011425051660345195
9.124,-0.011425003579259345
9.128,-0.011425772876632953
9.132,-0.011426518133463636
9.136000000000001,-0.011427047025407991
9.14,-0.011427696120066973
9.144,-0.011427912484953302
9.148,-0.011427936525496226
9.152000000000001,-0.011428056728210853
9.156,-0.011428801985041537
9.16,-0.011429547241872218
9.164,-0.011429018349927864
9.168000000000001,-0.011428585620155208
9.172,-0.011429451079700517
9.176,-0.011429979971644874
9.18,-0.011429571282415145
9.184000000000001,-0.011429475120243443
9.188,-0.011429475120243443
9.192,-0.011429499160786368
9.196,-0.011429018349927864
9.200000000000001,-0.011428970268842013
9.204,-0.01142872986341276
9.208,-0.011428249052554254
9.212,-0.011427888444410375
9.216000000000001,-0.011428176930925479
9.22,-0.011428994309384937
9.224,-0.011429090471556639
9.228,-0.011428801985041537
9.232,-0.011428513498526433
9.236,-0.011428176930925479
9.24,-0.011428705822869836
9.244,-0.011428609660698134
9.248,-0.011428874106670312
9.252,-0.011430220377074127
9.256,-0.011431326242048689
9.26,-0.011431614728563792
9.264,-0.011432287863765699
9.268,-0.011432408066480326
9.272,-0.011432816755710055
9.276,-0.011433177363853934
9.28,-0.011433105242225157
9.284,-0.011432552309737876
9.288,-0.011431542606935016
9.292,-0.011431807052907195
9.296,-0.011431614728563792
9.3,-0.011432263823222774
9.304,-0.011432648471909578
9.308,-0.011432768674624205
9.312,-0.011432960998967607
9.316,-0.011432936958424681
9.32,-0.011432576350280802
9.324,-0.01143137432313454
9.328,-0.011430436741960454
9.332,-0.011429931890559023
9.336,-0.0114301001743595
9.34,-0.011430172295988276
9.344,-0.011430580985218005
9.348,-0.011430701187932631
9.352,-0.01143046078250338
9.356,-0.011430821390647258
9.36,-0.011431734931278418
9.364,-0.011432023417793521
9.368,-0.011432047458336446
9.372,-0.01143187917453597
9.376,-0.011431133917705286
9.38,-0.011431542606935016
9.384,-0.01143187917453597
9.388,-0.011431446444763314
9.392,-0.011430484823046304
9.396,-0.0114300040121878
9.4,-0.011429763606758547
9.404,-0.011430941593361884
9.408,-0.01143142240422039
9.412,-0.01143050886358923
9.416,-0.011430388660874603
9.42,-0.011430484823046304
9.424,-0.011430605025760932
9.428,-0.01142969148512977
9.432,-0.011429306836442967
9.436,-0.011429378958071742
9.44,-0.011429883809473173
9.444,-0.0114301963365312
9.448,-0.011430845431190183
9.452,-0.01143101371499066
9.456,-0.011431614728563792
9.46,-0.011431133917705286
9.464,-0.011430797350104332
9.468,-0.01143050886358923
9.472,-0.011430220377074127
9.476,-0.011430725228475557
9.48,-0.011431109877162362
9.484,-0.011431133917705286
9.488,-0.011431181998791137
9.492,-0.011430532904132155
9.496,-0.011430052093273649
9.5,-0.011430124214902426
9.504,-0.01143014825544535
9.508000000000001,-0.011430797350104332
9.512,-0.01143233594485155
9.516,-0.01143361009362659
9.52,-0.011433706255798289
9.524000000000001,-0.011433586053083663
9.528,-0.011434331309914347
9.532,-0.011435461215431833
9.536,-0.01143558141814646
9.540000000000001,-0.011436230512805443
9.544,-0.011436615161492247
9.548,-0.011436639202035172
9.552,-0.011436855566921499
9.556000000000001,-0.01143599010737619
9.56,-0.011435172728916731
9.564,-0.011434547674800673
9.568,-0.011434379391000197
9.572000000000001,-0.011434475553171898
9.576,-0.011435341012717207
9.58,-0.01143553333706061
9.584,-0.011436062229004965
9.588000000000001,-0.011435893945204488
9.592,-0.01143608626954789
9.596,-0.011435845864118638
9.6,-0.011435100607287954
9.604000000000001,-0.0114346678775153
9.608,-0.01143507656674503
9.612,-0.011435196769459656
9.616,-0.01143507656674503
9.620000000000001,-0.011434427472086048
9.624,-0.011434691918058225
9.628,-0.011435869904661564
9.632,-0.011436975769636126
9.636000000000001,-0.011436783445292724
9.64,-0.011436687283121022
9.644,-0.011436783445292724
9.648,-0.011436422837148845
9.652000000000001,-0.011436422837148845
9.656,-0.011436278593891293
9.66,-0.011436158391176666
9.664,-0.011435942026290339
9.668000000000001,-0.011435316972174283
9.672,-0.011434379391000197
9.676,-0.011433201404396858
9.68,-0.01143288887733883
9.684000000000001,-0.011432864836795906
9.688,-0.01143385049905584
9.692,-0.011434283228828496
9.696,-0.01143380241796999
9.700000000000001,-0.011433946661227542
9.704,-0.011434379391000197
9.708,-0.011434691918058225
9.712,-0.011434812120772853
9.716000000000001,-0.011434908282944552
9.72,-0.011434788080229926
9.724,-0.011434788080229926
9.728,-0.011434908282944552
9.732,-0.011434812120772853
9.736,-0.011435605458689385
9.74,-0.011435966066833265
9.744,-0.011435461215431833
9.748,-0.011434235147742645
9.752,-0.011433369688197336
9.756,-0.011432696552995428
9.76,-0.011431662809649643
9.764,-0.011431085836619436
9.768,-0.011429931890559023
9.772,-0.011428633701241059
9.776,-0.011426686417264112
9.78,-0.011425700755004178
9.784,-0.01142603732260513
9.788,-0.011425676714461252
9.792,-0.011425508430660775
9.796,-0.0114255324712037
9.8,-0.011426013282062206
9.804,-0.011425700755004178
9.808,-0.011425652673918327
9.812,-0.011425772876632953
9.816,-0.011425796917175879
9.82,-0.011426157525319757
9.824,-0.01142603732260513
9.828,-0.01142598924151928
9.832,-0.011425508430660775
9.836,-0.01142512378197397
9.84,-0.011425003579259345
9.844,-0.011425195903602747
9.848,-0.011426734498349963
9.852,-0.011428417336354732
9.856,-0.011428417336354732
9.86,-0.011428465417440583
9.864,-0.01142776824169575
9.868,-0.011427888444410375
9.872,-0.011427455714637722
9.876,-0.011426277728034383
9.88,-0.011426157525319757
9.884,-0.01142644601183486
9.888,-0.011426614295635337
9.892,-0.011426566214549487
9.896,-0.011425364187403224
9.9,-0.011423969835913558
9.904,-0.011423489025055052
9.908,-0.011423272660168725
9.912,-0.011424210241342811
9.916,-0.01142507570088812
9.92,-0.011425796917175879
9.924,-0.011425965200976355
9.928,-0.011425893079347578
9.932,-0.011426830660521664
9.936,-0.01142776824169575
9.94,-0.011427383593008945
9.944,-0.011427960566039152
9.948,-0.011427623998438198
9.952,-0.011428200971468405
9.956,-0.011428970268842013
9.96,-0.011429258755357117
9.964,-0.011429378958071742
9.968,-0.011430244417617051
9.972,-0.011430845431190183
9.976,-0.011431446444763314
9.98,-0.01143142240422039
9.984,-0.011431061796076511
9.988,-0.011431302201505763
9.992,-0.011431037755533585
9.996,-0.011430484823046304
10.0,-0.011429763606758547
10.004,-0.011429210674271266
10.008000000000001,-0.011429763606758547
10.012,-0.011430629066303856
10.016,-0.011431350282591613
10.02,-0.011431662809649643
10.024000000000001,-0.011431831093450119
10.028,-0.011432359985394476
10.032,-0.011432528269194952
10.036,-0.011431230079876988
10.040000000000001,-0.011430172295988276
10.044,-0.011430292498702902
10.048,-0.01143046078250338
10.052,-0.011430773309561408
10.056000000000001,-0.011430893512276033
10.06,-0.01143142240422039
10.064,-0.011431566647477942
10.068,-0.01143137432313454
10.072000000000001,-0.011431302201505763
10.076,-0.011430244417617051
10.08,-0.011429571282415145
10.084,-0.011429571282415145
10.088000000000001,-0.01142872986341276
10.092,-0.01142827309309718
10.096,-0.01142822501201133
10.1,-0.011428297133640105
10.104000000000001,-0.011428200971468405
10.108,-0.011429018349927864
10.112,-0.011430244417617051
10.116,-0.01143014825544535
10.120000000000001,-0.011429330876985892
10.124,-0.011429042390470788
10.128,-0.011428970268842013
10.132,-0.01142822501201133
10.136000000000001,-0.011428104809296704
10.14,-0.01142969148512977
10.144,-0.011430821390647258
10.148,-0.011431686850192567
10.152000000000001,-0.011432143620508147
10.156,-0.011431855133993044
10.16,-0.011431734931278418
10.164,-0.011431807052907195
10.168000000000001,-0.011431206039334063
10.172,-0.011431061796076511
10.176,-0.011431254120419912
10.18,-0.011430869471733109
10.184000000000001,-0.01143014825544535
10.188,-0.01143096563390481
10.192,-0.011432023417793521
10.196,-0.011433489890911962
10.200000000000001,-0.011433946661227542
10.204,-0.011434427472086048
10.208,-0.011435052526202104
10.212,-0.011436110310090815
10.216000000000001,-0.011436879607464425
10.22,-0.011437985472438987
10.224,-0.01143791335081021
10.228,-0.011437432539951706
10.232000000000001,-0.01143786526972436
10.236,-0.011438370121125791
10.24,-0.011438442242754567
10.244,-0.011438081634610688
10.248,-0.011437576783209258
10.252,-0.011437240215608303
10.256,-0.011437216175065379
10.26,-0.011437095972350752
10.264,-0.011437336377780005
10.268,-0.011436591120949321
10.272,-0.011436302634434218
10.276,-0.011435942026290339
10.28,-0.011435966066833265
10.284,-0.011435629499232311
10.288,-0.011435292931631357
10.292,-0.011436302634434218
10.296,-0.01143745658049463
10.3,-0.011438057594067762
10.304,-0.011439403864471577
10.308,-0.011440822256504168
10.312,-0.011442312770165533
10.316,-0.011443442675683022
10.32,-0.01144325035133962
10.324,-0.011442673378309412
10.328,-0.011443082067539143
10.332,-0.011443490756768872
10.336,-0.011443779243283976
10.34,-0.011442961864824516
10.344,-0.011441855999849954
10.348,-0.011440798215961242
10.352,-0.011440870337590017
10.356,-0.011440870337590017
10.36,-0.011441230945733898
10.364,-0.011441543472791926
10.368,-0.011441976202564581
10.372,-0.011441759837678252
10.376,-0.011441182864648047
10.38,-0.011441014580847569
10.384,-0.01144060589161784
10.388,-0.011440076999673485
10.392,-0.011439427905014503
10.396,-0.011439379823928652
10.4,-0.011438995175241847
10.404,-0.011438057594067762
10.408,-0.011437648904838033
10.412,-0.011437071931807827
10.416,-0.011436711323663947
10.42,-0.011437071931807827
10.424,-0.011437168093979528
10.428,-0.01143745658049463
10.432,-0.011437432539951706
10.436,-0.01143781718863851
10.44,-0.011438370121125791
10.444,-0.011439211540128174
10.448,-0.011440052959130559
10.452,-0.011440461648360288
10.456,-0.011439908715873007
10.46,-0.011439211540128174
10.464,-0.011439259621214025
10.468,-0.0114392355806711
10.472,-0.011438394161668716
10.476,-0.011438153756239463
10.48,-0.01143699981017905
10.484,-0.011436134350633741
10.488,-0.011436254553348367
10.492,-0.011436591120949321
10.496,-0.011436062229004965
10.5,-0.011436374756062994
10.504,-0.011437552742666331
10.508000000000001,-0.011438105675153612
10.512,-0.01143868264818382
10.516,-0.0114392355806711
10.52,-0.011439548107729128
10.524000000000001,-0.011439908715873007
10.528,-0.011440461648360288
10.532,-0.011440822256504168
10.536,-0.011440437607817364
10.540000000000001,-0.011440076999673485
10.544,-0.011440125080759336
10.548,-0.011439716391529605
10.552,-0.011439067296870623
10.556000000000001,-0.011438634567097969
10.56,-0.011438874972527222
10.564,-0.011439596188814979
10.568,-0.01144014912130226
10.572000000000001,-0.011440317405102736
10.576,-0.011440245283473961
10.58,-0.011440629932160766
10.584,-0.011439620229357905
10.588000000000001,-0.011438802850898445
10.592,-0.011439427905014503
10.596,-0.011439980837501784
10.6,-0.011440389526731513
10.604000000000001,-0.011440870337590017
10.608,-0.0114414232700773
10.612,-0.011440581851074915
10.616,-0.011439331742842802
10.620000000000001,-0.011439596188814979
10.624,-0.011439908715873007
10.628,-0.01144019720238811
10.632,-0.011439932756415933
10.636000000000001,-0.011439908715873007
10.64,-0.01144115882410512
10.644,-0.011441952162021655
10.648,-0.01144207236473628
10.652000000000001,-0.011442264689079683
10.656,-0.011442288729622609
10.66,-0.011441447310620224
10.664,-0.011441182864648047
10.668000000000001,-0.011440389526731513
10.672,-0.011439379823928652
10.676,-0.011439379823928652
10.68,-0.01143974043207253
10.684000000000001,-0.011439596188814979
10.688,-0.011439548107729128
10.692,-0.011439980837501784
10.696,-0.011440798215961242
10.700000000000001,-0.011441904080935804
10.704,-0.01144284166210989
10.708,-0.011443202270253769
10.712,-0.011443586918940573
10.716000000000001,-0.011444356216314181
10.72,-0.011444981270430239
10.724,-0.011445438040745819
10.728,-0.01144526975694534
10.732000000000001,-0.01144502935151609
10.736,-0.011445197635316566
10.74,-0.011444812986629761
10.744,-0.01144426005414248
10.748000000000001,-0.011444043689256153
10.752,-0.011444668743372209
10.756,-0.011445197635316566
10.76,-0.01144548612183167
10.764,-0.011446808351692558
10.768,-0.011447313203093988
10.772,-0.011447794013952494
10.776,-0.01144928452761386
10.78,-0.011449909581729917
10.784,-0.011449813419558216
10.788,-0.011450414433131348
10.792,-0.01145060675747475
10.796,-0.01145060675747475
10.8,-0.011450414433131348
10.804,-0.011449957662815768
10.808,-0.01144923644652801
10.812,-0.011448972000555831
10.816,-0.011448298865353925
10.82,-0.011447745932866644
10.824,-0.011447721892323718
10.828,-0.011447673811237867
10.832,-0.011448082500467596
10.836,-0.01144700067603596
10.84,-0.0114459909732331
10.844,-0.01144526975694534
10.848,-0.011444861067715612
10.852,-0.011444740865000986
10.856,-0.011444644702829285
10.86,-0.011445077432601938
10.864,-0.011445606324546295
10.868,-0.0114460871354048
10.872,-0.011446255419205277
10.876,-0.011445846729975548
10.88,-0.011445149554230715
10.884,-0.011445774608346771
10.888,-0.011446688148977932
10.892,-0.011446423703005753
10.896,-0.011446327540834052
10.9,-0.011445558243460444
10.904,-0.011445245716402416
10.908,-0.011445365919117042
10.912,-0.011445558243460444
10.916,-0.011445365919117042
10.92,-0.011445894811061398
10.924,-0.011447625730152016
10.928,-0.011448851797841206
10.932,-0.011449548973586039
10.936,-0.01145019806824502
10.94,-0.011451087568333254
10.944,-0.01145156837919176
10.948,-0.0114528425279668
10.952,-0.011454020514570137
10.956,-0.011454621528143269
10.96,-0.011454910014658372
10.964,-0.011454597487600344
10.968,-0.01145476577140082
10.972,-0.01145567931203198
10.976,-0.011457049622978721
10.98,-0.011457818920352329
10.984,-0.011458347812296684
10.988,-0.011458660339354713
10.992,-0.011459020947498592
10.996,-0.011459477717814172
11.0,-0.011459357515099546
11.004,-0.011459453677271247
11.008000000000001,-0.01145983832595805
11.012,-0.01146029509627363
11.016,-0.011460367217902407
11.02,-0.01146029509627363
11.024000000000001,-0.011460583582788734
11.028,-0.011461737528849146
11.032,-0.011461833691020848
11.036,-0.011461905812649623
11.040000000000001,-0.011461881772106698
11.044,-0.011462506826222754
11.048,-0.011463708853369017
11.052,-0.011464862799429432
11.056000000000001,-0.011464838758886505
11.06,-0.011464381988570926
11.064,-0.011464189664227523
11.068,-0.011464526231828477
11.072000000000001,-0.011465776340060591
11.076,-0.01146668988069175
11.08,-0.011467002407749779
11.084,-0.01146786786729509
11.088000000000001,-0.011468853529555024
11.092,-0.011469646867471558
11.096,-0.01146979111072911
11.1,-0.01147024788104469
11.104000000000001,-0.011470608489188568
11.108,-0.011470969097332447
11.112,-0.011470392124302242
11.116,-0.011470271921587616
11.120000000000001,-0.011470031516158363
11.124,-0.011469406462042305
11.128,-0.011469598786385708
11.132,-0.011469670908014484
11.136000000000001,-0.01147029596213054
11.14,-0.011470416164845166
11.144,-0.011469598786385708
11.148,-0.011469190097155978
11.152000000000001,-0.011468853529555024
11.156,-0.01146887757009795
11.16,-0.011468805448469174
11.164,-0.011468637164668697
11.168000000000001,-0.01146878140792625
11.172,-0.011468925651183801
11.176,-0.01146928625932768
11.18,-0.01147029596213054
11.184000000000001,-0.011471762435248984
11.188,-0.011473565475968379
11.192,-0.011474935786915118
11.196,-0.011475608922117025
11.200000000000001,-0.011476089732975531
11.204,-0.011475897408632129
11.208,-0.011475873368089204
11.212,-0.011475657003202876
11.216000000000001,-0.011476185895147232
11.22,-0.011476426300576485
11.224,-0.011476931151977916
11.228,-0.011477580246636898
11.232000000000001,-0.011478133179124179
11.236,-0.01147842166563928
11.24,-0.011478325503467581
11.244,-0.011477171557407169
11.248000000000001,-0.011476258016776007
11.252,-0.011475560841031174
11.256,-0.011475320435601923
11.26,-0.011476113773518455
11.264,-0.01147604165188968
11.268,-0.011475512759945324
11.272,-0.011474839624743417
11.276,-0.011474863665286342
11.28,-0.011474959827458043
11.284,-0.01147457517877124
11.288,-0.011474454976056613
11.292,-0.011473853962483481
11.296,-0.011472267286650415
11.3,-0.011470151718872989
11.304,-0.011469406462042305
11.308,-0.011468613124125771
11.312,-0.011469045853898427
11.316,-0.011469069894441353
11.32,-0.011469166056613052
11.324,-0.011470007475615437
11.328,-0.011470872935160747
11.332,-0.011471449908190953
11.336,-0.011471618191991429
11.34,-0.01147188263796361
11.344,-0.011471690313620206
11.348,-0.011471522029819728
11.352,-0.011471546070362654
11.356,-0.01147229132719334
11.36,-0.01147279617859477
11.364,-0.011472603854251367
11.368,-0.011472243246107489
11.372,-0.011472483651536742
11.376,-0.011472772138051845
11.38,-0.011473036584024023
11.384,-0.01147370971922593
11.388,-0.011474599219314164
11.392,-0.011474094367912734
11.396,-0.011473829921940557
11.4,-0.011473565475968379
11.404,-0.01147284425968062
11.408,-0.011472050921764086
11.412,-0.011471810516334833
11.416,-0.011472675975880144
11.42,-0.011472627894794293
11.424,-0.011472363448822116
11.428,-0.011471786475791909
11.432,-0.011471233543304626
11.436,-0.011472050921764086
11.44,-0.011472724056965995
11.444,-0.011472940421852321
11.448,-0.011472772138051845
11.452,-0.011472603854251367
11.456,-0.011472195165021638
11.46,-0.011472315367736265
11.464,-0.011472363448822116
11.468,-0.011472675975880144
11.472,-0.011473397192167901
11.476,-0.011473926084112258
11.48,-0.011474238611170286
11.484,-0.011474599219314164
11.488,-0.011474238611170286
11.492,-0.01147325294891035
11.496,-0.011473060624566947
11.5,-0.011472171124478714
11.504,-0.01147188263796361
11.508000000000001,-0.01147166627307728
11.512,-0.01147116142167585
11.516,-0.011471473948733879
11.52,-0.01147183455687776
11.524000000000001,-0.01147171435416313
11.528,-0.011471353746019252
11.532,-0.011470560408102718
11.536,-0.011469454543128156
11.540000000000001,-0.011468709286297472
11.544,-0.011468757367383323
11.548,-0.01146887757009795
11.552,-0.01146856504303992
11.556000000000001,-0.011468805448469174
11.56,-0.01146832463761067
11.564,-0.011466834123949303
11.568,-0.011466040786032769
11.572000000000001,-0.011466305232004946
11.576,-0.011466545637434199
11.58,-0.011466497556348348
11.584,-0.011466882205035153
11.588000000000001,-0.01146659371852005
11.592,-0.011466569677977125
11.596,-0.011466449475262498
11.6,-0.011466040786032769
11.604000000000001,-0.011466016745489844
11.608,-0.011464790677800655
11.612,-0.011463516529025617
11.616,-0.011462915515452485
11.620000000000001,-0.011462242380250577
11.624,-0.011461833691020848
11.628,-0.011462314501879354
11.632,-0.011462915515452485
11.636000000000001,-0.011463228042510513
11.64,-0.011463300164139288
11.644,-0.011463204001967587
11.648,-0.011463276123596364
11.652000000000001,-0.01146303571816711
11.656,-0.011463420366853916
11.66,-0.011463829056083645
11.664,-0.01146471855617188
11.668000000000001,-0.011465559975174263
11.672,-0.011466329272547872
11.676,-0.0114666417996059
11.68,-0.01146786786729509
11.684000000000001,-0.011468204434896042
11.688,-0.011468036151095566
11.692,-0.01146856504303992
11.696,-0.011469550705299857
11.700000000000001,-0.011470151718872989
11.704,-0.011470488286473943
11.708,-0.011470848894617821
11.712,-0.011471017178418298
11.716000000000001,-0.011470848894617821
11.72,-0.011470776772989046
11.724,-0.011470921016246596
11.728,-0.01147070465136027
11.732000000000001,-0.011470560408102718
11.736,-0.011470055556701287
11.74,-0.011469959394529586
11.744,-0.011470007475615437
11.748000000000001,-0.011470368083759315
11.752,-0.011469815151272034
11.756,-0.011468757367383323
11.76,-0.011468805448469174
11.764000000000001,-0.011468589083582847
11.768,-0.011469093934984277
11.772,-0.011468973732269652
11.776,-0.01146887757009795
11.78,-0.011468589083582847
11.784,-0.011468757367383323
11.788,-0.01146887757009795
11.792,-0.011468997772812576
11.796,-0.011468492921411146
11.8,-0.011467795745666313
11.804,-0.011468180394353118
11.808,-0.011468541002496996
11.812,-0.01146842079978237
11.816,-0.01146786786729509
11.82,-0.011467363015893657
11.824,-0.011466545637434199
11.828,-0.011466353313090797
11.832,-0.011465511894088412
11.836,-0.011464838758886505
11.84,-0.011464093502055822
11.844,-0.011463348245225139
11.848,-0.011463516529025617
11.852,-0.011463564610111467
11.856,-0.011463468447939766
11.86,-0.011463540569568541
11.864,-0.011463083799252961
11.868,-0.011463372285768065
11.872,-0.011463732893911944
11.876,-0.011464381988570926
11.88,-0.011465656137345964
11.884,-0.01146618502929032
11.888,-0.011465992704946918
11.892,-0.011465944623861067
11.896,-0.011466569677977125
11.9,-0.011466810083406376
11.904,-0.01146668988069175
11.908,-0.011465968664403994
11.912,-0.011465367650830862
11.916,-0.011464958961601131
11.92,-0.011464814718343581
11.924,-0.011464838758886505
11.928,-0.011466281191462022
11.932,-0.011467988070009715
11.936,-0.011469166056613052
11.94,-0.01146928625932768
11.944,-0.01146842079978237
11.948,-0.011468252515981893
11.952,-0.011468973732269652
11.956,-0.011469117975527202
11.96,-0.011469238178241829
11.964,-0.01146933434041353
11.968,-0.011468949691726725
11.972,-0.011467843826752163
11.976,-0.011467483218608285
11.98,-0.011467435137522434
11.984,-0.01146801211055264
11.988,-0.01146851696195407
11.992,-0.011468204434896042
11.996,-0.011467579380779986
12.0,-0.011467026448292705
12.004,-0.011466569677977125
12.008000000000001,-0.011466737961777601
12.012,-0.011466665840148826
12.016,-0.011465944623861067
12.02,-0.011466281191462022
12.024000000000001,-0.011466882205035153
12.028,-0.011466954326663928
12.032,-0.011467699583494612
12.036,-0.01146810827272434
12.040000000000001,-0.011468468880868221
12.044,-0.011468276556524819
12.048,-0.011467819786209239
12.052,-0.011466930286121004
12.056000000000001,-0.011466233110376171
12.06,-0.011466401394176647
12.064,-0.011466473515805424
12.068,-0.011466040786032769
12.072000000000001,-0.011465439772459637
12.076,-0.011466112907661544
12.08,-0.011465872502232292
12.084,-0.01146491088051528
12.088000000000001,-0.011462795312737858
12.092,-0.01146161732613452
12.096,-0.01146202601536425
12.1,-0.011462170258621802
12.104000000000001,-0.011461857731563774
12.108,-0.011461929853192549
12.112,-0.0114619779342784
12.116,-0.01146248278567983
12.120000000000001,-0.011462338542422278
12.124,-0.011462627028937382
12.128,-0.011462386623508129
12.132,-0.011461593285591595
12.136000000000001,-0.011461737528849146
12.14,-0.011462290461336427
12.144,-0.011462194299164726
12.148,-0.011461497123419893
12.152000000000001,-0.011461593285591595
12.156,-0.011462747231652007
12.16,-0.011463300164139288
12.164,-0.01146394925879827
12.168000000000001,-0.0114642617858563
12.172,-0.011464574312914328
12.176,-0.011464550272371402
12.18,-0.011464285826399224
12.184000000000001,-0.01146390117771242
12.188,-0.01146385309662657
12.192,-0.011463636731740242
12.196,-0.011463780974997794
12.200000000000001,-0.011463829056083645
12.204,-0.011463829056083645
12.208,-0.011463204001967587
12.212,-0.011462699150566157
12.216000000000001,-0.011462386623508129
12.22,-0.011461737528849146
12.224,-0.011461737528849146
12.228,-0.0114619779342784
12.232000000000001,-0.011462554907308605
12.236,-0.011462795312737858
12.24,-0.011463276123596364
12.244,-0.011464021380427047
12.248000000000001,-0.011464381988570926
12.252,-0.01146390117771242
12.256,-0.011463564610111467
12.26,-0.011463516529025617
12.264000000000001,-0.011463708853369017
12.268,-0.011463636731740242
12.272,-0.011464237745313374
12.276,-0.011464069461512898
12.280000000000001,-0.011463420366853916
12.284,-0.011463324204682214
12.288,-0.011462723191109083
12.292,-0.011462194299164726
12.296,-0.011462146218078876
12.3,-0.011461785609934997
12.304,-0.011461809650477923
12.308,-0.011461713488306222
12.312,-0.01146065570441751
12.316,-0.011459621961071724
12.32,-0.011459453677271247
12.324,-0.011459573879985873
12.328,-0.011459862366500977
12.332,-0.011459573879985873
12.336,-0.011459501758357096
12.34,-0.011460463380074108
12.344,-0.01146202601536425
12.348,-0.011463588650654392
12.352,-0.011464141583141673
12.356,-0.01146394925879827
12.36,-0.011462771272194933
12.364,-0.011462266420793503
12.368,-0.011463276123596364
12.372,-0.011464045420969972
12.376,-0.011464285826399224
12.38,-0.011463973299341196
12.384,-0.011464333907485075
12.388,-0.011465487853545488
12.392,-0.011466233110376171
12.396,-0.011465920583318143
12.4,-0.011465800380603516
12.404,-0.011465704218431814
12.408,-0.011465608056260113
12.412,-0.011465391691373786
12.416,-0.011464622394000179
12.42,-0.011464598353457253
12.424,-0.011465055123772832
12.428,-0.011465199367030384
12.432,-0.011465584015717189
12.436,-0.011466521596891275
12.44,-0.011465920583318143
12.444,-0.011465055123772832
12.448,-0.011465151285944533
12.452,-0.011465079164315758
12.456,-0.011465151285944533
12.46,-0.01146467047508603
12.464,-0.011464622394000179
12.468,-0.011464141583141673
12.472,-0.011464357948028
12.476,-0.011463756934454868
12.48,-0.011463083799252961
12.484,-0.011463348245225139
12.488,-0.01146293955599541
12.492,-0.011463300164139288
12.496,-0.01146349248848269
12.5,-0.011463612691197318
12.504,-0.011464237745313374
12.508000000000001,-0.011464526231828477
12.512,-0.011464838758886505
12.516,-0.011464117542598748
12.52,-0.011463372285768065
12.524000000000001,-0.011462458745136905
12.528,-0.011462001974821324
12.532,-0.011461713488306222
12.536,-0.011461304799076491
12.540000000000001,-0.011460775907132136
12.544,-0.011461809650477923
12.548,-0.011463708853369017
12.552,-0.011465127245401609
12.556000000000001,-0.011465391691373786
12.56,-0.011465439772459637
12.564,-0.011465079164315758
12.568,-0.011465343610287936
12.572000000000001,-0.011465319569745011
12.576,-0.011465559975174263
12.58,-0.011466305232004946
12.584,-0.011465872502232292
12.588000000000001,-0.011465584015717189
12.592,-0.011465511894088412
12.596,-0.011465535934631338
12.6,-0.011465391691373786
12.604000000000001,-0.011465752299517665
12.608,-0.011465511894088412
12.612,-0.011464381988570926
12.616,-0.011464285826399224
12.620000000000001,-0.011464381988570926
12.624,-0.011464478150742627
12.628,-0.0114644541101997
12.632,-0.011464285826399224
12.636000000000001,-0.011464742596714804
12.64,-0.011464886839972356
12.644,-0.011464502191285551
12.648,-0.011464526231828477
12.652000000000001,-0.01146467047508603
12.656,-0.0114642617858563
12.66,-0.011463612691197318
12.664,-0.011463732893911944
12.668000000000001,-0.01146491088051528
12.672,-0.011465752299517665
12.676,-0.011465968664403994
12.68,-0.01146608886711862
12.684000000000001,-0.011466305232004946
12.688,-0.011466737961777601
12.692,-0.011466305232004946
12.696,-0.011465824421146442
12.700000000000001,-0.011465920583318143
12.704,-0.011466521596891275
12.708,-0.01146714665100733
12.712,-0.011468084232181416
12.716000000000001,-0.011468805448469174
12.72,-0.01146983919181496
12.724,-0.011470632529731494
12.728,-0.011470848894617821
12.732000000000001,-0.01147024788104469
12.736,-0.01147024788104469
12.74,-0.011469959394529586
12.744,-0.011469887272900811
12.748000000000001,-0.011470079597244213
12.752,-0.011470151718872989
12.756,-0.011469767070186184
12.76,-0.011470320002673465
12.764000000000001,-0.01147029596213054
12.768,-0.01147029596213054
12.772,-0.011469767070186184
12.776,-0.011469238178241829
12.780000000000001,-0.011468444840325295
12.784,-0.011468276556524819
12.788,-0.011468348678153594
12.792,-0.011467964029466789
12.796000000000001,-0.011467843826752163
12.8,-0.011467964029466789
12.804,-0.011467915948380938
12.808,-0.011467675542951687
12.812,-0.011467194732093181
12.816,-0.011467387056436584
12.82,-0.011466978367206854
12.824,-0.011466521596891275
12.828,-0.01146568017788889
12.832,-0.011465439772459637
12.836,-0.011464958961601131
12.84,-0.011465968664403994
12.844,-0.011467483218608285
12.848,-0.011468396759239444
12.852,-0.01146786786729509
12.856,-0.011467795745666313
12.86,-0.011468156353810191
12.864,-0.011467627461865837
12.868,-0.011467266853721958
12.872,-0.011466713921234675
12.876,-0.011465127245401609
12.88,-0.011464117542598748
12.884,-0.0114642617858563
12.888,-0.01146471855617188
12.892,-0.01146471855617188
12.896,-0.011464550272371402
12.9,-0.011463636731740242
12.904,-0.011463276123596364
12.908,-0.011462867434366635
12.912,-0.011463877137169495
12.916,-0.011465103204858683
12.92,-0.011465896542775217
12.924,-0.011465800380603516
12.928,-0.011465944623861067
12.932,-0.011466665840148826
12.936,-0.011467194732093181
12.94,-0.011467387056436584
12.944,-0.011466473515805424
12.948,-0.011465463813002563
12.952,-0.01146517532648746
12.956,-0.01146522340757331
12.96,-0.011465608056260113
12.964,-0.011466425434719573
12.968,-0.011467747664580462
12.972,-0.011468132313267267
12.976,-0.011467483218608285
12.98,-0.011467939988923865
12.984,-0.011468036151095566
12.988,-0.011468637164668697
12.992,-0.011468348678153594
12.996,-0.011468204434896042
13.0,-0.011468661205211622
13.004,-0.011468492921411146
13.008000000000001,-0.01146887757009795
13.012,-0.011469598786385708
13.016,-0.011469214137698903
13.02,-0.011469310299870604
13.024000000000001,-0.011468949691726725
13.028,-0.011469911313443736
13.032,-0.011470271921587616
13.036,-0.011470151718872989
13.040000000000001,-0.011470608489188568
13.044,-0.011470921016246596
13.048,-0.011471473948733879
13.052,-0.01147171435416313
13.056000000000001,-0.011472435570450891
13.06,-0.011472219205564564
13.064,-0.011472363448822116
13.068,-0.011472603854251367
13.072000000000001,-0.011473084665109873
13.076,-0.011473421232710827
13.08,-0.011473998205741033
13.084,-0.011474358813884911
13.088000000000001,-0.011474671340942941
13.092,-0.011473902043569332
13.096,-0.011473156786738648
13.1,-0.01147325294891035
13.104000000000001,-0.011473637597597154
13.108,-0.011473517394882529
13.112,-0.011472748097508919
13.116,-0.011472050921764086
13.120000000000001,-0.011472050921764086
13.124,-0.011472459610993815
13.128,-0.011472940421852321
13.132,-0.01147284425968062
13.136000000000001,-0.011472555773165517
13.14,-0.011473084665109873
13.144,-0.011473637597597154
13.148,-0.011473853962483481
13.152000000000001,-0.011474334773341987
13.156,-0.01147508003017267
13.16,-0.01147604165188968
13.164,-0.011477099435778392
13.168000000000001,-0.01147746004392227
13.172,-0.01147695519252084
13.176,-0.011476017611346754
13.18,-0.011475657003202876
13.184000000000001,-0.011475632962659951
13.188,-0.011475368516687774
13.192,-0.011475440638316549
13.196,-0.011475608922117025
13.200000000000001,-0.011474695381485866
13.204,-0.011473685678683005
13.208,-0.01147284425968062
13.212,-0.011472147083935787
13.216000000000001,-0.011471473948733879
13.22,-0.011470896975703672
13.224,-0.011470271921587616
13.228,-0.011469694948557409
13.232000000000001,-0.011469646867471558
13.236,-0.011469526664756933
13.24,-0.011469478583671082
13.244,-0.011469430502585231
13.248000000000001,-0.011470007475615437
13.252,-0.011471281624390477
13.256,-0.011471570110905579
13.26,-0.01147116142167585
13.264000000000001,-0.011471041218961224
13.268,-0.01147193071904946
13.272,-0.011473036584024023
13.276,-0.011473926084112258
13.280000000000001,-0.01147380588139763
13.284,-0.011474046286826883
13.288,-0.011474406894970762
13.292,-0.011473950124655182
13.296000000000001,-0.011473373151624977
13.3,-0.011472964462395248
13.304,-0.011472002840678236
13.308,-0.011471281624390477
13.312000000000001,-0.01147080081353197
13.316,-0.011469983435072512
13.32,-0.011469069894441353
13.324,-0.011468468880868221
13.328,-0.011468204434896042
13.332,-0.011468709286297472
13.336,-0.011468853529555024
13.34,-0.011469358380956455
13.344,-0.011470031516158363
13.348,-0.011470560408102718
13.352,-0.011470488286473943
13.356,-0.011470320002673465
13.36,-0.011469767070186184
13.364,-0.011469430502585231
13.368,-0.011469550705299857
13.372,-0.011469863232357885
13.376,-0.011470199799958839
13.38,-0.011471041218961224
13.384,-0.01147171435416313
13.388,-0.011472243246107489
13.392,-0.011472363448822116
13.396,-0.011472483651536742
13.4,-0.01147284425968062
13.404,-0.011473613557054228
13.408,-0.011473878003026407
13.412,-0.011474454976056613
13.416,-0.011474791543657567
13.42,-0.011475248313973146
13.424,-0.011475464678859473
13.428,-0.011474983868000969
13.432,-0.011474815584200491
13.436,-0.011475464678859473
13.44,-0.011476161854604306
13.444,-0.011476859030349139
13.448,-0.0114777725709803
13.452,-0.01147791681423785
13.456,-0.011478157219667103
13.46,-0.011478782273783161
13.464,-0.011479263084641665
13.468,-0.011478565908896832
13.472,-0.011478205300752954
13.476,-0.01147741196283642
13.48,-0.011476834989806214
13.484,-0.011476089732975531
13.488,-0.011475416597773623
13.492,-0.011475777205917503
13.496,-0.01147594548971798
13.5,-0.011475705084288726
13.504,-0.011475777205917503
13.508000000000001,-0.011476402260033559
13.512,-0.011477484084465197
13.516,-0.011478902476497787
13.52,-0.011479719854957245
13.524000000000001,-0.011479888138757723
13.528,-0.011479575611699695
13.532,-0.011479503490070918
13.536,-0.011480513192873779
13.540000000000001,-0.011481498855133715
13.544,-0.01148229219305025
13.548,-0.011483422098567736
13.552,-0.01148476836897155
13.556000000000001,-0.011484960693314953
13.56,-0.011485249179830057
13.564,-0.011485345342001758
13.568,-0.011485898274489039
13.572000000000001,-0.011487052220549451
13.576,-0.011486715652948497
13.58,-0.011486571409690945
13.584,-0.011486475247519244
13.588000000000001,-0.011486258882632917
13.592,-0.01148649928806217
13.596,-0.011486379085347543
13.6,-0.011486475247519244
13.604000000000001,-0.011486306963718768
13.608,-0.01148649928806217
13.612,-0.011486787774577274
13.616,-0.0114870041394636
13.620000000000001,-0.01148695605837775
13.624,-0.011486403125890469
13.628,-0.011486018477203664
13.632,-0.01148558574743101
13.636000000000001,-0.011485201098744206
13.64,-0.011484840490600327
13.644,-0.011484600085171074
13.648,-0.011484888571686178
13.652000000000001,-0.011485345342001758
13.656,-0.011485201098744206
13.66,-0.01148426351757012
13.664,-0.011483422098567736
13.668000000000001,-0.011483470179653586
13.672,-0.011483830787797465
13.676,-0.011483950990512092
13.68,-0.011483950990512092
13.684000000000001,-0.011484335639198897
13.688,-0.011484936652772029
13.692,-0.011485153017658355
13.696,-0.01148563382851686
13.700000000000001,-0.011486018477203664
13.704,-0.011485778071774411
13.708,-0.011485153017658355
13.712,-0.011484912612229102
13.716000000000001,-0.011486090598832441
13.72,-0.011486715652948497
13.724,-0.011486427166433394
13.728,-0.011486090598832441
13.732000000000001,-0.011485657869059786
13.736,-0.011485465544716383
13.74,-0.011485441504173459
13.744,-0.011485874233946113
13.748000000000001,-0.011486427166433394
13.752,-0.011486090598832441
13.756,-0.011486258882632917
13.76,-0.01148594635557489
13.764000000000001,-0.01148599443666074
13.768,-0.011485417463630533
13.772,-0.011484936652772029
13.776,-0.011485273220372981
13.780000000000001,-0.011485441504173459
13.784,-0.011485032814943728
13.788,-0.011484888571686178
13.792,-0.01148512897711543
13.796000000000001,-0.011485201098744206
13.8,-0.011485898274489039
13.804,-0.01148568190960271
13.808,-0.011485297260915907
13.812000000000001,-0.01148498473385788
13.816,-0.011484624125713999
13.82,-0.01148371058508284
13.824,-0.011483494220196512
13.828,-0.01148279704445168
13.832,-0.011482099868706847
13.836,-0.011482051787620996
13.84,-0.01148229219305025
13.844,-0.011481811382191743
13.848,-0.01148193158490637
13.852,-0.011482099868706847
13.856,-0.011482099868706847
13.86,-0.0114823402741361
13.864,-0.011482412395764875
13.868,-0.011482003706535146
13.872,-0.011481667138934191
13.876,-0.011481498855133715
13.88,-0.011481907544363444
13.884,-0.011481859463277594
13.888,-0.011480873801017658
13.892,-0.011480368949616227
13.896,-0.011480753598303032
13.9,-0.01148137865241909
13.904,-0.011482700882279978
13.908,-0.011484455841913523
13.912,-0.01148467220679985
13.916,-0.01148421543648427
13.92,-0.011484383720284748
13.924,-0.01148371058508284
13.928,-0.011482123909249771
13.932,-0.011481498855133715
13.936,-0.0114800564225582
13.94,-0.011479311165727516
13.944,-0.011478878435954862
13.948,-0.01147842166563928
13.952,-0.011477844692609075
13.956,-0.011478085098038328
13.96,-0.011478469746725131
13.964,-0.011478926517040713
13.968,-0.011480128544186976
13.972,-0.011480945922646434
13.976,-0.01148157097676249
13.98,-0.011482003706535146
13.984,-0.011481691179477118
13.988,-0.011481619057848341
13.992,-0.01148157097676249
13.996,-0.011481210368618612
14.0,-0.01148101804427521
14.004,-0.011480777638845958
14.008000000000001,-0.01148106612536106
14.012,-0.011481282490247388
14.016,-0.011481090165903986
14.02,-0.01148137865241909
14.024000000000001,-0.011481402692962014
14.028,-0.011482460476850725
14.032,-0.011483638463454064
14.036,-0.011484095233769644
14.040000000000001,-0.011485369382544682
14.044,-0.01148558574743101
14.048,-0.011485778071774411
14.052,-0.011485441504173459
14.056000000000001,-0.011485008774400804
14.06,-0.011484888571686178
14.064,-0.0114847202878857
14.068,-0.01148553766634516
14.072000000000001,-0.011485970396117814
14.076,-0.011486018477203664
14.08,-0.011485273220372981
14.084,-0.011484816450057401
14.088000000000001,-0.011484479882456447
14.092,-0.011484455841913523
14.096,-0.01148426351757012
14.1,-0.011483830787797465
14.104000000000001,-0.011483229774224333
14.108,-0.011483061490423857
14.112,-0.01148371058508284
14.116,-0.011483614422911138
14.120000000000001,-0.011483950990512092
14.124,-0.011484936652772029
14.128,-0.01148568190960271
14.132,-0.01148553766634516
14.136000000000001,-0.011486403125890469
14.14,-0.011486980098920675
14.144,-0.011487268585435778
14.148,-0.011487148382721152
14.152000000000001,-0.011486715652948497
14.156,-0.011486355044804619
14.16,-0.011486715652948497
14.164,-0.011486980098920675
14.168000000000001,-0.011486691612405573
14.172,-0.011486114639375366
14.176,-0.011485874233946113
14.18,-0.011485465544716383
14.184000000000001,-0.011485153017658355
14.188,-0.01148522513928713
14.192,-0.011485513625802234
14.196,-0.011486643531319722
14.200000000000001,-0.01148746090977918
14.204,-0.01148887930181177
14.208,-0.011490081328958034
14.212,-0.0114915718426194
14.216000000000001,-0.011492629626508112
14.22,-0.011493158518452468
14.224,-0.01149380761311145
14.228,-0.011493471045510496
14.232000000000001,-0.011494384586141656
14.236,-0.011494841356457236
14.24,-0.011494841356457236
14.244,-0.01149467307265676
14.248000000000001,-0.011494120140169478
14.252,-0.011494408626684582
14.256,-0.011494913478086012
14.26,-0.011495153883515265
14.264000000000001,-0.01149467307265676
14.268,-0.011494192261798254
14.272,-0.011494552869942134
14.276,-0.011494600951027984
14.280000000000001,-0.011494600951027984
14.284,-0.011494240342884104
14.288,-0.011494600951027984
14.292,-0.011494817315914311
14.296000000000001,-0.011494865397000162
14.3,-0.011495490451116218
14.304,-0.011495250045686965
14.308,-0.011495370248401592
14.312000000000001,-0.011496716518805407
14.316,-0.011498014708123372
14.32,-0.011498158951380923
14.324,-0.011497654099979491
14.328000000000001,-0.011497077126949286
14.332,-0.011496355910661529
14.336,-0.011495466410573293
14.34,-0.011494552869942134
14.344,-0.011493975896911927
14.348,-0.011493879734740226
14.352,-0.011493471045510496
14.356,-0.011492269018364233
14.36,-0.011491307396647223
14.364,-0.011491547802076476
14.368,-0.011491716085876952
14.372,-0.011490706383074091
14.376,-0.011489864964071707
14.38,-0.011488903342354697
14.384,-0.011489119707241023
14.388,-0.011490249612758512
14.392,-0.011490393856016063
14.396,-0.011489961126243408
14.4,-0.011490754464159942
14.404,-0.011491307396647223
14.408,-0.011490922747960418
14.412,-0.011490946788503344
14.416,-0.011491211234475522
14.42,-0.011491836288591578
14.424,-0.011491956491306205
14.428,-0.011491836288591578
14.432,-0.011491668004791102
14.436,-0.011492413261621785
14.44,-0.01149279791030859
14.444,-0.011493543167139271
14.448,-0.01149467307265676
14.452,-0.011495322167315742
14.456,-0.011494961559171863
14.46,-0.011494745194285534
14.464,-0.01149472115374261
14.468,-0.011494096099626552
14.472,-0.011493831653654375
14.476,-0.011495105802429415
14.48,-0.011495827018717172
14.484,-0.01149517792405819
14.488,-0.011494192261798254
14.492,-0.011494072059083628
14.496,-0.011493999937454853
14.5,-0.011493831653654375
14.504,-0.011494456707770433
14.508000000000001,-0.011494841356457236
14.512,-0.011495322167315742
14.516,-0.011495274086229891
14.52,-0.011495081761886489
14.524000000000001,-0.01149476923482846
14.528,-0.011494240342884104
14.532,-0.011494408626684582
14.536,-0.011494841356457236
14.540000000000001,-0.011494576910485058
14.544,-0.011493567207682198
14.548,-0.01149335084279587
14.552,-0.011493134477909542
14.556000000000001,-0.011492196896735458
14.56,-0.011491307396647223
14.564,-0.011490874666874568
14.568,-0.011491355477733074
14.572000000000001,-0.011492773869765664
14.576,-0.011493014275194917
14.58,-0.011492870031937365
14.584,-0.01149289407248029
14.588000000000001,-0.01149243730216471
14.592,-0.011492701748136889
14.596,-0.011493206599538319
14.6,-0.01149371145093975
14.604000000000001,-0.011493326802252945
14.608,-0.01149294215356614
14.612,-0.011492341139993008
14.616,-0.011491884369677428
14.620000000000001,-0.011491884369677428
14.624,-0.01149294215356614
14.628,-0.011494096099626552
14.632,-0.01149512984297234
14.636000000000001,-0.011495875099803023
14.64,-0.011495802978174248
14.644,-0.011495586613287919
14.648,-0.011495754897088397
14.652000000000001,-0.011495201964601116
14.656,-0.011494432667227506
14.66,-0.011494144180712403
14.664,-0.011494288423969955
14.668000000000001,-0.011493591248225122
14.672,-0.011493422964424646
14.676,-0.011494048018540702
14.68,-0.011493663369853899
14.684000000000001,-0.01149371145093975
14.688,-0.011494841356457236
14.692,-0.011495081761886489
14.696,-0.011495322167315742
14.700000000000001,-0.011496115505232276
14.704,-0.011497485816179015
14.708,-0.011498255113552623
14.712,-0.011498086829752147
14.716000000000001,-0.0114983272351814
14.72,-0.011498519559524802
14.724,-0.011498207032466774
14.728,-0.01149746177563609
14.732000000000001,-0.011495971261974724
14.736,-0.011495274086229891
14.74,-0.011494865397000162
14.744,-0.011494913478086012
14.748000000000001,-0.01149467307265676
14.752,-0.011495033680800638
14.756,-0.011495971261974724
14.76,-0.011496884802605883
14.764000000000001,-0.01149659631609078
14.768,-0.01149618762686105
14.772,-0.011496331870118602
14.776,-0.011495802978174248
14.780000000000001,-0.011495586613287919
14.784,-0.011495490451116218
14.788,-0.011494865397000162
14.792,-0.011494961559171863
14.796000000000001,-0.011496379951204453
14.8,-0.011495923180888873
14.804,-0.011494432667227506
14.808,-0.01149325468062417
14.812000000000001,-0.011492172856192532
14.816,-0.01149202861293498
14.82,-0.011492004572392056
14.824,-0.011491836288591578
14.828000000000001,-0.011492004572392056
14.832,-0.011492124775106681
14.836,-0.011492725788679813
14.84,-0.011493543167139271
14.844000000000001,-0.011493831653654375
14.848,-0.011493927815826076
14.852,-0.011493975896911927
14.856,-0.011494889437543086
14.86,-0.011494889437543086
14.864,-0.011495394288944517
14.868,-0.011495586613287919
14.872,-0.011496331870118602
14.876,-0.01149618762686105
14.88,-0.011496836721520033
14.884,-0.011497509856721941
14.888,-0.01149746177563609
14.892,-0.011496476113376154
14.896,-0.011496379951204453
14.9,-0.011496812680977108
14.904,-0.011496836721520033
14.908,-0.011497317532378539
14.912,-0.011497533897264866
14.916,-0.011497846424322894
14.92,-0.011499264816355485
14.924,-0.01150056300567345
14.928,-0.01150106785707488
14.932,-0.011501428465218759
14.936,-0.01150248624910747
14.94,-0.011503808478968359
14.944,-0.011504746060142445
14.948,-0.011505298992629726
14.952,-0.01150563556023068
14.956,-0.011506068290003333
14.96,-0.011506957790091569
14.964,-0.011507438600950074
14.968,-0.01150847234429586
14.972,-0.011509914776871376
14.976,-0.011510395587729882
14.98,-0.011511333168903968
14.984,-0.011511934182477099
14.988,-0.01151171781759077
14.992,-0.011511381249989818
14.996,-0.011511381249989818
15.0,-0.011511645695961996
15.004,-0.011511741858133697
15.008000000000001,-0.011512414993335603
15.012,-0.011512583277136081
15.016,-0.011512799642022408
15.02,-0.011513809344825269
15.024000000000001,-0.011514193993512074
15.028,-0.011514434398941327
15.032,-0.011514193993512074
15.036,-0.011515011371971532
15.040000000000001,-0.011515444101744187
15.044,-0.011514530561113026
15.048,-0.01151390550699697
15.052,-0.011513088128537512
15.056000000000001,-0.011512799642022408
15.06,-0.011512967925822884
15.064,-0.011513713182653568
15.068,-0.011514266115140849
15.072000000000001,-0.011514049750254522
15.076,-0.011513617020481866
15.08,-0.011513929547539895
15.084,-0.011513761263739418
15.088000000000001,-0.011513881466454044
15.092,-0.011514073790797446
15.096,-0.011513665101567717
15.1,-0.011513713182653568
15.104000000000001,-0.011514073790797446
15.108,-0.01151436227731255
15.112,-0.011513665101567717
15.116,-0.011513064087994586
15.120000000000001,-0.011513112169080436
15.124,-0.011513208331252137
15.128,-0.011512631358221932
15.132,-0.011511958223020024
15.136000000000001,-0.011511597614876145
15.14,-0.011511573574333219
15.144,-0.011510900439131312
15.148,-0.011510876398588386
15.152000000000001,-0.011510539830987434
15.156,-0.011510155182300629
15.16,-0.011510467709358657
15.164,-0.011511068722931788
15.168000000000001,-0.011511140844560565
15.172,-0.011511140844560565
15.176,-0.011511020641845938
15.18,-0.011510539830987434
15.184000000000001,-0.011510635993159135
15.188,-0.01151066003370206
15.192,-0.011510780236416687
15.196,-0.011511020641845938
15.200000000000001,-0.011510059020128928
15.204,-0.011509385884927021
15.208,-0.011509145479497768
15.212,-0.011509265682212394
15.216000000000001,-0.011508640628096338
15.22,-0.011508953155154366
15.224,-0.011509097398411917
15.228,-0.011508496384838786
15.232000000000001,-0.011507751128008102
15.236,-0.011507029911720345
15.24,-0.011506813546834017
15.244,-0.011506837587376943
15.248000000000001,-0.011507630925293477
15.252,-0.011509458006555796
15.256,-0.01151066003370206
15.26,-0.011511285087818117
15.264000000000001,-0.0115120303446488
15.268,-0.011512631358221932
15.272,-0.011512198628449277
15.276,-0.011511429331075669
15.280000000000001,-0.011510611952616209
15.284,-0.011509458006555796
15.288,-0.011508760830810963
15.292,-0.01150847234429586
15.296000000000001,-0.011508448303752935
15.3,-0.011508135776694907
15.304,-0.01150806365506613
15.308,-0.01150782324963688
15.312000000000001,-0.011507991533437355
15.316,-0.01150751072257885
15.32,-0.01150705395226327
15.324,-0.011506669303576465
15.328000000000001,-0.011506404857604288
15.332,-0.011505875965659933
15.336,-0.01150522687100095
15.34,-0.01150477010068537
15.344000000000001,-0.011505034546657548
15.348,-0.011504337370912715
15.352,-0.011504385451998566
15.356,-0.011504938384485847
15.36,-0.011505659600773604
15.364,-0.011506428898147214
15.368,-0.011507174154977897
15.372,-0.011506909709005718
15.376,-0.011506933749548644
15.38,-0.01150710203334912
15.384,-0.011506380817061363
15.388,-0.011505707681859455
15.392,-0.01150522687100095
15.396,-0.011504697979056594
15.4,-0.011505034546657548
15.404,-0.0115051787899151
15.408,-0.011504818181771221
15.412,-0.011503616154624958
15.416,-0.01150202947879189
15.42,-0.011500803411102701
15.424,-0.011500106235357868
15.428,-0.011499817748842766
15.432,-0.011499505221784737
15.436,-0.011499625424499364
15.44,-0.011499697546128139
15.444,-0.01150020239752957
15.448,-0.011500899573274402
15.452,-0.011501236140875356
15.456,-0.011501644830105085
15.46,-0.011501861194991412
15.464,-0.011502366046392844
15.468,-0.011502606451822096
15.472,-0.01150253433019332
15.476,-0.0115028949383372
15.48,-0.011503471911367406
15.484,-0.01150390464114006
15.488,-0.011503928681682986
15.492,-0.011504505654713192
15.496,-0.011504890303399996
15.5,-0.011504625857427819
15.504,-0.01150390464114006
15.508000000000001,-0.011503351708652779
15.512,-0.011503616154624958
15.516,-0.011503928681682986
15.52,-0.011504385451998566
15.524000000000001,-0.01150486626285707
15.528,-0.011504529695256118
15.532,-0.011503832519511285
15.536,-0.011503976762768837
15.540000000000001,-0.011503976762768837
15.544,-0.011503423830281556
15.548,-0.011503327668109855
15.552,-0.011504000803311761
15.556000000000001,-0.011503423830281556
15.56,-0.011502774735622574
15.564,-0.011503519992453257
15.568,-0.011504024843854687
15.572000000000001,-0.011503159384309377
15.576,-0.011502053519334815
15.58,-0.011501885235534338
15.584,-0.011501957357163113
15.588000000000001,-0.011501837154448488
15.592,-0.01150152462739046
15.596,-0.011501428465218759
15.6,-0.011501380384132908
15.604000000000001,-0.011501404424675832
15.608,-0.011501740992276787
15.612,-0.011502149681506516
15.616,-0.011502462208564544
15.620000000000001,-0.011503063222137675
15.624,-0.011503423830281556
15.628,-0.01150416908711224
15.632,-0.011504096965483462
15.636000000000001,-0.011503784438425434
15.64,-0.011503664235710807
15.644,-0.011504746060142445
15.648,-0.01150563556023068
15.652000000000001,-0.011505467276430202
15.656,-0.01150486626285707
15.66,-0.011505659600773604
15.664,-0.01150618849271796
15.668000000000001,-0.011506765465748166
15.672,-0.011507222236063748
15.676,-0.011507703046922252
15.68,-0.011508183857780758
15.684000000000001,-0.01150888103352559
15.688,-0.011509385884927021
15.692,-0.011509433966012872
15.696,-0.011508905074068515
15.700000000000001,-0.01150878487135389
15.704,-0.011508712749725113
15.708,-0.011508304060495383
15.712,-0.011508953155154366
15.716000000000001,-0.011509458006555796
15.72,-0.0115097464930709
15.724,-0.011509650330899198
15.728,-0.011509578209270423
15.732000000000001,-0.011509890736328451
15.736,-0.011510419628272806
15.74,-0.011511477412161518
15.744,-0.011512463074421454
15.748000000000001,-0.011512511155507305
15.752,-0.011511862060848322
15.756,-0.011511453371618593
15.76,-0.011512102466277575
15.764000000000001,-0.011512511155507305
15.768,-0.011512919844737034
15.772,-0.01151395358808282
15.776,-0.011514145912426223
15.780000000000001,-0.011513160250166287
15.784,-0.011511765898676621
15.788,-0.011511092763474715
15.792,-0.011510419628272806
15.796000000000001,-0.011509650330899198
15.8,-0.011508856992982664
15.804,-0.011508592547010487
15.808,-0.011507943452351505
15.812000000000001,-0.011507462641492999
15.816,-0.01150751072257885
15.82,-0.01150751072257885
15.824,-0.011507390519864224
15.828000000000001,-0.011507174154977897
15.832,-0.011507462641492999
15.836,-0.011508664668639262
15.84,-0.011508352141581234
15.844000000000001,-0.011507174154977897
15.848,-0.011506164452175035
15.852,-0.011505731722402381
15.856,-0.011505298992629726
15.860000000000001,-0.011504481614170267
15.864,-0.011504121006026389
15.868,-0.011503519992453257
15.872,-0.011503327668109855
15.876,-0.011504024843854687
15.88,-0.011504529695256118
15.884,-0.011505587479144829
15.888,-0.011505491316973128
15.892,-0.011505900006202857
15.896,-0.011507029911720345
15.9,-0.011507871330722728
15.904,-0.011508183857780758
15.908,-0.011509193560583619
15.912,-0.011510323466101105
15.916,-0.01151121296618934
15.92,-0.011511309128361041
15.924,-0.011512390952792679
15.928,-0.011513737223196494
15.932,-0.011514073790797446
15.936,-0.011513785304282344
15.94,-0.011513352574509689
15.944,-0.011513088128537512
15.948,-0.011512318831163902
15.952,-0.011511477412161518
15.956,-0.011510587912073284
15.96,-0.011510996601303013
15.964,-0.011512463074421454
15.968,-0.011513713182653568
15.972,-0.011514169952969147
15.976,-0.01151436227731255
15.98,-0.011513713182653568
15.984,-0.011513016006908735
15.988,-0.011513496817767241
15.992,-0.011513520858310165
15.996,-0.011513040047451661
16.0,-0.011512198628449277
16.004,-0.011511501452704444
16.008,-0.011511597614876145
16.012,-0.011511116804017639
16.016000000000002,-0.011510443668815732
16.02,-0.011510275385015254
16.024,-0.011509506087641647
16.028,-0.011508159817237832
16.032,-0.01150705395226327
16.036,-0.011506789506291092
16.04,-0.011506933749548644
16.044,-0.011506861627919867
16.048000000000002,-0.011506813546834017
16.052,-0.011506933749548644
16.056,-0.011507390519864224
16.06,-0.011506957790091569
16.064,-0.011506212533260885
16.068,-0.011505058587200473
16.072,-0.011504193127655164
16.076,-0.011503976762768837
16.080000000000002,-0.01150390464114006
16.084,-0.011502967059965976
16.088,-0.011503664235710807
16.092,-0.011503760397882508
16.096,-0.011503544032996181
16.1,-0.011503327668109855
16.104,-0.0115028949383372
16.108,-0.01150390464114006
16.112000000000002,-0.011505347073715576
16.116,-0.011506981830634495
16.12,-0.011507462641492999
16.124,-0.011507534763121776
16.128,-0.011507871330722728
16.132,-0.011508039614523206
16.136,-0.011506669303576465
