0.0,0.005705061241594304
0.004,0.0057086192419472425
0.008,0.005707152768828801
0.012,0.005706335390369342
0.016,0.005703763052276339
0.02,0.005708450958146765
0.024,0.005709580863664253
0.028,0.005710350161037861
0.032,0.005707994187831186
0.036000000000000004,0.00570426790367777
0.04,0.005700469497895578
0.044,0.0056990270653200625
0.048,0.005704532349649947
0.052000000000000005,0.005706816201227848
0.056,0.005704003457705591
0.06,0.005699195349120539
0.064,0.005699676159979045
0.068,0.005701767687213542
0.07200000000000001,0.005702392741329599
0.076,0.005705373768652332
0.08,0.005704051538791442
0.084,0.005700421416809727
0.088,0.005700229092466326
0.092,0.005700806065496532
0.096,0.005702128295357421
0.1,0.005702657187301777
0.10400000000000001,0.005710326120494936
0.108,0.00570756145805853
0.112,0.005703210119789058
0.116,0.0056976807949162475
0.12,0.005697344227315293
0.124,0.005697151902971892
0.128,0.005702849511645179
0.132,0.00570390729553389
0.136,0.005699916565408297
0.14,0.005703498606304161
0.14400000000000002,0.0057001329302946244
0.148,0.005698305849032304
0.152,0.0057026812278447025
0.156,0.005704676592907499
0.16,0.005705806498424986
0.164,0.005704291944220695
0.168,0.005700709903324831
0.17200000000000001,0.00569979636269367
0.176,0.005705830538967911
0.18,0.005703594768475862
0.184,0.005700277173552176
0.188,0.005697800997630874
0.192,0.0056960219974544046
0.196,0.005700229092466326
0.2,0.005704051538791442
0.20400000000000001,0.005706119025483015
0.20800000000000002,0.005703113957617357
0.212,0.005700902227668232
0.216,0.0057043400253065455
0.22,0.0057029937549027306
0.224,0.00570345052521831
0.228,0.005704965079422602
0.232,0.0057064796336268936
0.23600000000000002,0.005702200416986197
0.24,0.005709604904207178
0.244,0.005711407944926573
0.248,0.005708979850091121
0.252,0.005710662688095889
0.256,0.005708763485204793
0.26,0.005707609539144381
0.264,0.0057086192419472425
0.268,0.005709268336606225
0.272,0.005707849944573634
0.276,0.0057091721744345235
0.28,0.005711720471984601
0.28400000000000003,0.005707297012086353
0.28800000000000003,0.005706335390369342
0.292,0.005703354363046609
0.296,0.005703089917074432
0.3,0.005706407511998118
0.304,0.005710278039409085
0.308,0.005706575795798595
0.312,0.005698594335547407
0.316,0.0056903003482381915
0.32,0.005696310483969507
0.324,0.005701238795269186
0.328,0.005697849078716725
0.332,0.00569787311925965
0.336,0.005697488470572845
0.34,0.005698618376090332
0.34400000000000003,0.005700277173552176
0.34800000000000003,0.005702368700786674
0.352,0.005707681660773157
0.356,0.005707681660773157
0.36,0.005706527714712744
0.364,0.00570792206620241
0.368,0.00570609498494009
0.372,0.0057067200390561465
0.376,0.005710278039409085
0.38,0.0057091721744345235
0.384,0.0057102059177803095
0.388,0.005704508309107022
0.392,0.005704388106392396
0.396,0.005706431552541043
0.4,0.005706936403942473
0.404,0.0057089317690052705
0.40800000000000003,0.0057099655123510566
0.41200000000000003,0.005708402877060915
0.41600000000000004,0.005707729741859007
0.42,0.005710326120494936
0.424,0.00571116753949732
0.428,0.005709556823121327
0.432,0.005708186512174587
0.436,0.005709220255520374
0.44,0.0057052054848518545
0.444,0.005702753349473478
0.448,0.005699604038350269
0.452,0.005696791294828012
0.456,0.005696382605598283
0.46,0.005691358132126903
0.464,0.00568284777993136
0.468,0.005683617077304968
0.47200000000000003,0.005699363632921016
0.47600000000000003,0.005719124959205582
0.48,0.005730231690037054
0.484,0.005729414311577595
0.488,0.005723356094760428
0.492,0.005720495270152322
0.496,0.00571664878328428
0.5,0.0057155909993955685
0.504,0.005713427350532295
0.508,0.005709989552893982
0.512,0.005706936403942473
0.516,0.005705974782225463
0.52,0.005706647917427371
0.524,0.005706119025483015
0.528,0.00570573437679621
0.532,0.005703690930647563
0.536,0.005703474565761236
0.54,0.005703570727932937
0.544,0.005706407511998118
0.548,0.0057091000528057476
0.552,0.005710662688095889
0.556,0.005704965079422602
0.56,0.005703210119789058
0.5640000000000001,0.005705181444308929
0.5680000000000001,0.005706022863311314
0.5720000000000001,0.005706022863311314
0.5760000000000001,0.005702464862958375
0.58,0.005701022430382859
0.584,0.005703137998160282
0.588,0.005703162038703208
0.592,0.005704051538791442
0.596,0.005703089917074432
0.6,0.0057040996198772925
0.604,0.005708210552717512
0.608,0.005707777822944858
0.612,0.005705253565937705
0.616,0.005703089917074432
0.62,0.005703162038703208
0.624,0.005702753349473478
0.628,0.0057033784035895345
0.632,0.005703594768475862
0.636,0.005699868484322446
0.64,0.005700349295180951
0.644,0.005701671525041841
0.648,0.005699267470749315
0.652,0.005696911497542639
0.656,0.005695541186595899
0.66,0.005693690064790653
0.664,0.00569609411908318
0.668,0.005695781592025152
0.672,0.005696118159626105
0.676,0.0056964066461412085
0.68,0.005697031700257265
0.684,0.005694411281078411
0.6880000000000001,0.005692512078187315
0.6920000000000001,0.005693257335017999
0.6960000000000001,0.005695324821709572
0.7000000000000001,0.005697704835459173
0.704,0.00569700765971434
0.708,0.0056960219974544046
0.712,0.005696598970484611
0.716,0.00569655088939876
0.72,0.005697704835459173
0.724,0.00569746443002992
0.728,0.005700469497895578
0.732,0.005700229092466326
0.736,0.005694651686507664
0.74,0.005691935105157109
0.744,0.005695949875825629
0.748,0.005697584632744546
0.752,0.005699147268034688
0.756,0.005695204618994945
0.76,0.005694098754020383
0.764,0.005696767254285087
0.768,0.005699267470749315
0.772,0.0057009262682111575
0.776,0.0057009262682111575
0.78,0.005700277173552176
0.784,0.0056982337274035285
0.788,0.005699387673463941
0.792,0.005702080214271571
0.796,0.005701334957440888
0.8,0.005699676159979045
0.804,0.005701695565584766
0.808,0.005704412146935321
0.812,0.005707417214800979
0.8160000000000001,0.005705974782225463
0.8200000000000001,0.005706335390369342
0.8240000000000001,0.005710590566467113
0.8280000000000001,0.005709508742035477
0.8320000000000001,0.005706431552541043
0.836,0.005703186079246133
0.84,0.005704484268564097
0.844,0.00570203213318572
0.848,0.005698426051746931
0.852,0.00569614220016903
0.856,0.005695228659537871
0.86,0.005696358565055358
0.864,0.005698185646317678
0.868,0.0057002050519234
0.872,0.005701214754726261
0.876,0.005701551322327214
0.88,0.005700998389839933
0.884,0.005699628078893194
0.888,0.005701767687213542
0.892,0.005705085282137229
0.896,0.005707176809371726
0.9,0.005710566525924188
0.904,0.005704508309107022
0.908,0.005695493105510048
0.912,0.00569426703782086
0.916,0.005695156537909095
0.92,0.0057011666736404105
0.924,0.005700493538438503
0.928,0.005700349295180951
0.932,0.005696070078540255
0.936,0.005689555091407508
0.9400000000000001,0.005691694699727857
0.9440000000000001,0.0056979212003455
0.9480000000000001,0.005695132497366169
0.9520000000000001,0.005695589267681749
0.9560000000000001,0.005695372902795422
0.96,0.0056943391594496354
0.964,0.005693257335017999
0.968,0.005695661389310525
0.972,0.005695156537909095
0.976,0.005695252700080796
0.98,0.005700685862781905
0.984,0.005703955376619741
0.988,0.005705157403766004
0.992,0.005701503241241364
0.996,0.005703474565761236
1.0,0.0057064796336268936
1.004,0.005705926701139613
1.008,0.005702633146758852
1.012,0.005702897592731029
1.016,0.005707345093172203
1.02,0.005709773188007655
1.024,0.005708162471631662
1.028,0.0057067200390561465
1.032,0.005703979417162666
1.036,0.005704796795622125
1.04,0.005707898025659484
1.044,0.0057072729715434275
1.048,0.0057091721744345235
1.052,0.005708835606833569
1.056,0.0057102059177803095
1.06,0.005710566525924188
1.064,0.005708282674346288
1.068,0.005704195782048994
1.072,0.005704484268564097
1.076,0.005704916998336752
1.08,0.005705061241594304
1.084,0.005698762619347884
1.088,0.005685612442367765
1.092,0.005685179712595111
1.096,0.005697320186772368
1.1,0.005710302079952011
1.104,0.005714701499307334
1.108,0.005721360729697631
1.112,0.005722442554129269
1.116,0.005720831837753276
1.12,0.005720014459293817
1.124,0.005718740310518778
1.1280000000000001,0.005715783323738971
1.1320000000000001,0.005713547553246921
1.1360000000000001,0.0057098933907222815
1.1400000000000001,0.005711191580040245
1.1440000000000001,0.005710470363752488
1.1480000000000001,0.005707537417515605
1.1520000000000001,0.0057052054848518545
1.156,0.0057098933907222815
1.16,0.005709604904207178
1.164,0.005712489769358209
1.168,0.005714172607362978
1.172,0.005706647917427371
1.176,0.0057078259040307085
1.18,0.005714413012792231
1.184,0.005711912796328003
1.188,0.005710470363752488
1.192,0.005707753782401933
1.196,0.005706984485028324
1.2,0.005707849944573634
1.204,0.005709412579863776
1.208,0.0057091000528057476
1.212,0.005707994187831186
1.216,0.005710686728638815
1.22,0.005706455593083968
1.224,0.0057019600115569445
1.228,0.005704147700963143
1.232,0.00570842691760384
1.236,0.005710326120494936
1.24,0.005705566092995734
1.244,0.00570431598476362
1.248,0.005708763485204793
1.252,0.005711095417868545
1.256,0.00571116753949732
1.26,0.0057061671065688655
1.264,0.005702657187301777
1.268,0.005702969714359805
1.272,0.005705518011909883
1.276,0.005708547120318467
1.28,0.00570792206620241
1.284,0.005706407511998118
1.288,0.005700084849208774
1.292,0.005696262402883657
1.296,0.005701070511468709
1.3,0.0057029937549027306
1.304,0.0057014070790696635
1.308,0.0057022725386149725
1.312,0.005703474565761236
1.316,0.005705253565937705
1.32,0.005698666457176183
1.324,0.0056967191731992365
1.328,0.005696382605598283
1.332,0.00570015697083755
1.336,0.005698281808489379
1.34,0.005699916565408297
1.344,0.005705590133538659
1.348,0.00570609498494009
1.352,0.005707369133715129
1.356,0.005705157403766004
1.36,0.005703835173905115
1.364,0.0057039313360768154
1.368,0.00570390729553389
1.372,0.005705830538967911
1.3760000000000001,0.005706840241770773
1.3800000000000001,0.005703186079246133
1.3840000000000001,0.005706455593083968
1.3880000000000001,0.005709677025835954
1.3920000000000001,0.005704291944220695
1.3960000000000001,0.005702729308930552
1.4000000000000001,0.005704243863134844
1.4040000000000001,0.005702344660243748
1.408,0.0057040996198772925
1.412,0.005702248498072047
1.416,0.005703162038703208
1.42,0.005706119025483015
1.424,0.005705037201051378
1.428,0.005705373768652332
1.432,0.005707729741859007
1.436,0.005706647917427371
1.44,0.005705325687566481
1.444,0.005704532349649947
1.448,0.005705974782225463
1.452,0.005704676592907499
1.456,0.0057008541465823825
1.46,0.005700830106039457
1.464,0.0057070566066571
1.468,0.00570929237714915
1.472,0.005706215187654716
1.476,0.0057004454573526524
1.48,0.005699868484322446
1.484,0.005703522646847086
1.488,0.005704965079422602
1.492,0.005701094552011635
1.496,0.005705518011909883
1.5,0.005707609539144381
1.504,0.005706960444485399
1.508,0.005701839808842318
1.512,0.005699243430206389
1.516,0.0057026812278447025
1.52,0.005702777390016403
1.524,0.005697103821886041
1.528,0.005698089484145977
1.532,0.005701286876355037
1.536,0.005704965079422602
1.54,0.005707777822944858
1.544,0.005704700633450424
1.548,0.005703642849561713
1.552,0.005703330322503684
1.556,0.005702080214271571
1.56,0.005699964646494147
1.564,0.005697199984057742
1.568,0.005697536551658696
1.572,0.005697800997630874
1.576,0.005701551322327214
1.58,0.005704556390192872
1.584,0.005709701066378879
1.588,0.005707008525571249
1.592,0.005706816201227848
1.596,0.005709051971719897
1.6,0.005708643282490168
1.604,0.005711792593613377
1.608,0.005715014026365362
1.612,0.005716768985998906
1.616,0.0057153505939663155
1.62,0.005714629377678558
1.624,0.005712706134244537
1.6280000000000001,0.005708499039232616
1.6320000000000001,0.005710806931353441
1.6360000000000001,0.005710927134068068
1.6400000000000001,0.005709701066378879
1.6440000000000001,0.0057155909993955685
1.6480000000000001,0.0057179710131451695
1.6520000000000001,0.005713787958676174
1.6560000000000001,0.005712393607186508
1.6600000000000001,0.005710302079952011
1.6640000000000001,0.0057099655123510566
1.668,0.005712609972072836
1.672,0.005713331188360594
1.676,0.005710061674522758
1.68,0.005711888755785078
1.684,0.005710855012439292
1.688,0.005708018228374111
1.692,0.005706647917427371
1.696,0.005698402011204006
1.7,0.005690588834753295
1.704,0.005692656321444867
1.708,0.005711287742211946
1.712,0.005725519743623703
1.716,0.005729173906148342
1.72,0.005733260798445637
1.724,0.005732731906501282
1.728,0.0057283565276888835
1.732,0.0057230435677024
1.736,0.005716937269799383
1.74,0.005714941904736586
1.744,0.005716288175140401
1.748,0.0057132109856459674
1.752,0.005717826769887618
1.756,0.005719774053864564
1.76,0.005714292810077604
1.764,0.005717297877943262
1.768,0.005718499905089525
1.772,0.005714052404648352
1.776,0.00571157622872705
1.78,0.00570929237714915
1.784,0.0057115521881841245
1.788,0.005713018661302565
1.792,0.005715254431794615
1.796,0.005714172607362978
1.8,0.005711984917956779
1.804,0.005713114823474266
1.808,0.005717706567172992
1.812,0.005721577094583959
1.816,0.005714172607362978
1.82,0.005716336256226252
1.824,0.0057207597161245
1.828,0.00571938940517776
1.832,0.0057193172835489844
1.836,0.00571801909423102
1.84,0.005713980283019576
1.844,0.005715879485910672
1.848,0.005713956242476651
1.852,0.00571345139107522
1.856,0.005714509174963932
1.86,0.005714845742564885
1.864,0.005718091215859796
1.868,0.005715879485910672
1.872,0.005716432418397953
1.8760000000000001,0.005716817067084757
1.8800000000000001,0.005709821269093506
1.8840000000000001,0.005703522646847086
1.8880000000000001,0.005707321052629278
1.8920000000000001,0.005713018661302565
1.8960000000000001,0.005710013593436907
1.9000000000000001,0.005702176376443271
1.9040000000000001,0.005706936403942473
1.9080000000000001,0.005712201282843107
1.9120000000000001,0.005711528147641199
1.9160000000000001,0.005708667323033093
1.92,0.005709941471808131
1.924,0.00571116753949732
1.928,0.005707321052629278
1.932,0.005705181444308929
1.936,0.005712201282843107
1.94,0.005711936836870928
1.944,0.005706215187654716
1.948,0.005706695998513221
1.952,0.0057080663094599615
1.956,0.005711263701669021
1.96,0.005708354795975064
1.964,0.005707417214800979
1.968,0.005714316850620529
1.972,0.0057179710131451695
1.976,0.005717706567172992
1.98,0.005716432418397953
1.984,0.00571345139107522
1.988,0.005712129161214331
1.992,0.005713114823474266
1.996,0.005717922932059319
2.0,0.005719509607892387
2.004,0.0057201827430942934
2.008,0.005715470796680942
2.012,0.005714461093878081
2.016,0.005714653418221484
2.02,0.005713619674875697
2.024,0.005715158269622914
2.028,0.0057184758645466
2.032,0.005715855445367747
2.036,0.005711456026012423
2.04,0.005710181877237384
2.044,0.005712682093701612
2.048,0.005712297445014808
2.052,0.0057136917965044725
2.056,0.005711648350355826
2.06,0.005711888755785078
2.064,0.005714196647905903
2.068,0.005714989985822437
2.072,0.005714965945279512
2.076,0.005715783323738971
2.08,0.005716360296769177
2.084,0.005714749580393184
2.088,0.005711504107098274
2.092,0.005714917864193661
2.096,0.005718788391604629
2.1,0.005715711202110195
2.104,0.005713595634332771
2.108,0.005715446756138017
2.112,0.0057131388640171915
2.116,0.005711888755785078
2.12,0.005712441688272359
2.124,0.0057171776752286355
2.128,0.00571751424282959
2.132,0.0057160718102540736
2.136,0.005719052837576806
2.14,0.005715903526453597
2.144,0.005711335823297797
2.148,0.005710614607010039
2.152,0.00570938853932085
2.156,0.005706695998513221
2.16,0.00571253785044406
2.164,0.005713667755961547
2.168,0.0057078259040307085
2.172,0.005706455593083968
2.176,0.005712730174787462
2.18,0.005714749580393184
2.184,0.005710133796151534
2.188,0.005710662688095889
2.192,0.005709412579863776
2.196,0.005707609539144381
2.2,0.005706912363399548
2.204,0.005710806931353441
2.208,0.005712297445014808
2.212,0.005712345526100658
2.216,0.0057152063507087646
2.22,0.0057161439318828495
2.224,0.005716023729168223
2.228,0.005718043134773945
2.232,0.00571984617549334
2.236,0.005723428216389204
2.24,0.0057230435677024
2.244,0.005720206783637219
2.248,0.005717874850973468
2.2520000000000002,0.005721745378384436
2.2560000000000002,0.0057249427705934955
2.2600000000000002,0.0057220098243566135
2.2640000000000002,0.005721504972955183
2.2680000000000002,0.005721240526983006
2.2720000000000002,0.005721096283725454
2.2760000000000002,0.0057211443648113045
2.2800000000000002,0.005720278905265995
2.2840000000000003,0.005719437486263611
2.2880000000000003,0.005718956675405105
2.2920000000000003,0.0057142447289917535
2.2960000000000003,0.005715422715595091
2.3000000000000003,0.005714316850620529
2.3040000000000003,0.00571121562058317
2.308,0.005707417214800979
2.312,0.005698930903148361
2.316,0.00570066182223898
2.32,0.005711383904383647
2.324,0.005726048635568058
2.328,0.005737828501601438
2.332,0.005740785488381245
2.336,0.005739968109921787
2.34,0.005740953772181722
2.344,0.005733597366046591
2.348,0.005729246027777118
2.352,0.005727202581628471
2.356,0.005723764783990158
2.36,0.005723428216389204
2.364,0.005725135094936898
2.368,0.005724606202992542
2.372,0.005721000121553753
2.376,0.005716985350885234
2.38,0.005715086147994138
2.384,0.0057168651481706075
2.388,0.0057171055535998605
2.392,0.005723812865076008
2.396,0.005723308013674578
2.4,0.005722514675758045
2.404,0.005720495270152322
2.408,0.005722105986528315
2.412,0.005722899324444849
2.416,0.005720110621465518
2.42,0.00572071163503865
2.424,0.005721913662184913
2.428,0.005719822134950415
2.432,0.005720134662008443
2.436,0.0057243898381062145
2.44,0.005724606202992542
2.444,0.005719701932235788
2.448,0.0057194855673494615
2.452,0.005717995053688095
2.456,0.005716095850796999
2.46,0.005721432851326407
2.464,0.005725591865252478
2.468,0.00572350033801798
2.472,0.005720254864723069
2.476,0.005718499905089525
2.48,0.005716336256226252
2.484,0.005716095850796999
2.488,0.00571801909423102
2.492,0.005724726405707169
2.496,0.005724846608421795
2.5,0.005721432851326407
2.504,0.005722610837929745
2.508,0.005723548419103831
2.512,0.005723428216389204
2.516,0.0057207597161245
2.52,0.00571934132409191
2.524,0.0057166968643701304
2.528,0.005716793026541832
2.532,0.005719942337665041
2.536,0.005717995053688095
2.54,0.0057139081613908
2.544,0.005715663121024344
2.548,0.0057176584860871415
2.552,0.005719004756490956
2.556,0.005717995053688095
2.56,0.005715615039938494
2.564,0.005717394040114963
2.568,0.005717033431971085
2.572,0.005716744945455981
2.576,0.005716817067084757
2.58,0.005719774053864564
2.584,0.005722346391957568
2.588,0.005724726405707169
2.592,0.005724654284078393
2.596,0.00572624095991146
2.6,0.005725928432853432
2.604,0.005721793459470287
2.608,0.005716576661655504
2.612,0.005713235026188893
2.616,0.005711912796328003
2.62,0.005715422715595091
2.624,0.005717538283372515
2.628,0.005718187378031497
2.632,0.0057171055535998605
2.636,0.005717273837400337
2.64,0.005716167972425775
2.644,0.005714196647905903
2.648,0.0057160718102540736
2.652,0.005716985350885234
2.656,0.005713186945103042
2.66,0.005712898458587939
2.664,0.0057125859315299106
2.668,0.0057128263369591635
2.672,0.005709508742035477
2.676,0.00570929237714915
2.68,0.0057091721744345235
2.684,0.005711095417868545
2.688,0.005712778255873313
2.692,0.005712225323386032
2.696,0.0057102059177803095
2.7,0.005709196214977449
2.704,0.005711407944926573
2.708,0.0057158314048248214
2.712,0.005718547986175376
2.716,0.005719750013321639
2.72,0.005716528580569653
2.724,0.005713571593789846
2.728,0.005714340891163455
2.732,0.005715494837223867
2.736,0.005718547986175376
2.74,0.005720471229609397
2.744,0.005717610405001291
2.748,0.005714388972249305
2.7520000000000002,0.00571386008030495
2.7560000000000002,0.005714148566820052
2.7600000000000002,0.005714124526277127
2.7640000000000002,0.005711888755785078
2.7680000000000002,0.005714172607362978
2.7720000000000002,0.005716047769711148
2.7760000000000002,0.005712609972072836
2.7800000000000002,0.005708859647376495
2.7840000000000003,0.005706359430912267
2.7880000000000003,0.0057052054848518545
2.7920000000000003,0.005704364065849471
2.7960000000000003,0.0057067200390561465
2.8000000000000003,0.0057081384310887365
2.8040000000000003,0.005707200849914652
2.8080000000000003,0.005707801863487783
2.8120000000000003,0.00570659983634152
2.816,0.005710782890810516
2.82,0.0057155909993955685
2.824,0.0057161439318828495
2.828,0.005716288175140401
2.832,0.0057128263369591635
2.836,0.005714268769534679
2.84,0.005721504972955183
2.844,0.0057240773110481865
2.848,0.005723091648788251
2.852,0.005724245594848664
2.856,0.005720783756667425
2.86,0.0057196298106070124
2.864,0.005721312648611782
2.868,0.005722105986528315
2.872,0.0057207597161245
2.876,0.005716264134597476
2.88,0.005718139296945647
2.884,0.005721120324268379
2.888,0.005717922932059319
2.892,0.005716360296769177
2.896,0.005721264567525931
2.9,0.005725712067967104
2.904,0.0057224906352151194
2.908,0.005721072243182529
2.912,0.005721240526983006
2.916,0.005717874850973468
2.92,0.005712706134244537
2.924,0.0057147976614790345
2.928,0.005711239661126096
2.932,0.005705301647023556
2.936,0.005705109322680153
2.94,0.005710662688095889
2.944,0.005732203014556925
2.948,0.005742708731815266
2.952,0.005740905691095872
2.956,0.00573751597454341
2.96,0.005733933933647545
2.964,0.005731481798269168
2.968,0.0057328761497588325
2.972,0.005730976946867737
2.976,0.0057293902710346695
2.98,0.005726625608598265
2.984,0.005723788824533083
2.988,0.005723476297475055
2.992,0.005722755081187297
2.996,0.005721913662184913
3.0,0.005723476297475055
3.004,0.005722274270328792
3.008,0.0057256639868812536
3.012,0.0057320106902135235
3.016,0.005726409243711937
3.02,0.005722154067614165
3.024,0.005719197080834358
3.028,0.005719269202463134
3.032,0.005721480932412258
3.036,0.005724005189419411
3.04,0.0057251831760227485
3.044,0.005725159135479823
3.048,0.005721649216212735
3.052,0.005722346391957568
3.056,0.005719269202463134
3.06,0.005716937269799383
3.064,0.005715374634509241
3.068,0.00571756232391544
3.072,0.005720326986351845
3.076,0.005720014459293817
3.08,0.005719413445720686
3.084,0.005714437053335156
3.088,0.005715086147994138
3.092,0.00571715363468571
3.096,0.005720687594495725
3.1,0.00571801909423102
3.104,0.0057153505939663155
3.108,0.005719221121377283
3.112,0.005721480932412258
3.116,0.005719413445720686
3.12,0.0057147976614790345
3.124,0.005714749580393184
3.128,0.00572030294580892
3.132,0.005717345959029113
3.136,0.005714989985822437
3.14,0.005717706567172992
3.144,0.005717249796857411
3.148,0.005717995053688095
3.152,0.005717706567172992
3.156,0.0057176584860871415
3.16,0.005718187378031497
3.164,0.005717826769887618
3.168,0.005714100485734203
3.172,0.005711528147641199
3.176,0.00571340330998937
3.18,0.005711792593613377
3.184,0.005713307147817669
3.188,0.005716817067084757
3.192,0.005715134229079989
3.196,0.005714725539850259
3.2,0.0057158314048248214
3.204,0.005714965945279512
3.208,0.005713980283019576
3.212,0.00571801909423102
3.216,0.005721024162096678
3.22,0.005721240526983006
3.224,0.005718547986175376
3.228,0.005716360296769177
3.232,0.005715134229079989
3.236,0.005713018661302565
3.24,0.005715615039938494
3.244,0.005718499905089525
3.248,0.005718355661831973
3.2520000000000002,0.00571664878328428
3.2560000000000002,0.005712922499130864
3.2600000000000002,0.0057153505939663155
3.2640000000000002,0.005716913229256458
3.2680000000000002,0.00571568716156727
3.2720000000000002,0.005715663121024344
3.2760000000000002,0.0057200384998367425
3.2800000000000002,0.0057201827430942934
3.2840000000000003,0.005717586364458366
3.2880000000000003,0.0057176584860871415
3.2920000000000003,0.0057155909993955685
3.2960000000000003,0.00571386008030495
3.3000000000000003,0.005712850377502089
3.3040000000000003,0.005716119891339924
3.3080000000000003,0.005721889621641988
3.3120000000000003,0.005721961743270763
3.3160000000000003,0.005714725539850259
3.3200000000000003,0.0057139081613908
3.3240000000000003,0.005718740310518778
3.3280000000000003,0.005716552621112579
3.332,0.005720423148523546
3.336,0.005723668621818457
3.34,0.0057207597161245
3.344,0.005719148999748507
3.348,0.005717850810430543
3.352,0.00571664878328428
3.356,0.005715927566996522
3.36,0.0057171055535998605
3.364,0.0057193172835489844
3.368,0.0057220098243566135
3.372,0.005722851243358998
3.376,0.005722923364987774
3.38,0.005718355661831973
3.384,0.005713571593789846
3.388,0.005716167972425775
3.392,0.005719100918662657
3.396,0.005717442121200814
3.4,0.005716456458940878
3.404,0.005719942337665041
3.408,0.005718355661831973
3.412,0.005718596067261226
3.416,0.005718139296945647
3.42,0.005713884120847875
3.424,0.005707008525571249
3.428,0.005708907728462345
3.432,0.00571116753949732
3.436,0.005711912796328003
3.44,0.005711936836870928
3.444,0.005714893823650736
3.448,0.005714196647905903
3.452,0.005713956242476651
3.456,0.005718860513233405
3.46,0.005719605770064087
3.464,0.005719293243006059
3.468,0.00571934132409191
3.472,0.005718908594319255
3.476,0.00572299548661655
3.48,0.005728596933118136
3.484,0.005724990851679346
3.488,0.005722466594672194
3.492,0.005718620107804152
3.496,0.005724245594848664
3.5,0.005729005622347866
3.504,0.005727683392486976
3.508,0.005728332487145958
3.512,0.005730568257638007
3.516,0.005730159568408278
3.52,0.00572857289257521
3.524,0.0057307365414384845
3.528,0.005730015325150726
3.532,0.005731866446955972
3.536,0.005733933933647545
3.54,0.00573309251464516
3.544,0.005731698163155495
3.548,0.005728044000630855
3.552,0.00572664964914119
3.556,0.005726938135656293
3.56,0.005723428216389204
3.564,0.005713259066731818
3.568,0.005711456026012423
3.572,0.005721937702727838
3.576,0.0057369390015132036
3.58,0.0057461224889106535
3.584,0.0057487429080895075
3.588,0.00574665138085501
3.592,0.005743814596789828
3.596,0.005746290772711131
3.6,0.0057431895426737715
3.604,0.0057393911368915805
3.608,0.005736506271740548
3.612,0.005736554352826399
3.616,0.00573400605527632
3.62,0.00573076058198141
3.624,0.00572943835212052
3.628,0.0057288373385473886
3.632,0.005730688460352634
3.636,0.005730279771122905
3.64,0.005733381001160263
3.644,0.005732275136185701
3.648,0.005732779987587131
3.652,0.005730592298180933
3.656,0.0057347753526499285
3.66,0.0057378044610585125
3.664,0.005735304244594284
3.668,0.005731481798269168
3.672,0.005731866446955972
3.676,0.005730616338723858
3.68,0.0057320828118422994
3.684,0.005731818365870121
3.688,0.0057334290822461135
3.692,0.005730231690037054
3.696,0.005727491068143574
3.7,0.005728428649317659
3.704,0.005728212284431332
3.708,0.005727394905971872
3.712,0.005726313081540236
3.716,0.005724558121906692
3.72,0.005724990851679346
3.724,0.0057275631897723495
3.728,0.005729654717006848
3.732,0.00572578418959588
3.736,0.005727394905971872
3.74,0.005731385636097467
3.744,0.005732707865958356
3.748,0.00572857289257521
3.7520000000000002,0.005723668621818457
3.7560000000000002,0.0057246302435354675
3.7600000000000002,0.005724486000277916
3.7640000000000002,0.005725111054393973
3.7680000000000002,0.005728885419633239
3.7720000000000002,0.005731866446955972
3.7760000000000002,0.005727082378913844
3.7800000000000002,0.005726673689684115
3.7840000000000003,0.005729702798092698
3.7880000000000003,0.005730640379266783
3.7920000000000003,0.005730279771122905
3.7960000000000003,0.005728717135832762
3.8000000000000003,0.005726962176199218
3.8040000000000003,0.005727467027600648
3.8080000000000003,0.0057230435677024
3.8120000000000003,0.005721721337841511
3.8160000000000003,0.005727635311401125
3.8200000000000003,0.005721240526983006
3.8240000000000003,0.005718091215859796
3.8280000000000003,0.005722105986528315
3.8320000000000003,0.005725135094936898
3.8360000000000003,0.005726721770769966
3.84,0.005726793892398741
3.844,0.005726481365340713
3.848,0.005724269635391589
3.852,0.00572674581131289
3.856,0.005726553486969489
3.86,0.005728452689860585
3.864,0.005729294108862968
3.868,0.005726986216742143
3.872,0.005729053703433716
3.876,0.005730568257638007
3.88,0.005728284406060108
3.884,0.005726914095113367
3.888,0.005722442554129269
3.892,0.005726793892398741
3.896,0.0057291498656054166
3.9,0.005726793892398741
3.904,0.005728332487145958
3.908,0.005726024595025133
3.912,0.005722394473043418
3.916,0.005724894689507646
3.92,0.005727731473572827
3.924,0.005725159135479823
3.928,0.005724606202992542
3.932,0.005727442987057723
3.936,0.0057304961360092315
3.94,0.005727394905971872
3.944,0.005723356094760428
3.948,0.005722442554129269
3.952,0.005723091648788251
3.956,0.005725760149052955
3.96,0.005731000987410662
3.964,0.005725231257108599
3.968,0.005720134662008443
3.972,0.005722707000101446
3.976,0.005720447189066472
3.98,0.005722947405530699
3.984,0.005726962176199218
3.988,0.0057253514598232256
3.992,0.005723764783990158
3.996,0.005722346391957568
4.0,0.005722081945985389
4.0040000000000004,0.005721096283725454
4.008,0.005723308013674578
4.0120000000000005,0.0057259043923105065
4.016,0.005722346391957568
4.0200000000000005,0.005721360729697631
4.024,0.005726168838282684
4.0280000000000005,0.005729294108862968
4.032,0.005731938568584748
4.0360000000000005,0.005725808230138805
4.04,0.005722442554129269
4.0440000000000005,0.005724269635391589
4.048,0.00572167325675566
4.0520000000000005,0.005721529013498108
4.056,0.005726265000454385
4.0600000000000005,0.00572674581131289
4.064,0.005723163770417026
4.0680000000000005,0.005718668188890002
4.072,0.005716985350885234
4.0760000000000005,0.005719822134950415
4.08,0.005721192445897155
4.0840000000000005,0.00572162517566981
4.088,0.005718860513233405
4.0920000000000005,0.005717009391428159
4.096,0.005720495270152322
4.1,0.0057227310406443715
4.104,0.005727707433029901
4.108,0.005727851676287453
4.112,0.005726793892398741
4.116,0.005726000554482208
4.12,0.005728452689860585
4.124,0.0057293902710346695
4.128,0.005730472095466306
4.132,0.005732299176728626
4.136,0.00572943835212052
4.14,0.005729414311577595
4.144,0.005729702798092698
4.148,0.005729847041350249
4.152,0.005732779987587131
4.156,0.005733477163331964
4.16,0.005732347257814477
4.164,0.005733573325503665
4.168,0.00573258766324373
4.172,0.005732539582157879
4.176,0.005733861812018769
4.18,0.005735616771652313
4.184,0.0057367707177127265
4.188,0.005737732339429737
4.192,0.005739727704492534
4.196,0.005737612136715111
4.2,0.005728284406060108
4.204,0.005726385203169012
4.208,0.005730039365693652
4.212,0.005726601568055339
4.216,0.0057203510268947705
4.22,0.0057139081613908
4.224,0.005711816634156302
4.228,0.005720615472866949
4.232,0.0057374919340004845
4.236,0.005746579259226234
4.24,0.005753286570702383
4.244,0.005756964773769947
4.248,0.005755017489793002
4.252,0.005751651813783464
4.256,0.00574492046176439
4.26,0.005734703231021153
4.264,0.0057344628255919005
4.268,0.005733020393016384
4.272,0.0057314577577262426
4.276,0.005732683825415431
4.28,0.005731481798269168
4.284,0.005732852109215907
4.288,0.005733501203874889
4.292,0.0057320106902135235
4.296,0.005726433284254862
4.3,0.005727082378913844
4.304,0.005728717135832762
4.308,0.0057320106902135235
4.312,0.005733212717359787
4.316,0.0057275631897723495
4.32,0.005720952040467902
4.324,0.005720471229609397
4.328,0.005727755514115752
4.332,0.00572893350071909
4.336,0.005726024595025133
4.34,0.005726962176199218
4.344,0.005728717135832762
4.348,0.00572527933819445
4.352,0.005726721770769966
4.356,0.005730207649494129
4.36,0.0057293902710346695
4.364,0.005725615905795403
4.368,0.005725399540909076
4.372,0.005727899757373304
4.376,0.005727683392486976
4.38,0.005726024595025133
4.384,0.005731000987410662
4.388,0.005731890487498897
4.392,0.005728044000630855
4.396,0.005722875283901923
4.4,0.005722081945985389
4.404,0.005723692662361383
4.408,0.005723740743447232
4.412,0.0057253274192803
4.416,0.005725159135479823
4.42,0.005724029229962336
4.424,0.005726890054570442
4.428,0.005726673689684115
4.432,0.005727755514115752
4.436,0.005729414311577595
4.44,0.005729967244064876
4.444,0.005730640379266783
4.448,0.005726265000454385
4.452,0.005723211851502877
4.456,0.005726841973484591
4.46,0.005729366230491744
4.464,0.005729726838635624
4.468,0.005728741176375687
4.472,0.005726866014027517
4.476,0.005726192878825609
4.48,0.005724365797563289
4.484,0.005723067608245326
4.488,0.0057220098243566135
4.492,0.005727947838459153
4.496,0.005729029662890791
4.5,0.005727683392486976
4.5040000000000004,0.005730616338723858
4.508,0.005733236757902712
4.5120000000000005,0.005731025027953587
4.516,0.005728741176375687
4.5200000000000005,0.00572664964914119
4.524,0.005726601568055339
4.5280000000000005,0.005726120757196834
4.532,0.005726890054570442
4.5360000000000005,0.005731361595554541
4.54,0.00573213089292815
4.5440000000000005,0.0057301836089512035
4.548,0.005730520176552157
4.5520000000000005,0.005728596933118136
4.556,0.005731577960440868
4.5600000000000005,0.005732611703786655
4.564,0.005732419379443253
4.5680000000000005,0.005730976946867737
4.572,0.0057286690547469115
4.5760000000000005,0.005729318149405894
4.58,0.005728885419633239
4.5840000000000005,0.005729173906148342
4.588,0.0057310490684965125
4.5920000000000005,0.0057288373385473886
4.596,0.005730640379266783
4.6000000000000005,0.005730448054923381
4.604,0.005724510040820841
4.6080000000000005,0.005724894689507646
4.612,0.00572624095991146
4.616,0.005727515108686499
4.62,0.00573076058198141
4.624,0.005727755514115752
4.628,0.005723404175846279
4.632,0.005725832270681731
4.636,0.005722707000101446
4.64,0.0057235243785609055
4.644,0.005728044000630855
4.648,0.005727755514115752
4.652,0.005728212284431332
4.656,0.005730856744153111
4.66,0.00573400605527632
4.664,0.005735208082422583
4.668,0.005731193311754064
4.672,0.005725856311224656
4.676,0.005726962176199218
4.68,0.005730327852208755
4.684,0.005728717135832762
4.688,0.005726192878825609
4.692,0.005729101784519567
4.696,0.005733501203874889
4.7,0.005732779987587131
4.704,0.005731481798269168
4.708,0.00572857289257521
4.712,0.005726793892398741
4.716,0.005728645014203986
4.72,0.005728813298004463
4.724,0.005727971879002079
4.728,0.005724798527335945
4.732,0.005725471662537852
4.736,0.005726168838282684
4.74,0.005719942337665041
4.744,0.005719653851149938
4.748,0.00571938940517776
4.752,0.005718235459117348
4.756,0.005718187378031497
4.76,0.005718091215859796
4.764,0.005718956675405105
4.768,0.0057187643510617035
4.772,0.005714749580393184
4.776,0.00571304270184549
4.78,0.005716913229256458
4.784,0.005723909027247709
4.788,0.005725808230138805
4.792,0.0057266977302270405
4.796,0.005727274703257247
4.8,0.005726481365340713
4.804,0.005727971879002079
4.808,0.005730159568408278
4.812,0.005729173906148342
4.816,0.005724750446250094
4.82,0.005725808230138805
4.824,0.0057283565276888835
4.828,0.005729798960264399
4.832,0.005730039365693652
4.836,0.0057328761497588325
4.84,0.005734703231021153
4.844,0.005732275136185701
4.848,0.005729967244064876
4.852,0.0057325636227008045
4.856,0.005730424014380456
4.86,0.0057285248114893605
4.864,0.005732347257814477
4.868,0.005736818798798577
4.872,0.005734126257990946
4.876,0.005724341757020364
4.88,0.005717995053688095
4.884,0.005717321918486187
4.888,0.005716937269799383
4.892,0.005714533215506857
4.896,0.005711047336782694
4.9,0.005712850377502089
4.904,0.005726000554482208
4.908,0.005744607934706362
4.912,0.005753406773417008
4.916,0.00575030554337965
4.92,0.005748045732344675
4.924,0.005745617637509223
4.928,0.0057398719477500856
4.932,0.005733381001160263
4.936,0.005730880784696036
4.94,0.005729967244064876
4.944,0.005729246027777118
4.948,0.005727130459999695
4.952,0.005725303378737375
4.956,0.005729847041350249
4.96,0.005728645014203986
4.964,0.005726890054570442
4.968,0.0057301836089512035
4.972,0.005729726838635624
4.976,0.005728092081716705
4.98,0.00572847673040351
4.984,0.00573126543338284
4.988,0.005732924230844683
4.992,0.005735184041879658
4.996,0.0057310490684965125
5.0,0.005728500770946435
5.0040000000000004,0.005733501203874889
5.008,0.005732779987587131
5.0120000000000005,0.005735280204051359
5.016,0.0057347753526499285
5.0200000000000005,0.005728092081716705
5.024,0.005723812865076008
5.0280000000000005,0.005727034297827994
5.032,0.005727082378913844
5.0360000000000005,0.005725038932765197
5.04,0.005732443419986178
5.0440000000000005,0.005735712933824014
5.048,0.005732058771299374
5.0520000000000005,0.005731794325327196
5.056,0.005732058771299374
5.0600000000000005,0.005733405041703188
5.064,0.005733477163331964
5.0680000000000005,0.005732852109215907
5.072,0.005729558554835147
5.0760000000000005,0.005729654717006848
5.08,0.005727755514115752
5.0840000000000005,0.005728212284431332
5.088,0.005731409676640392
5.0920000000000005,0.005730327852208755
5.096,0.005731818365870121
5.1000000000000005,0.005730640379266783
5.104,0.00572857289257521
5.1080000000000005,0.005731746244241345
5.112,0.005729847041350249
5.1160000000000005,0.005730928865781887
5.12,0.00573583313653864
5.124,0.005741266299239751
5.128,0.005738814163861374
5.132,0.005733693528218292
5.136,0.005730135527865353
5.14,0.0057314577577262426
5.144,0.0057323232172715516
5.148,0.005734294541791423
5.152,0.005740785488381245
5.156,0.005746266732168205
5.16,0.005748550583746105
5.164,0.005746266732168205
5.168,0.005748238056688077
5.172,0.005747661083657871
5.176,0.005744800259049765
5.18,0.005748502502660255
5.184,0.0057516758543263895
5.188,0.005752613435500475
5.192,0.005746459056511608
5.196,0.005747925529630048
5.2,0.005750113219036248
5.204,0.005753430813959934
5.208,0.005751844138126867
5.212,0.005749151597319237
5.216,0.005748694827003657
5.22,0.005749007354061686
5.224,0.005750113219036248
5.228,0.00575172393541224
5.232,0.005752733638215101
5.236,0.005755281935765179
5.24,0.005754825165449599
5.244,0.005753791422103813
5.248,0.005752060503013194
5.252,0.005753791422103813
5.256,0.005753238489616532
5.26,0.005752685557129251
5.264,0.005757301341370901
5.268,0.0057577821522294065
5.272,0.005758719733403492
5.276,0.005754560719477421
5.28,0.005749968975778696
5.284,0.005756556084540218
5.288,0.005757493665714304
5.292,0.005754488597848646
5.296,0.005752252827356596
5.3,0.005754320314048169
5.304,0.005759176503719072
5.308,0.005758503368517165
5.312,0.005758407206345463
5.316,0.005757012854855798
5.32,0.005753070205816055
5.324,0.005751483529982988
5.328,0.005748839070261209
5.332,0.005750545948808902
5.336,0.005757084976484574
5.34,0.0057592967064336986
5.344,0.005758359125259613
5.348,0.005755882949338311
5.352,0.005755041530335927
5.356,0.005753719300475037
5.36,0.005752901922015578
5.364,0.005758839936118118
5.368,0.005760066003807306
5.372,0.005757685990057705
5.376,0.005755570422280283
5.38,0.00575633971965389
5.384,0.005756772449426546
5.388,0.005760426611951186
5.392,0.005764152896104601
5.396,0.005767230085599035
5.4,0.005765162598907463
5.404,0.005761003584981392
5.408,0.005756147395310489
5.412,0.005756291638568041
5.416,0.005759176503719072
5.42,0.005758936098289819
5.424,0.0057572051791992
5.428,0.005754536678934496
5.432,0.005751435448897137
5.436,0.005752324948985372
5.44,0.005751411408354212
5.444,0.005750545948808902
5.448,0.0057505699893518275
5.452,0.0057549213276213
5.456,0.005759368828062474
5.46,0.005757974476572809
5.464,0.00575400778699014
5.468,0.005755618503366133
5.472,0.005761893085069626
5.476,0.005762830666243712
5.48,0.005762542179728609
5.484,0.005758647611774716
5.488,0.005757253260285051
5.492,0.005755426179022731
5.496,0.005760642976837513
5.5,0.005766556950397127
5.5040000000000004,0.005764321179905078
5.508,0.005764874112392359
5.5120000000000005,0.005764152896104601
5.516,0.005765619369223042
5.5200000000000005,0.00576497027456406
5.524,0.005760618936294587
5.5280000000000005,0.005760282368693634
5.532,0.00576314319330174
5.5360000000000005,0.005771292937353405
5.54,0.0057756923567087275
5.5440000000000005,0.005776149127024308
5.548,0.005774442248476614
5.5520000000000005,0.00577227859961334
5.556,0.005768432112745298
5.5600000000000005,0.005766989680169783
5.564,0.00576583573410937
5.5680000000000005,0.005763816328503648
5.572,0.005761628639097449
5.5760000000000005,0.005761989247241328
5.58,0.005759585192948801
5.5840000000000005,0.005750113219036248
5.588,0.005748117853973451
5.5920000000000005,0.005758599530688866
5.596,0.005774850937706344
5.6000000000000005,0.00578187077624052
5.604,0.005789275263461503
5.6080000000000005,0.005788265560658642
5.612,0.005784587357591075
5.6160000000000005,0.005783361289901887
5.62,0.005779514803033845
5.6240000000000006,0.00577360082947423
5.628,0.005770595761608572
5.632,0.005770042829121291
5.636,0.005771028491381227
5.64,0.005770523639979796
5.644,0.005770427477808095
5.648,0.00577136505898218
5.652,0.005771869910383611
5.656,0.005769513937176935
5.66,0.005771244856267554
5.664,0.0057737210321888565
5.668,0.005773216180787425
5.672,0.005771725667126059
5.676,0.005771437180610956
5.68,0.005769393734462309
5.684,0.0057646817880489575
5.688,0.005766677153111754
5.692,0.005769682220977412
5.696,0.005766893517998081
5.7,0.005768552315459924
5.704,0.005768528274916999
5.708,0.005770884248123675
5.712,0.00577492305933512
5.716,0.005772951734815248
5.72,0.005767518572114138
5.724,0.0057668213963693055
5.728,0.005774081640332735
5.732,0.0057729276942723225
5.736,0.00576725412614196
5.74,0.005768792720889177
5.744,0.005771244856267554
5.748,0.005774682653905867
5.752,0.005774899018792194
5.756,0.005772783451014771
5.76,0.005772855572643547
5.764,0.005773264261873276
5.768,0.005770427477808095
5.772,0.0057699947480354405
5.776,0.0057703072750934685
5.78,0.0057809331950664355
5.784,0.005775644275622877
5.788,0.005765354923250864
5.792,0.00576766281537169
5.796,0.0057737931538176315
5.8,0.0057777598434003005
5.804,0.005777663681228599
5.808,0.005781269762667389
5.812,0.0057758606405092046
5.816,0.005770090910207142
5.82,0.0057698264642349634
5.824,0.00577223051852749
5.828,0.005770715964323199
5.832,0.005771196775181704
5.836,0.005772711329385995
5.84,0.005768384031659447
5.844,0.005772567086128443
5.848,0.005778913789460713
5.852,0.005780524505836705
5.856,0.005775355789107774
5.86,0.005769225450661832
5.864,0.005770643842694423
5.868,0.005774706694448792
5.872,0.005771677586040209
5.876,0.005770475558893946
5.88,0.005770836167037824
5.884,0.005773889315989333
5.888,0.005777375194713496
5.892,0.005777158829827169
5.896,0.005776605897339888
5.9,0.005777014586569617
5.904,0.005777880046114927
5.908,0.005776678018968664
5.912,0.005776557816254037
5.916,0.005777086708198393
5.92,0.0057762452891960085
5.924,0.005778985911089489
5.928,0.00577953884357677
5.932,0.00577542791073655
5.936,0.005773576788931305
5.94,0.005774153761961511
5.944,0.005775475991822401
5.948,0.005773023856444024
5.952,0.005773168099701575
5.956,0.005774874978249269
5.96,0.005772398802327967
5.964,0.005768239788401896
5.968,0.005766629072025903
5.972,0.005766004017909846
5.976,0.005770427477808095
5.98,0.005773336383502052
5.984,0.005778529140773909
5.988,0.005785092208992506
5.992,0.005779394600319218
5.996,0.005773216180787425
6.0,0.00577136505898218
6.0040000000000004,0.0057761010459384575
6.008,0.0057753798296506995
6.0120000000000005,0.005772494964499668
6.016,0.005773552748388379
6.0200000000000005,0.005773528707845454
6.024,0.005772014153641162
6.0280000000000005,0.005775475991822401
6.032,0.005779803289548947
6.0360000000000005,0.005778408938059283
6.04,0.005775668316165802
6.0440000000000005,0.005776774181140364
6.048,0.005771701626583134
6.0520000000000005,0.005773769113274706
6.056,0.005778120451544179
6.0600000000000005,0.005779562884119695
6.064,0.005776077005395532
6.0680000000000005,0.005773528707845454
6.072,0.005775403870193625
6.0760000000000005,0.005777880046114927
6.08,0.0057745864917341655
6.0840000000000005,0.005771244856267554
6.088,0.005775908721595055
6.0920000000000005,0.005785500898222236
6.096,0.005783914222389168
6.1000000000000005,0.005779274397604592
6.104,0.005776702059511589
6.1080000000000005,0.00577223051852749
6.112,0.005765739571937669
6.1160000000000005,0.0057681676667731205
6.12,0.005771437180610956
6.1240000000000006,0.005772254559070415
6.128,0.005769874545320814
6.132000000000001,0.005767855139715092
6.136,0.00576446542316263
6.140000000000001,0.005768239788401896
6.144,0.005765042396192836
6.148,0.005766220382796174
6.152,0.005770163031835917
6.156,0.005765306842165014
6.16,0.0057665809909400526
6.164,0.00577045151835102
6.168,0.005772519005042593
6.172,0.005775043262049745
6.176,0.005773120018615725
6.18,0.005774201843047362
6.184,0.005779322478690442
6.188,0.005785332614421759
6.192,0.00578410654673257
6.196,0.0057841786683613455
6.2,0.0057829045195863064
6.204,0.005780163897692827
6.208,0.0057784810596880586
6.212,0.00577542791073655
6.216,0.0057761731675672326
6.22,0.005779490762490919
6.224,0.005780260059864528
6.228,0.005783938262932093
6.232,0.0057874481821991825
6.236,0.005783144925015559
6.24,0.005781918857326371
6.244,0.005784395033247673
6.248,0.005785693222565638
6.252,0.005783409370987737
6.256,0.005783409370987737
6.26,0.005780596627465481
6.264,0.0057817986546117445
6.268,0.0057838661413033175
6.272,0.005780380262579154
6.276,0.005774899018792194
6.28,0.005768263828944822
6.284,0.005764249058276302
6.288,0.00576350380144562
6.292,0.005768504234374074
6.296,0.005783048762843858
6.3,0.005793025588157844
6.304,0.005801800386325565
6.308,0.005804757373105372
6.312,0.005802930291843052
6.316,0.005797088439912213
6.32,0.00578903485803225
6.324,0.005785645141479788
6.328,0.005785765344194414
6.332,0.005785693222565638
6.336,0.00578542877659346
6.34,0.005788169398486941
6.344,0.005789756074320008
6.348,0.005787544344370884
6.352,0.005784611398134
6.356,0.005780716830180108
6.36,0.005781942897869296
6.364,0.005782616033071204
6.368,0.0057823275465561
6.372,0.005782399668184876
6.376,0.00578182269515467
6.38,0.005781750573525894
6.384,0.0057844190737905985
6.388,0.005784226749447196
6.392,0.00578278431687168
6.396,0.005780620668008407
6.4,0.0057800436949782
6.404,0.005783673816959915
6.408,0.005781894816783446
6.412,0.005779394600319218
6.416,0.005773745072731782
6.42,0.005772158396898714
6.424,0.005776557816254037
6.428,0.00578182269515467
6.432,0.005786053830709517
6.436,0.005786582722653873
6.44,0.005777351154170571
6.444,0.005771845869840686
6.448,0.005774346086304913
6.452,0.00577908207326119
6.456,0.005780380262579154
6.46,0.005780476424750855
6.464,0.005777880046114927
6.468,0.005774418207933688
6.472,0.005777687721771525
6.476,0.005776605897339888
6.48,0.005769706261520337
6.484,0.005771677586040209
6.488,0.005772543045585519
6.492,0.005771220815724629
6.496,0.005775716397251653
6.5,0.0057817986546117445
6.5040000000000004,0.005784875844106178
6.508,0.0057809331950664355
6.5120000000000005,0.005780260059864528
6.516,0.005774009518703959
6.5200000000000005,0.005769874545320814
6.524,0.005773552748388379
6.5280000000000005,0.005773552748388379
6.532,0.005768552315459924
6.5360000000000005,0.00576679735582638
6.54,0.00576908120740428
6.5440000000000005,0.005774730734991717
6.548,0.005770066869664216
6.5520000000000005,0.005770836167037824
6.556,0.005772350721242116
6.5600000000000005,0.005772711329385995
6.564,0.005776269329738934
6.5680000000000005,0.005777086708198393
6.572,0.005776605897339888
6.5760000000000005,0.005778841667831937
6.58,0.0057814861275537165
6.5840000000000005,0.005779250357061666
6.588,0.00577634145136771
6.5920000000000005,0.00577360082947423
6.596,0.005776077005395532
6.6000000000000005,0.005781269762667389
6.604,0.005782976641215082
6.6080000000000005,0.005781702492440043
6.612,0.005778336816430507
6.6160000000000005,0.005776942464940841
6.62,0.0057761731675672326
6.6240000000000006,0.005774802856620493
6.628,0.005772639207757219
6.632000000000001,0.0057695860588057105
6.636,0.005769802423692038
6.640000000000001,0.005769345653376458
6.644,0.005768191707316046
6.648000000000001,0.005768840801975028
6.652,0.005772326680699191
6.656000000000001,0.005777904086657852
6.66,0.005776557816254037
6.664,0.005775740437794578
6.668,0.005777567519056898
6.672,0.005779154194889966
6.676,0.005777976208286627
6.68,0.0057737210321888565
6.684,0.0057737931538176315
6.688,0.005775524072908251
6.692,0.005775043262049745
6.696,0.005775331748564849
6.7,0.005777351154170571
6.704,0.005774009518703959
6.708,0.005772422842870892
6.712,0.005775067302592671
6.716,0.005776004883766756
6.72,0.005774153761961511
6.724,0.005771557383325582
6.728,0.005771917991469462
6.732,0.005777976208286627
6.736,0.005777856005572002
6.74,0.005778024289372478
6.744,0.005779610965205546
6.748,0.005776077005395532
6.752,0.00577451437010539
6.756,0.0057734806267596035
6.76,0.005778505100230984
6.764,0.0057783127758875815
6.768,0.005777831965029076
6.772,0.0057841786683613455
6.776,0.005778721465117311
6.78,0.00577405759978981
6.784,0.0057729276942723225
6.788,0.0057727594104718455
6.792,0.0057732402213303505
6.796,0.005773985478161034
6.8,0.005777663681228599
6.804,0.005777086708198393
6.808,0.0057756923567087275
6.812,0.005774490329562464
6.816,0.005774249924133212
6.82,0.005772158396898714
6.824,0.005769321612833533
6.828,0.0057732402213303505
6.832,0.005774129721418586
6.836,0.005775812559423354
6.84,0.005772494964499668
6.844,0.0057703072750934685
6.848,0.005771461221153881
6.852,0.005771389099525105
6.856,0.005768864842517953
6.86,0.005766845436912231
6.864,0.005767951301886793
6.868,0.005768095545144345
6.872,0.0057679272613438675
6.876,0.005776125086481383
6.88,0.005777807924486151
6.884,0.005772999815901098
6.888,0.00577223051852749
6.892,0.005775331748564849
6.896,0.0057766539784257385
6.9,0.005778961870546564
6.904,0.005781341884296165
6.908,0.005783769979131616
6.912,0.005783096843929709
6.916,0.005781630370811267
6.92,0.0057810053166952105
6.924,0.005778457019145133
6.928,0.005776437613539411
6.932,0.005772783451014771
6.936,0.005776822262226215
6.94,0.00577908207326119
6.944,0.005780812992351809
6.948,0.005779923492263574
6.952,0.005776678018968664
6.956,0.00578136592483909
6.96,0.00578086107343766
6.964,0.005779827330091873
6.968,0.005778457019145133
6.972,0.005778601262402684
6.976,0.005775235586393148
6.98,0.005772014153641162
6.984,0.005770956369752451
6.988,0.005769682220977412
6.992,0.005768600396545775
6.996,0.005765619369223042
7.0,0.00576359996361732
7.0040000000000004,0.005780885113980585
7.008,0.005796271061452754
7.0120000000000005,0.005803723629759586
7.016,0.0058040842379034644
7.0200000000000005,0.0058002137104924975
7.024,0.0057978336967428965
7.0280000000000005,0.005789371425633204
7.032,0.005780163897692827
7.0360000000000005,0.005776894383854991
7.04,0.005777375194713496
7.0440000000000005,0.0057775194379710475
7.048,0.0057809331950664355
7.0520000000000005,0.005784659479219851
7.056,0.005785116249535432
7.0600000000000005,0.005785597060393937
7.064,0.00578273623578583
7.0680000000000005,0.005783529573702363
7.072,0.005779610965205546
7.0760000000000005,0.005778408938059283
7.08,0.00577542791073655
7.0840000000000005,0.005778000248829553
7.088,0.005781942897869296
7.0920000000000005,0.005783289168273111
7.096,0.005780740870723033
7.1000000000000005,0.005778841667831937
7.104,0.005778240654258806
7.1080000000000005,0.005774177802504436
7.112,0.005774009518703959
7.1160000000000005,0.005776437613539411
7.12,0.005778769546203161
7.1240000000000006,0.0057772069109130195
7.128,0.005774009518703959
7.132000000000001,0.0057772069109130195
7.136,0.005776004883766756
7.140000000000001,0.0057753798296506995
7.144,0.005775716397251653
7.148000000000001,0.005774706694448792
7.152,0.005775596194537026
7.156000000000001,0.005779514803033845
7.16,0.005780957235609361
7.164000000000001,0.005777856005572002
7.168,0.0057764135729964855
7.172,0.005775956802680906
7.176,0.005781750573525894
7.18,0.005779466721947994
7.184,0.005776149127024308
7.188,0.005776726100054514
7.192,0.005780812992351809
7.196,0.0057804523842079295
7.2,0.005774971140420969
7.204,0.00577588468105213
7.208,0.005775475991822401
7.212,0.005772711329385995
7.216,0.005770619802151497
7.22,0.005771292937353405
7.224,0.005771990113098237
7.228,0.005773384464587902
7.232,0.005774802856620493
7.236,0.005774802856620493
7.24,0.0057766539784257385
7.244,0.005776533775711112
7.248,0.005771990113098237
7.252,0.005775211545850222
7.256,0.005774201843047362
7.26,0.005772350721242116
7.264,0.0057762452891960085
7.268,0.005778841667831937
7.272,0.00577771176231445
7.276,0.005776557816254037
7.28,0.005778000248829553
7.284,0.0057748268971634185
7.288,0.005776437613539411
7.292,0.005778769546203161
7.296,0.005777423275799346
7.3,0.005777591559599823
7.304,0.005778697424574385
7.308,0.005778889748917788
7.312,0.005777399235256421
7.316,0.005778457019145133
7.32,0.005779610965205546
7.324,0.005777447316342272
7.328,0.005773961437618109
7.332,0.00577451437010539
7.336,0.005777615600142749
7.34,0.005778288735344656
7.344,0.005776726100054514
7.348,0.005778120451544179
7.352,0.005779683086834322
7.356,0.00577456245119124
7.36,0.00577223051852749
7.364,0.005774153761961511
7.368,0.005772807491557696
7.372,0.005771605464411433
7.376,0.005773264261873276
7.38,0.0057695860588057105
7.384,0.005772062234727013
7.388,0.005777086708198393
7.392,0.005775620235079952
7.396,0.005775836599966279
7.4,0.005782063100583923
7.404,0.0057849720062778795
7.408,0.005783553614245289
7.412,0.005778024289372478
7.416,0.005777447316342272
7.42,0.005778336816430507
7.424,0.005782111181669773
7.428,0.005781101478866912
7.432,0.00577638953245356
7.436,0.005774298005219063
7.44,0.005778841667831937
7.444,0.005781774614068819
7.448,0.005778913789460713
7.452,0.00577953884357677
7.456,0.005782183303298548
7.46,0.005783241087187261
7.464,0.005783673816959915
7.468,0.0057819669384122216
7.472,0.005782423708727801
7.476,0.005784899884649104
7.48,0.00578720777676993
7.484,0.005781341884296165
7.488,0.0057791061138041154
7.492,0.00578090915452351
7.496,0.00577816853263003
7.5,0.0057791782354328905
7.5040000000000004,0.005783433411530662
7.508,0.005783265127730186
7.5120000000000005,0.0057823515870990255
7.516,0.0057825198708995025
7.5200000000000005,0.0057833853304448115
7.524,0.0057810053166952105
7.5280000000000005,0.005784587357591075
7.532,0.005788481925544969
7.5360000000000005,0.005787808790343061
7.54,0.005786462519939247
7.5440000000000005,0.005782423708727801
7.548,0.0057769665054837665
7.5520000000000005,0.005770331315636394
7.556,0.005773841234903482
7.5600000000000005,0.005773408505130828
7.564,0.005770163031835917
7.5680000000000005,0.005765859774652295
7.572,0.005771196775181704
7.5760000000000005,0.005775524072908251
7.58,0.005775259626936073
7.5840000000000005,0.005774947099878045
7.588,0.005774754775534643
7.5920000000000005,0.005777327113627646
7.596,0.00578050046529378
7.6000000000000005,0.005780885113980585
7.604,0.00578050046529378
7.6080000000000005,0.0057849720062778795
7.612,0.0057887944526029975
7.6160000000000005,0.005788073236315239
7.62,0.005785909587451965
7.6240000000000006,0.00578771262817136
7.628,0.005788433844459118
7.632000000000001,0.005787856871428912
7.636,0.005786775046997275
7.640000000000001,0.005787039492969453
7.644,0.0057856211009368625
7.648000000000001,0.005780211978778677
7.652,0.005779058032718265
7.656000000000001,0.005782976641215082
7.66,0.005786702925368499
7.664000000000001,0.00578771262817136
7.668,0.005788049195772314
7.672000000000001,0.005791847601554506
7.676,0.005791823561011581
7.68,0.00578456331704815
7.684,0.005782015019498072
7.688,0.005781894816783446
7.692,0.005782543911442428
7.696,0.0057777598434003005
7.7,0.005769730302063262
7.704,0.005763191274387591
7.708,0.005768263828944822
7.712,0.005788073236315239
7.716,0.00579867511574528
7.72,0.005805382427221429
7.724,0.005808387495087087
7.728,0.0058069450625115706
7.732,0.005803411102701557
7.736,0.005796679750682484
7.74,0.0057949728721347895
7.744,0.005793265993587096
7.748,0.005791511033953552
7.752,0.005788097276858165
7.756,0.005791583155582328
7.76,0.0057925928583851885
7.764,0.005790236885178513
7.768,0.0057849720062778795
7.772,0.0057825919925282784
7.776,0.005784875844106178
7.78,0.005784370992704748
7.784,0.005784827763020328
7.788,0.005784875844106178
7.792,0.0057833132088160365
7.796,0.005790525371693616
7.8,0.005791078304180897
7.804,0.005789635871605381
7.808,0.005794395899104583
7.812,0.005795694088422548
7.816,0.005793746804445601
7.82,0.005794347818018733
7.824,0.005794684385619687
7.828,0.00579040516897899
7.832,0.005791535074496477
7.836,0.005789683952691232
7.84,0.0057909340609233455
7.844,0.005789876277034634
7.848,0.005788890614774699
7.852,0.0057891069796610255
7.856,0.005786847168626051
7.86,0.005782543911442428
7.864,0.005783577654788214
7.868,0.005785717263108564
7.872,0.00578456331704815
7.876,0.005782207343841474
7.88,0.005780716830180108
7.884,0.0057800436949782
7.888,0.005781462087010791
7.892,0.005776077005395532
7.896,0.005778096411001254
7.9,0.005782087141126848
7.904,0.005784851803563253
7.908,0.00578578938473734
7.912,0.005786029790166592
7.916,0.0057861740334241435
7.92,0.005785308573878834
7.924,0.005784058465646719
7.928,0.005784996046820805
7.932,0.005784635438676925
7.936,0.005785260492792984
7.94,0.005783481492616513
7.944,0.005785404736050535
7.948,0.00578542877659346
7.952,0.005780380262579154
7.956,0.005780548546379631
7.96,0.005783769979131616
7.964,0.005786270195595845
7.968,0.005792857304357367
7.972,0.005794924791048939
7.976,0.005796727831768334
7.98,0.00578903485803225
7.984,0.005789299304004428
7.988,0.005790020520292186
7.992,0.005793915088246078
7.996,0.0057992520887754865
8.0,0.005796150858738127
8.004,0.005788289601201567
8.008000000000001,0.005788049195772314
8.012,0.005789275263461503
8.016,0.005792520736756413
8.02,0.005794323777475807
8.024000000000001,0.005793434277387573
8.028,0.005793530439559274
8.032,0.005790429209521915
8.036,0.0057899003175775595
8.040000000000001,0.005790958101466271
8.044,0.005791703358296954
8.048,0.005793265993587096
8.052,0.005794275696389958
8.056000000000001,0.005794636304533836
8.06,0.005793650642273901
8.064,0.005791655277211104
8.068,0.005792112047526683
8.072000000000001,0.005793410236844648
8.076,0.005792544777299338
8.08,0.005793001547614919
8.084,0.005794852669420164
8.088000000000001,0.005794203574761182
8.092,0.005796968237197587
8.096,0.005793794885531452
8.1,0.00579360256118805
8.104000000000001,0.0057957662100513235
8.108,0.005796078737109352
8.112,0.005797929858914597
8.116,0.005802858170214276
8.120000000000001,0.005801608061982162
8.124,0.005798338548144327
8.128,0.005794299736932883
8.132,0.005792953466529068
8.136000000000001,0.005797785615657046
8.14,0.005794011250417779
8.144,0.005790669614951168
8.148,0.005791342750153075
8.152000000000001,0.005793049628700769
8.156,0.005791246587981374
8.16,0.005791342750153075
8.164,0.0057925928583851885
8.168000000000001,0.005789179101289801
8.172,0.0057913187096101494
8.176,0.005793578520645125
8.18,0.005795549845164996
8.184000000000001,0.005793794885531452
8.188,0.005792472655670563
8.192,0.0057973528858843906
8.196,0.005796992277740512
8.2,0.005796535507424932
8.204,0.005798530872487728
8.208,0.005798001980543373
8.212,0.0057955258046220705
8.216,0.005794732466705537
8.22,0.005794804588334313
8.224,0.005795790250594249
8.228,0.005793506399016349
8.232,0.005788938695860548
8.236,0.005785741303651489
8.24,0.00579091002038042
8.244,0.005796631669596633
8.248,0.005793578520645125
8.252,0.0057864144388533965
8.256,0.005779803289548947
8.26,0.005779322478690442
8.264,0.005783721898045766
8.268,0.005785236452250059
8.272,0.00578456331704815
8.276,0.005784226749447196
8.28,0.005787183736227004
8.284,0.005786029790166592
8.288,0.0057838661413033175
8.292,0.005780837032894734
8.296,0.005782543911442428
8.3,0.005786678884825574
8.304,0.005788698290431296
8.308,0.005792881344900292
8.312,0.005798001980543373
8.316,0.0057996607780052166
8.32,0.00579908380497501
8.324,0.005795237318106968
8.328,0.005794155493675331
8.332,0.005795910453308875
8.336,0.0057973528858843906
8.34,0.005795309439735744
8.344,0.00579223225024131
8.348,0.0057949728721347895
8.352,0.005800406034835899
8.356,0.00579908380497501
8.36,0.005794011250417779
8.364,0.005791919723183281
8.368,0.005794203574761182
8.372,0.005797569250770718
8.376,0.005796102777652278
8.38,0.005793506399016349
8.384,0.005793722763902676
8.388,0.00579360256118805
8.392,0.005789996479749261
8.396,0.00578771262817136
8.4,0.005786823128083126
8.404,0.00578319300610141
8.408,0.005782063100583923
8.412,0.005776605897339888
8.416,0.005776678018968664
8.42,0.0057829045195863064
8.424,0.005798482791401879
8.428,0.005809108711374845
8.432,0.0058143976308184025
8.436,0.005816681482396302
8.44,0.005808026886943208
8.444,0.005801968670126042
8.448,0.005799877142891543
8.452,0.0057998050212627675
8.456,0.005798723196831131
8.46,0.005797064399369288
8.464,0.005794996912677715
8.468,0.005793314074672947
8.472,0.005790116682463886
8.476,0.005790140723006812
8.48,0.005791246587981374
8.484,0.005793794885531452
8.488,0.005796487426339082
8.492,0.005794540142362135
8.496,0.005796703791225409
8.5,0.005794588223447986
8.504,0.005792256290784235
8.508000000000001,0.005791583155582328
8.512,0.005792616898928114
8.516,0.005791126385266748
8.52,0.0057875203038279584
8.524000000000001,0.005786943330797752
8.528,0.005785260492792984
8.532,0.005786029790166592
8.536,0.005783096843929709
8.540000000000001,0.0057864144388533965
8.544,0.005790164763549737
8.548,0.005787736668714285
8.552,0.005785476857679311
8.556000000000001,0.005786462519939247
8.56,0.005786847168626051
8.564,0.0057867990875402
8.568,0.005783289168273111
8.572000000000001,0.0057859336279948905
8.576,0.005787159695684079
8.58,0.005789395466176129
8.584,0.0057933861963017225
8.588000000000001,0.005788505966087894
8.592,0.005784803722477402
8.596,0.005786198073967069
8.6,0.00578766454708551
8.604000000000001,0.005790309006807289
8.608,0.005791943763726206
8.612,0.005788025155229389
8.616,0.005791102344723823
8.620000000000001,0.00578542877659346
8.624,0.0057827602763287555
8.628,0.005781558249182492
8.632,0.005779731167920172
8.636000000000001,0.005776822262226215
8.64,0.005776004883766756
8.644,0.005782015019498072
8.648,0.005784923925192029
8.652000000000001,0.005788457885002043
8.656,0.005786534641568022
8.66,0.005781341884296165
8.664,0.005784010384560868
8.668000000000001,0.00578278431687168
8.672,0.005780885113980585
8.676,0.005779130154347041
8.68,0.005783337249358962
8.684000000000001,0.005786702925368499
8.688,0.005788530006630819
8.692,0.005789395466176129
8.696,0.005790477290607766
8.700000000000001,0.005795237318106968
8.704,0.005796030656023502
8.708,0.005792472655670563
8.712,0.005792929425986143
8.716,0.00578953970943368
8.72,0.005787135655141154
8.724,0.005785044127906655
8.728,0.005785548979308087
8.732,0.005784202708904271
8.736,0.00578182269515467
8.74,0.005786246155052919
8.744,0.005785957668537816
8.748,0.005781414005924941
8.752,0.005781702492440043
8.756,0.005785140290078357
8.76,0.00578725585785578
8.764,0.005786630803739723
8.768,0.005786582722653873
8.772,0.005787352020027481
8.776,0.005787640506542585
8.78,0.005784707560305701
8.784,0.005784947965734954
8.788,0.005788337682287417
8.792,0.005789155060746876
8.796,0.005790333047350214
8.8,0.005785548979308087
8.804,0.005783048762843858
8.808,0.005787568384913809
8.812,0.005792304371870086
8.816,0.005794804588334313
8.82,0.005786871209168976
8.824,0.005785765344194414
8.828,0.005786318276681695
8.832,0.005785885546909041
8.836,0.005784010384560868
8.84,0.00578542877659346
8.844,0.005786005749623666
8.848,0.005789996479749261
8.852,0.005794732466705537
8.856,0.0057922803313271605
8.86,0.005793650642273901
8.864,0.005789996479749261
8.868,0.005786125952338293
8.872,0.005788505966087894
8.876,0.005791631236668178
8.88,0.005795141155935267
8.884,0.0057954536829932955
8.888,0.005794035290960705
8.892,0.0057904532500648405
8.896,0.005784683519762776
8.9,0.005785308573878834
8.904,0.005788938695860548
8.908,0.005789828195948784
8.912,0.005794443980190434
8.916,0.0057900686013780366
8.92,0.005788169398486941
8.924,0.005789972439206335
8.928,0.005792112047526683
8.932,0.005791102344723823
8.936,0.005788650209345446
8.94,0.005785236452250059
8.944,0.005785332614421759
8.948,0.005787544344370884
8.952,0.0057874481821991825
8.956,0.005789732033777082
8.96,0.005789707993234157
8.964,0.005787135655141154
8.968,0.0057823515870990255
8.972,0.005777976208286627
8.976,0.005783337249358962
8.98,0.005784539276505225
8.984,0.005778769546203161
8.988,0.005775451951279475
8.992,0.005783505533159438
8.996,0.005789780114862933
9.0,0.005790309006807289
9.004,0.005792063966440833
9.008000000000001,0.005789756074320008
9.012,0.00579091002038042
9.016,0.005796655710139559
9.02,0.005798891480631608
9.024000000000001,0.005799612696919366
9.028,0.005799204007689636
9.032,0.005794996912677715
9.036,0.005789707993234157
9.040000000000001,0.0057885540471737445
9.044,0.005789972439206335
9.048,0.0057893473850902785
9.052,0.005793482358473424
9.056000000000001,0.005793290034130021
9.06,0.005794636304533836
9.064,0.005795044993763565
9.068,0.005795814291137174
9.072000000000001,0.0057935544801021996
9.076,0.005787928993057688
9.08,0.005790357087893139
9.084,0.0057906215338653175
9.088000000000001,0.005789419506719054
9.092,0.005788145357944015
9.096,0.005787928993057688
9.1,0.0057899003175775595
9.104000000000001,0.005785813425280265
9.108,0.005779827330091873
9.112,0.005778601262402684
9.116,0.005785981709080741
9.120000000000001,0.005801559980896312
9.124,0.005811248319695193
9.128,0.005812979238785812
9.132,0.005816272793166573
9.136000000000001,0.005813195603672139
9.14,0.005811344481866894
9.144,0.005803627467587885
9.148,0.005799588656376441
9.152000000000001,0.0058018725079543405
9.156,0.005801559980896312
9.16,0.005798074102172149
9.164,0.005797328845341465
9.168000000000001,0.0057933861963017225
9.172,0.005792544777299338
9.176,0.005793746804445601
9.18,0.005796775912854184
9.184000000000001,0.005797857737285822
9.188,0.00579725672371269
9.192,0.00580086280515148
9.196,0.0057955258046220705
9.200000000000001,0.005793722763902676
9.204,0.005795165196478192
9.208,0.005799228048232561
9.212,0.005799107845517936
9.216000000000001,0.005798987642803309
9.22,0.005797376926427316
9.224,0.005795333480278669
9.228,0.005798026021086298
9.232,0.005796030656023502
9.236,0.0057936266017309754
9.24,0.005794203574761182
9.244,0.00579273710164274
9.248,0.005794203574761182
9.252,0.005795261358649893
9.256,0.005795646007336697
9.26,0.005795141155935267
9.264,0.0057906215338653175
9.268,0.005787544344370884
9.272,0.005784803722477402
9.276,0.005785140290078357
9.28,0.005787592425456734
9.284,0.005786991411883603
9.288,0.005789732033777082
9.292,0.005791390831238925
9.296,0.005790429209521915
9.3,0.005791294669067225
9.304,0.005787352020027481
9.308,0.005785116249535432
9.312,0.005784491195419374
9.316,0.005790549412236542
9.32,0.0057900686013780366
9.324,0.005791390831238925
9.328,0.0057936266017309754
9.332,0.005788770412060072
9.336,0.005788145357944015
9.34,0.00578761646599966
9.344,0.005789683952691232
9.348,0.005791511033953552
9.352,0.005782015019498072
9.356,0.005774658613362941
9.36,0.005773648910560081
9.364,0.005775716397251653
9.368,0.005786654844282649
9.372,0.005787544344370884
9.376,0.005782471789813652
9.38,0.005781702492440043
9.384,0.005785068168449581
9.388,0.00578949162834783
9.392,0.005787352020027481
9.396,0.005787568384913809
9.4,0.005790236885178513
9.404,0.005789227182375652
9.408,0.005789780114862933
9.412,0.005787087574055304
9.416,0.005785669182022713
9.42,0.005792520736756413
9.424,0.005795910453308875
9.428,0.005795549845164996
9.432,0.0057914869934106265
9.436,0.005792977507071993
9.44,0.005792761142185666
9.444,0.005795165196478192
9.448,0.005795333480278669
9.452,0.005790188804092662
9.456,0.005788505966087894
9.46,0.005791631236668178
9.464,0.005792112047526683
9.468,0.005789876277034634
9.472,0.005789467587804905
9.476,0.005790140723006812
9.48,0.005791222547438449
9.484,0.005790116682463886
9.488,0.005786462519939247
9.492,0.005784202708904271
9.496,0.005789587790519531
9.5,0.005797953899457522
9.504,0.005795982574937651
9.508000000000001,0.005791751439382805
9.512,0.005790501331150691
9.516,0.005787904952514762
9.52,0.005790741736579943
9.524000000000001,0.005791535074496477
9.528,0.00579177547992573
9.532,0.00579319387195832
9.536,0.005797064399369288
9.540000000000001,0.005796102777652278
9.544,0.00578953970943368
9.548,0.005789876277034634
9.552,0.0057867990875402
9.556000000000001,0.005787352020027481
9.56,0.005791943763726206
9.564,0.005791991844812057
9.568,0.005787400101113332
9.572000000000001,0.005789323344547353
9.576,0.005793001547614919
9.58,0.005794131453132406
9.584,0.005790549412236542
9.588000000000001,0.005790717696037018
9.592,0.005791919723183281
9.596,0.005788674249888371
9.6,0.005785597060393937
9.604000000000001,0.0057913187096101494
9.608,0.00579456418290506
9.612,0.005793578520645125
9.616,0.005790044560835111
9.620000000000001,0.0057975932913136435
9.624,0.005802016751211892
9.628,0.005796271061452754
9.632,0.005790429209521915
9.636000000000001,0.00578502008736373
9.64,0.005785885546909041
9.644,0.0057847316008486265
9.648,0.005781606330268342
9.652000000000001,0.005782399668184876
9.656,0.00578364977641699
9.66,0.005785164330621283
9.664,0.005780115816606976
9.668000000000001,0.005778961870546564
9.672,0.005781918857326371
9.676,0.005787953033600613
9.68,0.00579405933150363
9.684000000000001,0.005792352452955936
9.688,0.005786270195595845
9.692,0.005785717263108564
9.696,0.005794804588334313
9.700000000000001,0.005794011250417779
9.704,0.005790477290607766
9.708,0.005795405601907445
9.712,0.0057978336967428965
9.716000000000001,0.005798074102172149
9.72,0.005792472655670563
9.724,0.0057883857633732674
9.728,0.0057856211009368625
9.732,0.005788698290431296
9.736,0.005792977507071993
9.74,0.005795093074849416
9.744,0.005792088006983758
9.748,0.005794443980190434
9.752,0.005790597493322392
9.756,0.005792640939471039
9.76,0.00579588641276595
9.764,0.005794804588334313
9.768,0.005791991844812057
9.772,0.00578771262817136
9.776,0.005785765344194414
9.78,0.00578953970943368
9.784,0.005790477290607766
9.788,0.005784202708904271
9.792,0.005773047896986949
9.796,0.0057753798296506995
9.8,0.005788217479572791
9.804,0.005800478156464675
9.808,0.005811007914265941
9.812,0.00581740269868406
9.816,0.005816272793166573
9.82,0.005811753171096623
9.824,0.005808988508660218
9.828,0.0058050458596204755
9.832,0.005796271061452754
9.836,0.005793458317930498
9.84,0.005793290034130021
9.844,0.005792809223271516
9.848,0.005791655277211104
9.852,0.005795405601907445
9.856,0.00579451610181921
9.86,0.005792496696213488
9.864,0.005793530439559274
9.868,0.005793818926074377
9.872,0.005792785182728591
9.876,0.005792376493498862
9.88,0.005794395899104583
9.884,0.005793818926074377
9.888,0.005792472655670563
9.892,0.005791751439382805
9.896,0.005793001547614919
9.9,0.005791559115039402
9.904,0.005789876277034634
9.908,0.005793434277387573
9.912,0.005796174899281053
9.916,0.005797785615657046
9.92,0.005796992277740512
9.924,0.005791847601554506
9.928,0.005791703358296954
9.932,0.005788530006630819
9.936,0.005787953033600613
9.94,0.005787592425456734
9.944,0.0057936266017309754
9.948,0.005790164763549737
9.952,0.005782640073614129
9.956,0.00578319300610141
9.96,0.005784707560305701
9.964,0.005787904952514762
9.968,0.0057872798983987055
9.972,0.0057853806955076095
9.976,0.005782928560129232
9.98,0.0057849720062778795
9.984,0.005784587357591075
9.988,0.005784322911618897
9.992,0.005786558682110947
9.996,0.0057899003175775595
10.0,0.005790357087893139
10.004,0.005785356654964684
10.008000000000001,0.005779442681405069
10.012,0.00577867338403146
10.016,0.0057838661413033175
10.02,0.005793121750329544
10.024000000000001,0.005792953466529068
10.028,0.005791559115039402
10.032,0.005787303938941631
10.036,0.005783144925015559
10.040000000000001,0.005785669182022713
10.044,0.0057858615063661155
10.048,0.005782471789813652
10.052,0.005779226316518741
10.056000000000001,0.0057777598434003005
10.06,0.005782976641215082
10.064,0.005782015019498072
10.068,0.005780885113980585
10.072000000000001,0.0057798994517206485
10.076,0.0057819669384122216
10.08,0.00578629423613877
10.084,0.00578994839866341
10.088000000000001,0.005788698290431296
10.092,0.00578771262817136
10.096,0.0057928332638144415
10.1,0.005789972439206335
10.104000000000001,0.00578578938473734
10.108,0.005787496263285033
10.112,0.005791703358296954
10.116,0.0057931457908724695
10.120000000000001,0.005795790250594249
10.124,0.005799228048232561
10.128,0.005795285399192818
10.132,0.005791030223095047
10.136000000000001,0.005784034425103794
10.14,0.005780476424750855
10.144,0.005784467154876449
10.148,0.005785597060393937
10.152000000000001,0.005784346952161823
10.156,0.005786678884825574
10.16,0.005783745938588691
10.164,0.005783120884472634
10.168000000000001,0.005784226749447196
10.172,0.005783769979131616
10.176,0.005786366357767546
10.18,0.005787736668714285
10.184000000000001,0.005783745938588691
10.188,0.005785404736050535
10.192,0.005788409803916193
10.196,0.005791150425809673
10.200000000000001,0.00579456418290506
10.204,0.005793915088246078
10.208,0.005789227182375652
10.212,0.005786149992881218
10.216000000000001,0.005783024722300933
10.22,0.005783289168273111
10.224,0.005783818060217467
10.228,0.005783818060217467
10.232000000000001,0.005786029790166592
10.236,0.005786919290254827
10.24,0.005786678884825574
10.244,0.005792664980013964
10.248,0.005801800386325565
10.252,0.005798074102172149
10.256,0.005793746804445601
10.26,0.005793169831415395
10.264,0.0057858615063661155
10.268,0.005782976641215082
10.272,0.005784058465646719
10.276,0.005784683519762776
10.28,0.005782303506013175
10.284,0.005784587357591075
10.288,0.005785092208992506
10.292,0.005787977074143538
10.296,0.005790188804092662
10.3,0.005791751439382805
10.304,0.005791030223095047
10.308,0.005783120884472634
10.312,0.005784250789990121
10.316,0.005783577654788214
10.32,0.005779755208463098
10.324,0.005782231384384399
10.328,0.005787424141656257
10.332,0.0057847316008486265
10.336,0.0057810053166952105
10.34,0.00578050046529378
10.344,0.0057829045195863064
10.348,0.005781317843753239
10.352,0.005778408938059283
10.356,0.00578090915452351
10.36,0.005789563749976605
10.364,0.005793842966617302
10.368,0.005791847601554506
10.372,0.005792184169155459
10.376,0.005786823128083126
10.38,0.005787135655141154
10.384,0.0057900686013780366
10.388,0.005787376060570407
10.392,0.005786029790166592
10.396,0.00578766454708551
10.4,0.005788914655317623
10.404,0.005788409803916193
10.408,0.005793987209874854
10.412,0.005796030656023502
10.416,0.0057931457908724695
10.42,0.005791967804269132
10.424,0.005792496696213488
10.428,0.005791535074496477
10.432,0.005792761142185666
10.436,0.005794347818018733
10.44,0.005794612263990911
10.444,0.005793746804445601
10.448,0.005792352452955936
10.452,0.005789419506719054
10.456,0.005786630803739723
10.46,0.005783024722300933
10.464,0.005781702492440043
10.468,0.005777639640685674
10.472,0.005772398802327967
10.476,0.005774225883590287
10.48,0.005785188371164208
10.484,0.005798963602260384
10.488,0.005807906684228582
10.492,0.005814229347017925
10.496,0.005811897414354175
10.5,0.005810479022321585
10.504,0.005801535940353386
10.508000000000001,0.0057914869934106265
10.512,0.005793963169331929
10.516,0.0057944199396475085
10.52,0.005792400534041787
10.524000000000001,0.005792328412413011
10.528,0.0057933861963017225
10.532,0.005791222547438449
10.536,0.005792208209698385
10.540000000000001,0.005792448615127638
10.544,0.005795309439735744
10.548,0.005793674682816826
10.552,0.005794996912677715
10.556000000000001,0.005797881777828747
10.56,0.005798458750858953
10.564,0.00579639126416738
10.568,0.00579177547992573
10.572000000000001,0.0057864144388533965
10.576,0.005789732033777082
10.58,0.0057874481821991825
10.584,0.005790044560835111
10.588000000000001,0.0057952132775640425
10.592,0.005792953466529068
10.596,0.0057917273988398795
10.6,0.00579091002038042
10.604000000000001,0.005794852669420164
10.608,0.005794684385619687
10.612,0.005795790250594249
10.616,0.0057998050212627675
10.620000000000001,0.005793482358473424
10.624,0.005787424141656257
10.628,0.005794540142362135
10.632,0.0057955258046220705
10.636000000000001,0.005794179534218256
10.64,0.005795573885707921
10.644,0.005790044560835111
10.648,0.005783721898045766
10.652000000000001,0.005781510168096642
10.656,0.0057798994517206485
10.66,0.0057798994517206485
10.664,0.005783529573702363
10.668000000000001,0.005788962736403474
10.672,0.00578725585785578
10.676,0.005784947965734954
10.68,0.005789179101289801
10.684000000000001,0.0057913187096101494
10.688,0.005786991411883603
10.692,0.0057864144388533965
10.696,0.005783914222389168
10.700000000000001,0.005780596627465481
10.704,0.0057806927896371825
10.708,0.005784467154876449
10.712,0.005788217479572791
10.716000000000001,0.005786630803739723
10.72,0.0057859336279948905
10.724,0.00578364977641699
10.728,0.0057823515870990255
10.732000000000001,0.005782159262755624
10.736,0.005786222114509994
10.74,0.005787496263285033
10.744,0.005788674249888371
10.748000000000001,0.005784923925192029
10.752,0.00578050046529378
10.756,0.005785645141479788
10.76,0.005784010384560868
10.764,0.00578182269515467
10.768,0.005784010384560868
10.772,0.005786390398310471
10.776,0.005786606763196798
10.78,0.005783938262932093
10.784,0.00578273623578583
10.788,0.005784587357591075
10.792,0.005787111614598228
10.796,0.005785524938765161
10.8,0.005783457452073587
10.804,0.00578364977641699
10.808,0.005784635438676925
10.812,0.005784274830533047
10.816,0.0057841786683613455
10.82,0.005788722330974222
10.824,0.00578578938473734
10.828,0.005782664114157054
10.832,0.0057819669384122216
10.836,0.0057838661413033175
10.84,0.0057823275465561
10.844,0.0057806927896371825
10.848,0.005783409370987737
10.852,0.00578994839866341
10.856,0.005793314074672947
10.86,0.005790597493322392
10.864,0.0057885540471737445
10.868,0.005787159695684079
10.872,0.005791847601554506
10.876,0.005791847601554506
10.88,0.005786943330797752
10.884,0.005785044127906655
10.888,0.005785236452250059
10.892,0.005785645141479788
10.896,0.00578766454708551
10.9,0.005788337682287417
10.904,0.0057911744663525985
10.908,0.005789179101289801
10.912,0.005789275263461503
10.916,0.005791150425809673
10.92,0.005791511033953552
10.924,0.005789996479749261
10.928,0.005786654844282649
10.932,0.00579223225024131
10.936,0.005792063966440833
10.94,0.005793434277387573
10.944,0.005796439345253231
10.948,0.005793578520645125
10.952,0.0057899003175775595
10.956,0.00579086193929457
10.96,0.0057899003175775595
10.964,0.00578994839866341
10.968,0.005789419506719054
10.972,0.005783433411530662
10.976,0.005783673816959915
10.98,0.0057793465192333675
10.984,0.0057812457221244635
10.988,0.005785957668537816
10.992,0.005788986776946399
10.996,0.005786246155052919
11.0,0.005780428343665004
11.004,0.005779875411177723
11.008000000000001,0.005782976641215082
11.012,0.005780380262579154
11.016,0.00577725499199887
11.02,0.005779659046291396
11.024000000000001,0.005782495830356577
11.028,0.005784202708904271
11.032,0.005786991411883603
11.036,0.0057858615063661155
11.040000000000001,0.00578725585785578
11.044,0.005790837898751644
11.048,0.005794347818018733
11.052,0.005795670047879622
11.056000000000001,0.005795069034306491
11.06,0.0057933861963017225
11.064,0.005795117115392341
11.068,0.005795117115392341
11.072000000000001,0.005798843399545757
11.076,0.00579908380497501
11.08,0.005796607629053708
11.084,0.0057912706285243
11.088000000000001,0.00578675100645435
11.092,0.00578766454708551
11.096,0.005790813858208719
11.1,0.005792953466529068
11.104000000000001,0.005789419506719054
11.108,0.005783938262932093
11.112,0.005785524938765161
11.116,0.005787303938941631
11.120000000000001,0.005790501331150691
11.124,0.005791126385266748
11.128,0.005792472655670563
11.132,0.0057890829391181
11.136000000000001,0.00578542877659346
11.14,0.00578771262817136
11.144,0.005783048762843858
11.148,0.0057845152359623
11.152000000000001,0.005781654411354193
11.156,0.005776149127024308
11.16,0.005778769546203161
11.164,0.00578502008736373
11.168000000000001,0.00580228119718407
11.172,0.005807858603142731
11.176,0.005804036156817614
11.18,0.005802834129671351
11.184000000000001,0.005802497562070397
11.188,0.0058002137104924975
11.192,0.005795718128965473
11.196,0.005795814291137174
11.200000000000001,0.005791679317754029
11.204,0.005793530439559274
11.208,0.005796751872311259
11.212,0.005794804588334313
11.216000000000001,0.005791390831238925
11.22,0.005791703358296954
11.224,0.00579456418290506
11.228,0.005794636304533836
11.232000000000001,0.0057914869934106265
11.236,0.005794203574761182
11.24,0.005799516534747665
11.244,0.00580365150813081
11.248000000000001,0.005798987642803309
11.252,0.005795165196478192
11.256,0.005791198506895524
11.26,0.005792112047526683
11.264,0.005796896115568811
11.268,0.005801175332209508
11.272,0.0058029783729289025
11.276,0.005801055129494881
11.28,0.005797881777828747
11.284,0.005794588223447986
11.288,0.005793025588157844
11.292,0.005796222980366903
11.296,0.005799396332033038
11.3,0.00579679995339711
11.304,0.005791919723183281
11.308,0.005788914655317623
11.312,0.0057910061825521214
11.316,0.005792472655670563
11.32,0.005793842966617302
11.324,0.0057930736692436945
11.328,0.005794203574761182
11.332,0.005797689453485345
11.336,0.005794131453132406
11.34,0.005790116682463886
11.344,0.005791871642097431
11.348,0.005792448615127638
11.352,0.005793698723359751
11.356,0.005792256290784235
11.36,0.005790501331150691
11.364,0.005788337682287417
11.368,0.005787303938941631
11.372,0.005787953033600613
11.376,0.005788770412060072
11.38,0.00579091002038042
11.384,0.005791390831238925
11.388,0.005791847601554506
11.392,0.005790140723006812
11.396,0.00579091002038042
11.4,0.005787856871428912
11.404,0.005790020520292186
11.408,0.005791631236668178
11.412,0.005789563749976605
11.416,0.005790837898751644
11.42,0.00579451610181921
11.424,0.005797689453485345
11.428,0.005799324210404262
11.432,0.00579720864262684
11.436,0.005794203574761182
11.44,0.005793001547614919
11.444,0.005791607196125253
11.448,0.005792376493498862
11.452,0.005791751439382805
11.456,0.005794804588334313
11.46,0.005796463385796156
11.464,0.0057973528858843906
11.468,0.005797545210227793
11.472,0.005797641372399494
11.476,0.005799228048232561
11.48,0.0057933861963017225
11.484,0.005790789817665794
11.488,0.005791631236668178
11.492,0.005796078737109352
11.496,0.0057925928583851885
11.5,0.005795838331680099
11.504,0.0057963191425386045
11.508000000000001,0.00579720864262684
11.512,0.005791078304180897
11.516,0.005790260925721438
11.52,0.0057906215338653175
11.524000000000001,0.005790525371693616
11.528,0.00579502095322064
11.532,0.005798194304886775
11.536,0.0057949728721347895
11.540000000000001,0.005795477723536221
11.544,0.0058027860485855
11.548,0.0058021129133835935
11.552,0.005797016318283437
11.556000000000001,0.005792015885354982
11.56,0.005797232683169765
11.564,0.005798434710316028
11.568,0.0057955258046220705
11.572000000000001,0.005793987209874854
11.576,0.005795549845164996
11.58,0.0057960066154805765
11.584,0.005798987642803309
11.588000000000001,0.005797521169684868
11.592,0.00579223225024131
11.596,0.005790573452779467
11.6,0.005789467587804905
11.604000000000001,0.005788890614774699
11.608,0.005790525371693616
11.612,0.005796030656023502
11.616,0.005798530872487728
11.620000000000001,0.005796439345253231
11.624,0.005797761575114121
11.628,0.005800430075378824
11.632,0.005801415737638761
11.636000000000001,0.0058026658458708745
11.64,0.005803435143244482
11.644,0.005805142021792176
11.648,0.005803290899986931
11.652000000000001,0.00579862703465943
11.656,0.0058005262375505256
11.66,0.0058000454266920205
11.664,0.005796487426339082
11.668000000000001,0.005793842966617302
11.672,0.005796367223624455
11.676,0.005799276129318412
11.68,0.005799516534747665
11.684000000000001,0.00579639126416738
11.688,0.005792520736756413
11.692,0.005792160128612534
11.696,0.005793458317930498
11.700000000000001,0.005793963169331929
11.704,0.005798242385972626
11.708,0.005795165196478192
11.712,0.005786678884825574
11.716000000000001,0.005784370992704748
11.72,0.005782087141126848
11.724,0.005784587357591075
11.728,0.0057858615063661155
11.732000000000001,0.005786125952338293
11.736,0.005785260492792984
11.74,0.005786582722653873
11.744,0.005789611831062456
11.748000000000001,0.005793362155758797
11.752,0.005794996912677715
11.756,0.005795093074849416
11.76,0.00579538156136452
11.764000000000001,0.0057963191425386045
11.768,0.005801559980896312
11.772,0.005805526670478981
11.776,0.005805310305592653
11.78,0.005801680183610938
11.784,0.005800165629406647
11.788,0.005801680183610938
11.792,0.005805142021792176
11.796,0.005804180400075166
11.8,0.00579771349402827
11.804,0.005797809656199971
11.808,0.005803242818901081
11.812,0.005809060630288994
11.816,0.005809012549203144
11.82,0.005807281630112525
11.824,0.005806656575996468
11.828,0.005807522035541778
11.832,0.005806416170567215
11.836,0.005804348683875643
11.84,0.00579720864262684
11.844,0.005792160128612534
11.848,0.005791919723183281
11.852,0.005793410236844648
11.856,0.00579223225024131
11.86,0.0057861740334241435
11.864,0.005784491195419374
11.868,0.005795573885707921
11.872,0.005810142454720631
11.876,0.005817498860855762
11.88,0.005822451212698366
11.884,0.0058229560640997964
11.888,0.0058192297799463805
11.892,0.005813628333444794
11.896,0.005808651941059265
11.9,0.00580913275191777
11.904,0.0058099501303772285
11.908,0.00580319473781523
11.912,0.00579954057529059
11.916,0.0058032187783581555
11.92,0.00580730567065545
11.924,0.00581009437363478
11.928,0.005803387062158632
11.932,0.0057957662100513235
11.936,0.0057989395617174585
11.94,0.005801415737638761
11.944,0.0057944920612762844
11.948,0.005795357520821594
11.952,0.005800718561893928
11.956,0.0058021850350123685
11.96,0.00580319473781523
11.964,0.005805334346135578
11.968,0.005806728697625244
11.972,0.005804925656905849
11.976,0.005800718561893928
11.98,0.005803411102701557
11.984,0.005807666278799329
11.988,0.0058034591837874076
11.992,0.005800261791578348
11.996,0.005801535940353386
12.0,0.005802834129671351
12.004,0.0058050458596204755
12.008000000000001,0.005802617764785024
12.012,0.00579954057529059
12.016,0.005796920156111736
12.02,0.005797304804798541
12.024000000000001,0.005800886845694405
12.028,0.005797400966970241
12.032,0.005796463385796156
12.036,0.005797521169684868
12.040000000000001,0.005798314507601402
12.044,0.00580136765655291
12.048,0.0058002137104924975
12.052,0.005802930291843052
12.056000000000001,0.005802713926956725
12.06,0.005802930291843052
12.064,0.005804781413648297
12.068,0.0058005021970076
12.072000000000001,0.0057913187096101494
12.076,0.005790669614951168
12.08,0.005796271061452754
12.084,0.005796030656023502
12.088000000000001,0.005792496696213488
12.092,0.005791102344723823
12.096,0.00579086193929457
12.1,0.00579309770978662
12.104000000000001,0.005795309439735744
12.108,0.00579273710164274
12.112,0.005795044993763565
12.116,0.005797473088599017
12.120000000000001,0.005791991844812057
12.124,0.005792352452955936
12.128,0.005797929858914597
12.132,0.005797641372399494
12.136000000000001,0.005793530439559274
12.14,0.005795646007336697
12.144,0.005797569250770718
12.148,0.005799324210404262
12.152000000000001,0.005798651075202355
12.156,0.0057941074125894805
12.16,0.00580136765655291
12.164,0.005803939994645913
12.168000000000001,0.0058005262375505256
12.172,0.005799204007689636
12.176,0.005798434710316028
12.18,0.005798843399545757
12.184000000000001,0.005802497562070397
12.188,0.005801175332209508
12.192,0.005799708859091067
12.196,0.0058013195754670595
12.200000000000001,0.005803314940529857
12.204,0.005801199372752433
12.208,0.00579817026434385
12.212,0.005795237318106968
12.216000000000001,0.005795261358649893
12.22,0.0057963191425386045
12.224,0.00579538156136452
12.228,0.00579588641276595
12.232000000000001,0.005797905818371672
12.236,0.0058002858321212734
12.24,0.00580095896732318
12.244,0.005801535940353386
12.248000000000001,0.005801535940353386
12.252,0.005802882210757201
12.256,0.0058021850350123685
12.26,0.00580136765655291
12.264000000000001,0.005801487859267537
12.268,0.005804685251476596
12.272,0.00580730567065545
12.276,0.005805718994822383
12.280000000000001,0.005805743035365307
12.284,0.005801776345782639
12.288,0.0057946603450767615
12.292,0.005793434277387573
12.296,0.005796295101995679
12.3,0.005799684818548142
12.304,0.005801295534924134
12.308,0.00580365150813081
12.312,0.005803411102701557
12.316,0.005801944629583116
12.32,0.005802641805327949
12.324,0.005801920589040191
12.328,0.005804541008219044
12.332,0.005803675548673735
12.336,0.005805574751564831
12.34,0.005805238183963877
12.344,0.005801007048409031
12.348,0.005801559980896312
12.352,0.0058031466567293796
12.356,0.005806344048938439
12.36,0.005815166928192011
12.364,0.005811272360238118
12.368,0.005801343616009985
12.372,0.005802882210757201
12.376,0.00580136765655291
12.38,0.0057960066154805765
12.384,0.005798963602260384
12.388,0.005801415737638761
12.392,0.005801584021439237
12.396,0.005798651075202355
12.4,0.005800093507777871
12.404,0.005803819791931287
12.408,0.0058040842379034644
12.412,0.0058013195754670595
12.416,0.0058002858321212734
12.42,0.005800574318636376
12.424,0.005798602994116504
12.428,0.0057952132775640425
12.432,0.005796631669596633
12.436,0.005793265993587096
12.44,0.005793722763902676
12.444,0.005794588223447986
12.448,0.005795285399192818
12.452,0.0057982183454297
12.456,0.005802713926956725
12.46,0.0058027379674996495
12.464,0.0057989395617174585
12.468,0.005796896115568811
12.472,0.005799780980719842
12.476,0.0058026898864138
12.48,0.005807449913913002
12.484,0.00580598344079456
12.488,0.0058049737379917
12.492,0.005805839197537009
12.496,0.00580593535970871
12.5,0.005804180400075166
12.504,0.005804372724418568
12.508000000000001,0.005802882210757201
12.512,0.005802377359355771
12.516,0.005805142021792176
12.52,0.005806175765137963
12.524000000000001,0.0058069450625115706
12.528,0.005809469319518723
12.532,0.005809180833003621
12.536,0.005807714359885179
12.540000000000001,0.005807858603142731
12.544,0.005809204873546546
12.548,0.005810166495263556
12.552,0.005802569683699173
12.556000000000001,0.005798026021086298
12.56,0.00579867511574528
12.564,0.005798795318459907
12.568,0.005795838331680099
12.572000000000001,0.00578903485803225
12.576,0.005783144925015559
12.58,0.005784659479219851
12.584,0.005797400966970241
12.588000000000001,0.005814517833533029
12.592,0.005819013415060053
12.596,0.005827932456485326
12.6,0.0058300961053485995
12.604000000000001,0.005823172428986123
12.608,0.00581826815822937
12.612,0.005810647306122061
12.616,0.005803002413471828
12.620000000000001,0.005806295967852589
12.624,0.005808387495087087
12.628,0.005810575184493285
12.632,0.00581009437363478
12.636000000000001,0.005808339414001236
12.64,0.005807930724771507
12.644,0.005805550711021906
12.648,0.00580684890033987
12.652000000000001,0.0058075701166276274
12.656,0.005806103643509187
12.66,0.005804468886590269
12.664,0.005806271927309664
12.668000000000001,0.005811440644038595
12.672,0.005811584887296147
12.676,0.0058092529546323966
12.68,0.005808074968029059
12.684000000000001,0.005804444846047344
12.688,0.005802569683699173
12.692,0.00580136765655291
12.696,0.0058018725079543405
12.700000000000001,0.005802160994469443
12.704,0.00580547858939313
12.708,0.0058112242791522675
12.712,0.005811392562952745
12.716000000000001,0.00580136765655291
12.72,0.005796150858738127
12.724,0.00580365150813081
12.728,0.0058074258733700765
12.732000000000001,0.005803964035188838
12.736,0.005802569683699173
12.74,0.00580451696767612
12.744,0.005802040791754818
12.748000000000001,0.005799636737462291
12.752,0.005801992710668967
12.756,0.005801439778181686
12.76,0.005800574318636376
12.764000000000001,0.0058050458596204755
12.768,0.005803122616186454
12.772,0.0058035313054161835
12.776,0.005802136953926518
12.780000000000001,0.0057957662100513235
12.784,0.005794924791048939
12.788,0.00579817026434385
12.792,0.0057998050212627675
12.796000000000001,0.00579451610181921
12.8,0.00579679995339711
12.804,0.005800790683522704
12.808,0.0057975932913136435
12.812,0.0057939391287890035
12.816,0.005794468020733359
12.82,0.00579725672371269
12.824,0.0058026898864138
12.828,0.005804420805504419
12.832,0.005803964035188838
12.836,0.005802257156641144
12.84,0.005800261791578348
12.844,0.005800670480808077
12.848,0.005801127251123657
12.852,0.005806079602966262
12.856,0.005808507697801713
12.86,0.005801103210580732
12.864,0.005799949264520319
12.868,0.005805863238079934
12.872,0.005805670913736532
12.876,0.005798771277916981
12.88,0.005798554913030654
12.884,0.005801343616009985
12.888,0.005802088872840668
12.892,0.005803555345959109
12.896,0.005802016751211892
12.9,0.005800934926780255
12.904,0.00579817026434385
12.908,0.005799684818548142
12.912,0.005801752305239714
12.916,0.005803338981072781
12.92,0.005802858170214276
12.924,0.005804420805504419
12.928,0.005803603427044959
12.932,0.005802497562070397
12.936,0.005802136953926518
12.94,0.005799564615833515
12.944,0.005805334346135578
12.948,0.005812354184669755
12.952,0.005815864103936844
12.956,0.00581735461759821
12.96,0.005813195603672139
12.964,0.005809469319518723
12.968,0.0058085317383446385
12.972,0.005808483657258788
12.976,0.005810623265579136
12.98,0.005806536373281841
12.984,0.0057971124804551384
12.988,0.005801584021439237
12.992,0.005805959400251635
12.996,0.005808123049114909
13.0,0.005806969103054496
13.004,0.005803723629759586
13.008000000000001,0.0058029783729289025
13.012,0.005805574751564831
13.016,0.0058032187783581555
13.02,0.0058048054541912225
13.024000000000001,0.0058077384004281045
13.028,0.005808820224859741
13.032,0.005808315373458311
13.036,0.005808603859973414
13.040000000000001,0.005809613562776275
13.044,0.005809301035718247
13.048,0.0058077384004281045
13.052,0.005805959400251635
13.056000000000001,0.005808411535630012
13.06,0.005803290899986931
13.064,0.005801680183610938
13.068,0.005806079602966262
13.072000000000001,0.0058048054541912225
13.076,0.00580228119718407
13.08,0.005800333913207123
13.084,0.005799204007689636
13.088000000000001,0.005802136953926518
13.092,0.005808315373458311
13.096,0.005806656575996468
13.1,0.0058069450625115706
13.104000000000001,0.0058067046570823184
13.108,0.005806295967852589
13.112,0.00581055114395036
13.116,0.005807065265226197
13.120000000000001,0.005807329711198375
13.124,0.005809421238432873
13.128,0.005816176630994872
13.132,0.005809301035718247
13.136000000000001,0.005804757373105372
13.14,0.005802160994469443
13.144,0.005798458750858953
13.148,0.005797929858914597
13.152000000000001,0.005799372291490113
13.156,0.005796247020909829
13.16,0.005802882210757201
13.164,0.0058068729408827955
13.168000000000001,0.005802088872840668
13.172,0.005799732899633992
13.176,0.00580086280515148
13.18,0.005797232683169765
13.184000000000001,0.005798290467058476
13.188,0.00580593535970871
13.192,0.005808339414001236
13.196,0.005812474387384381
13.200000000000001,0.0058112242791522675
13.204,0.005810262657435257
13.208,0.005807618197713478
13.212,0.005808387495087087
13.216000000000001,0.005812546509013157
13.22,0.005814541874075954
13.224,0.005818027752800117
13.228,0.0058189893745171275
13.232000000000001,0.005816417036424125
13.236,0.005815142887649086
13.24,0.005814421671361328
13.244,0.005812137819783428
13.248000000000001,0.005811536806210296
13.252,0.005806007481337486
13.256,0.005805262224506802
13.26,0.005807449913913002
13.264000000000001,0.005804396764961493
13.268,0.0058077384004281045
13.272,0.005813868738874047
13.276,0.005816681482396302
13.280000000000001,0.005813820657788196
13.284,0.005809180833003621
13.288,0.0058042525217039415
13.292,0.005801728264696789
13.296000000000001,0.0058018725079543405
13.3,0.005798554913030654
13.304,0.005800309872664199
13.308,0.0058066325354535426
13.312000000000001,0.005816921887825555
13.316,0.005825961131965454
13.32,0.005834880173390727
13.324,0.005836683214110122
13.328,0.005833509862443987
13.332,0.005829134483631589
13.336,0.005822787780299319
13.34,0.005821633834238907
13.344,0.005822018482925711
13.348,0.005822234847812038
13.352,0.005821080901751626
13.356,0.005815960266108544
13.36,0.005812955198242886
13.364,0.005815046725477385
13.368,0.005815479455250039
13.372,0.005821321307180879
13.376,0.005823581118215853
13.38,0.00581968655026196
13.384,0.00581644107696705
13.388,0.005809301035718247
13.392,0.005813988941588673
13.396,0.005818773009630801
13.4,0.005819325942118082
13.404,0.005819109577231754
13.408,0.0058184364420298465
13.412,0.005819349982661007
13.416,0.005821080901751626
13.42,0.005823965766902657
13.424,0.0058242302128748355
13.428,0.005824350415589462
13.432,0.005820527969264345
13.436,0.005817378658141135
13.44,0.005815239049820787
13.444,0.0058077384004281045
13.448,0.005808988508660218
13.452,0.005815239049820787
13.456,0.005814998644391534
13.46,0.0058127388333565596
13.464,0.005810382860149884
13.468,0.0058122580224980545
13.472,0.005816513198595826
13.476,0.005813267725300915
13.48,0.005811969535982951
13.484,0.005816417036424125
13.488,0.005814589955161805
13.492,0.005807690319342254
13.496,0.00581004629254893
13.5,0.005813964901045748
13.504,0.0058099501303772285
13.508000000000001,0.0058133638874726164
13.512,0.005816873806739705
13.516,0.005816104509366096
13.52,0.005816368955338274
13.524000000000001,0.005811897414354175
13.528,0.0058082913329153855
13.532,0.00580598344079456
13.536,0.005803603427044959
13.540000000000001,0.00581045498177866
13.544,0.005806969103054496
13.548,0.005803290899986931
13.552,0.005805142021792176
13.556000000000001,0.005808026886943208
13.56,0.005805743035365307
13.564,0.005808700022145116
13.568,0.005811128116980567
13.572000000000001,0.005810406900692809
13.576,0.005810430941235734
13.58,0.005810599225036211
13.584,0.005811969535982951
13.588000000000001,0.005816344914795349
13.592,0.005819422104289783
13.596,0.005817931590628416
13.6,0.005816513198595826
13.604000000000001,0.00581374853615942
13.608,0.005813147522586289
13.612,0.005812907117157037
13.616,0.005814589955161805
13.620000000000001,0.0058163929958812
13.624,0.005818292198772296
13.628,0.005820912617951149
13.632,0.0058186768474590995
13.636000000000001,0.005812594590099008
13.64,0.00581603238773732
13.644,0.005814493792990104
13.648,0.005813988941588673
13.652000000000001,0.005813219644215065
13.656,0.005813580252358943
13.66,0.005815166928192011
13.664,0.005815479455250039
13.668000000000001,0.005811007914265941
13.672,0.0058096376033192005
13.676,0.005811825292725399
13.68,0.005813916819959897
13.684000000000001,0.005813099441500438
13.688,0.005813051360414588
13.692,0.005812642671184858
13.696,0.005813940860502823
13.700000000000001,0.0058157439012222175
13.704,0.0058181239149718185
13.708,0.005817114212168958
13.712,0.005816729563482153
13.716000000000001,0.005818003712257192
13.72,0.005814541874075954
13.724,0.005813988941588673
13.728,0.0058170180499972565
13.732000000000001,0.005820864536865298
13.736,0.005824614861561639
13.74,0.005814301468646701
13.744,0.005808459616715863
13.748000000000001,0.005813796617245271
13.752,0.005822980104642722
13.756,0.005818316239315221
13.76,0.005815311171449563
13.764000000000001,0.00581822007714352
13.768,0.005819518266461484
13.772,0.005818460482572772
13.776,0.005811080035894717
13.780000000000001,0.00581461399570473
13.784,0.005820071198948765
13.788,0.005821994442382785
13.792,0.005821489590981355
13.796000000000001,0.0058202635232921665
13.8,0.00581968655026196
13.804,0.005820576050350195
13.808,0.005821537672067206
13.812000000000001,0.005821153023380402
13.816,0.005817595023027463
13.82,0.005815551576878815
13.824,0.005818460482572772
13.828,0.005823004145185647
13.832,0.005821441509895504
13.836,0.0058157439012222175
13.84,0.005807618197713478
13.844,0.005804781413648297
13.848,0.0058064642516530655
13.852,0.005815599657964666
13.856,0.005820624131436046
13.86,0.005819542307004409
13.864,0.00582146555043843
13.868,0.005820912617951149
13.872,0.005818075833885968
13.876,0.005819349982661007
13.88,0.005820359685463868
13.884,0.005818604725830324
13.888,0.005814758238962281
13.892,0.005813508130730168
13.896,0.005810599225036211
13.9,0.005808050927486133
13.904,0.005811104076437642
13.908,0.00581461399570473
13.912,0.0058155034957929645
13.916,0.005814325509189627
13.92,0.005810935792637165
13.924,0.005811897414354175
13.928,0.005808748103230965
13.932,0.005807786481513955
13.936,0.005810310738521108
13.94,0.005811152157523492
13.944,0.005814878441676908
13.948,0.005817114212168958
13.952,0.005817643104113313
13.956,0.005820648171978971
13.96,0.005821754036953533
13.964,0.005820071198948765
13.968,0.0058232685911578244
13.972,0.005827595888884372
13.976,0.005827042956397091
13.98,0.00582511971296307
13.984,0.005828797916030635
13.988,0.005831370254123639
13.992,0.005831634700095816
13.996,0.005827283361826344
14.0,0.0058256245643645
14.004,0.005826970834768315
14.008000000000001,0.0058218501991252345
14.012,0.0058199509962341385
14.016,0.005823484956044152
14.02,0.005825720726536201
14.024000000000001,0.005824759104819191
14.028,0.005819325942118082
14.032,0.005821393428809654
14.036,0.0058221627261832625
14.040000000000001,0.00582009523949169
14.044,0.005815719860679292
14.048,0.005805093940706326
14.052,0.005801704224153863
14.056000000000001,0.00580639213002429
14.06,0.005817234414883583
14.064,0.00583338965972936
14.068,0.005845433971734917
14.072000000000001,0.005847477417883565
14.076,0.005849136215345408
14.08,0.005845962863679274
14.084,0.005842837593098989
14.088000000000001,0.005839568079261153
14.092,0.005835192700448755
14.096,0.0058351686599058305
14.1,0.005832187632583097
14.104000000000001,0.005827740132141924
14.108,0.005822811820842245
14.112,0.005821080901751626
14.116,0.00582283586138517
14.120000000000001,0.005818748969087875
14.124,0.00581826815822937
14.128,0.005826297699566408
14.132,0.005830048024262749
14.136000000000001,0.005826177496851781
14.14,0.005824110010160209
14.144,0.005830528835121254
14.148,0.005831706821724592
14.152000000000001,0.005831394294666564
14.156,0.005826898713139539
14.16,0.0058295431728613185
14.164,0.005830120145891525
14.168000000000001,0.005828533470058458
14.172,0.005826538104995661
14.176,0.005827427605083895
14.18,0.005827139118568792
14.184000000000001,0.005828533470058458
14.188,0.005832812686699154
14.192,0.005829783578290571
14.196,0.0058278122537707
14.200000000000001,0.005825720726536201
14.204,0.005825961131965454
14.208,0.0058227156586705435
14.212,0.005819518266461484
14.216000000000001,0.005815960266108544
14.22,0.005815960266108544
14.224,0.00581918169886053
14.228,0.005823557077672928
14.232000000000001,0.005820888577408223
14.236,0.005821633834238907
14.24,0.005818604725830324
14.244,0.005809541441147499
14.248000000000001,0.005815094806563235
14.252,0.00582100878012285
14.256,0.005820960699036999
14.26,0.005816537239138751
14.264000000000001,0.005818412401486921
14.268,0.005820431807092644
14.272,0.005817522901398687
14.276,0.005818532604201548
14.280000000000001,0.005819758671890736
14.284,0.00581968655026196
14.288,0.005818941293431278
14.292,0.005813988941588673
14.296000000000001,0.005814181265932075
14.3,0.005816657441853377
14.304,0.0058192297799463805
14.308,0.005817306536512359
14.312000000000001,0.005815623698507591
14.316,0.00581598430665147
14.32,0.005816585320224601
14.324,0.005815816022850993
14.328000000000001,0.005818869171802502
14.332,0.00581735461759821
14.336,0.005816344914795349
14.34,0.005815239049820787
14.344,0.005816921887825555
14.348,0.005819758671890736
14.352,0.005817042090540182
14.356,0.005819157658317605
14.36,0.005818532604201548
14.364,0.0058157439012222175
14.368,0.00581598430665147
14.372,0.005820864536865298
14.376,0.005820479888178494
14.38,0.005813892779416972
14.384,0.005812354184669755
14.388,0.005818748969087875
14.392,0.005828100740285802
14.396,0.005824134050703134
14.4,0.00581735461759821
14.404,0.005813556211816018
14.408,0.005818484523115697
14.412,0.005824735064276266
14.416,0.005825360118392323
14.42,0.005824855266990892
14.424,0.005822355050526665
14.428,0.005821321307180879
14.432,0.005819518266461484
14.436,0.005815431374164189
14.44,0.005811993576525876
14.444,0.005813027319871662
14.448,0.0058149505633056835
14.452,0.005816513198595826
14.456,0.005817138252711883
14.46,0.005817282495969434
14.464,0.005820479888178494
14.468,0.005825744767079127
14.472,0.005826153456308857
14.476,0.005822571415412992
14.48,0.005817715225742089
14.484,0.005820431807092644
14.488,0.005826297699566408
14.492,0.0058231964695290486
14.496,0.005818652806916174
14.5,0.005819590388090259
14.504,0.005817715225742089
14.508000000000001,0.005816681482396302
14.512,0.0058218501991252345
14.516,0.005827595888884372
14.52,0.0058256245643645
14.524000000000001,0.005822355050526665
14.528,0.005823052226271498
14.532,0.005823653239844629
14.536,0.005824278293960686
14.540000000000001,0.005820527969264345
14.544,0.005815719860679292
14.548,0.005814469752447178
14.552,0.005820215442206316
14.556000000000001,0.0058256486049074255
14.56,0.005826177496851781
14.564,0.00582516779404892
14.568,0.005821489590981355
14.572000000000001,0.005820792415236522
14.576,0.0058192297799463805
14.58,0.005824134050703134
14.584,0.005822210807269113
14.588000000000001,0.005820239482749241
14.592,0.005820071198948765
14.596,0.005821705955867683
14.6,0.00582283586138517
14.604000000000001,0.005824566780475789
14.608,0.005827523767255596
14.612,0.005829086402545739
14.616,0.005823893645273881
14.620000000000001,0.005817643104113313
14.624,0.005815623698507591
14.628,0.005819878874605363
14.632,0.005825456280564024
14.636000000000001,0.005823484956044152
14.64,0.005822066564011561
14.644,0.005818364320401071
14.648,0.00581507076602031
14.652000000000001,0.005815840063393919
14.656,0.005818099874428893
14.66,0.005817907550085491
14.664,0.005820431807092644
14.668000000000001,0.005820167361120465
14.672,0.0058207443341506725
14.676,0.005818171996057669
14.68,0.005814277428103776
14.684000000000001,0.00582197040183986
14.688,0.00582415809124606
14.692,0.005826898713139539
14.696,0.005829422970146692
14.700000000000001,0.0058228839424710205
14.704,0.005823941726359732
14.708,0.005828677713316009
14.712,0.005831009645979759
14.716000000000001,0.005831394294666564
14.72,0.005830264389149077
14.724,0.005826874672596614
14.728,0.005825047591334294
14.732000000000001,0.00582831710517213
14.736,0.005830216308063226
14.74,0.00583014418643445
14.744,0.005831586619009965
14.748000000000001,0.005825768807622052
14.752,0.005824110010160209
14.756,0.005821946361296936
14.76,0.0058218501991252345
14.764000000000001,0.005822763739756394
14.768,0.00582379748310218
14.772,0.005819133617774679
14.776,0.005818484523115697
14.780000000000001,0.005817619063570388
14.784,0.005817186333797733
14.788,0.005821273226095028
14.792,0.00582009523949169
14.796000000000001,0.005807594157170553
14.8,0.005802834129671351
14.804,0.0058101184141777056
14.808,0.0058223310099837396
14.812000000000001,0.005838197768314413
14.816,0.005849568945118063
14.82,0.005852862499498824
14.824,0.005845145485219814
14.828000000000001,0.005835865835650662
14.832,0.0058365149303096445
14.836,0.0058330290515854815
14.84,0.00583014418643445
14.844000000000001,0.005824302334503611
14.848,0.005818604725830324
14.852,0.0058227156586705435
14.856,0.005825744767079127
14.86,0.005826706388796138
14.864,0.005829447010689617
14.868,0.005829134483631589
14.872,0.005831730862267517
14.876,0.005826586186081511
14.88,0.0058266102266244365
14.884,0.005828124780828728
14.888,0.005830288429692002
14.892,0.005827932456485326
14.896,0.005828341145715055
14.9,0.0058328607677850045
14.904,0.005830745200007582
14.908,0.00583375026787324
14.912,0.005832572281269902
14.916,0.005821249185552103
14.92,0.005811657008924923
14.924,0.00582151363152428
14.928,0.005822306969440814
14.932,0.005822234847812038
14.936,0.005825480321106949
14.94,0.005827307402369269
14.944,0.005825215875134771
14.948,0.005823244550614899
14.952,0.005822523334327142
14.956,0.005821994442382785
14.96,0.00582415809124606
14.964,0.005824686983190415
14.968,0.005824590821018714
14.972,0.0058306490378358805
14.976,0.005828461348429682
14.98,0.005824855266990892
14.984,0.005822210807269113
14.988,0.005816128549909021
14.992,0.005822787780299319
14.996,0.005825864969793753
15.0,0.005821681915324757
15.004,0.005814373590275477
15.008000000000001,0.005816513198595826
15.012,0.005818965333974202
15.016,0.005818147955514744
15.02,0.005822138685640337
15.024000000000001,0.005821441509895504
15.028,0.005820768374693597
15.032,0.005824085969617284
15.036,0.0058188451312595766
15.040000000000001,0.005815022684934459
15.044,0.005804300602789792
15.048,0.005794756507248463
15.052,0.00578994839866341
15.056000000000001,0.005789299304004428
15.06,0.0057936266017309754
15.064,0.005791943763726206
15.068,0.005795597926250846
15.072000000000001,0.0057994924942047395
15.076,0.005802233116098219
15.08,0.005802016751211892
15.084,0.005798410669773103
15.088000000000001,0.005797497129141942
15.092,0.0057949007505060145
15.096,0.005789611831062456
15.1,0.00579456418290506
15.104000000000001,0.0058035313054161835
15.108,0.005804420805504419
15.112,0.005800934926780255
15.116,0.005793410236844648
15.120000000000001,0.005790020520292186
15.124,0.005792424574584712
15.128,0.005793265993587096
15.132,0.005793482358473424
15.136000000000001,0.0057903811284360646
15.14,0.0057900686013780366
15.144,0.005792761142185666
15.148,0.005792015885354982
15.152000000000001,0.005794371858561658
15.156,0.005794708426162612
15.16,0.0057955258046220705
15.164,0.005793482358473424
15.168000000000001,0.00579456418290506
15.172,0.005794876709963089
15.176,0.005795910453308875
15.18,0.005799348250947188
15.184000000000001,0.005801127251123657
15.188,0.005799853102348618
15.192,0.005797449048056092
15.196,0.005796222980366903
15.200000000000001,0.00579903572388916
15.204,0.005802569683699173
15.208,0.005804733332562447
15.212,0.005802569683699173
15.216000000000001,0.005794347818018733
15.22,0.005791655277211104
15.224,0.005793506399016349
15.228,0.005793963169331929
15.232000000000001,0.005797761575114121
15.236,0.005804853535277073
15.24,0.005805767075908233
15.244,0.005805430508307279
15.248000000000001,0.005803026454014753
15.252,0.005800478156464675
15.256,0.005802497562070397
15.26,0.005803338981072781
15.264000000000001,0.005802401399898696
15.268,0.0058050458596204755
15.272,0.005807377792284226
15.276,0.0058053583866785035
15.280000000000001,0.005802545643156248
15.284,0.005798843399545757
15.288,0.005791198506895524
15.292,0.005792520736756413
15.296000000000001,0.0057941074125894805
15.3,0.005797665412942419
15.304,0.005797376926427316
15.308,0.00579771349402827
15.312000000000001,0.005798482791401879
15.316,0.005799420372575964
15.32,0.005798194304886775
15.324,0.0058005983591793014
15.328000000000001,0.005802449480984547
15.332,0.005800814724065629
15.336,0.005798554913030654
15.34,0.0058000454266920205
15.344000000000001,0.005805454548850205
15.348,0.005800718561893928
15.352,0.005788097276858165
15.356,0.00578364977641699
15.36,0.005783144925015559
15.364,0.0057930736692436945
15.368,0.005798963602260384
15.372,0.0057971124804551384
15.376,0.005790188804092662
15.38,0.0057812457221244635
15.384,0.005784923925192029
15.388,0.005788770412060072
15.392,0.005790501331150691
15.396,0.005786775046997275
15.4,0.005785717263108564
15.404,0.005787856871428912
15.408,0.005792472655670563
15.412,0.005796198939823978
15.416,0.005800478156464675
15.42,0.005801848467411415
15.424,0.005801535940353386
15.428,0.005803723629759586
15.432,0.005803170697272305
15.436,0.005802449480984547
15.44,0.0058024254404416215
15.444,0.005802040791754818
15.448,0.005801968670126042
15.452,0.005803411102701557
15.456,0.00580232927826992
15.46,0.005798578953573579
15.464,0.005799155926603785
15.468,0.005805166062335101
15.472,0.005803723629759586
15.476,0.005801728264696789
15.48,0.005799420372575964
15.484,0.005800430075378824
15.488,0.005801103210580732
15.492,0.00580461312984782
15.496,0.005805887278622859
15.5,0.005799564615833515
15.504,0.005792664980013964
15.508000000000001,0.005788361722830342
15.512,0.005785981709080741
15.516,0.005784443114333524
15.52,0.005781438046467866
15.524000000000001,0.0057841786683613455
15.528,0.005798122183257999
15.532,0.00581603238773732
15.536,0.0058247831453621165
15.540000000000001,0.0058258890103366785
15.544,0.005821393428809654
15.548,0.005812834995528261
15.552,0.005809733765490902
15.556000000000001,0.005805454548850205
15.56,0.005805502629936055
15.564,0.005807449913913002
15.568,0.0058064642516530655
15.572000000000001,0.005802858170214276
15.576,0.005802713926956725
15.58,0.005801031088951956
15.584,0.005796198939823978
15.588000000000001,0.00579684803448296
15.592,0.005802449480984547
15.596,0.0058064642516530655
15.6,0.005803170697272305
15.604000000000001,0.005795165196478192
15.608,0.005798915521174533
15.612,0.005803122616186454
15.616,0.0058045650487619695
15.620000000000001,0.005804685251476596
15.624,0.005800141588863722
15.628,0.005798266426515551
15.632,0.0058013195754670595
15.636000000000001,0.005801199372752433
15.64,0.005797160561540989
15.644,0.005792424574584712
15.648,0.005791751439382805
15.652000000000001,0.005795261358649893
15.656,0.005797689453485345
15.66,0.005800333913207123
15.664,0.005799155926603785
15.668000000000001,0.005799468453661814
15.672,0.005796920156111736
15.676,0.00579538156136452
15.68,0.005796607629053708
15.684000000000001,0.0057983866292301775
15.688,0.0057986991562882055
15.692,0.005801559980896312
15.696,0.005804444846047344
15.700000000000001,0.005801391697095835
15.704,0.005797449048056092
15.708,0.005791438912324776
15.712,0.005786991411883603
15.716000000000001,0.005790501331150691
15.72,0.005793674682816826
15.724,0.005794443980190434
15.728,0.005794275696389958
15.732000000000001,0.005796920156111736
15.736,0.005796271061452754
15.74,0.005791462952867701
15.744,0.00579223225024131
15.748000000000001,0.005790501331150691
15.752,0.005795333480278669
15.756,0.005796367223624455
15.76,0.005795357520821594
15.764000000000001,0.0057939391287890035
15.768,0.005798362588687252
15.772,0.005803050494557678
15.776,0.005801103210580732
15.780000000000001,0.005798795318459907
15.784,0.005793506399016349
15.788,0.005790429209521915
15.792,0.005790188804092662
15.796000000000001,0.005792640939471039
15.8,0.005795189237021117
15.804,0.005799516534747665
15.808,0.005801271494381209
15.812000000000001,0.005798530872487728
15.816,0.005797881777828747
15.82,0.005799829061805693
15.824,0.005801127251123657
15.828000000000001,0.005799300169861337
15.832,0.00579360256118805
15.836,0.005790525371693616
15.84,0.00579360256118805
15.844000000000001,0.005799564615833515
15.848,0.005806608494910617
15.852,0.005808435576172937
15.856,0.005808387495087087
15.860000000000001,0.005805767075908233
15.864,0.005797473088599017
15.868,0.005794179534218256
15.872,0.005799853102348618
15.876,0.005797400966970241
15.88,0.005794924791048939
15.884,0.005794299736932883
15.888,0.005799949264520319
15.892,0.005800718561893928
15.896,0.005802497562070397
15.9,0.00580319473781523
15.904,0.00579903572388916
15.908,0.005796487426339082
15.912,0.0057955258046220705
15.916,0.005794876709963089
15.92,0.005798530872487728
15.924,0.005801848467411415
15.928,0.005801511899810462
15.932,0.005802305237726995
15.936,0.005805286265049728
15.94,0.0058072575895695994
15.944,0.005796944196654661
15.948,0.005790092641920962
15.952,0.005794996912677715
15.956,0.005798314507601402
15.96,0.005794636304533836
15.964,0.005788433844459118
15.968,0.005788409803916193
15.972,0.005793434277387573
15.976,0.005796607629053708
15.98,0.005796679750682484
15.984,0.005798795318459907
15.988,0.005798843399545757
15.992,0.0057970403588263626
15.996,0.005799059764432085
16.0,0.005798482791401879
16.004,0.005795069034306491
16.008,0.00579817026434385
16.012,0.005804276562246867
16.016000000000002,0.005807666278799329
16.02,0.00580593535970871
16.024,0.005804372724418568
16.028,0.005797905818371672
16.032,0.005796535507424932
16.036,0.005796222980366903
16.04,0.005793794885531452
16.044,0.00579684803448296
16.048000000000002,0.0058027379674996495
16.052,0.005803964035188838
16.056,0.0058024254404416215
16.06,0.0057968720750258855
16.064,0.005792304371870086
16.068,0.005792544777299338
16.072,0.00579360256118805
16.076,0.0057933861963017225
16.080000000000002,0.005794732466705537
16.084,0.005795357520821594
16.088,0.005793963169331929
16.092,0.005791102344723823
16.096,0.005794035290960705
16.1,0.005794251655847032
16.104,0.005792424574584712
16.108,0.005796295101995679
16.112000000000002,0.005802257156641144
16.116,0.005806223846223813
16.12,0.005804901616362924
16.124,0.005810214576349407
16.128,0.005811560846753222
16.132,0.005808988508660218
16.136,0.005809012549203144
16.14,0.005809228914089471
16.144000000000002,0.005811128116980567
16.148,0.005806512332738916
16.152,0.005805214143420952
16.156,0.005813484090187243
16.16,0.005817186333797733
16.164,0.0058186768474590995
16.168,0.00581968655026196
16.172,0.0058221627261832625
16.176000000000002,0.005820191401663391
16.18,0.005813652373987719
16.184,0.005811104076437642
16.188,0.0058079788058573575
16.192,0.005807065265226197
16.196,0.0057970403588263626
16.2,0.005793265993587096
16.204,0.005798602994116504
16.208000000000002,0.0058010791700378065
16.212,0.005793915088246078
16.216,0.0057899003175775595
16.22,0.005795694088422548
16.224,0.005806969103054496
16.228,0.005822090604554487
16.232,0.005830937524350984
16.236,0.005835986038365289
16.240000000000002,0.005831730862267517
16.244,0.005820864536865298
16.248,0.00582004715840584
16.252,0.005819085536688829
16.256,0.00581603238773732
16.26,0.005813796617245271
16.264,0.005814061063217449
16.268,0.00581557561742174
16.272000000000002,0.005815647739050516
16.276,0.005812522468470232
16.28,0.005807930724771507
16.284,0.005809156792460695
16.288,0.005807714359885179
16.292,0.005810430941235734
16.296,0.005815359252535413
16.3,0.005813387928015542
16.304000000000002,0.005814878441676908
16.308,0.005811897414354175
16.312,0.005810238616892332
16.316,0.005812522468470232
16.32,0.005814998644391534
16.324,0.005812354184669755
16.328,0.005809902049291379
16.332,0.005806175765137963
16.336000000000002,0.00580684890033987
16.34,0.005808700022145116
16.344,0.0058079788058573575
16.348,0.005806969103054496
16.352,0.005810262657435257
16.356,0.005808411535630012
16.36,0.005804757373105372
16.364,0.0058112242791522675
16.368000000000002,0.0058101905358064814
16.372,0.005807930724771507
16.376,0.005810839630465464
16.38,0.005813460049644318
16.384,0.005819205739403455
16.388,0.005816152590451947
16.392,0.005808868305945592
16.396,0.005810863671008389
16.4,0.005808435576172937
16.404,0.005803507264873258
16.408,0.005797497129141942
16.412,0.005804324643332717
16.416,0.005809661643862126
16.42,0.0058061517245950375
16.424,0.005799516534747665
16.428,0.0058005983591793014
16.432,0.005805502629936055
16.436,0.005806824859796945
16.44,0.00580410827844639
16.444,0.005806344048938439
16.448,0.005806728697625244
16.452,0.005806728697625244
16.456,0.005806127684052112
16.46,0.005807089305769122
16.464,0.0058049737379917
16.468,0.005803843832474212
16.472,0.0058049737379917
16.476,0.00580821921128661
16.48,0.005812041657611727
16.484,0.005813075400957513
16.488,0.005806728697625244
16.492,0.005803098575643529
16.496,0.005803579386502034
16.5,0.005807089305769122
16.504,0.005806223846223813
16.508,0.0058075701166276274
16.512,0.005808892346488517
16.516000000000002,0.00581004629254893
16.52,0.005811031954808866
16.524,0.005811632968381998
16.528,0.005811993576525876
16.532,0.005808603859973414
16.536,0.005805670913736532
16.54,0.005809709724947976
16.544,0.005812594590099008
16.548000000000002,0.005813051360414588
16.552,0.005812594590099008
16.556,0.005813339846929691
16.56,0.005808700022145116
16.564,0.005811272360238118
16.568,0.005814277428103776
16.572,0.00581278691444241
16.576,0.0058122580224980545
