0.0,4.654249110331032E-4
0.004,5.068467664933323E-4
0.008,5.42667175451975E-4
0.012,5.320893365648591E-4
0.016,5.07904550382044E-4
0.02,5.403352427882245E-4
0.024,5.621880963072891E-4
0.028,5.815647739050515E-4
0.032,5.515862168772479E-4
0.036000000000000004,5.983931539527361E-4
0.04,6.183948856665555E-4
0.044,6.100528172714889E-4
0.048,5.757950436029883E-4
0.052000000000000005,5.906520991308012E-4
0.056,6.088988712110763E-4
0.06,6.274822108923051E-4
0.064,6.095960469559089E-4
0.068,5.925032209360466E-4
0.07200000000000001,6.580858220361656E-4
0.076,6.627016062778163E-4
0.08,6.669567823755878E-4
0.084,6.319777924193294E-4
0.088,6.796261484972017E-4
0.092,6.934494606792283E-4
0.096,7.097489487825571E-4
0.1,6.722457018191459E-4
0.10400000000000001,7.101335974693613E-4
0.108,7.467954254303883E-4
0.112,7.441750062515346E-4
0.116,7.065275160305718E-4
0.12,7.353040459121122E-4
0.124,7.893231458651795E-4
0.128,7.828081587324332E-4
0.132,7.649460353389623E-4
0.136,7.645613866521581E-4
0.14,8.224750545591181E-4
0.14400000000000002,8.01583822757064E-4
0.148,7.95092876167243E-4
0.152,7.903809297538911E-4
0.156,8.571415174573482E-4
0.16,8.55843328139384E-4
0.164,8.508428952109291E-4
0.168,8.303122715527538E-4
0.17200000000000001,8.865911825407961E-4
0.176,8.900289801791087E-4
0.18,8.792588169485906E-4
0.184,8.737294920757801E-4
0.188,9.171226720558809E-4
0.192,9.365233901965685E-4
0.196,9.087084820320387E-4
0.2,9.04381184305491E-4
0.20400000000000001,9.264023216250326E-4
0.20800000000000002,9.785702997728548E-4
0.212,9.637372847879669E-4
0.216,9.260176729382284E-4
0.22,9.594821086901953E-4
0.224,9.853737734207043E-4
0.228,9.8453235441832E-4
0.232,9.597946357482237E-4
0.23600000000000002,9.897010711472517E-4
0.24,0.0010245117773030332
0.244,0.001028959277744207
0.248,0.001004341761788737
0.252,0.0010234299528713965
0.256,0.0010743237822441794
0.26,0.0010342241566448397
0.264,0.0010060005592505803
0.268,0.0010344405215311672
0.272,0.001086776783479466
0.276,0.0011034128391837485
0.28,0.0010814397829500574
0.28400000000000003,0.001078290471826848
0.28800000000000003,0.001130169963459567
0.292,0.0011512054385191726
0.296,0.0011319970447218868
0.3,0.00113365584218373
0.304,0.0011646200614714697
0.308,0.0011972430782210522
0.312,0.001178058724966692
0.316,0.0011469262218784756
0.32,0.0011890933341693881
0.324,0.0012328471222933677
0.328,0.0012177977424221527
0.332,0.001202243511149507
0.336,0.0012213797833180169
0.34,0.0012678261122496262
0.34400000000000003,0.001259892733084289
0.34800000000000003,0.001202604119293386
0.352,0.001206907376477008
0.356,0.0012537864351812723
0.36,0.0012640036659245094
0.364,0.0012358281496161003
0.368,0.0012424873800063983
0.372,0.001299247101852946
0.376,0.0013112433327726522
0.38,0.001272201491062024
0.384,0.0012702061259992274
0.388,0.0013232876447782094
0.392,0.0013381687408489476
0.396,0.0012866258168171823
0.4,0.001296458398873615
0.404,0.0013513429583719917
0.40800000000000003,0.0013781000826478104
0.41200000000000003,0.001363844040693129
0.41600000000000004,0.001342399876403794
0.42,0.0013759123932416113
0.424,0.0014141368564927804
0.428,0.0013995682874800707
0.432,0.0013860334618131472
0.436,0.0014227193303170994
0.44,0.001439812156336962
0.444,0.0014382254805038945
0.448,0.0014046408420373012
0.452,0.0014216615464283878
0.456,0.001466929888756659
0.46,0.0014745747814068932
0.464,0.0014465915894418865
0.468,0.001445581886639025
0.47200000000000003,0.0014984229999887545
0.47600000000000003,0.0015137127852892223
0.48,0.001478757835875889
0.484,0.001462530469401336
0.488,0.0015209489887097268
0.492,0.00154042182847919
0.496,0.0015076545684720557
0.5,0.001501115540796384
0.504,0.0015464800452963565
0.508,0.0015588609249028674
0.512,0.0015298680301349993
0.516,0.0015181362451874706
0.52,0.0015608082088798137
0.524,0.0016175198496405105
0.528,0.001574727683233541
0.532,0.0015574906139561274
0.536,0.0016037205780014092
0.54,0.0016349011621754758
0.544,0.0016296122427319178
0.548,0.0016163418630371726
0.552,0.0016186497551579978
0.556,0.0016738228011714778
0.56,0.0016605764620196573
0.5640000000000001,0.00162980456707532
0.5680000000000001,0.0016426902980832615
0.5720000000000001,0.0016801935450466725
0.5760000000000001,0.0016781020178121746
0.58,0.0016639421380291947
0.584,0.0016403102843336604
0.588,0.0016863960051213907
0.592,0.0016958439384910193
0.596,0.001666442354493422
0.6,0.0016541335965156868
0.604,0.0017179371974393365
0.608,0.0017404391456173833
0.612,0.0017281063470967228
0.616,0.0017197883192445816
0.62,0.0017242839007716058
0.624,0.0017662586887191164
0.628,0.0017640709993129173
0.632,0.0017374340777517254
0.636,0.0017689752700696712
0.64,0.001815181193572028
0.644,0.0018020310165919083
0.648,0.001774168027341528
0.652,0.0017971027052922294
0.656,0.001847131075119703
0.66,0.0018578771978072957
0.664,0.0018080651928661495
0.668,0.0018182824236093868
0.672,0.0018785039836371718
0.676,0.0018881442413502029
0.68,0.0018461454128597672
0.684,0.001859896603413018
0.6880000000000001,0.0019113674058160075
0.6920000000000001,0.0019227145420767317
0.6960000000000001,0.0018862690790020322
0.7000000000000001,0.0018916541606172914
0.704,0.0019456251794845079
0.708,0.0019301911509264885
0.712,0.0019210557446148885
0.716,0.0019063188918017019
0.72,0.001948461963549689
0.724,0.0019722140199598497
0.728,0.001962910329847773
0.732,0.0019394467599527152
0.736,0.0019735122092778136
0.74,0.001999836603780977
0.744,0.0019937062653350352
0.748,0.0019648095327388683
0.752,0.0019665885329153377
0.756,0.0019897876568382173
0.76,0.0020030580365329627
0.764,0.0019795223450091294
0.768,0.0020107750508119725
0.772,0.0020616929207276807
0.776,0.0020295266742936776
0.78,0.001993537981534558
0.784,0.002018516105633907
0.788,0.002073040056988405
0.792,0.002073400665132284
0.796,0.0020459223245687078
0.8,0.002036642674999556
0.804,0.002093378356303178
0.808,0.0021052303439653332
0.812,0.0020753719896521553
0.8160000000000001,0.0020686887187189324
0.8200000000000001,0.0021077065198866355
0.8240000000000001,0.0021279246164867816
0.8280000000000001,0.0021069131819701015
0.8320000000000001,0.002102970532930358
0.836,0.0021434067261306513
0.84,0.00216239875504161
0.844,0.0021288141165750163
0.848,0.002124679143191871
0.852,0.002130208468064682
0.856,0.0021704042558357223
0.86,0.0021874249602268094
0.864,0.00217838571608691
0.868,0.0021835784733587674
0.872,0.002232621180926305
0.876,0.0022072343675972263
0.88,0.002167711715028093
0.884,0.002216321692822976
0.888,0.002237789897655236
0.892,0.0022232453691854517
0.896,0.002189492446918382
0.9,0.0022001664479771987
0.904,0.0022592100214016463
0.908,0.0022439202361011785
0.912,0.002220889395978776
0.916,0.0022037004077872127
0.92,0.00225634919679354
0.924,0.002280870550577309
0.928,0.0022756537527625267
0.932,0.002251108358435832
0.936,0.002273417982270477
0.9400000000000001,0.002320128757174264
0.9440000000000001,0.00230015106600337
0.9480000000000001,0.002273273739012925
0.9520000000000001,0.002303781187985085
0.9560000000000001,0.002339890083458831
0.96,0.00232654758213531
0.964,0.00232659566322116
0.968,0.002338639975226717
0.972,0.00238720187193575
0.976,0.0023944861564421044
0.98,0.0023303459879175014
0.984,0.0023489774086845805
0.988,0.0023963132377044245
0.992,0.002390543507402361
0.996,0.002363738302040692
1.0,0.002372753505637666
1.004,0.002417901645251311
1.008,0.0024338886062966114
1.012,0.0023923705886646812
1.016,0.0024002318462012424
1.02,0.002448721621281499
1.024,0.002442062390891201
1.028,0.002433191430551779
1.032,0.0024313162682036084
1.036,0.0024645162579833976
1.04,0.0024847824356693943
1.044,0.002468314663765589
1.048,0.0024451876614714854
1.052,0.0024598523926558963
1.056,0.0025003607074849657
1.06,0.0024966344233315492
1.064,0.0024838208139523837
1.068,0.0024706465964293395
1.072,0.0025102894517130994
1.076,0.0025191123309666707
1.08,0.002494711179897528
1.084,0.002501130004858574
1.088,0.0025425037792329527
1.092,0.002551422820658225
1.096,0.002524737818011183
1.1,0.0025408690223140346
1.104,0.00257464598512403
1.108,0.0025783241881915954
1.112,0.002525290750498464
1.116,0.002517405452418977
1.12,0.0025796944991383353
1.124,0.0026123896375166936
1.1280000000000001,0.00257555952575519
1.1320000000000001,0.0025560626454428008
1.1360000000000001,0.0025956814601836354
1.1400000000000001,0.0026123896375166936
1.1440000000000001,0.002600609771483315
1.1480000000000001,0.002584983418581893
1.1520000000000001,0.0026385217076764548
1.156,0.002679486792821105
1.16,0.002639723734822718
1.164,0.0026251311252670833
1.168,0.0026394833293934654
1.172,0.002687107644928413
1.176,0.0026903531182233234
1.18,0.0026589802097058547
1.184,0.0026587157637336764
1.188,0.002722302999770999
1.192,0.002700089538108055
1.196,0.002667418440272622
1.2,0.0026845593473783353
1.204,0.0027053063359228375
1.208,0.0027220866348846716
1.212,0.002698454781189137
1.216,0.002686266225926029
1.22,0.002738915014932356
1.224,0.002745478083150953
1.228,0.0027251638243791054
1.232,0.002710499093194694
1.236,0.0027507189215086607
1.24,0.0027616333279967304
1.244,0.0027562482463814714
1.248,0.002711845363598509
1.252,0.00274341059645938
1.256,0.0027845199248615806
1.26,0.0027679319502431493
1.264,0.0027506948809657354
1.268,0.002791371479595281
1.272,0.002810531792306716
1.276,0.0028050745890626813
1.28,0.002787284587297986
1.284,0.0028006270886215077
1.288,0.0028612092567931718
1.292,0.0028460637147502557
1.296,0.002819979725676345
1.3,0.002836279213779674
1.304,0.0028849613132033323
1.308,0.0028858988943774176
1.312,0.002854766391289201
1.316,0.002867580000668366
1.32,0.0029103721670753363
1.324,0.002923594465684231
1.328,0.0028901781110181146
1.332,0.0028945534898305128
1.336,0.0029425864945951895
1.34,0.002919579695015712
1.344,0.0029070786126945748
1.348,0.002886692232293951
1.352,0.002929532479786771
1.356,0.002955255860716803
1.36,0.002948211981639701
1.364,0.002915853410862296
1.368,0.002939677588901232
1.372,0.002971002416332851
1.3760000000000001,0.002946192576033979
1.3800000000000001,0.002903039801483131
1.3840000000000001,0.002897678760410797
1.3880000000000001,0.002951577657649238
1.3920000000000001,0.002957082941979123
1.3960000000000001,0.002931744209735895
1.4000000000000001,0.0029384515212120435
1.4040000000000001,0.00296907917289883
1.408,0.002983479458111063
1.412,0.0029712428217621035
1.416,0.0029902108101301362
1.42,0.0030321615575347213
1.424,0.0030523796541348683
1.428,0.002997014283777986
1.432,0.0030069189874631945
1.436,0.0030514180324178576
1.44,0.0030717082506467796
1.444,0.0030598322224417
1.448,0.0030268485975482383
1.452,0.003091277252587945
1.456,0.003099162550667431
1.46,0.0030786559675521808
1.464,0.0030757711024011493
1.468,0.003115894768543415
1.472,0.003113755160223066
1.476,0.0030961815233446982
1.48,0.0030963738476881006
1.484,0.003117505484919407
1.488,0.0031458492850282927
1.492,0.0031347906352826717
1.496,0.003101085794101452
1.5,0.0031047880377119428
1.504,0.003143060582048962
1.508,0.0031317855674170138
1.512,0.0031050284431411953
1.516,0.0031211115663581966
1.52,0.003159961083725422
1.524,0.0031547442859106403
1.528,0.0031212558096157484
1.532,0.003120294187898738
1.536,0.003171428422700773
1.54,0.0031976085739463854
1.544,0.0031942188573939236
1.548,0.0031807080722699257
1.552,0.0032053736693112454
1.556,0.0032239810495353995
1.56,0.0031871990188597466
1.564,0.003158686934950383
1.568,0.0032139321025926393
1.572,0.0032444155110218737
1.576,0.0032274188471737124
1.58,0.003197945141547339
1.584,0.0032473244167158305
1.588,0.0032930976104455323
1.592,0.0032783367170894206
1.596,0.003238765983434437
1.6,0.003260330350438398
1.604,0.003322114545756325
1.608,0.0032826159337301175
1.612,0.003254656782308036
1.616,0.0032770625683143815
1.62,0.0033350483578501178
1.624,0.003334086736133107
1.6280000000000001,0.0033011511923254954
1.6320000000000001,0.0032916551778700166
1.6360000000000001,0.003318989275176041
1.6400000000000001,0.003331610560211805
1.6440000000000001,0.003314517734191942
1.6480000000000001,0.003309324976920085
1.6520000000000001,0.0033179074507444038
1.6560000000000001,0.0033483427780877885
1.6600000000000001,0.003338750601460608
1.6640000000000001,0.0033237973837610944
1.668,0.0033581272790583704
1.672,0.0033748835374772792
1.676,0.0033649067121632945
1.68,0.0033440635614470915
1.684,0.00336356044175948
1.688,0.003398491350629888
1.692,0.003400150148091731
1.696,0.0033624064956990674
1.7,0.0033418999125838177
1.704,0.0033945967826759954
1.708,0.003399501053432749
1.712,0.0033740661590178204
1.716,0.003385461376364395
1.72,0.0034302969889200116
1.724,0.003421041379893785
1.728,0.003385341173649769
1.732,0.0034012800536092186
1.736,0.0034699398442037707
1.74,0.00346984368203207
1.744,0.003419310460803166
1.748,0.0034229646233278066
1.752,0.0034618141406950317
1.756,0.0034808542506918412
1.76,0.003452678734383432
1.764,0.003439624719575014
1.768,0.00349395634658611
1.772,0.0035093903751441287
1.776,0.0034902781435185446
1.78,0.003466670330365935
1.784,0.0035158332406480994
1.788,0.0035188623490566826
1.792,0.0035208096330336296
1.796,0.0034914801706648077
1.8,0.0035109289698913456
1.804,0.0035500429332307494
1.808,0.003545403108446174
1.812,0.0035298969582593788
1.816,0.003543431783926302
1.82,0.0035710062866615797
1.824,0.003556822366335674
1.828,0.0035557886229898874
1.832,0.0035285506878555643
1.836,0.0035629527047816158
1.84,0.0035799253280868523
1.844,0.0035462926085344086
1.848,0.003532084647665578
1.852,0.0035744921653857427
1.856,0.0035890847749413778
1.86,0.0035637460426981497
1.864,0.0035641066508420288
1.868,0.003597691289308622
1.872,0.0036368292931909514
1.8760000000000001,0.0035949987485009924
1.8800000000000001,0.00356516443473074
1.8840000000000001,0.0036001193841440735
1.8880000000000001,0.0036358195903880906
1.8920000000000001,0.003645003077785541
1.8960000000000001,0.003627838130136903
1.9000000000000001,0.0036452434832147935
1.9040000000000001,0.0036877231225637343
1.9080000000000001,0.0036893819200255777
1.9120000000000001,0.0036561098086170126
1.9160000000000001,0.0036644037959262282
1.92,0.0036921465824619826
1.924,0.003670077364056591
1.928,0.0036555328355868063
1.932,0.0036517103892616896
1.936,0.00368231400040555
1.94,0.003696906609961185
1.944,0.0036722650534627903
1.948,0.003673010310293473
1.952,0.003706955556903945
1.956,0.0037070998001614967
1.96,0.003686328771074069
1.964,0.0036893578794826524
1.968,0.0036967623667036333
1.972,0.0037083739489365353
1.976,0.003702484015919846
1.98,0.0036899829335987093
1.984,0.0037328231810915286
1.988,0.003757032007817269
1.992,0.003734313694752895
1.996,0.003715297625299011
2.0,0.0037565511969587634
2.004,0.0037845824700096214
2.008,0.0037802792128259995
2.012,0.003721884734060534
2.016,0.0037544356291813403
2.02,0.0037960257684420467
2.024,0.003805233296382423
2.028,0.0037664318601010466
2.032,0.003775110496097068
2.036,0.0038320865828299425
2.04,0.003841847043257599
2.044,0.0038025888366606435
2.048,0.0037942708088085026
2.052,0.0038529537740890707
2.056,0.003821100054713097
2.06,0.0037910493760565174
2.064,0.0037981172956765446
2.068,0.0038449482732949582
2.072,0.003869277302735325
2.076,0.003833985785721038
2.08,0.0038138157702067416
2.084,0.003850958409026274
2.088,0.00387199388408588
2.092,0.0038363417589277137
2.096,0.0038247061361518864
2.1,0.003852160436172537
2.104,0.0038729555058028904
2.108,0.0038633633291757096
2.112,0.0038581224908180024
2.116,0.003879157965877608
2.12,0.003906323779383156
2.124,0.0038979095893593137
2.128,0.003863195045375233
2.132,0.0038681233566749125
2.136,0.0039365908229260635
2.14,0.003943442377659763
2.144,0.0039206519429666135
2.148,0.003882138993200341
2.152,0.003944908850778204
2.156,0.003968588785559589
2.16,0.0039369033499840915
2.164,0.0039217578079411754
2.168,0.003963564312088209
2.172,0.003968997474789318
2.176,0.003945125215664531
2.18,0.003923224281059617
2.184,0.003974310434775802
2.188,0.004001259883395022
2.192,0.0039514959595397265
2.196,0.003948538972759919
2.2,0.003982772705885494
2.204,0.0040042168701748294
2.208,0.003993903477259891
2.212,0.003960198636078671
2.216,0.00397507973214941
2.22,0.004018328668871959
2.224,0.0040080152759570204
2.228,0.003973997907717773
2.232,0.004013472479201056
2.236,0.004036815846381487
2.24,0.004043835684915663
2.244,0.00402929115644588
2.248,0.004020564439364009
2.2520000000000002,0.004062443065139819
2.2560000000000002,0.004078165580212941
2.2600000000000002,0.004044941549890226
2.2640000000000002,0.00402751215626941
2.2680000000000002,0.004067731984583376
2.2720000000000002,0.004068501281956985
2.2760000000000002,0.0040581398079561955
2.2800000000000002,0.004024963858719332
2.2840000000000003,0.00404765813124078
2.2880000000000003,0.004072203525567475
2.2920000000000003,0.004062467105682744
2.2960000000000003,0.0040582840512137465
2.3000000000000003,0.004097422055096076
2.3040000000000003,0.004121270273677938
2.308,0.004103816839514197
2.312,0.004068645525214536
2.316,0.004094224662887017
2.32,0.004145935870719258
2.324,0.004135358031832142
2.328,0.00406176992993791
2.332,0.004103143704312289
2.336,0.004173318049111133
2.34,0.004171899657078543
2.344,0.004112687799853619
2.348,0.004110524150990345
2.352,0.004156080979833719
2.356,0.004169279237899689
2.36,0.004146248397777287
2.364,0.004143820302941835
2.368,0.004189713699386163
2.372,0.004177380900865503
2.376,0.004158076344896516
2.38,0.004150046803559479
2.384,0.004190098348072968
2.388,0.00419851253809681
2.392,0.004195050699915571
2.396,0.0041846892259147835
2.4,0.004209955836529236
2.404,0.004227793919379781
2.408,0.004203032160166759
2.412,0.00420358509265404
2.416,0.004199594362528447
2.42,0.004226014919203312
2.424,0.004237386096006961
2.428,0.0042117348367057056
2.432,0.0042203894321588
2.436,0.004258133084551464
2.44,0.004269095572125384
2.444,0.0042405113665872456
2.448,0.004235174366057837
2.452,0.004280875438158763
2.456,0.004298280791236653
2.46,0.004239742069213637
2.464,0.0042379630690371674
2.468,0.004295708453143651
2.472,0.004294145817853508
2.476,0.004269985072213618
2.48,0.004237554379807438
2.484,0.004268855166696131
2.488,0.004287318303662734
2.492,0.004257243584463229
2.496,0.004249742935070546
2.5,0.004313642698165897
2.504,0.0043353272678844845
2.508,0.004283880506024421
2.512,0.004269071531582459
2.516,0.004304699616197699
2.52,0.00433535130842741
2.524,0.004322826185563348
2.528,0.0042979923047215506
2.532,0.004319604752811362
2.536,0.0043648250140537834
2.54,0.004365666433056168
2.544,0.004343332768678597
2.548,0.0043334280649933886
2.552,0.004364464405909905
2.556,0.004355761729370958
2.56,0.004323859928909134
2.564,0.0043530932291062545
2.568,0.004400813706812903
2.572,0.004399755922924191
2.576,0.004360930446099891
2.58,0.004354439499510069
2.584,0.0044004290581260985
2.588,0.004399058747179358
2.592,0.0043924956789607615
2.596,0.004356146378057763
2.6,0.004393649625021174
2.604,0.004418002695004467
2.608,0.004400332895954397
2.612,0.004379682069581597
2.616,0.004419998060067263
2.62,0.004450409346867722
2.624,0.004443437589419395
2.628,0.0044155024785402395
2.632,0.0044238205063923805
2.636,0.004475868281825576
2.64,0.004448606306148327
2.644,0.004410718410498112
2.648,0.004431369236870913
2.652,0.004485220053023503
2.656,0.004493369797075168
2.66,0.004449303481893159
2.664,0.004444399211136406
2.668,0.004485460458452756
2.672,0.004502577325015543
2.676,0.0044748104979368646
2.68,0.0044703629974956905
2.684,0.004514838001907428
2.688,0.00449411505390585
2.692,0.004472334322015562
2.696,0.004472093916586309
2.7,0.004510582825809657
2.704,0.004535104179593426
2.708,0.004501615703298533
2.712,0.004494235256620477
2.716,0.004540272896322357
2.72,0.004561043925409785
2.724,0.004540393099036984
2.728,0.004518468123889143
2.732,0.004526786151741284
2.736,0.004557197438541743
2.74,0.004543013518215837
2.744,0.004531041327839056
2.748,0.004545489694137139
2.7520000000000002,0.004580877373323127
2.7560000000000002,0.004568159926115663
2.7600000000000002,0.004554144289590234
2.7640000000000002,0.004557389762885145
2.7680000000000002,0.0046046775108191385
2.7720000000000002,0.004608259551715003
2.7760000000000002,0.004555706924880377
2.7800000000000002,0.00457289591307194
2.7840000000000003,0.004627636229312765
2.7880000000000003,0.004635473446306401
2.7920000000000003,0.0045988116183453736
2.7960000000000003,0.004580829292237277
2.8000000000000003,0.004625520661535341
2.8040000000000003,0.004637036081596543
2.8080000000000003,0.0046234772153866946
2.8120000000000003,0.004593763104331069
2.816,0.004632997270385099
2.82,0.004646748460938349
2.824,0.004611192497951885
2.828,0.004609966430262696
2.832,0.004641988433439147
2.836,0.004664249976187942
2.84,0.004645306028362833
2.844,0.004604629429733288
2.848,0.0046164092957666665
2.852,0.004664682705960596
2.856,0.004657831151226897
2.86,0.004658961056744384
2.864,0.0046551145698763416
2.868,0.004675428828648189
2.872,0.004678361774885072
2.876,0.004656508921366007
2.88,0.00466958697671735
2.884,0.004701224331206997
2.888,0.004685814343191903
2.892,0.0046695388956314995
2.896,0.004664754827589372
2.9,0.0047065613317364054
2.904,0.004714783197416846
2.908,0.004703027371926392
2.912,0.0046465320960520215
2.916,0.004706441129021779
2.92,0.004746108024848463
2.924,0.004722524252238781
2.928,0.004689372343544842
2.932,0.004712811872896974
2.936,0.004751348863206172
2.94,0.004733198253297597
2.944,0.004686775964908914
2.948,0.004725697603904915
2.952,0.004805392003702164
2.956,0.0047504834036608615
2.96,0.004721658792693471
2.964,0.004731924104522558
2.968,0.004781159136433498
2.972,0.004776639514363549
2.976,0.004739088186314287
2.98,0.004747021565479624
2.984,0.0047929149619239525
2.988,0.004797963475938257
2.992,0.004751973917322229
2.996,0.004768297445968483
3.0,0.004795655583817432
3.004,0.0048155130722737
3.008,0.004801329151947795
3.012,0.004794982448615525
3.016,0.004831980844177505
3.02,0.0048459483996170834
3.024,0.004811786788120284
3.028,0.004793059205181504
3.032,0.004826812127448573
3.036,0.004842246156006593
3.04,0.004841404737004208
3.044,0.004814070639698184
3.048,0.004818157531995479
3.052,0.00487027742905745
3.056,0.004852823994893709
3.06,0.004817436315707721
3.064,0.004819984613257799
3.068,0.004868426307252205
3.072,0.004881937092376203
3.076,0.00484200575057734
3.08,0.004834625303899284
3.084,0.004893139985379376
3.088,0.00488215345726253
3.092,0.004820633707916781
3.096,0.004827821830251435
3.1,0.004874676848412774
3.104,0.004886480754989078
3.108,0.004868041658565401
3.112,0.0048605410091727185
3.116,0.004903862067524045
3.12,0.004922132880147244
3.124,0.0048876587415924155
3.128,0.004871671780547116
3.132,0.004909848162712435
3.136,0.004906963297561403
3.14,0.004897515364191774
3.144,0.004882201538348381
3.148,0.004909992405969986
3.152,0.004947375450218771
3.156,0.004939225706167107
3.16,0.004889485822854736
3.164,0.004909150986967602
3.168,0.00494783222053435
3.172,0.0049528326534628055
3.176,0.004936941854589207
3.18,0.004905064094670308
3.184,0.004948505355736258
3.188,0.0049663193980438785
3.192,0.004929296961938973
3.196,0.004937446705990637
3.2,0.00497331519603513
3.204,0.004979926345339577
3.208,0.004949803545054222
3.212,0.004953770234636891
3.216,0.004987378913646409
3.22,0.00500976065910983
3.224,0.004957929248562962
3.228,0.004934537800296681
3.232,0.004983147778091563
3.236,0.00500839034816309
3.24,0.004983917075465171
3.244,0.004961968059774406
3.248,0.004998365441763256
3.2520000000000002,0.005036157175241769
3.2560000000000002,0.005006034374956414
3.2600000000000002,0.004975839453042283
3.2640000000000002,0.005022045376544639
3.2680000000000002,0.005071256367912654
3.2720000000000002,0.00500930388879425
3.2760000000000002,0.004986080724328445
3.2800000000000002,0.005002692739489802
3.2840000000000003,0.005054620312208372
3.2880000000000003,0.005062914299517588
3.2920000000000003,0.005027262174359421
3.2960000000000003,0.005025411052554177
3.3000000000000003,0.005074261435778312
3.3040000000000003,0.005087363531672581
3.3080000000000003,0.005049379473850665
3.3120000000000003,0.005043922270606629
3.3160000000000003,0.005055173244695653
3.3200000000000003,0.005084166139463521
3.3240000000000003,0.005062169042686905
3.3280000000000003,0.005046903297929363
3.332,0.0050766895306137635
3.336,0.00510558626320993
3.34,0.0050896954643363315
3.344,0.005065294313267189
3.348,0.005086474031584346
3.352,0.005109937601479403
3.356,0.005115322683094662
3.36,0.005059115893735397
3.364,0.005096234492012003
3.368,0.005136694725755221
3.372,0.005121428980997679
3.376,0.005089887788679733
3.38,0.005104744844207546
3.384,0.005134579157977798
3.388,0.005128136292473827
3.392,0.00509640277581248
3.396,0.005095152667580366
3.4,0.005164413471748051
3.404,0.005161648809311645
3.408,0.005113591764004043
3.412,0.0051166449129555515
3.416,0.005151912389426913
3.42,0.005163259525687638
3.424,0.005142849104744088
3.428,0.005118015223902292
3.432,0.005161889214740898
3.436,0.005189463717476175
3.44,0.005161720930940421
3.444,0.005151215213682081
3.448,0.0051582831333021086
3.452,0.005170928458880797
3.456,0.005161889214740898
3.46,0.005133160765945207
3.464,0.005167442580156634
3.468,0.005204801583862494
3.472,0.005199128015732132
3.476,0.00516482216097778
3.48,0.005167009850383979
3.484,0.005214706287547702
3.488,0.005226101504894277
3.492,0.005222639666713039
3.496,0.005202950462057249
3.5,0.0052440597904594485
3.504,0.005237665006041329
3.508,0.005212686881941981
3.512,0.005210835760136735
3.516,0.00525009396673369
3.52,0.005242593317341008
3.524,0.0052077585706423015
3.528,0.005193670812488096
3.532,0.005239996938705079
3.536,0.005254733791518266
3.54,0.005198935691388729
3.544,0.00521629296338077
3.548,0.0052516806425667575
3.552,0.005280962023849728
3.556,0.005246199398779797
3.56,0.0052240099776597795
3.564,0.005261417062451488
3.568,0.005298992431043676
3.572,0.005266513657551645
3.576,0.00525151235876628
3.58,0.005274999969204263
3.584,0.005288318429984859
3.588,0.005282188091538916
3.592,0.005260575643449105
3.596,0.005259541900103319
3.6,0.0052939439170293714
3.604,0.0052879818623839045
3.608,0.005260912211050058
3.612,0.005264494251945922
3.616,0.005321470338678798
3.62,0.0053370726510372935
3.624,0.005312310891824272
3.628,0.005281130307650205
3.632,0.005304930445146216
3.636,0.005335269610317899
3.64,0.005305819945234451
3.644,0.00528389497008661
3.648,0.005322768527996762
3.652,0.00535632912592043
3.656,0.005340053678360026
3.66,0.005307815310297248
3.664,0.005346376341149372
3.668,0.005380297547216918
3.672,0.005352122030908509
3.676,0.005302358107053214
3.68,0.00533632739420661
3.684,0.005387197183036469
3.688,0.005369238897471297
3.692,0.005332649191139045
3.696,0.005349573733358431
3.7,0.005376354898177175
3.704,0.005380898560790049
3.708,0.005356377207006281
3.712,0.005363228761739981
3.716,0.005416214118347261
3.72,0.005382389074451416
3.724,0.005360416018217725
3.728,0.005353203855340146
3.732,0.005395250764916431
3.736,0.005415036131743923
3.74,0.0053761625738337725
3.744,0.00536080066690453
3.748,0.005397366332693855
3.7520000000000002,0.005417632510379852
3.7560000000000002,0.005405347792945042
3.7600000000000002,0.005416502604862364
3.7640000000000002,0.00542296951090926
3.7680000000000002,0.005436119687889379
3.7720000000000002,0.005419219186212919
3.7760000000000002,0.005399746346443456
3.7800000000000002,0.005423642646111167
3.7840000000000003,0.005455207878972039
3.7880000000000003,0.005459222649640558
3.7920000000000003,0.005423161835252662
3.7960000000000003,0.00543393199848318
3.8000000000000003,0.005469367758755019
3.8040000000000003,0.005474608597112726
3.8080000000000003,0.005431936633420383
3.8120000000000003,0.005438091012409251
3.8160000000000003,0.005480474489586491
3.8200000000000003,0.005478743570495872
3.8240000000000003,0.0054415768911334145
3.8280000000000003,0.005429484498042006
3.8320000000000003,0.005485474922514945
3.8360000000000003,0.005475233651228783
3.84,0.00543758616100782
3.844,0.005438066971866325
3.848,0.005501509964646097
3.852,0.0055223531153623
3.856,0.005456073338517348
3.86,0.005455832933088096
3.864,0.0054903791932717
3.868,0.005507327776034011
3.872,0.005486797152375835
3.876,0.00545708304132021
3.88,0.005483792084510177
3.884,0.005524108074995844
3.888,0.0055178575338352765
3.892,0.005474512434941026
3.896,0.005510789614215248
3.9,0.0055163429796309844
3.904,0.005523338777622237
3.908,0.005488095341693799
3.912,0.005490090706756597
3.916,0.005536440873516505
3.92,0.005532930954249417
3.924,0.005506438275945776
3.928,0.005503793816223997
3.932,0.0055578850378058394
3.936,0.005567381052261318
3.94,0.00555149025338772
3.944,0.005515020749770095
3.948,0.0055527403616198335
3.952,0.0055645442681961374
3.956,0.0055456724419998054
3.96,0.005523050291107133
3.964,0.00555427895636705
3.968,0.00557117945804351
3.972,0.005539397860296312
3.976,0.0055284834538082426
3.98,0.005568967728094386
3.984,0.005618178719462401
3.988,0.005579425364266875
3.992,0.0055473793205475
3.996,0.005576083728800264
4.0,0.005622866625332827
4.0040000000000004,0.0056213280305856105
4.008,0.005583752661993423
4.0120000000000005,0.005591060987042704
4.016,0.005636954383487032
4.0200000000000005,0.00563543982928274
4.024,0.005603465907192139
4.0280000000000005,0.00560716815080263
4.032,0.005647267776401971
4.0360000000000005,0.0056232993551054815
4.04,0.00560077336638451
4.0440000000000005,0.005597648095804226
4.048,0.005632723247932185
4.0520000000000005,0.00564584938436938
4.056,0.005622890665875752
4.0600000000000005,0.005605148745196908
4.064,0.005636762059143629
4.0680000000000005,0.005668615778519604
4.072,0.0056368582213153304
4.0760000000000005,0.00561813063837655
4.08,0.005610341502468765
4.0840000000000005,0.005655369439367784
4.088,0.005637531356517239
4.0920000000000005,0.005620702976469554
4.096,0.0056668367783431345
4.1,0.005685852847797018
4.104,0.0056609708858693705
4.108,0.005616207394942529
4.112,0.005626328463514065
4.116,0.005676356833341539
4.12,0.005687728010145188
4.124,0.005617024773401988
4.128,0.0056351994238534875
4.132,0.005695420983881273
4.136,0.005698642416633258
4.14,0.005658061980175414
4.144,0.005656956115200852
4.148,0.005698810700433735
4.152,0.005717850810430543
4.156,0.00569751251111577
4.16,0.005696358565055358
4.164,0.005745305110451195
4.168,0.005735761014909864
4.172,0.005692608240359017
4.176,0.005678400279490186
4.18,0.005714340891163455
4.184,0.005746314813254056
4.188,0.00570111859255456
4.192,0.005681044739211966
4.196,0.005712441688272359
4.2,0.005747060070084739
4.204,0.005722226189242941
4.208,0.00571121562058317
4.212,0.005731481798269168
4.216,0.005741122055982199
4.22,0.005742107718242135
4.224,0.005712008958499704
4.228,0.005723548419103831
4.232,0.0057787935867460866
4.236,0.005774490329562464
4.24,0.005740953772181722
4.244,0.005732755947044206
4.248,0.005752156665184895
4.252,0.0057729276942723225
4.256,0.005758791855032267
4.26,0.005713427350532295
4.264,0.005746266732168205
4.268,0.00577227859961334
4.272,0.005749632408177743
4.276,0.005755738706080759
4.28,0.0057849720062778795
4.284,0.005792785182728591
4.288,0.005782880479043381
4.292,0.0057627825851578615
4.296,0.005796463385796156
4.3,0.005830288429692002
4.304,0.005796439345253231
4.308,0.005780981276152285
4.312,0.005796607629053708
4.316,0.005831778943353368
4.32,0.005826081334680081
4.324,0.0057883857633732674
4.328,0.005797785615657046
4.332,0.005848775607201529
4.336,0.0058303365107778525
4.34,0.0057935544801021996
4.344,0.005821994442382785
4.348,0.005851371985837458
4.352,0.005821585753153056
4.356,0.005790982142009196
4.36,0.005801992710668967
4.364,0.005856829189081492
4.368,0.005859569810974972
4.372,0.005840072930662583
4.376,0.005820768374693597
4.38,0.00585024208031997
4.384,0.005862743162641107
4.388,0.005851780675067187
4.392,0.0058238215236451054
4.396,0.005825239915677696
4.4,0.005870556339091818
4.404,0.0058596659731466735
4.408,0.005831177929780236
4.412,0.005860122743462253
4.416,0.005897169220110085
4.42,0.005880052353547297
4.424,0.0058509392560648025
4.428,0.005873345042071148
4.432,0.005910920410663336
4.436,0.005901280152950305
4.44,0.005854208769902639
4.444,0.005872647866326315
4.448,0.005898779936486078
4.452,0.0059117618296657196
4.456,0.005906184423707059
4.46,0.005889812813974955
4.464,0.005921570371179227
4.468,0.005936379345621191
4.472,0.005911473343150617
4.476,0.005903059153126775
4.48,0.005936403386164115
4.484,0.005924623520130736
4.488,0.005897337503910562
4.492,0.005890173422118833
4.496,0.005925104330989241
4.5,0.005949890130745188
4.5040000000000004,0.005920151979146636
4.508,0.005906593112936788
4.5120000000000005,0.005912362843238851
4.516,0.005953952982499558
4.5200000000000005,0.005954698239330241
4.524,0.005913949519071919
4.5280000000000005,0.005907602815739649
4.532,0.005972920970867591
4.5360000000000005,0.005980397579717347
4.54,0.005915127505675257
4.5440000000000005,0.005928301723198301
4.548,0.005959193820857266
4.5520000000000005,0.005967199321651378
4.556,0.005929407588172863
4.5600000000000005,0.005930056682831845
4.564,0.00598388345844151
4.5680000000000005,0.00601119351520461
4.572,0.005930657696404977
4.5760000000000005,0.005935033075217376
4.58,0.005982681431295247
4.5840000000000005,0.005994605540586178
4.588,0.005970901565261868
4.5920000000000005,0.005950755590290498
4.596,0.005978979187684757
4.6000000000000005,0.006009823204257869
4.604,0.005978498376826251
4.6080000000000005,0.005955828144847728
4.612,0.006006169041733229
4.616,0.006014607272299997
4.62,0.006022348327121931
4.624,0.005994100689184747
4.628,0.005995903729904142
4.632,0.006040186409972478
4.636,0.006040042166714926
4.64,0.005985518215360429
4.644,0.005996576865106049
4.648,0.006044537748241951
4.652,0.006050475762344491
4.656,0.006032709801122721
4.66,0.0060014330547769525
4.664,0.006032805963294422
4.668,0.006050620005602043
4.672,0.006020689529660088
4.676,0.006022781056894587
4.68,0.006080646643715697
4.684,0.006061702695890589
4.688,0.00604033065323003
4.692,0.006047013924163253
4.696,0.006084517171126664
4.7,0.006114928457927123
4.704,0.006086656779447013
4.708,0.006011722407148965
4.712,0.006059683290284867
4.716,0.006099470388826179
4.72,0.006063457655524133
4.724,0.006056077208846078
4.728,0.006042734707522556
4.732,0.006117861404164005
4.736,0.00612062606660041
4.74,0.0060543222492125326
4.744,0.006061125722860382
4.748,0.00610737972744859
4.752,0.006083074738551149
4.756,0.006033623341753881
4.76,0.006041340356032891
4.764,0.006079035927339703
4.768,0.006081271697831754
4.772,0.006041604802005069
4.776,0.00602855078719665
4.78,0.006079733103084536
4.784,0.006092618834092478
4.788,0.00608499798198517
4.792,0.006087257793020145
4.796,0.0060808149275161745
4.8,0.0061261553914732205
4.804,0.006118462417737136
4.808,0.006079108048968479
4.812,0.006128992175538401
4.816,0.006168058057791954
4.82,0.006087930928222052
4.824,0.006094686320784051
4.828,0.006146782177303097
4.832,0.006164812584497044
4.836,0.0061808716671711205
4.84,0.006143729028351588
4.844,0.006142214474147296
4.848,0.0061679378550773285
4.852,0.006156879205331707
4.856,0.006120145255741905
4.86,0.006149330474853175
4.864,0.006168586949736311
4.868,0.006178419531792743
4.872,0.006132357851547939
4.876,0.006138103541307076
4.88,0.006184910478382565
4.884,0.0061822179375749355
4.888,0.006143103974235531
4.892,0.006133607959780052
4.896,0.006172168990632175
4.9,0.006174717288182252
4.904,0.0061593794217959345
4.908,0.006136324541130607
4.912,0.006177361747904031
4.916,0.006205104534439786
4.92,0.006171808382488295
4.924,0.006148080366621061
4.928,0.006187146248874615
4.932,0.006198878033822143
4.936,0.00620183502060195
4.94,0.006175414463927085
4.944,0.006193997803608315
4.948,0.006250589241654386
4.952,0.006234409956265683
4.956,0.006181039950971598
4.96,0.006193396790035183
4.964,0.006221956955030396
4.968,0.006230659631569342
4.972,0.006221812711772844
4.976,0.00620087339888494
4.98,0.0062473197278165495
4.984,0.006253041377032762
4.988,0.006207292223845985
4.992,0.006187843424619447
4.996,0.006222005036116246
5.0,0.00622275029294693
5.0040000000000004,0.006208975061850754
5.008,0.0061857999784708
5.0120000000000005,0.006207412426560611
5.016,0.006240948983941355
5.0200000000000005,0.00619173799257334
5.024,0.006188829086879383
5.0280000000000005,0.006231140442427847
5.032,0.0062523922823737805
5.0360000000000005,0.006241333632628159
5.04,0.0062119560891734866
5.0440000000000005,0.006201282088114669
5.048,0.006260421823710818
5.0520000000000005,0.006259339999279181
5.056,0.0062167882383014645
5.0600000000000005,0.0062470793223872965
5.064,0.006304127530748946
5.0680000000000005,0.006280784163568516
5.072,0.006240299889282373
5.0760000000000005,0.0062292412395367515
5.08,0.006283476704376146
5.0840000000000005,0.006293189083717952
5.088,0.006236838051101134
5.0920000000000005,0.006244434862665518
5.096,0.006301170543969139
5.1000000000000005,0.006300425287138456
5.104,0.00625056520111146
5.1080000000000005,0.006250613282197311
5.112,0.00628025527162416
5.1160000000000005,0.00630807017978869
5.12,0.006289607042822088
5.124,0.006267201256815742
5.128,0.006312830207287892
5.132,0.006317349829357841
5.136,0.006301915800799822
5.14,0.006270446730110653
5.144,0.006298718408590762
5.148,0.006353602968089141
5.152,0.006349251629819665
5.156,0.006275014433266453
5.16,0.006297011530043068
5.164,0.006338793993647176
5.168,0.006333481033660693
5.172,0.006310834842225095
5.176,0.006313479301946874
5.18,0.006313527383032725
5.184,0.0063399960207934395
5.188,0.006325812100467534
5.192,0.006318720140304581
5.196,0.006365406874665445
5.2,0.006342279872371339
5.204,0.006316123761668653
5.208,0.006318672059218731
5.212,0.00636131998236815
5.216,0.006375576024322831
5.22,0.006348891021675787
5.224,0.0063049449092084054
5.228,0.006357545617128884
5.232,0.006382812227743335
5.236,0.006358194711787866
5.24,0.006352424981485803
5.244,0.006363675955574826
5.248,0.006395241188435696
5.252,0.006387452052527911
5.256,0.006352449022028727
5.26,0.0063683157803594015
5.264,0.006423008015514375
5.268,0.006366681023440484
5.272,0.006334779222978657
5.276,0.0063584110766741935
5.28,0.00639649129666781
5.284,0.00640293416217178
5.288,0.006368892753389608
5.292,0.006334779222978657
5.296,0.006396154729066857
5.3,0.0063932939044587505
5.304,0.006360718968795019
5.308,0.006382139092541428
5.312,0.006397837567071625
5.316,0.00640791055455731
5.32,0.006388966606732203
5.324,0.0063731479294873794
5.328,0.006392692890885619
5.332,0.0064309413946797124
5.336,0.006388630039131249
5.34,0.006367642645157494
5.344,0.006393125620658273
5.348,0.006428681583644738
5.352,0.006441399030852201
5.356,0.006392115917855412
5.36,0.0063978856481574755
5.364,0.00645207303191102
5.368,0.006433129084085911
5.372,0.006403871743345866
5.376,0.006430508664907058
5.38,0.006435436976206736
5.384,0.006432143421825976
5.388,0.00640928086550405
5.392,0.006400385864621703
5.396,0.006464838560204335
5.4,0.0064611603571367695
5.404,0.006408559649216292
5.408,0.006428200772786232
5.412,0.006474214371945187
5.416,0.006473156588056476
5.42,0.006468805249787003
5.424,0.006438730530587498
5.428,0.006461280559851396
5.432,0.006488927184215449
5.436,0.0064627470329698365
5.44,0.006450630599335504
5.444,0.006493711252257576
5.448,0.006477916615555678
5.452,0.0064582274108998874
5.456,0.006432383827255228
5.46,0.006447000477353788
5.464,0.006502990901826727
5.468,0.006475464480177301
5.472,0.006446904315182087
5.476,0.006474382655745664
5.48,0.006515011173289359
5.484,0.006507246077924499
5.488,0.00648948011670273
5.492,0.006458684181215467
5.496,0.006516453605864875
5.5,0.006528425796241656
5.5040000000000004,0.006490585981677292
5.508,0.0064893839545310285
5.5120000000000005,0.006534484013058822
5.516,0.006518328768213046
5.5200000000000005,0.006490345576248039
5.524,0.006475801047778254
5.5280000000000005,0.006525949620320354
5.532,0.006566025205376769
5.5360000000000005,0.0065293393368728156
5.54,0.0064945286307170344
5.5440000000000005,0.0065456628655190694
5.548,0.006564414489000776
5.5520000000000005,0.006531599147907791
5.556,0.006510731956648662
5.5600000000000005,0.006513616821799694
5.564,0.006560087191274228
5.5680000000000005,0.006540325864989661
5.572,0.006491379319593826
5.5760000000000005,0.006525492850004774
5.58,0.006572203624908561
5.5840000000000005,0.006557322528837823
5.588,0.0065352773509753555
5.5920000000000005,0.006532272283109698
5.596,0.006578285882268653
5.6000000000000005,0.006593575667569121
5.604,0.006531767431708267
5.6080000000000005,0.0065531394743688276
5.612,0.006593431424311569
5.6160000000000005,0.0065888877616986944
5.62,0.006557514853181226
5.6240000000000006,0.0065553512043179515
5.628,0.006572732516852917
5.632,0.0065950661812304865
5.636,0.0065755693009180985
5.64,0.006566890664922078
5.644,0.006606437358034136
5.648,0.00661682287257785
5.652,0.006563452867283766
5.656,0.006547826514382344
5.66,0.006575040408973743
5.664,0.006606942209435566
5.668,0.006596556694891853
5.672,0.006538979594585846
5.676,0.006575280814402995
5.68,0.0066259101978035995
5.684,0.006617952778095337
5.688,0.006576242436120006
5.692,0.006586964518264673
5.696,0.006607374939208222
5.7,0.00662504473825829
5.704,0.006583598842255136
5.708,0.006575689503632724
5.712,0.0066486525514109
5.716,0.006624515846313934
5.72,0.0065942007216851775
5.724,0.006588839680612844
5.728,0.006635478333887854
5.732,0.0066531240923949995
5.736,0.006634444590542068
5.74,0.006604586236228891
5.744,0.006636704401577043
5.748,0.006643555956310743
5.752,0.00662367442731155
5.756,0.006605523817402976
5.76,0.006615548723802811
5.764,0.006626727576263059
5.768,0.006616919034749551
5.772,0.006601845614335411
5.776,0.00661038000707388
5.78,0.0066577158360937244
5.784,0.006618986521441123
5.788,0.006582012166422069
5.792,0.006602398546822692
5.796,0.006657619673922024
5.8,0.006663798093453816
5.804,0.00662002026478691
5.808,0.006595162343402188
5.812,0.006662235458163674
5.816,0.006672933499765416
5.82,0.006629492238699464
5.824,0.006626246765404553
5.828,0.006658509174010258
5.832,0.006659254430840942
5.836,0.00663687268537752
5.84,0.0066213424946478
5.844,0.006645671524088166
5.848,0.006696276866945847
5.852,0.0066514652949331565
5.856,0.006652162470677989
5.86,0.006675073108085765
5.864,0.006684617203627095
5.868,0.006683920027882262
5.872,0.006677525243464141
5.876,0.0066828622439935505
5.88,0.006719500031411652
5.884,0.006697190407577007
5.888,0.006662668187936329
5.892,0.006675193310800391
5.896,0.006703200543308323
5.9,0.006680722635673202
5.904,0.006666394472089745
5.908,0.006670914094159694
5.912,0.0067141630308822425
5.916,0.006733299303050753
5.92,0.006667356093806755
5.924,0.006660216052557952
5.928,0.0067098116926127705
5.932,0.006728611397180326
5.936,0.0067141630308822425
5.94,0.006683703662995934
5.944,0.0067159901121445625
5.948,0.006741016317329762
5.952,0.006711999382018969
5.956,0.006694786353284481
5.96,0.006738684384666012
5.964,0.0067316885866747595
5.968,0.0067289960458671305
5.972,0.00669656535346095
5.976,0.0067194038692399505
5.98,0.006765056860255026
5.984,0.006762556643790799
5.988,0.006696348988574623
5.992,0.006726760275375081
5.996,0.006762412400533247
6.0,0.006764383725053119
6.0040000000000004,0.0067448387636548784
6.008,0.006733131019250276
6.0120000000000005,0.006748132318035641
6.016,0.006755128116026893
6.0200000000000005,0.006719115382724847
6.024,0.006729044126952981
6.0280000000000005,0.00679325641710636
6.032,0.006757892778463298
6.0360000000000005,0.006731832829932311
6.04,0.006739670046925947
6.0440000000000005,0.006783111307991899
6.048,0.006797607755375833
6.0520000000000005,0.006763205738449781
6.056,0.006738443979236759
6.0600000000000005,0.006772918117791587
6.064,0.006779601388724811
6.0680000000000005,0.00677361529353642
6.072,0.006762436441076172
6.0760000000000005,0.006772894077248662
6.08,0.006802367782875035
6.0840000000000005,0.0067936891468790145
6.088,0.00675950349483929
6.0920000000000005,0.0067846499027391155
6.096,0.006814916946282022
6.1000000000000005,0.006776692483030854
6.104,0.006756378224259006
6.1080000000000005,0.006772196901503829
6.112,0.006821960825359124
6.1160000000000005,0.006841962557072943
6.12,0.006776620361402078
6.1240000000000006,0.006762340278904472
6.128,0.006789361849152468
6.132000000000001,0.006800612823241491
6.136,0.006786981835402867
6.140000000000001,0.006797439471575356
6.144,0.006799338674466452
6.148,0.006804194864137355
6.152,0.0068014782827868
6.156,0.0067811640240149525
6.16,0.006826504487971999
6.164,0.006848405422576915
6.168,0.0068029687964481665
6.172,0.006791405295301115
6.176,0.006813522594792357
6.18,0.006840736489383755
6.184,0.0068516508958718254
6.188,0.006812464810903645
6.192,0.006827850758375814
6.196,0.006859728518294714
6.2,0.006841313462413961
6.204,0.006807632661775667
6.208,0.006783111307991899
6.212,0.006755608926885398
6.216,0.006833933015735905
6.22,0.006817585446546727
6.224,0.006821480014500619
6.228,0.006883889263934603
6.232,0.00687624437128437
6.236,0.006828211366519693
6.24,0.006824845690510156
6.244,0.006863743288963233
6.248,0.006872974857446534
6.252,0.0068672772487732466
6.256,0.006832779069675493
6.26,0.006890933143011706
6.264,0.0069051651444234615
6.268,0.006882542993530789
6.272,0.006863094194304251
6.276,0.006896486508427442
6.28,0.006880643790639693
6.284,0.006881821777243031
6.288,0.006862228734758942
6.292,0.006870330397724755
6.296,0.006926921835770825
6.3,0.006900861887239839
6.304,0.006854151112336053
6.308,0.006872397884416328
6.312,0.006908963550205653
6.316,0.006909684766493411
6.32,0.006893529521647634
6.324,0.006873022938532385
6.328,0.006932787728244589
6.332,0.006918219159231879
6.336,0.006883480574704874
6.34,0.006880691871725544
6.344,0.006908554860975923
6.348,0.006913338929018051
6.352,0.006896726913856694
6.356,0.006879826412180234
6.36,0.0069208636189536585
6.364,0.0069373554314003895
6.368,0.006878335898518868
6.372,0.006867253208230321
6.376,0.006918892294433787
6.38,0.0069392546342914845
6.384,0.006920695335153181
6.388,0.0069067518202565285
6.392,0.006894923873137299
6.396,0.006934831174393237
6.4,0.006917786429459225
6.404,0.006896414386798666
6.408,0.006923219592160334
6.412,0.006956034933253321
6.416,0.00693882190451883
6.42,0.006894683467708047
6.424,0.006900236833123782
6.428,0.0069576696901722385
6.432,0.0069728152322151545
6.436,0.006908170212289119
6.44,0.006916536321227111
6.444,0.006969810164349497
6.448,0.006968055204715952
6.452,0.0069408413101245525
6.456,0.006934230160820105
6.46,0.006954304014162702
6.464,0.006973320083616585
6.468,0.006932354998471934
6.472,0.006910357901695318
6.476,0.006953414514074467
6.48,0.006955626244023592
6.484,0.0069510104597819405
6.488,0.006926465065455245
6.492,0.00694228374270007
6.496,0.006984667219877309
6.5,0.0069835132738168965
6.5040000000000004,0.006921272308183388
6.508,0.006939855647864616
6.5120000000000005,0.006981205381696071
6.516,0.006974978881078428
6.5200000000000005,0.006954279973619777
6.524,0.0069544963385061035
6.5280000000000005,0.006976661719083197
6.532,0.00698329690893057
6.5360000000000005,0.006952500973443307
6.54,0.006948846810918667
6.5440000000000005,0.007013756276816878
6.548,0.0069899320987779415
6.5520000000000005,0.006997384667084773
6.556,0.006992119788184141
6.5600000000000005,0.007005606532765213
6.564,0.007021377128924186
6.5680000000000005,0.006990941801580803
6.572,0.006953919365475897
6.5760000000000005,0.007010847371122921
6.58,0.007026906453796997
6.5840000000000005,0.00699613455885266
6.588,0.006982551652099886
6.5920000000000005,0.006993946869446461
6.596,0.00701902115571751
6.6000000000000005,0.007004644911048203
6.604,0.006973897056646791
6.6080000000000005,0.007001062870152339
6.612,0.007051740334638795
6.6160000000000005,0.007014693857990963
6.62,0.0069936583829313574
6.6240000000000006,0.006991422612439308
6.628,0.007047461117998098
6.632000000000001,0.0070467879827961905
6.636,0.007011616668496529
6.640000000000001,0.006968872583175412
6.644,0.007027098778140399
6.648000000000001,0.007034190738303352
6.652,0.006994235355961564
6.656000000000001,0.0070203433855784
6.66,0.007039623901004461
6.664,0.00704262896887012
6.668,0.0070226753182421504
6.672,0.0070122898036984365
6.676,0.007057317740597456
6.68,0.0070829449593557865
6.684,0.007018876912459959
6.688,0.007023252291272357
6.692,0.007050225780434503
6.696,0.007062390295154686
6.7,0.007056163794537043
6.704,0.00702495916982005
6.708,0.007026617967281893
6.712,0.00708328152695674
6.716,0.0070645539440179605
6.72,0.007034719630247707
6.724,0.007061789281581555
6.728,0.007053351051014787
6.732,0.007055971470193641
6.736,0.00702628139968094
6.74,0.007034839832962334
6.744,0.007101840826095043
6.748,0.0071098944079750065
6.752,0.007022194507383645
6.756,0.0070314741569527965
6.76,0.007085493256905865
6.764,0.007085012446047359
6.768,0.007071141052779483
6.772,0.007039263292860582
6.776,0.007071381458208735
6.78,0.007090181162776291
6.784,0.007059361186746103
6.788,0.0070550338890195555
6.792,0.0070981626230274784
6.796,0.007090734095263572
6.8,0.007084723959532256
6.804,0.00704856698297266
6.808,0.007076309769508414
6.812,0.007120087598175318
6.816,0.007094051690187258
6.82,0.0070459225232508815
6.824,0.0070773915939400505
6.828,0.007122876301154648
6.832,0.007116529597822379
6.836,0.007096720190451962
6.84,0.007082848797184085
6.844,0.007138743059485322
6.848,0.0071309779641204624
6.852,0.007094147852358959
6.856,0.007110206935033035
6.86,0.007160067021060032
6.864,0.00713302141026911
6.868,0.007105494988619683
6.872,0.007095902811992503
6.876,0.007126290058250036
6.88,0.007152398087866873
6.884,0.007103427501928111
6.888,0.007079651404975025
6.892,0.007138935383828725
6.896,0.00714302227612602
6.9,0.007111288759464672
6.904,0.007109870367432081
6.908,0.007110519462091063
6.912,0.007149417060544141
6.916,0.007127852693540178
6.92,0.007101768704466268
6.924,0.007148936249685635
6.928,0.007178337833683232
6.932,0.007139632559573558
6.936,0.0071070335833669
6.94,0.007129102801772292
6.944,0.007163673102498822
6.948,0.007181775631321545
6.952,0.00712251569301077
6.956,0.007119222138630009
6.96,0.007176078022648257
6.964,0.007167880197510743
6.968,0.007134824450988505
6.972,0.007149417060544141
6.976,0.007155883966591036
6.98,0.007159778534544929
6.984,0.007157254277537776
6.988,0.007152518290581499
6.992,0.007193363173011521
6.996,0.007192016902607707
7.0,0.007170596778861297
7.0040000000000004,0.007164634724215832
7.008,0.007195190254273841
7.0120000000000005,0.007220601108145845
7.016,0.007210047309801655
7.0200000000000005,0.007150186357917749
7.024,0.007163552899784195
7.0280000000000005,0.0072054315255600035
7.032,0.007185982726333466
7.0360000000000005,0.007148864128056859
7.04,0.007164778967473384
7.0440000000000005,0.007202979390181627
7.048,0.007204373741671292
7.0520000000000005,0.007163552899784195
7.056,0.00717997259060215
7.0600000000000005,0.0072293037846847905
7.064,0.00719595955164745
7.0680000000000005,0.007163168251097391
7.072,0.007184756658644278
7.0760000000000005,0.007223582135468577
7.08,0.007240097988458235
7.0840000000000005,0.007227212257450292
7.088,0.0071680244407682945
7.0920000000000005,0.007206513349991641
7.096,0.007224086986870008
7.1000000000000005,0.007211609945091796
7.104,0.007201969687378766
7.1080000000000005,0.007229087419798463
7.112,0.0072391123261983
7.1160000000000005,0.0072147111751291555
7.12,0.007185117266788156
7.1240000000000006,0.007201849484664139
7.128,0.007252983719466177
7.132000000000001,0.007227741149394648
7.136,0.0072067777959638184
7.140000000000001,0.007230265406401801
7.144,0.007255676260273806
7.148000000000001,0.007242790529265865
7.152,0.007200383011545699
7.156000000000001,0.007197714511280994
7.16,0.007251373003090184
7.164000000000001,0.007243103056323893
7.168,0.0072074990122515765
7.172,0.007230337528030577
7.176,0.007260292044515456
7.18,0.007250459462459024
7.184,0.007210768526089412
7.188,0.00720418141732789
7.192,0.0072626239771792075
7.196,0.0072847412766704495
7.2,0.007228246000796078
7.204,0.007222572432665717
7.208,0.007266278139703848
7.212,0.007293443953209394
7.216,0.007265268436900986
7.22,0.007226394878990833
7.224,0.0072469255026490105
7.228,0.007287794425621958
7.232,0.007262479733921656
7.236,0.007225481338359673
7.24,0.007253560692496383
7.244,0.007270196748200665
7.248,0.007266037734274595
7.252,0.007244449326727708
7.256,0.007250459462459024
7.26,0.007293900723524975
7.264,0.007315080441842131
7.268,0.007255267571044077
7.272,0.007249738246171266
7.276,0.007304574724583792
7.28,0.007315513171614787
7.284,0.007281207316860436
7.288,0.007254209787155365
7.292,0.007283803695496364
7.296,0.007305680589558354
7.3,0.007275942437959803
7.304,0.0072665185451331
7.308,0.0073139024552387934
7.312,0.007289236858197473
7.316,0.0072802937762292755
7.32,0.007254498273670468
7.324,0.00728620774978889
7.328,0.007318566320566295
7.332,0.007312363860491577
7.336,0.007253464530324682
7.34,0.007283899857668065
7.344,0.0073297692135694675
7.348,0.0073076278735353
7.352,0.0072895734257984275
7.356,0.0072826737899788765
7.36,0.007307291305934346
7.364,0.007325033226613191
7.368,0.007287361695849303
7.372,0.007277769519222123
7.376,0.0073378708765352825
7.38,0.0073162824689883945
7.384,0.007288515641909716
7.388,0.007301185008031329
7.392,0.007343472323036868
7.396,0.007358762108337336
7.4,0.007320778050515419
7.404,0.00727611072176028
7.408,0.007330899119086955
7.412,0.00734818426945022
7.416,0.007329817294655318
7.42,0.007328831632395382
7.424,0.007342318376976456
7.428,0.007372777744862765
7.432,0.007356478256759436
7.436,0.007336284200702215
7.44,0.007358113013678354
7.444,0.007394173828066249
7.448,0.007336885214275346
7.452,0.0072984924672237
7.456,0.007322989780464543
7.46,0.0073704458121990135
7.464,0.007365421338727634
7.468,0.007321763712775355
7.472,0.007321403104631476
7.476,0.007382826691805525
7.48,0.00737559048838502
7.484,0.007332341551662471
7.488,0.0073327021598063495
7.492,0.007338495930651339
7.496,0.007344169498781701
7.5,0.0073376304711060296
7.5040000000000004,0.007334481159982819
7.508,0.007376479988473255
7.5120000000000005,0.007384293164923965
7.516,0.007342558782405709
7.5200000000000005,0.007339120984767396
7.524,0.007366935892931925
7.5280000000000005,0.0073867693408452674
7.532,0.007375494326213319
7.5360000000000005,0.0073430155527212885
7.54,0.00737284986649154
7.5440000000000005,0.007404439139895336
7.548,0.0073887647059080646
7.5520000000000005,0.0073778983805058455
7.556,0.007394342111866726
7.5600000000000005,0.007404342977723635
7.564,0.007408622194364332
7.5680000000000005,0.00736280091954878
7.572,0.007361550811316666
7.5760000000000005,0.007412925451547954
7.58,0.007419969330625056
7.5840000000000005,0.0073378708765352825
7.588,0.0073413567552594455
7.5920000000000005,0.007411026248656858
7.596,0.0074141274786942175
7.6000000000000005,0.007388524300478812
7.604,0.007337606430563104
7.6080000000000005,0.007399005977194227
7.612,0.007419512560309476
7.6160000000000005,0.007392154422460526
7.62,0.007383716191893759
7.6240000000000006,0.0074203058982260095
7.628,0.007394630598381829
7.632000000000001,0.007388716624822214
7.636,0.007386673178673566
7.640000000000001,0.007417949925019334
7.644,0.007460189158939022
7.648000000000001,0.007436509224157639
7.652,0.007402756301890568
7.656000000000001,0.00742258974980391
7.66,0.00743355223737783
7.664000000000001,0.007430907777656051
7.668,0.00741345434349231
7.672000000000001,0.007383547908093283
7.676,0.0074180941682768856
7.68,0.007441100967856364
7.684,0.007416723857330145
7.688,0.00743528315646845
7.692,0.007492932378403231
7.696,0.0074420385490304485
7.7,0.0074119878703738686
7.704,0.007430018277567816
7.708,0.0074768492551862305
7.712,0.0074946873380367755
7.716,0.007438913278450165
7.72,0.007423984101293575
7.724,0.007462328767259371
7.728,0.007462328767259371
7.732,0.007436797710672741
7.736,0.007435355278097226
7.74,0.007436990035016144
7.744,0.007463867362006588
7.748,0.0074472793873881565
7.752,0.007434850426695795
7.756,0.007448457373991494
7.76,0.00747278640343186
7.764,0.007449154549736327
7.768,0.007433888804978784
7.772,0.007440283589396904
7.776,0.007482354539516115
7.78,0.00749370167577684
7.784,0.0074298259532244145
7.788,0.007457833185732347
7.792,0.0075118042045995625
7.796,0.007482835350374621
7.8,0.007460213199481948
7.804,0.0074954806759533095
7.808,0.007494350770435821
7.812,0.007487499215702122
7.816,0.007460958456312631
7.82,0.007446966860330128
7.824,0.007508414488047101
7.828,0.007483604647748229
7.832,0.007442663603146505
7.836,0.0074358601294986565
7.84,0.007464588578294346
7.844,0.0074900475132522
7.848,0.00747086315999784
7.852,0.007441365413828542
7.856,0.007498678068162369
7.86,0.007508654893476354
7.864,0.007477931079617867
7.868,0.0074745413630654045
7.872,0.007476512687585276
7.876,0.007498461703276042
7.88,0.007512741785773648
7.884,0.00748228241788734
7.888,0.007496514419299096
7.892,0.007554596371006534
7.896,0.007520122232451704
7.9,0.007502837082088439
7.904,0.007498077054589237
7.908,0.007531613611969979
7.912,0.007542263572485873
7.916,0.0075037506227196
7.92,0.007455308928725194
7.924,0.007531421287626578
7.928,0.0075432973158316595
7.932,0.00750105808191197
7.936,0.0075022120279723825
7.94,0.007534185950062985
7.944,0.0075237763949763435
7.948,0.0075064912446130795
7.952,0.0074778829985320166
7.956,0.0075370467746710915
7.96,0.007569741913049449
7.964,0.007510722380167926
7.968,0.007490576405196556
7.972,0.007515506448210053
7.976,0.007534234031148835
7.98,0.007536253436754558
7.984,0.007509135704334859
7.988,0.007510049244966018
7.992,0.007560318020222746
7.996,0.007561159439225131
8.0,0.007519929908108302
8.004,0.0075349792879795185
8.008000000000001,0.007553081816802242
8.012,0.007550317154365837
8.016,0.0075064912446130795
8.02,0.007500024338566184
8.024000000000001,0.0075578899253872945
8.028,0.007592364063942122
8.032,0.007530147138851539
8.036,0.007511539758627385
8.040000000000001,0.007562625912343571
8.044,0.007582651684600316
8.048,0.007547792897358684
8.052,0.007561207520310981
8.056000000000001,0.007546110059353916
8.06,0.007579310049133704
8.064,0.007552528884314961
8.068,0.007499182919563799
8.072000000000001,0.007534402314949312
8.076,0.007562770155601123
8.08,0.007568972615675841
8.084,0.007522309921857903
8.088000000000001,0.0075296422874501084
8.092,0.007576473265068523
8.096,0.007575559724437363
8.1,0.007526541057412749
8.104000000000001,0.007540580734481105
8.108,0.007582819968400793
8.112,0.007567313818213997
8.116,0.007549499775906378
8.120000000000001,0.007547816937901609
8.124,0.0075839739144612055
8.128,0.0076060912139524475
8.132,0.007560943074338803
8.136000000000001,0.00755248080322911
8.14,0.007618592296273584
8.144,0.007601427348624947
8.148,0.007589791725849119
8.152000000000001,0.007575102954121783
8.156,0.007598686726731466
8.16,0.0076317184327107795
8.164,0.007618183607043855
8.168000000000001,0.007547071681070926
8.172,0.007590657185394429
8.176,0.007625996783494566
8.18,0.007604336254318903
8.184000000000001,0.007575199116293484
8.188,0.007572338291685378
8.192,0.007611909025340361
8.196,0.0076018119973117505
8.2,0.007566304115411137
8.204,0.007570463129337207
8.208,0.007619481796361819
8.212,0.007596715402211595
8.216,0.007592484266656749
8.22,0.007585464428122571
8.224,0.007615779552751329
8.228,0.00763638229803828
8.232,0.007618111485415079
8.236,0.007586377968753732
8.24,0.007635492797950045
8.244,0.007650013285876904
8.248,0.007614264998547037
8.252,0.007616548850124937
8.256,0.00763104529750887
8.26,0.0076627066925414435
8.264,0.007619481796361819
8.268,0.007595297010179004
8.272,0.007641070203908707
8.276,0.007650710461621737
8.28,0.007621525242510466
8.284,0.007604071808346725
8.288,0.00761633248523861
8.292,0.007640132622734622
8.296,0.00765008540750568
8.3,0.007611139727966753
8.304,0.007593181442401581
8.308,0.007652994313199637
8.312,0.007653451083515217
8.316,0.007615827633837179
8.32,0.00761912118821794
8.324,0.007629747108190907
8.328,0.007657465854183736
8.332,0.007640060501105846
8.336,0.007638834433416657
8.34,0.0076796793158466796
8.344,0.007677659910240957
8.348,0.0076274872971559314
8.352,0.0076127504443427455
8.356,0.007638497865815703
8.36,0.0076667455037528875
8.364,0.007651119150851466
8.368,0.007604841105720334
8.372,0.0076324156084556114
8.376,0.007672996044913456
8.38,0.0076768906128673485
8.384,0.007639820095676593
8.388,0.007668139855242553
8.392,0.00766648105778071
8.396,0.007659461219246533
8.4,0.007624337986032723
8.404,0.007638353622558151
8.408,0.0076840306541161515
8.412,0.0076743663558601965
8.416,0.007633473392344324
8.42,0.007638305541472302
8.424,0.007673116247628083
8.428,0.0076929256549985
8.432,0.007656912921696455
8.436,0.007609456889961984
8.44,0.007645637907064506
8.444,0.0076710247203935844
8.448,0.0076464552855239655
8.452,0.0076453494205494035
8.456,0.007684655708232208
8.46,0.007677203139925377
8.464,0.007672947963827606
8.468,0.007678645572500893
8.472,0.007712542738025514
8.476,0.0077301884965326586
8.48,0.0076848239920326855
8.484,0.0076539078538307975
8.488,0.00769388727671551
8.492,0.007727207469209925
8.496,0.007713504359742524
8.5,0.007690906249392777
8.504,0.007676818491238573
8.508000000000001,0.007727976766583533
8.512,0.007725620793376857
8.516,0.007681698721452401
8.52,0.007684920154204387
8.524000000000001,0.00772901050992932
8.528,0.007675616464092309
8.532,0.007662874976341921
8.536,0.00766972653107562
8.540000000000001,0.007713360116484973
8.544,0.007721533901079563
8.548,0.007656119583779921
8.552,0.007678044558927761
8.556000000000001,0.007740982700306102
8.56,0.0077640375809714295
8.564,0.007728337374727412
8.568,0.007694320006488164
8.572000000000001,0.007710475251333941
8.576,0.007738674808185277
8.58,0.007712470616396738
8.584,0.007684150856830778
8.588000000000001,0.007725164023061277
8.592,0.007730140415446808
8.596,0.007706051791435693
8.6,0.007668356220128881
8.604000000000001,0.007680929424078793
8.608,0.007715884373492125
8.612,0.007730380820876061
8.616,0.007676457883094694
8.620000000000001,0.007696964466209944
8.624,0.007736535199864928
8.628,0.00773256851028226
8.632,0.00770622007523617
8.636000000000001,0.007698839628558114
8.64,0.007725765036634409
8.644,0.007752810647425331
8.648,0.007711076264907073
8.652000000000001,0.007701387926108192
8.656,0.007758051485783039
8.66,0.00774718516038082
8.664,0.007700570547648733
8.668000000000001,0.007706099872521544
8.672,0.007723889874286238
8.676,0.007738242078412621
8.68,0.007735212970004039
8.684000000000001,0.007693166060427752
8.688,0.007734563875345057
8.692,0.0077563446072353446
8.696,0.0077473774847242214
8.700000000000001,0.007740958659763176
8.704,0.007750743160733759
8.708,0.007756128242349018
8.712,0.007759806445416583
8.716,0.007723385022884808
8.72,0.007740525929990522
8.724,0.007789183988871255
8.728,0.0077492045659865415
8.732,0.0077226397660541245
8.736,0.007726702617808494
8.74,0.007767595581324368
8.744,0.007779231204100195
8.748,0.007742881903197198
8.752,0.007711124345992923
8.756,0.007767739824581919
8.76,0.007774903906373648
8.764,0.007738362281127248
8.768,0.007749348809244093
8.772,0.007771682473621663
8.776,0.007767090729922937
8.78,0.007752786606882406
8.784,0.007726462212379242
8.788,0.007763051918711493
8.792,0.00781656616726313
8.796,0.007760671904961892
8.8,0.0077512720526781145
8.804,0.007787549231952336
8.808,0.007822432059736893
8.812,0.007810796436961066
8.816,0.007773004703482553
8.82,0.0077686293246701545
8.824,0.007809522288186027
8.828,0.007795290286774272
8.832,0.007772451770995272
8.836,0.007787404988694785
8.84,0.007800050314273474
8.844,0.007805219031002405
8.848,0.007775432798318004
8.852,0.007764229905314831
8.856,0.007811661896506375
8.86,0.007825100560001597
8.864,0.007768557203041379
8.868,0.007763508689027073
8.872,0.007805675801317985
8.876,0.007812118666821956
8.88,0.007796372111205908
8.884,0.0077752164334316766
8.888,0.0077635567701129235
8.892,0.007813056247996041
8.896,0.0078003388007885765
8.9,0.007769783270730567
8.904,0.00780158890902069
8.908,0.007802694773995252
8.912,0.007813320693968218
8.916,0.007783895069427697
8.92,0.007796275949034207
8.924,0.007829980790215428
8.928,0.007813272612882368
8.932,0.007765912743319599
8.936,0.007783342136940415
8.94,0.007823706208511933
8.944,0.00782026841087362
8.948,0.007798247273554079
8.952,0.007776370379492089
8.956,0.007815604545546119
8.96,0.007829115330670119
8.964,0.007813609180483322
8.968,0.0077936795703982785
8.972,0.0078342359663132
8.976,0.007820484775759947
8.98,0.007807743288009558
8.984,0.007779567771701149
8.988,0.007811373409991273
8.992,0.007845823508003176
8.996,0.007814041910255977
9.0,0.00776088826984822
9.004,0.007814835248172511
9.008000000000001,0.007861449860904597
9.012,0.007838130534267093
9.016,0.007820484775759947
9.02,0.007826542992577113
9.024000000000001,0.007860103590500784
9.028,0.007845102291715419
9.032,0.007830100992930055
9.036,0.00783478889880048
9.040000000000001,0.00788524999840061
9.044,0.007838971953269477
9.048,0.007798872327670136
9.052,0.007816950815949934
9.056000000000001,0.007876427119147036
9.06,0.007887918498665313
9.064,0.007812214828993656
9.068,0.00779971374667252
9.072000000000001,0.00785123263016136
9.076,0.0078730614431375
9.08,0.007834019601426873
9.084,0.007824788032943569
9.088000000000001,0.007839933574986488
9.092,0.007855103157572329
9.096,0.00783935660195628
9.1,0.007819619316214638
9.104000000000001,0.0078617383474197
9.108,0.007894457526340984
9.112,0.007865440591030191
9.116,0.00783966912901431
9.120000000000001,0.007868421618352925
9.124,0.007907271135720149
9.128,0.007895130661542892
9.132,0.007848323724467404
9.136000000000001,0.007858324590324314
9.14,0.007903833338081838
9.144,0.007884889390256729
9.148,0.007854405981827496
9.152000000000001,0.007874143267569137
9.156,0.007885826971430815
9.16,0.00790371313536721
9.164,0.007873253767480902
9.168000000000001,0.007857915901094584
9.172,0.00791270429842126
9.176,0.007909675190012675
9.18,0.007859454495841802
9.184000000000001,0.007864190482798078
9.188,0.007891404377389477
9.192,0.007911670555075473
9.196,0.00788585101197374
9.200000000000001,0.0078388998316407
9.204,0.00788498555242843
9.208,0.007913233190365614
9.212,0.007890947607073895
9.216000000000001,0.007864286644969779
9.22,0.007895635512944322
9.224,0.00791147823073207
9.228,0.00791508431217086
9.232,0.007888783958210622
9.236,0.007894842175027788
9.24,0.007930229854213777
9.244,0.007901501405418086
9.248,0.007855968617117638
9.252,0.007887077079662928
9.256,0.007925902556487228
9.26,0.007910035798156556
9.264,0.007888519512238444
9.268,0.00785072777875993
9.272,0.007910131960328255
9.276,0.007917296042119984
9.28,0.007870344861786945
9.284,0.00785981510398568
9.288,0.007908304879065936
9.292,0.007905155567942726
9.296,0.007880345727643855
9.3,0.007875465497430026
9.304,0.007909939635984855
9.308,0.007924339921197086
9.312,0.007873494172910155
9.316,0.007866642618176455
9.32,0.007907030730290898
9.324,0.007954078072795637
9.328,0.007928354691865607
9.332,0.007889216687983277
9.336,0.007887870417579462
9.34,0.007953140491621553
9.344,0.0079506162346144
9.348,0.007898977148410934
9.352,0.007916983515061956
9.356,0.007935013922255905
9.36,0.007921334853331428
9.364,0.007898231891580251
9.368,0.007893135296480095
9.372,0.007964968438740783
9.376,0.007985306738055555
9.38,0.007898400175380727
9.384,0.007883663322567541
9.388,0.007943380031193896
9.392,0.007964343384624725
9.396,0.007951241288730457
9.4,0.00793604766560169
9.404,0.007935831300715363
9.408,0.007972877777363194
9.412,0.007959439113867973
9.416,0.00792316193459375
9.42,0.00797066604741407
9.424,0.007968141790406917
9.428,0.007951794221217738
9.432,0.007920661718129522
9.436,0.007945663882771795
9.44,0.007980402467298801
9.444,0.007966290668601671
9.448,0.007897654918550044
9.452,0.00793102319213031
9.456,0.007987326143661277
9.46,0.007971555547502304
9.464,0.007943019423050018
9.468,0.007962924992592135
9.472,0.007991076468357618
9.476,0.007986051994886239
9.48,0.00795244331587672
9.484,0.007952827964563525
9.488,0.007990547576413263
9.492,0.007959102546267019
9.496,0.007928066205350503
9.5,0.007926960340375941
9.504,0.00797258929084809
9.508000000000001,0.007992158292789256
9.512,0.007973430709850475
9.516,0.007917800893521416
9.52,0.007963574087251117
9.524000000000001,0.007997351050061111
9.528,0.007975930926314703
9.532,0.007949630572354465
9.536,0.007955448383742379
9.540000000000001,0.007981820859331391
9.544,0.007976027088486404
9.548,0.0079529000861923
9.552,0.007964343384624725
9.556000000000001,0.008020261687468888
9.56,0.00797670022368831
9.564,0.007964655911682755
9.568,0.007976580020973685
9.572000000000001,0.008007592321347274
9.576,0.008007808686233601
9.58,0.007963982776480846
9.584,0.007929845205526974
9.588000000000001,0.007994345982195453
9.592,0.008003168861449026
9.596,0.007965064600912484
9.6,0.007970810290671622
9.604000000000001,0.007991533238673198
9.608,0.008004731496739168
9.612,0.007993288198306742
9.616,0.007964127019738398
9.620000000000001,0.007996509631058728
9.624,0.008027882539576198
9.628,0.007985162494798003
9.632,0.007955496464828229
9.636000000000001,0.007972565250305166
9.64,0.008015141051825807
9.644,0.00801451599770975
9.648,0.00797157958804523
9.652000000000001,0.007957708194777353
9.656,0.008008842429579388
9.66,0.008017785511547585
9.664,0.007974440412653336
9.668000000000001,0.007982373791818672
9.672,0.008016679646573023
9.676,0.008004491091309915
9.68,0.007972396966504688
9.684000000000001,0.007982253589104047
9.688,0.008047547703689062
9.692,0.00803675349991562
9.696,0.007969007249952227
9.700000000000001,0.007964151060281324
9.704,0.00799751933386159
9.708,0.008023507160763799
9.712,0.008020790579413243
9.716000000000001,0.007985595224570659
9.72,0.008024324539223257
9.724,0.008045167689939462
9.728,0.008015621862684312
9.732,0.008000283996297994
9.736,0.008049663271466487
9.74,0.008031969431873492
9.744,0.008005404631941075
9.748,0.007980065899697847
9.752,0.008016126714085742
9.756,0.00805593785316998
9.76,0.008027594053061094
9.764,0.00796751673629086
9.768,0.007994081536223276
9.772,0.008043917581707348
9.776,0.008048365082148522
9.78,0.008025598687998297
9.784,0.007987662711262231
9.788,0.008031656904815464
9.792,0.00804374929790687
9.796,0.008012929321876684
9.8,0.00800030803684092
9.804,0.008053437636705752
9.808,0.00804091251384169
9.812,0.008016992173631053
9.816,0.007999322374580984
9.82,0.008038460378463314
9.824,0.00807471351719461
9.828,0.00802812294500545
9.832,0.007997543374404514
9.836,0.008025670809627074
9.84,0.008050408528297168
9.844,0.008038027648690658
9.848,0.008022353214703386
9.852,0.00802324271479162
9.856,0.008065097300024505
9.86,0.008060529596868706
9.864,0.00802853163423518
9.868,0.008059808380580947
9.872,0.008085459639882202
9.876,0.008044302230394153
9.88,0.008017232579060304
9.884,0.008033964796936289
9.888,0.008065866597398113
9.892,0.008084209531650089
9.896,0.008023507160763799
9.9,0.008019348146837729
9.904,0.008071083395212895
9.908,0.008075026044252639
9.912,0.008049014176807505
9.916,0.00803716218914535
9.92,0.008035815918741534
9.924,0.008054735826023717
9.928,0.008043989703336123
9.932,0.008029853864096069
9.936,0.008060361313068228
9.94,0.008092263113530052
9.944,0.008061611421300342
9.948,0.008029661539752667
9.952,0.008070410260010989
9.956,0.008103369844361524
9.96,0.008100773465725596
9.964,0.008046802446858379
9.968,0.008044759000709733
9.972,0.00809110916746964
9.976,0.008083993166763762
9.98,0.008069905408609558
9.984,0.008065698313597637
9.988,0.008091998667557875
9.992,0.00809704718157218
9.996,0.00805370208267793
10.0,0.008065530029797159
10.004,0.008116832548399672
10.008000000000001,0.008087623288745476
10.012,0.008045504257540416
10.016,0.008047307298259811
10.02,0.00810618258788378
10.024000000000001,0.008121135805583294
10.028,0.008096205762569796
10.032,0.008048437203777297
10.036,0.00809526818139571
10.040000000000001,0.00811938084594975
10.044,0.008078055152661221
10.048,0.008069929449152483
10.052,0.008106278750055481
10.056000000000001,0.008103538128162
10.06,0.008092599681131006
10.064,0.008073271084619095
10.068,0.008101494682013353
10.072000000000001,0.008152749119530017
10.076,0.008101735087442606
10.08,0.008066203164999067
10.084,0.00808531539662465
10.088000000000001,0.008133228198674703
10.092,0.00812649684665563
10.096,0.008107024006886164
10.1,0.008078175355375848
10.104000000000001,0.008139935510150851
10.108,0.008148325659631769
10.112,0.008104018939020506
10.116,0.008096301924741497
10.120000000000001,0.008130415455152447
10.124,0.00812476592756501
10.128,0.008109980993665972
10.132,0.008075675138911621
10.136000000000001,0.008115077588766128
10.14,0.008152003862699334
10.144,0.008106543196027658
10.148,0.008087839653631804
10.152000000000001,0.008115245872566604
10.156,0.008136209225997436
10.16,0.008125703508739096
10.164,0.008085676004768531
10.168000000000001,0.008094955654337682
10.172,0.008145585037738289
10.176,0.008128179684660397
10.18,0.008097095262658031
10.184000000000001,0.008108538561090456
10.188,0.008141930875213648
10.192,0.008147676564972787
10.196,0.00810380257413418
10.200000000000001,0.008099042546634976
10.204,0.008155201254908394
10.208,0.008173760554046698
10.212,0.008104908439108742
10.216000000000001,0.008101230236041175
10.22,0.008144911902536382
10.224,0.008147892929859114
10.228,0.00814303674018821
10.232000000000001,0.008125463103309843
10.236,0.008151931741070558
10.24,0.008168038904830484
10.244,0.00813933449657772
10.248,0.008119308724320973
10.252,0.00816714940474225
10.256,0.008155850349567376
10.26,0.008148085254202516
10.264,0.008113779399448164
10.268,0.008141666429241471
10.272,0.008182222825156389
10.276,0.008163711607103937
10.28,0.008099403154778856
10.284,0.008139142172234317
10.288,0.00817719835168501
10.292,0.008161956647470393
10.296,0.008135704374596006
10.3,0.008131785766099187
10.304,0.008163158674616656
10.308,0.00815613883608248
10.312,0.00812221763001493
10.316,0.008119236602692198
10.32,0.008169144769805046
10.324,0.008149575767863883
10.328,0.008115245872566604
10.332,0.00811202443981462
10.336,0.008147508281172309
10.34,0.008165394445108705
10.344,0.00814613797022557
10.348,0.008112817777731153
10.352,0.008156066714453703
10.356,0.00817537127042269
10.36,0.008151426889669128
10.364,0.008132771428359123
10.368,0.008134334063649265
10.372,0.008180299581722368
10.376,0.008177126230056234
10.38,0.008146210091854345
10.384,0.008179313919462432
10.388,0.008222659018356683
10.392,0.00818282383872952
10.396,0.008155153173822543
10.4,0.00817308741884479
10.404,0.00822068769383681
10.408,0.008228741275716775
10.412,0.008192319853185
10.416,0.00816989002663573
10.42,0.008214893922991823
10.424,0.00820109465135272
10.428,0.008169577499577701
10.432,0.008170250634779608
10.436,0.008197296245570529
10.44,0.008211143598295481
10.444,0.008173448026988668
10.448,0.008133516685189806
10.452,0.008187824271657975
10.456,0.00821684120696877
10.46,0.008144911902536382
10.464,0.008135055279937024
10.468,0.008171308418668321
10.472,0.008182294946785166
10.476,0.00820104657026687
10.48,0.008155946511739077
10.484,0.00816907264817627
10.488,0.008211816733497388
10.492,0.008205253665278791
10.496,0.008162966350273254
10.5,0.00820099848918102
10.504,0.008227707532370988
10.508000000000001,0.0082174422205419
10.512,0.008166548391169119
10.516,0.008176765621912356
10.52,0.008226745910653978
10.524000000000001,0.008218091315200883
10.528,0.008172053675499003
10.532,0.008164288580134143
10.536,0.008205325786907568
10.540000000000001,0.008209436719747788
10.544,0.00820054171886544
10.548,0.008149167078634152
10.552,0.008187559825685798
10.556000000000001,0.008212153301098342
10.56,0.008201214854067348
10.564,0.00818628567691076
10.568,0.00821638443665319
10.572000000000001,0.008224462059076077
10.576,0.008195637448108686
10.58,0.008161283512268485
10.584,0.00817943412217706
10.588000000000001,0.008243117520386083
10.592,0.008208378935859077
10.596,0.008162148971813795
10.6,0.00818227090624224
10.604000000000001,0.008231313613809778
10.608,0.0082378045603996
10.612,0.008205301746364642
10.616,0.008180515946608695
10.620000000000001,0.008246218750423442
10.624,0.008246411074766844
10.628,0.008216240193395638
10.632,0.008217273936741423
10.636000000000001,0.008248045831685761
10.64,0.008228741275716775
10.644,0.008221408910124569
10.648,0.008220471328950483
10.652000000000001,0.008244127223188943
10.656,0.008274778915418654
10.66,0.008220855977637288
10.664,0.008183112325244624
10.668000000000001,0.008226649748482277
10.672,0.008234943735791493
10.676,0.008217826869228704
10.68,0.008197728975343184
10.684000000000001,0.008182775757643672
10.688,0.008232179073355089
10.692,0.008213523612045082
10.696,0.008183977784789935
10.700000000000001,0.0081946037047629
10.704,0.008223644680616619
10.708,0.008214990085163524
10.712,0.008183400811759728
10.716000000000001,0.008184699001077692
10.72,0.008226048734909145
10.724,0.008246290872052217
10.728,0.008188545487945734
10.732000000000001,0.008185684663337628
10.736,0.008233885951902782
10.74,0.00824780542625651
10.744,0.008223620640073695
10.748000000000001,0.008223981248217573
10.752,0.0082446561151333
10.756,0.008270091009548229
10.76,0.008247252493769229
10.764,0.008212393706527595
10.768,0.00825896023817383
10.772,0.00827348072610069
10.776,0.008261316211380506
10.78,0.008232635843670668
10.784,0.008261508535723909
10.788,0.008284683619103863
10.792,0.008270451617692107
10.796,0.008212033098383717
10.8,0.008231794424668284
10.804,0.008272422942211978
10.808,0.008249993115662707
10.812,0.008231674221953656
10.816,0.00823638616836701
10.82,0.008254656980990208
10.824,0.008251988480725505
10.828,0.008211720571325687
10.832,0.008207657719571318
10.836,0.00826206146821119
10.84,0.008233934032988633
10.844,0.008181261203439379
10.848,0.00819820978620169
10.852,0.008251002818465568
10.856,0.008267783117427402
10.86,0.008244776317847926
10.864,0.008206095084281176
10.868,0.008267614833626926
10.872,0.008279346618574454
10.876,0.008259032359802607
10.88,0.008248839169602295
10.884,0.00826485017119052
10.888,0.0082767261993956
10.892,0.008261075805951255
10.896,0.008235472627735848
10.9,0.008277038726453629
10.904,0.008312690851611794
10.908,0.0082698746446619
10.912,0.008255474359449668
10.916,0.008264874211733445
10.92,0.008294540241703221
10.924,0.008294203674102267
10.928,0.008256916792025183
10.932,0.008238141128000554
10.936,0.008280260159205615
10.94,0.008303964134529924
10.944,0.008265739671278756
10.948,0.008263119252099901
10.952,0.008299204107030722
10.956,0.008295045093104652
10.96,0.008273961536959196
10.964,0.00824429550698942
10.968,0.00828622221385108
10.972,0.008306608594251703
10.976,0.008251748075296252
10.98,0.008255786886507696
10.984,0.008278625402286697
10.988,0.008304348783216727
10.992,0.00829778571499813
10.996,0.008259200643603084
11.0,0.008258719832744578
11.004,0.008285068267790668
11.008000000000001,0.008259849738262066
11.012,0.00822912592440358
11.016,0.008250882615750943
11.02,0.008271629604295444
11.024000000000001,0.008277904185998938
11.028,0.008255282035106266
11.032,0.00826013822477717
11.036,0.008306752837509254
11.040000000000001,0.008305262323847888
11.044,0.008249969075119783
11.048,0.008279250456402753
11.052,0.008318725027886036
11.056000000000001,0.00832016746046155
11.06,0.008308435675514023
11.064,0.008300213809833583
11.068,0.008319085636029915
11.072000000000001,0.00833403885372943
11.076,0.008302786147926585
11.08,0.008288289700542652
11.084,0.00834372719252831
11.088000000000001,0.008335313002504468
11.092,0.008311104175778726
11.096,0.008284779781275564
11.1,0.008299348350288274
11.104000000000001,0.008324663041988577
11.108,0.008299252188116573
11.112,0.008239391236232668
11.116,0.008270884347464761
11.120000000000001,0.008303603526386046
11.124,0.008295093174190502
11.128,0.008290453349405926
11.132,0.008278384996857444
11.136000000000001,0.008315022784275546
11.14,0.008309805986460762
11.144,0.008285693321906724
11.148,0.008292520836097498
11.152000000000001,0.008343895476328788
11.156,0.008326706488137225
11.16,0.008308916486372529
11.164,0.008292376592839946
11.168000000000001,0.008323725460814491
11.172,0.0083610363834345
11.176,0.008318628865714335
11.18,0.008272182536782725
11.184000000000001,0.008331682880522754
11.188,0.008339544138059315
11.192,0.008323268690498912
11.196,0.008307065364567283
11.200000000000001,0.008299636836803376
11.204,0.008331081866949622
11.208,0.008313195703013225
11.212,0.008292015984696068
11.216000000000001,0.008312089838038663
11.22,0.008352381787981405
11.224,0.008325648704248512
11.228,0.008305021918418636
11.232000000000001,0.00832057614969128
11.236,0.00835468968010223
11.24,0.008354329071958351
11.244,0.008305671013077618
11.248000000000001,0.008292977606413078
11.252,0.008345530233247704
11.256,0.008359041018371703
11.26,0.008332548340068063
11.264,0.008328004677455187
11.268,0.008340818286834353
11.272,0.008350386422918608
11.276,0.00831240236509669
11.28,0.008304829594075233
11.284,0.008351612490607797
11.288,0.008371181492548962
11.292,0.008301656242409099
11.296,0.008296247120250915
11.3,0.00832057614969128
11.304,0.008350722990519562
11.308,0.0083450494223892
11.312,0.008299612796260451
11.316,0.008321225244350264
11.32,0.008360267086060892
11.324,0.008338967165029108
11.328,0.00831824421702753
11.332,0.00833915948937251
11.336,0.008355867666705569
11.34,0.008351564409521946
11.344,0.008321056960549788
11.348,0.008336635232365358
11.352,0.008390125440374069
11.356,0.008356324437021148
11.36,0.008322956163440884
11.364,0.008328605691028319
11.368,0.008360483450947219
11.372,0.0083632240728407
11.376,0.008335024515989366
11.38,0.008297569350111804
11.384,0.008356084031591896
11.388,0.008378946587913822
11.392,0.00835468968010223
11.396,0.008350650868890787
11.4,0.00839209676489394
11.404,0.00838067750700444
11.408,0.008366830154279489
11.412,0.008327956596369337
11.416,0.008348751665999691
11.42,0.008391303426977406
11.424,0.008351155720292217
11.428,0.008324230312215922
11.432,0.008346035084649135
11.436,0.008378946587913822
11.44,0.008363752964785054
11.444,0.008356035950506045
11.448,0.008331779042694455
11.452,0.008392313129780267
11.456,0.008381975696322404
11.46,0.008322547474211153
11.464,0.00833271662386854
11.468,0.008378081128368511
11.472,0.00838986099440189
11.476,0.008367743694910649
11.48,0.008361637397007632
11.484,0.008393130508239727
11.488,0.00841635367270553
11.492,0.008345602354876481
11.496,0.008325191933932932
11.5,0.008364522262158664
11.504,0.008403443901154665
11.508000000000001,0.008389836953858965
11.512,0.008365700248762
11.516,0.008363849126956755
11.52,0.008387408859023514
11.524000000000001,0.008376686776878845
11.528,0.008355627261276316
11.532,0.008377047385022726
11.536,0.00839803477899648
11.540000000000001,0.008368561073370107
11.544,0.008348318936227036
11.548,0.008347020746909071
11.552,0.0083976741708526
11.556000000000001,0.008420777132603781
11.56,0.008345578314333555
11.564,0.0083633202350124
11.568,0.008411401320862927
11.572000000000001,0.008412266780408236
11.576,0.00838123043949172
11.58,0.008374595249644349
11.584,0.008394116170499661
11.588000000000001,0.00840839625299727
11.592,0.008389620588972638
11.596,0.008381711250350227
11.6,0.008416978726821588
11.604000000000001,0.008399429130486146
11.608,0.008379475479858177
11.612,0.008371638262864542
11.616,0.00839579900850443
11.620000000000001,0.008436139039533025
11.624,0.008413757294069603
11.628,0.008338822921771556
11.632,0.008378874466285045
11.636000000000001,0.00842606605204734
11.64,0.008419502983828743
11.644,0.008393635359641157
11.648,0.008395462440903476
11.652000000000001,0.008406953820421753
11.656,0.008419575105457518
11.66,0.008368993803142762
11.664,0.0083838748992135
11.668000000000001,0.008439985526401066
11.672,0.008397866495196003
11.676,0.008377768601310483
11.68,0.008382985399125265
11.684000000000001,0.008429191322627623
11.688,0.00842621029530489
11.692,0.008402506319980579
11.696,0.008354088666529098
11.700000000000001,0.008405006536444807
11.704,0.00843428791772778
11.708,0.00840762695562366
11.712,0.008385173088531464
11.716000000000001,0.008393971927242111
11.72,0.008412579307466264
11.724,0.008414406388728585
11.728,0.008394140211042588
11.732000000000001,0.008407723117795361
11.736,0.008442774229380397
11.74,0.008414093861670555
11.744,0.008401424495548942
11.748000000000001,0.008400438833289007
11.752,0.008419142375684861
11.756,0.008421546429977389
11.76,0.008398467508769134
11.764000000000001,0.008388106034768346
11.768,0.008422339767893923
11.772,0.008424719781643525
11.776,0.008391014940462304
11.78,0.008409261712542578
11.784,0.00843758147210854
11.788,0.008427268079193603
11.792,0.00839620769773416
11.796,0.008397145278908245
11.8,0.008456285014504395
11.804,0.008469411150941589
11.808,0.008420873294775482
11.812,0.008414117902213481
11.816,0.008421017538033034
11.82,0.008437701674823167
11.824,0.00843991340477229
11.828,0.008401929346950372
11.832,0.00841301203723892
11.836,0.008449144973255591
11.84,0.00844082694540345
11.844,0.008412098496607758
11.848,0.00843981724260059
11.852,0.008442269377978966
11.856,0.008441019269746853
11.86,0.008398179022254032
11.864,0.00839839538714036
11.868,0.00846032382571584
11.872,0.008457943811966238
11.876,0.008399501252114921
11.88,0.008399140643971043
11.884,0.008446236067561634
11.888,0.008453303987181662
11.892,0.008427123835936051
11.896,0.008409718482858158
11.9,0.008442870391552098
11.904,0.008458881393140324
11.908,0.008425489079017133
11.912,0.008428157579281836
11.916,0.00847900332756877
11.92,0.00846900246171186
11.924,0.00844443302684224
11.928,0.00841666619976356
11.932,0.008445731216160204
11.936,0.008482200719777828
11.94,0.00844351948621108
11.944,0.008407362509651482
11.948,0.008433350336553694
11.952,0.0084772243273923
11.956,0.00846777639402267
11.96,0.008452991460123634
11.964,0.008425465038474208
11.968,0.008482080517063202
11.972,0.008470853583517105
11.976,0.008431763660720626
11.98,0.008447798702851776
11.984,0.008493115126265898
11.988,0.008461429690690402
11.992,0.008437317026136362
11.996,0.00842214744355052
12.0,0.008459193920198352
12.004,0.008496552923904211
12.008000000000001,0.008443230999695977
12.012,0.008401424495548942
12.016,0.008463905866611703
12.02,0.008469747718542543
12.024000000000001,0.008432196390493281
12.028,0.008429503849685651
12.032,0.008418469240482954
12.036,0.008458809271511547
12.040000000000001,0.008463256771952721
12.044,0.008449794067914573
12.048,0.008471310353832685
12.052,0.008490855315230923
12.056000000000001,0.008465300218101369
12.06,0.008447053446021095
12.064,0.008455635919845413
12.068,0.008494918166985293
12.072000000000001,0.008501793762261919
12.076,0.008447053446021095
12.08,0.008457294717307256
12.084,0.008484436490269878
12.088000000000001,0.008480614043944762
12.092,0.00844854395968246
12.096,0.008437773796451942
12.1,0.008455275311701534
12.104000000000001,0.008493115126265898
12.108,0.00846676669121981
12.112,0.008452630851979755
12.116,0.008496360599560809
12.120000000000001,0.008490903396316774
12.124,0.008460876758203121
12.128,0.008449553662485322
12.132,0.008494557558841414
12.136000000000001,0.008519343358597362
12.14,0.008492730477579095
12.144,0.008445635053988503
12.148,0.008474676029842221
12.152000000000001,0.008496793329333464
12.156,0.00846082867711727
12.16,0.008462968285437618
12.164,0.0084841720442977
12.168000000000001,0.008480758287202314
12.172,0.008488018531165743
12.176,0.008440850985946376
12.18,0.00846032382571584
12.184000000000001,0.00851915103425396
12.188,0.008491865018033784
12.192,0.008461357569061625
12.196,0.00848001303037163
12.200000000000001,0.0085023466947492
12.204,0.008498067478108502
12.208,0.008465155974843817
12.212,0.008427364241365302
12.216000000000001,0.008482609409007559
12.22,0.008504366100354922
12.224,0.008480253435800882
12.228,0.008480662125030613
12.232000000000001,0.008503332357009135
12.236,0.008511193614545696
12.24,0.008502154370405798
12.244,0.008480397679058433
12.248000000000001,0.008498452126795307
12.252,0.008551701929374766
12.256,0.008501769721718993
12.26,0.00846174221774843
12.264000000000001,0.008491360166632354
12.268,0.00853321475186524
12.272,0.008535210116928035
12.276,0.008491913099119635
12.280000000000001,0.008474820273099773
12.284,0.008516290209645852
12.288,0.008518862547738856
12.292,0.008484773057870832
12.296,0.008512179276805632
12.3,0.008537710333392262
12.304,0.008515160304128364
12.308,0.00846758406967927
12.312,0.008472031570120442
12.316,0.008531748278746797
12.32,0.008540066306598938
12.324,0.008465011731586265
12.328,0.00846265575837959
12.332,0.008510977249659369
12.336,0.008524151467182415
12.34,0.00850051961348688
12.344,0.008472897029665753
12.348,0.008494437356126788
12.352,0.008529320183911346
12.356,0.008515785358244422
12.36,0.008476166543503588
12.364,0.008518261534165725
12.368,0.008534032130324698
12.372,0.008517780723307219
12.376,0.008493595937124404
12.38,0.008500952343259534
12.384,0.008537301644162533
12.388,0.00853371960326667
12.392,0.008472897029665753
12.396,0.008494870085899442
12.4,0.008531916562547275
12.404,0.008532589697749181
12.408,0.008507972181793711
12.412,0.008503452559723762
12.416,0.008518982750453482
12.42,0.008539393171397031
12.424,0.008501457194660965
12.428,0.008483042138780213
12.432,0.008536989117104505
12.436,0.008542542482520241
12.44,0.008514294844583055
12.444,0.008488980152882753
12.448,0.008513862114810401
12.452,0.008535498603443138
12.456,0.008518309615251575
12.46,0.008451068216689613
12.464,0.008485758720130767
12.468,0.008529175940653794
12.472,0.008513621709381148
12.476,0.008486263571532197
12.48,0.00849508645078577
12.484,0.008532277170691153
12.488,0.008538359428051244
12.492,0.008507347127677653
12.496,0.008498764653853335
12.5,0.008572521039548043
12.504,0.008551317280687962
12.508000000000001,0.008513934236439176
12.512,0.008525161169985276
12.516,0.008575333783070299
12.52,0.008590984176514646
12.524000000000001,0.008537854576649814
12.528,0.008513621709381148
12.532,0.008570790120457425
12.536,0.008565260795584614
12.540000000000001,0.008543431982608476
12.544,0.008523694696866833
12.548,0.008544273401610859
12.552,0.008562015322289705
12.556000000000001,0.008523598534695134
12.56,0.008484556692984504
12.564,0.008540090347141864
12.568,0.0085730499314924
12.572000000000001,0.008522276304834243
12.576,0.008496120194131556
12.58,0.008530714535401012
12.584,0.008594734501210987
12.588000000000001,0.008599446447624339
12.592,0.008523598534695134
12.596,0.008523141764379552
12.6,0.008590238919683963
12.604000000000001,0.008575069337098121
12.608,0.0085161459663883
12.612,0.008543263698807998
12.616,0.008561101781658543
12.620000000000001,0.008561510470888272
12.624,0.00854122025265935
12.628,0.00851513626358544
12.632,0.008563169268350117
12.636000000000001,0.008572785485520222
12.64,0.008509823303598956
12.644,0.008491672693690382
12.648,0.0085273728999344
12.652000000000001,0.008564852106354885
12.656,0.00856523675504169
12.66,0.008511313817260323
12.664,0.00854239823926269
12.668000000000001,0.008582497864862029
12.672,0.00856030844374201
12.676,0.008542614604149016
12.68,0.008553048199778581
12.684000000000001,0.008567953336392244
12.688,0.00857254508009097
12.692,0.00853148383277462
12.696,0.008543071374464596
12.700000000000001,0.008586368392272996
12.704,0.008569467890596535
12.708,0.008522973480579076
12.712,0.008546869780246788
12.716000000000001,0.008594229649809557
12.72,0.008594229649809557
12.724,0.008568386066164899
12.728,0.008525377534871603
12.732000000000001,0.00858177664857427
12.736,0.008608004880905733
12.74,0.008564467457668081
12.744,0.008558962173338196
12.748000000000001,0.008613822692293646
12.752,0.008584853838068705
12.756,0.008566366660559176
12.76,0.008543023293378745
12.764000000000001,0.008569636174397013
12.768,0.008629088437051189
12.772,0.008581944932374746
12.776,0.00854102792831595
12.780000000000001,0.00857158345837396
12.784,0.008611130151486016
12.788,0.008602980407434352
12.792,0.008563746241380323
12.796000000000001,0.008549394037253941
12.8,0.008608629935021789
12.804,0.008607884678191105
12.808,0.008569804458197489
12.812,0.008602643839833399
12.816,0.008636757370244347
12.82,0.00860781255656233
12.824,0.008593556514607649
12.828,0.008581704526945495
12.832,0.00861831827382067
12.836,0.008650220074282495
12.84,0.008594830663382689
12.844,0.008579661080796847
12.848,0.008626564180044037
12.852,0.008611298435286494
12.856,0.008587065568017829
12.86,0.008575958837186357
12.864,0.008568914958109254
12.868,0.008617380692646587
12.872,0.008590671649456618
12.876,0.008553072240321506
12.88,0.008608557813393014
12.884,0.008617020084502706
12.888,0.00858442110829605
12.892,0.008561726835774601
12.896,0.008579300472652969
12.9,0.008616106543871547
12.904,0.008604759407610822
12.908,0.008545956239615628
12.912,0.008583916256894619
12.916,0.008624400531180763
12.92,0.008610625300084586
12.924,0.008569828498740415
12.928,0.008574877012754719
12.932,0.008611346516372345
12.936,0.008630338545283302
12.94,0.008575598229042478
12.944,0.008564948268526586
12.948,0.00863375230237869
12.952,0.008610793583885062
12.956,0.008582209378346925
12.96,0.00857624732370146
12.964,0.008616443111472501
12.968,0.008633584018578213
12.972,0.008620746368656123
12.976,0.008545667753100524
12.98,0.008587305973447082
12.984,0.00863548322146931
12.988,0.008620121314540066
12.992,0.00861146671908697
12.996,0.008615385327583788
13.0,0.008639978802996334
13.004,0.00863334361314896
13.008000000000001,0.008592306406375535
13.012,0.008606322042900964
13.016,0.008669572711337333
13.02,0.008638993140736398
13.024000000000001,0.008600167663912096
13.028,0.00859410944709493
13.032,0.00864238285728886
13.036,0.008650580682426374
13.040000000000001,0.00859680198790256
13.044,0.008574901053297645
13.048,0.008613438043606841
13.052,0.00863750262707503
13.056000000000001,0.008611851367773775
13.06,0.00859584036618555
13.064,0.008617548976447063
13.068,0.008618967368479653
13.072000000000001,0.008587762743762661
13.076,0.008586152027386667
13.08,0.008619688584767412
13.084,0.00863370422129284
13.088000000000001,0.008586416473358846
13.092,0.00858497404078333
13.096,0.008611322475829419
13.1,0.00864507539809649
13.104000000000001,0.008637646870332583
13.108,0.008613582286864393
13.112,0.00861283703003371
13.116,0.008654499290923193
13.120000000000001,0.008654595453094894
13.124,0.008618510598164073
13.128,0.008634305234865972
13.132,0.008650821087855627
13.136000000000001,0.008646253384699827
13.14,0.008623462950006678
13.144,0.00863370422129284
13.148,0.008671760400743531
13.152000000000001,0.008675414563268171
13.156,0.008609976205425604
13.16,0.008593123784834995
13.164,0.008618943327936729
13.168000000000001,0.008653321304319854
13.172,0.008649162290393784
13.176,0.008607692353847705
13.18,0.008633439775320662
13.184000000000001,0.00867029392762509
13.188,0.008638392127163266
13.192,0.008605047894125925
13.196,0.008643560843892197
13.200000000000001,0.008648008344333371
13.204,0.008631612694058342
13.208,0.008605865272585384
13.212,0.008624184166294435
13.216000000000001,0.008673924049606806
13.22,0.00868298733428963
13.224,0.008596513501387456
13.228,0.008625458315069475
13.232000000000001,0.008683756631663238
13.236,0.008668755332877873
13.24,0.008642959830319066
13.244,0.008628703788364386
13.248000000000001,0.008686040483241137
13.252,0.008670870900655298
13.256,0.008637670910875509
13.26,0.008638344046077415
13.264000000000001,0.008692435267659258
13.268,0.008670943022284073
13.272,0.008658273656162459
13.276,0.008625867004299204
13.280000000000001,0.008658465980505861
13.284,0.008680631361082953
13.288,0.008661783575429547
13.292,0.008620578084855645
13.296000000000001,0.008664379954065476
13.3,0.008706090296040808
13.304,0.008677169522901715
13.308,0.008650003709396168
13.312000000000001,0.008635819789070263
13.316,0.00868070348271173
13.32,0.008675102036210143
13.324,0.008632862802290456
13.328,0.008639329708337352
13.332,0.008688612821334141
13.336,0.008656374453271363
13.34,0.008643272357377095
13.344,0.008660509426654509
13.348,0.008694238308378652
13.352,0.00869577690312587
13.356,0.008640243248968511
13.36,0.00861055317845581
13.364,0.00866882745450665
13.368,0.008691473645942248
13.372,0.008664043386464522
13.376,0.008651494223057535
13.38,0.008658658304849264
13.384,0.00869084859182619
13.388,0.008665485819040038
13.392,0.008627285396331794
13.396,0.008669236143736379
13.4,0.008702748660574196
13.404,0.008673755765806328
13.408,0.008640315370597288
13.412,0.008658634264306337
13.416,0.00869404598403525
13.42,0.008684501888493922
13.424,0.008636589086443871
13.428,0.008646205303613977
13.432,0.008696618322128254
13.436,0.008690247578253058
13.44,0.008669212103193453
13.444,0.008696498119413627
13.448,0.008681136212484385
13.452,0.008648801682249905
13.456,0.008637983437933537
13.46,0.008632021383288072
13.464,0.008668563008534472
13.468,0.008677458009416819
13.472,0.00862315042294865
13.476,0.008621491625486807
13.48,0.00866805815713304
13.484,0.008674020211778505
13.488,0.008680342874567851
13.492,0.008637358383817479
13.496,0.008668490886905696
13.5,0.0087055133230106
13.504,0.008686112604869914
13.508000000000001,0.008648849763335756
13.512,0.008664860764923982
13.516,0.00868363642894861
13.52,0.00867349131983415
13.524000000000001,0.0086506047229693
13.528,0.008679309131222064
13.532,0.00871573055375384
13.536,0.008693204565032867
13.540000000000001,0.008651470182514609
13.544,0.00865887466973559
13.548,0.008701378349627456
13.552,0.008699094498049556
13.556000000000001,0.008672866265718093
13.56,0.008646229344156903
13.564,0.008701666836142558
13.568,0.00870034460628167
13.572000000000001,0.0086620239808588
13.576,0.00865882658864974
13.58,0.008712485080458927
13.584,0.008701907241571811
13.588000000000001,0.008671351711513802
13.592,0.008658225575076608
13.596,0.008685751996726035
13.6,0.008722341703058287
13.604000000000001,0.008680991969226833
13.608,0.008661783575429547
13.612,0.008705080593237947
13.616,0.008723495649118701
13.620000000000001,0.008714672769865128
13.624,0.008675534765982798
13.628,0.00866248075117438
13.632,0.008724481311378636
13.636000000000001,0.008708326066532856
13.64,0.008672625860288842
13.644,0.008685992402155288
13.648,0.008710778201911233
13.652000000000001,0.008696594281585328
13.656,0.008658538102134636
13.66,0.0086643078324367
13.664,0.008718302891846844
13.668000000000001,0.00873207812294302
13.672,0.008666399359671197
13.676,0.00865430696657979
13.68,0.00870810970164653
13.684000000000001,0.00871231679665845
13.688,0.00869536821389614
13.692,0.008700921579311877
13.696,0.008697724187102816
13.700000000000001,0.00873669390718467
13.704,0.008715874797011391
13.708,0.008688396456447815
13.712,0.008731597312084513
13.716000000000001,0.008729698109193417
13.72,0.008690079294452582
13.724,0.008681136212484385
13.728,0.008699142579135406
13.732000000000001,0.008739290285820598
13.736,0.008737919974873859
13.74,0.008665990670441468
13.744,0.008685343307496306
13.748000000000001,0.008747031340642532
13.752,0.008725346770923945
13.756,0.008698806011534452
13.76,0.008695440335524916
13.764000000000001,0.008730419325481176
13.768,0.00873162135262744
13.772,0.008690968794540817
13.776,0.008681376617913636
13.780000000000001,0.008748185286702945
13.784,0.008715177621266558
13.788,0.008688348375361964
13.792,0.00868289117211793
13.796000000000001,0.008720418459624266
13.8,0.00872989043353682
13.804,0.008718399054018545
13.808,0.008672770103546393
13.812000000000001,0.00872075502722522
13.816,0.008733280150089283
13.82,0.008721332000255426
13.824,0.00870359007957658
13.828,0.008696353876156075
13.832,0.008731477109369888
13.836,0.0087326310554303
13.84,0.008688540699705365
13.844,0.008705681606811079
13.848,0.00876729751832853
13.852,0.008725466973638572
13.856,0.0086894301997936
13.86,0.00870039268736752
13.864,0.00874135777251217
13.868,0.008743112732145715
13.872,0.008704695944551142
13.876,0.008684766334466099
13.88,0.00873207812294302
13.884,0.008737751691073381
13.888,0.008703638160662431
13.892,0.008704623822922367
13.896,0.008711162850598038
13.9,0.00871409579683492
13.904,0.00870445553912189
13.908,0.00868805988884686
13.912,0.0087189279459629
13.916,0.008759195855362716
13.92,0.00871577863483969
13.924,0.008701835119943036
13.928,0.00871796632424589
13.932,0.008741093326539993
13.936,0.008736261177412014
13.94,0.00869724337624431
13.944,0.008696930849186282
13.948,0.008752993395287997
13.952,0.008745228299923137
13.956,0.008699455106193434
13.96,0.00873724683967195
13.964,0.008752368341171941
13.968,0.008750132570679891
13.972,0.008714600648236353
13.976,0.008716788337642552
13.98,0.008773019167544742
13.984,0.00877186522148433
13.988,0.008708854958477213
13.992,0.008716836418728403
13.996,0.008750156611222817
14.0,0.008750060449051116
14.004,0.008748690138104377
14.008000000000001,0.008712989931860359
14.012,0.008730106798423148
14.016,0.008769244802305476
14.02,0.008745661029695793
14.024000000000001,0.00872029825690964
14.028,0.00874349738083252
14.032,0.008718807743248274
14.036,0.008722341703058287
14.040000000000001,0.008694743159780083
14.044,0.008707508688073398
14.048,0.008762128801599598
14.052,0.008770783397052694
14.056000000000001,0.00869435851109328
14.06,0.008724697676264964
14.064,0.008781481438654435
14.068,0.008765133869465256
14.072000000000001,0.008730154879508997
14.076,0.008701330268541606
14.08,0.008758041909302303
14.084,0.008778067681559048
14.088000000000001,0.008749411354392134
14.092,0.008748257408331721
14.096,0.008776769492241083
14.1,0.008750228732851592
14.104000000000001,0.008733472474432685
14.108,0.008716980661985953
14.112,0.008745180218837287
14.116,0.008792251601884953
14.120000000000001,0.008751983692485137
14.124,0.008720634824510593
14.128,0.0087554695712093
14.132,0.008782611344171923
14.136000000000001,0.008746766894670355
14.14,0.008728255676617903
14.144,0.008722365743601213
14.148,0.008764052045033619
14.152000000000001,0.00877703393821326
14.156,0.008748305489417572
14.16,0.008753474206146503
14.164,0.008776120397582101
14.168000000000001,0.00873162135262744
14.172,0.008726260311555106
14.176,0.008733760960947787
14.18,0.008791001493652839
14.184000000000001,0.008816412347524843
14.188,0.008747512151501038
14.192,0.008738641191161616
14.196,0.008788044506873031
14.200000000000001,0.008801411048739478
14.204,0.008761623950198168
14.208,0.008757873625501827
14.212,0.008754892598179093
14.216000000000001,0.00878018324933647
14.22,0.008755301287408824
14.224,0.008733640758233161
14.228,0.008776144438125027
14.232000000000001,0.008804199751718809
14.236,0.008762489409743477
14.24,0.00873888159659087
14.244,0.008762008598884971
14.248000000000001,0.008795040304864284
14.252,0.008785087520093224
14.256,0.008746550529784028
14.26,0.008763667396346816
14.264000000000001,0.008786842479726768
14.268,0.008780423654765723
14.272,0.008751671165427109
14.276,0.008756118665868283
14.280000000000001,0.008777418586900065
14.284,0.008796747183411977
14.288,0.008753714611575756
14.292,0.008742752124001836
14.296000000000001,0.008796218291467622
14.3,0.008805954711352353
14.304,0.008748786300276076
14.308,0.008746574570326952
14.312000000000001,0.008783236398287979
14.316,0.008807877954786374
14.32,0.008797660724043137
14.324,0.008741453934683872
14.328000000000001,0.008783068114487503
14.332,0.008823816834745824
14.336,0.00880109852168145
14.34,0.00876323466657416
14.344,0.00878775602035793
14.348,0.00878191416842709
14.352,0.008775423221837268
14.356,0.008754700273835693
14.36,0.008775471302923119
14.364,0.008825571794379369
14.368,0.008791241899082092
14.372,0.008750998030225202
14.376,0.008771528653883377
14.38,0.008824610172662358
14.384,0.008821388739910374
14.388,0.008786097222896085
14.392,0.008756142706411207
14.396,0.008814272739204496
14.4,0.00881059453613693
14.404,0.008769244802305476
14.408,0.008765638720866687
14.412,0.008804584400405614
14.416,0.008791458263968419
14.42,0.008782058411684642
14.424,0.008766263774982743
14.428,0.008796578899611501
14.432,0.008835572660236279
14.436,0.008787155006784798
14.44,0.008757272611928695
14.444,0.00878652995266874
14.448,0.008817686496299883
14.452,0.008809656954962844
14.456,0.008780519816937424
14.46,0.00877775515450102
14.464,0.008829033632560606
14.468,0.008810955144280808
14.472,0.008770975721396096
14.476,0.008799391643133756
14.48,0.008819898226249007
14.484,0.008820210753307035
14.488,0.008788332993388135
14.492,0.008780111127707695
14.496,0.008808478968359505
14.5,0.008826244929581277
14.504,0.008758474639074958
14.508000000000001,0.008774125032519304
14.512,0.00884631878292387
14.516,0.008847160201926255
14.52,0.008817518212499405
14.524000000000001,0.008789847547592426
14.528,0.008803166008373022
14.532,0.008827062308040735
14.536,0.008794415250748228
14.540000000000001,0.008764893464036003
14.544,0.008816364266438993
14.548,0.008817325888156004
14.552,0.008782635384714847
14.556000000000001,0.00876140758531184
14.56,0.008789799466506576
14.564,0.00885124709422355
14.568,0.008838265201043909
14.572000000000001,0.00875958050404952
14.576,0.008826749780982707
14.58,0.008870551650192536
14.584,0.008835644781865054
14.588000000000001,0.00878414993891914
14.592,0.008780039006078919
14.596,0.008808623211617057
14.6,0.008826028564694948
14.604000000000001,0.008794583534548704
14.608,0.008783645087517708
14.612,0.008847304445183807
14.616,0.008823576429316572
14.620000000000001,0.008798502143045521
14.624,0.008778981222190207
14.628,0.008822133996741057
14.632,0.008846463026181422
14.636000000000001,0.008827230591841212
14.64,0.008788982088047117
14.644,0.008829875051562991
14.648,0.008851896188882533
14.652000000000001,0.008821629145339625
14.656,0.008805377738322146
14.66,0.008802324589370638
14.664,0.008829201916361084
14.668000000000001,0.008825980483609098
14.672,0.008806243197867457
14.676,0.008817734577385734
14.68,0.00887038336639206
14.684000000000001,0.00882333602388732
14.688,0.008800425386479543
14.692,0.008807877954786374
14.696,0.008855333986520844
14.700000000000001,0.008858122689500175
14.704,0.008798694467388924
14.708,0.008780231330422321
14.712,0.008855213783806219
14.716000000000001,0.008863026960256929
14.72,0.008812806266086054
14.724,0.008819249131590025
14.728,0.008836967011725944
14.732000000000001,0.008846054336951693
14.736,0.008822662888685412
14.74,0.00881480163114885
14.744,0.008839899957962825
14.748000000000001,0.00884562160717904
14.752,0.008814561225719598
14.756,0.008813503441830886
14.76,0.008832182943683816
14.764000000000001,0.008848626675044697
14.768,0.008849900823819735
14.772,0.008791530385597195
14.776,0.008803959346289556
14.780000000000001,0.008854684891861862
14.784,0.008835308214264101
14.788,0.008830956875994628
14.792,0.00885256932408444
14.796000000000001,0.008839972079591602
14.8,0.008838770052445339
14.804,0.00881333515803041
14.808,0.00880251691371404
14.812000000000001,0.008867089812011298
14.816,0.008866007987579663
14.82,0.00879018411519338
14.824,0.00881073877939448
14.828000000000001,0.008851944269968383
14.832,0.008859156432845962
14.836,0.008835861146751382
14.84,0.008782563263086072
14.844000000000001,0.008806916333069363
14.848,0.008837976714528805
14.852,0.008831702132825312
14.856,0.00881648446915362
14.86,0.00885951704098984
14.864,0.008854564689147236
14.868,0.008854276202632133
14.872,0.008832447389655993
14.876,0.008834923565577297
14.88,0.00887362883968697
14.884,0.00885992573021957
14.888,0.008828648983873803
14.892,0.00883155788956776
14.896,0.008867330217440551
14.9,0.00886526273074898
14.904,0.00883475528177682
14.908,0.008820306915478736
14.912,0.008864301109031967
14.916,0.008863940500888089
14.92,0.008843193512343587
14.924,0.00883251951128477
14.928,0.008888005084356278
14.932,0.008861897054739441
14.936,0.00884393876917427
14.94,0.008839491268733096
14.944,0.00885901218958841
14.948,0.008880408272791894
14.952,0.008823600469859498
14.956,0.008802276508284787
14.96,0.008830163538078094
14.964,0.008848386269615444
14.968,0.008840380768821331
14.972,0.00882739887564169
14.976,0.00881033009016475
14.98,0.008862546149398423
14.984,0.008856487932581257
14.988,0.00881785478010036
14.992,0.008853194378200497
14.996,0.008873412474800642
15.0,0.008843818566459645
15.004,0.00882566795655107
15.008000000000001,0.008841390471624192
15.012,0.008884374962374562
15.016,0.008892164098282349
15.02,0.0088421597689978
15.024000000000001,0.008835356295349952
15.028,0.00887307590719969
15.032,0.008881898786453261
15.036,0.008863267365686182
15.040000000000001,0.008855454189235471
15.044,0.008849299810246604
15.048,0.008863892419802238
15.052,0.008848266066900817
15.056000000000001,0.008834995687206072
15.06,0.008866825366039121
15.064,0.00886504636586265
15.068,0.008844107052974746
15.072000000000001,0.008821749348054252
15.076,0.008852232756483487
15.08,0.008878268664471545
15.084,0.008868027393185384
15.088000000000001,0.008822494604884936
15.092,0.008843650282659167
15.096,0.00888230747568299
15.1,0.00888180262428156
15.104000000000001,0.008867618703955655
15.108,0.008849588296761707
15.112,0.008872474893626558
15.116,0.008889784084532747
15.120000000000001,0.00885951704098984
15.124,0.008862281703426246
15.128,0.00892606126380697
15.132,0.00888011978627679
15.136000000000001,0.00884480422871958
15.14,0.00884946809404708
15.144,0.008894976841804604
15.148,0.008900674450477892
15.152000000000001,0.008885649111149602
15.156,0.008837159336069347
15.16,0.00887362883968697
15.164,0.008900626369392041
15.168000000000001,0.008866945568753747
15.172,0.008860045932934197
15.176,0.008869686190647227
15.18,0.008886803057210015
15.184000000000001,0.008872522974712409
15.188,0.008846006255865842
15.192,0.008868051433728309
15.196,0.008900626369392041
15.200000000000001,0.00886987851499063
15.204,0.00884201552574025
15.208,0.008855790756836426
15.212,0.008913464019314133
15.216000000000001,0.008917671114326054
15.22,0.008877403204926236
15.224,0.008853362662000973
15.228,0.008905987410464375
15.232000000000001,0.00889093803059316
15.236,0.00886353181165836
15.24,0.008868892852730693
15.244,0.008891370760365815
15.248000000000001,0.008902237085768034
15.252,0.008851920229425457
15.256,0.008832279105855517
15.26,0.00888870226010111
15.264000000000001,0.008921541641737021
15.268,0.008849275769703678
15.272,0.008826533416096379
15.276,0.008886851138295866
15.280000000000001,0.008914906451889647
15.284,0.008892524706426227
15.288,0.008859829568047869
15.292,0.008857641878641671
15.296000000000001,0.008914161195058966
15.3,0.008904833464403962
15.304,0.008877523407640862
15.308,0.00889048126027758
15.312000000000001,0.00888043231333482
15.316,0.008877956137413517
15.32,0.00883840944430146
15.324,0.00885115093205185
15.328000000000001,0.008894760476918277
15.332,0.008905506599605869
15.336,0.008855502270321322
15.34,0.008859324716646438
15.344000000000001,0.008894111382259295
15.348,0.008912863005741001
15.352,0.008917406668353875
15.356,0.008879590894332436
15.36,0.00890098697753592
15.364,0.008923537006799818
15.368,0.008902309207396809
15.372,0.008873412474800642
15.376,0.008914353519402366
15.38,0.008911612897508888
15.384,0.008901275464051023
15.388,0.008866104149751362
15.392,0.008885528908434975
15.396,0.008927696020725889
15.4,0.008902044761424631
15.404,0.008836534281953289
15.408,0.008864060703602716
15.412,0.008906348018608254
15.416,0.008888894584444513
15.42,0.008886081840922256
15.424,0.008866007987579663
15.428,0.00892007516861858
15.432,0.008912935127369776
15.436,0.008860406541078076
15.44,0.008873845204573298
15.444,0.008926349750322074
15.448,0.00891541130329108
15.452,0.008890096611590776
15.456,0.008876489664295077
15.46,0.008924835196117782
15.464,0.008943346414170234
15.468,0.00888399031368776
15.472,0.008865406974006531
15.476,0.00891637292500809
15.48,0.008939331643501715
15.484,0.008912526438140047
15.488,0.008898582923243394
15.492,0.00889911181518775
15.496,0.00891221391108202
15.5,0.008906323978065329
15.504,0.008868508204043888
15.508000000000001,0.008901203342422247
15.512,0.008948755536328418
15.516,0.008923512966256892
15.52,0.00890240536956851
15.524000000000001,0.008894520071489024
15.528,0.008933393629399176
15.532,0.00891997900644688
15.536,0.008873965407287923
15.540000000000001,0.008870768015078865
15.544,0.008913055330084404
15.548,0.008915675749263257
15.552,0.0088764175426663
15.556000000000001,0.00887723492112576
15.56,0.008890649544078057
15.564,0.00891545938437693
15.568,0.008879590894332436
15.572000000000001,0.008861608568224339
15.576,0.008925796817834793
15.58,0.008928080669412693
15.584,0.008873941366744999
15.588000000000001,0.008873797123487447
15.592,0.008898919490844348
15.596,0.008941831859965943
15.6,0.008956881239837159
15.604000000000001,0.008883653746086805
15.608,0.008892957436198883
15.612,0.0089425530762537
15.616,0.008928489358642423
15.620000000000001,0.008898558882700467
15.624,0.008905722964492198
15.628,0.008916541208808566
15.632,0.008909641572989015
15.636000000000001,0.008864253027946118
15.64,0.00886312312242863
15.644,0.00892925865601603
15.648,0.008916733533151968
15.652000000000001,0.008867594663412729
15.656,0.00886910921761702
15.66,0.008914762208632097
15.664,0.008927431574753711
15.668000000000001,0.008916396965551014
15.672,0.008876946434610657
15.676,0.00891997900644688
15.68,0.008924714993403155
15.684000000000001,0.00891053107307725
15.688,0.008901299504593948
15.692,0.008919834763189327
15.696,0.008930965534563724
15.700000000000001,0.008927720061268813
15.704,0.008888053165442129
15.708,0.008903919923772803
15.712,0.00895255394211061
15.716000000000001,0.008929450980359433
15.72,0.00890002535581891
15.724,0.008917070100752923
15.728,0.00894281752222588
15.732000000000001,0.008944380157516021
15.736,0.008920748303820487
15.74,0.00888449516508919
15.744,0.008935629399891225
15.748000000000001,0.008935797683691703
15.752,0.008886562651780762
15.756,0.008912358154339571
15.76,0.008958083266983422
15.764000000000001,0.008942793481682953
15.768,0.008917983641384082
15.772,0.00891372846528631
15.776,0.008944187833172619
15.780000000000001,0.00895885256435703
15.784,0.008901587991109051
15.788,0.008885168300291096
15.792,0.00892341680408519
15.796000000000001,0.008946351482035892
15.8,0.008925364088062137
15.804,0.008891082273850711
15.808,0.008897861706955636
15.812000000000001,0.008939403765130492
15.816,0.008932528169853866
15.82,0.008904112248116203
15.824,0.008926181466521597
15.828000000000001,0.008953683847628098
15.832,0.00893651889997946
15.836,0.008900121517990611
15.84,0.008907117315981861
15.844000000000001,0.008959044888700432
15.848,0.008965415632575626
15.852,0.008885817394950079
15.856,0.008899544544960404
15.860000000000001,0.00895748225341029
15.864,0.00896712251112332
15.868,0.008941952062680569
15.872,0.008929643304702835
15.876,0.008923296601370565
15.88,0.008954477185544632
15.884,0.008940245184132875
15.888,0.008930148156104266
15.892,0.008973349011740963
15.896,0.008966184929949234
15.9,0.008930292399361817
15.904,0.008899664747675031
15.908,0.00893048472370522
15.912,0.00896209803765194
15.916,0.008954044455771977
15.92,0.00888641840852321
15.924,0.008926998844981056
15.928,0.008969935254645576
15.932,0.008965848362348282
15.936,0.008937095873009667
15.94,0.008927647939640038
15.944,0.008950510495961963
15.948,0.00894154337345084
15.952,0.008919546276674224
15.956,0.008928585520814124
15.96,0.00897387790368532
15.964,0.008949452712073251
15.968,0.008929523101988208
15.972,0.008916228681750538
15.976,0.008977652268924585
15.98,0.00897945530964398
15.984,0.008950390293247337
15.988,0.008901083139707621
15.992,0.008947385225381679
15.996,0.008975488620061312
16.0,0.00894611107660664
16.004,0.008943442576341935
16.008,0.00894154337345084
16.012,0.008960294996932546
16.016000000000002,0.008961809551136837
16.02,0.008917430708896801
16.024,0.008930508764248144
16.028,0.008984648066915837
16.032,0.008948130482212362
16.036,0.008913896749086787
16.04,0.008925340047519213
16.044,0.008975512660604238
16.048000000000002,0.008973733660427767
16.052,0.0089241861014588
16.056,0.008916469087179791
16.06,0.008964093402714738
16.064,0.008959645902273564
16.068,0.008923993777115398
16.072,0.00894281752222588
16.076,0.008968060092297406
16.080000000000002,0.008971065160163064
16.084,0.008926325709779147
16.088,0.008912983208455627
16.092,0.008960391159104247
16.096,0.008984239377686108
16.1,0.008916733533151968
16.104,0.008905506599605869
16.108,0.008941038522049409
16.112000000000002,0.008970656470933334
16.116,0.008947841995697259
16.12,0.008913752505829235
16.124,0.008915747870892032
16.128,0.0089494046309874
16.132,0.008939596089473893
16.136,0.008932576250939716
16.14,0.008968781308585163
16.144000000000002,0.008968661105870537
16.148,0.008974815484859405
16.152,0.00894058175173383
16.156,0.008948154522755287
16.16,0.009008977096356204
16.164,0.008995778838290234
16.168,0.008943009846569282
16.172,0.008938370021784705
16.176000000000002,0.008980176525931739
16.18,0.00899219679739437
16.184,0.008955823455948446
16.188,0.00893048472370522
16.192,0.008988614756498505
16.196,0.008996572176206767
16.2,0.008956520631693278
16.204,0.008940413467933353
16.208000000000002,0.008992268919023145
16.212,0.008966978267865768
16.216,0.008948995941757671
16.22,0.008936182332378506
16.224,0.00897123344396354
16.228,0.00900178897402155
16.232,0.008977700350010435
16.236,0.008923344682456416
16.240000000000002,0.008951952928537479
16.244,0.00898854263486973
16.248,0.00897306052522586
16.252,0.008946255319864191
16.256,0.008919353952330821
16.26,0.008973324971198038
16.264,0.008969550605958772
16.268,0.008922839831054985
16.272000000000002,0.00893428312948741
16.276,0.008985946256233801
16.28,0.008973445173912664
16.284,0.008955102239660688
16.288,0.008933946561886457
16.292,0.008981426634163852
16.296,0.009008616488212325
16.3,0.008962170159280716
16.304000000000002,0.00894478884674575
16.308,0.008990634162104227
16.312,0.009009818515358588
16.316,0.008966882105694067
16.32,0.0089608238888769
16.324,0.008966641700264814
16.328,0.008996187527519963
16.332,0.008978397525755268
16.336000000000002,0.008939980738160698
16.34,0.008971762335907896
16.344,0.009000683109046987
16.348,0.008947673711896783
16.352,0.008939331643501715
16.356,0.008946351482035892
16.36,0.008992485283909472
16.364,0.008992749729881651
16.368000000000002,0.008938345981241779
16.372,0.008958059226440496
16.376,0.008983686445198827
16.38,0.00899315841911138
16.384,0.0089653915920327
16.388,0.008963444308055755
16.392,0.008967338876009647
16.396,0.008994841257116148
16.4,0.00896118449702078
16.404,0.008967242713837946
16.408,0.009021069489447612
16.412,0.008998807946698818
16.416,0.0089630115782831
16.42,0.008959237213043834
16.424,0.009011164785762405
16.428,0.00902128585433394
16.432,0.009006693244778303
16.436,0.008956761037122531
16.44,0.00897584922820519
16.444,0.008999673406244127
16.448,0.008982219972080385
16.452,0.008954597388259258
16.456,0.008965463713661477
16.46,0.008978277323040643
16.464,0.008980392890818065
16.468,0.008946423603664669
16.472,0.008965463713661477
16.476,0.00903357057176875
16.48,0.00900914538015668
16.484,0.008953371320570069
16.488,0.008944091671000918
16.492,0.009001596649678147
16.496,0.009018785637869713
16.5,0.008988422432155103
16.504,0.008947361184838753
16.508,0.009002389987594681
16.512,0.009025877598032665
16.516000000000002,0.008988109905097075
16.52,0.008982436336966713
16.524,0.009011982164221864
16.528,0.009013304394082752
16.532,0.009004721920258432
16.536,0.008977219539151931
16.54,0.00900457767700088
16.544,0.009026238206176545
16.548000000000002,0.008985417364289445
16.552,0.008953227077312519
16.556,0.008982508458595488
16.56,0.009038715247954757
16.564,0.009015972894347458
16.568,0.008983734526284677
16.572,0.00894697653615195
16.576,0.009008207798982594
16.580000000000002,0.009030565503903092
16.584,0.009000659068504063
16.588,0.008997894406067656
16.592,0.009011092664133628
