0.0,-0.014129805063780752
0.004,-0.014133531347934169
0.008,-0.014131704266671848
0.012,-0.014135166104853086
0.016,-0.01413276205056056
0.02,-0.014132593766760083
0.024,-0.014133339023590766
0.028,-0.014133098618161513
0.032,-0.014136344091456424
0.036000000000000004,-0.014139180875521606
0.04,-0.01413189659101525
0.044,-0.014136656618514452
0.048,-0.0141341323615073
0.052000000000000005,-0.01413143982069967
0.056,-0.014134420848022404
0.06,-0.014139132794435755
0.064,-0.014141584929814132
0.068,-0.014138820267377726
0.07200000000000001,-0.01413824329434752
0.076,-0.014134805496709207
0.08,-0.014134805496709207
0.084,-0.014132689928931784
0.088,-0.014135382469739414
0.092,-0.014136848942857855
0.096,-0.014139589564751335
0.1,-0.014140671389182971
0.10400000000000001,-0.014144397673336388
0.108,-0.014147306579030345
0.112,-0.014143556254334003
0.116,-0.014136031564398396
0.12,-0.014138676024120176
0.124,-0.014135815199512068
0.128,-0.014134204483136075
0.132,-0.014137089348287108
0.136,-0.01413139173961382
0.14,-0.014135478631911115
0.14400000000000002,-0.014140262699953242
0.148,-0.014140647348640047
0.152,-0.014143075443475497
0.156,-0.014143171605647199
0.16,-0.014145984349169454
0.164,-0.014135142064310161
0.168,-0.014136103686027171
0.17200000000000001,-0.014135238226481862
0.176,-0.014139854010723513
0.18,-0.01414285907858917
0.184,-0.014142258065016039
0.188,-0.014141584929814132
0.192,-0.01414331584890475
0.196,-0.014142161902844338
0.2,-0.014142642713702844
0.20400000000000001,-0.014141873416329234
0.20800000000000002,-0.014138579861948474
0.212,-0.014137377834802211
0.216,-0.014140238659410317
0.22,-0.014148724971062935
0.224,-0.014148268200747355
0.228,-0.014145118889624145
0.232,-0.014145215051795846
0.23600000000000002,-0.014143075443475497
0.24,-0.014139445321493783
0.244,-0.01414418130845006
0.248,-0.014142690794788694
0.252,-0.01414043098375372
0.256,-0.014141633010899983
0.26,-0.014145311213967547
0.264,-0.014143748578677406
0.268,-0.014143556254334003
0.272,-0.014141777254157533
0.276,-0.014142474429902366
0.28,-0.0141432677678189
0.28400000000000003,-0.014145912227540679
0.28800000000000003,-0.01414910961974974
0.292,-0.01414331584890475
0.296,-0.014141993619043862
0.3,-0.014135574794082817
0.304,-0.014137618240231463
0.308,-0.014140743510811748
0.312,-0.014144013024649583
0.316,-0.014142666754245768
0.32,-0.014141296443299029
0.324,-0.01414499868690952
0.328,-0.014145984349169454
0.332,-0.014145743943740203
0.336,-0.014146296876227484
0.34,-0.01414819607911858
0.34400000000000003,-0.014146681524914287
0.34800000000000003,-0.014146825768171839
0.352,-0.014145311213967547
0.356,-0.014147114254686942
0.36,-0.014153989849963567
0.364,-0.01415651410697072
0.368,-0.014151633876756891
0.372,-0.014149686592779945
0.376,-0.014153052268789483
0.38,-0.014154350458107447
0.384,-0.014154206214849896
0.388,-0.01415322055258996
0.392,-0.0141501193225526
0.396,-0.014153677322905539
0.4,-0.014158076742260862
0.404,-0.014154494701364997
0.40800000000000003,-0.014159951904609032
0.41200000000000003,-0.014146441119485036
0.41600000000000004,-0.014142642713702844
0.42,-0.014143868781392031
0.424,-0.0141455516193968
0.428,-0.014146753646543064
0.432,-0.014149518308979469
0.436,-0.014151970444357845
0.44,-0.014152883984989005
0.444,-0.014151922363271995
0.448,-0.014151249228070088
0.452,-0.014151393471327638
0.456,-0.014151946403814921
0.46,-0.014152162768701248
0.464,-0.01415596117448344
0.468,-0.014156538147513645
0.47200000000000003,-0.01415463894462255
0.47600000000000003,-0.014157764215202834
0.48,-0.014152691660645603
0.484,-0.014154254295935746
0.488,-0.014150960741554985
0.492,-0.014150287606353076
0.496,-0.01414819607911858
0.5,-0.014154566822993774
0.504,-0.014149542349522395
0.508,-0.014146368997856259
0.512,-0.014150023160380899
0.516,-0.01415331671476166
0.52,-0.014151008822640835
0.524,-0.014150263565810152
0.528,-0.014153965809420643
0.532,-0.014153484998562137
0.536,-0.014153244593132884
0.54,-0.014153244593132884
0.544,-0.014156177539369767
0.548,-0.014155816931225888
0.552,-0.014153388836390435
0.556,-0.014157307444887255
0.56,-0.014151681957842742
0.5640000000000001,-0.014151201146984238
0.5680000000000001,-0.01415591309339759
0.5720000000000001,-0.014154398539193296
0.5760000000000001,-0.014151970444357845
0.58,-0.014153749444534316
0.584,-0.014151970444357845
0.588,-0.014152523376845126
0.592,-0.014153484998562137
0.596,-0.01415276378227438
0.6,-0.01416331758061857
0.604,-0.014158990282892022
0.608,-0.01415641794479902
0.612,-0.01415742764760188
0.616,-0.01416007210732366
0.62,-0.01416322141844687
0.624,-0.014164134959078029
0.628,-0.014156562188056571
0.632,-0.014155576525796635
0.636,-0.014161322215555773
0.64,-0.014166539013370555
0.644,-0.014160649080353865
0.648,-0.014162668485959588
0.652,-0.014159735539722705
0.656,-0.0141546870257084
0.66,-0.014158653715291068
0.664,-0.014164591729393609
0.668,-0.01415600925556929
0.672,-0.01415564864742541
0.676,-0.014157115120543852
0.68,-0.01415692279620045
0.684,-0.014158509472033518
0.6880000000000001,-0.014159687458636855
0.6920000000000001,-0.01416052887763924
0.6960000000000001,-0.014162331918358634
0.7000000000000001,-0.01416194726967183
0.704,-0.014161418377727475
0.708,-0.014158821999091546
0.712,-0.01416016826949536
0.716,-0.014160865445240194
0.72,-0.014158773918005695
0.724,-0.014159471093750528
0.728,-0.014170121054266419
0.732,-0.014158413309861817
0.736,-0.014158749877462769
0.74,-0.014156249660998542
0.744,-0.014160697161439716
0.748,-0.014160697161439716
0.752,-0.014161730904785503
0.756,-0.014162331918358634
0.76,-0.014162139594015232
0.764,-0.014163557986047822
0.768,-0.014162812729217138
0.772,-0.014159062404520799
0.776,-0.014156441985341944
0.78,-0.014157307444887255
0.784,-0.014153004187703632
0.788,-0.01416098564795482
0.792,-0.014158245026061339
0.796,-0.014150431849610628
0.8,-0.01415966341809393
0.804,-0.0141683901351758
0.808,-0.014162740607588363
0.812,-0.014158605634205217
0.8160000000000001,-0.014156898755657524
0.8200000000000001,-0.014159374931578827
0.8240000000000001,-0.014163894553648776
0.8280000000000001,-0.014158220985518414
0.8320000000000001,-0.014159062404520799
0.836,-0.014157403607058954
0.84,-0.01415641794479902
0.844,-0.014162572323787887
0.848,-0.014159014323434948
0.852,-0.01414910961974974
0.856,-0.014152739741731453
0.86,-0.014161634742613801
0.864,-0.014160817364154343
0.868,-0.014157980580089161
0.872,-0.01415204256598662
0.876,-0.014160745242525566
0.88,-0.014161370296641624
0.884,-0.014161803026414278
0.888,-0.014154374498650372
0.892,-0.014156658350228273
0.896,-0.014161177972298222
0.9,-0.014161322215555773
0.904,-0.014161658783156726
0.908,-0.014157355525973105
0.912,-0.014157692093574058
0.916,-0.014156658350228273
0.92,-0.01415600925556929
0.924,-0.014154999552766428
0.928,-0.014162379999444485
0.932,-0.01416290889138884
0.936,-0.014159639377551004
0.9400000000000001,-0.014157499769230655
0.9440000000000001,-0.014158821999091546
0.9480000000000001,-0.014156562188056571
0.9520000000000001,-0.014154566822993774
0.9560000000000001,-0.014153557120190913
0.96,-0.014158942201806171
0.964,-0.014154326417564521
0.968,-0.014150287606353076
0.972,-0.014161514539899176
0.976,-0.01416346182387612
0.98,-0.014160721201982642
0.984,-0.014159831701894407
0.988,-0.014162716567045439
0.992,-0.014162932931931766
0.996,-0.014157571890859432
1.0,-0.014161803026414278
1.004,-0.014162139594015232
1.008,-0.014163173337361019
1.012,-0.014165120621337965
1.016,-0.014167668918888042
1.02,-0.014171299040869757
1.024,-0.01416711598640076
1.028,-0.014170361459695672
1.032,-0.01416569759436817
1.036,-0.014166082243054975
1.04,-0.014162981013017616
1.044,-0.014155023593309354
1.048,-0.014157042998915076
1.052,-0.014164471526678983
1.056,-0.014165841837625722
1.06,-0.01416742851345879
1.064,-0.014165216783509665
1.068,-0.014165625472739396
1.072,-0.01416711598640076
1.076,-0.014170193175895195
1.08,-0.014172525108558945
1.084,-0.014172308743672618
1.088,-0.014171106716526355
1.092,-0.01416971236503669
1.096,-0.014166274567398378
1.1,-0.01417072206783955
1.104,-0.014166418810655928
1.108,-0.014169544081236213
1.112,-0.01416738043237294
1.116,-0.014168726702776755
1.12,-0.01417483300067977
1.124,-0.014172477027473094
1.1280000000000001,-0.014169135392006484
1.1320000000000001,-0.014167596797259267
1.1360000000000001,-0.01416971236503669
1.1400000000000001,-0.014169039229834783
1.1440000000000001,-0.01417052974349615
1.1480000000000001,-0.014166731337713958
1.1520000000000001,-0.01416783720268852
1.156,-0.0141707701489254
1.16,-0.01416976044612254
1.164,-0.01416930367580696
1.168,-0.014172188540957992
1.172,-0.014172597230187722
1.176,-0.014171130757069281
1.18,-0.01416930367580696
1.184,-0.014163846472562925
1.188,-0.014161466458813325
1.192,-0.014162428080530335
1.196,-0.014159423012664677
1.2,-0.014169832567751317
1.204,-0.014167236189115388
1.208,-0.014164808094279936
1.212,-0.014167692959430968
1.216,-0.014171827932814112
1.22,-0.014170313378609821
1.224,-0.014173390568104256
1.228,-0.014175914825111408
1.232,-0.014173751176248134
1.236,-0.01417290975724575
1.24,-0.014172356824758469
1.244,-0.014176996649543045
1.248,-0.014179689190350673
1.252,-0.014175265730452425
1.256,-0.014173679054619357
1.26,-0.014173606932990582
1.264,-0.014174039662763238
1.268,-0.014179160298406318
1.272,-0.014179280501120944
1.276,-0.014170193175895195
1.28,-0.014167957405403145
1.284,-0.014176684122485015
1.288,-0.014178511203747336
1.292,-0.014177333217143998
1.296,-0.014174231987106638
1.3,-0.014173703095162284
1.304,-0.01417884777134829
1.308,-0.014177501500944475
1.312,-0.014177405338772774
1.316,-0.014176010987283109
1.32,-0.014181732636499321
1.324,-0.014182237487900751
1.328,-0.014182766379845108
1.332,-0.014180410406638432
1.336,-0.014176323514341137
1.34,-0.014174039662763238
1.344,-0.014178246757775159
1.348,-0.014181540312155919
1.352,-0.014172645311273572
1.356,-0.014173799257333985
1.36,-0.014185362758481037
1.364,-0.014178727568633663
1.368,-0.014170145094809345
1.372,-0.014176131189997734
1.3760000000000001,-0.014178054433431756
1.3800000000000001,-0.014176035027826033
1.3840000000000001,-0.014178126555060531
1.3880000000000001,-0.014178198676689308
1.3920000000000001,-0.014174568554707593
1.3960000000000001,-0.014178174636146382
1.4000000000000001,-0.014177645744202027
1.4040000000000001,-0.014177285136058147
1.408,-0.014180698893153536
1.412,-0.014181492231070068
1.416,-0.014180386366095506
1.42,-0.014180578690438908
1.424,-0.014180121920123329
1.428,-0.014176684122485015
1.432,-0.014175842703482633
1.436,-0.014178775649719514
1.44,-0.014181203744554966
1.444,-0.014173558851904732
1.448,-0.014169832567751317
1.452,-0.014179184338949243
1.456,-0.014183054866360211
1.46,-0.014179881514694076
1.464,-0.014175770581853856
1.468,-0.014179617068721898
1.472,-0.0141843770962211
1.476,-0.014180121920123329
1.48,-0.014172765513988198
1.484,-0.014173438649190106
1.488,-0.014176515838684539
1.492,-0.014179160298406318
1.496,-0.014178054433431756
1.5,-0.014180410406638432
1.504,-0.014177934230717129
1.508,-0.014181251825640817
1.512,-0.014180410406638432
1.516,-0.014178222717232233
1.52,-0.014181299906726667
1.524,-0.014179785352522374
1.528,-0.01418488194762253
1.532,-0.014179833433608225
1.536,-0.01418017000120918
1.54,-0.014179088176777542
1.544,-0.014175001284480248
1.548,-0.014177309176601073
1.552,-0.014181251825640817
1.556,-0.014177044730628896
1.56,-0.014176972609000119
1.564,-0.014181468190527144
1.568,-0.014182381731158303
1.572,-0.014180915258039863
1.576,-0.014180434447181357
1.58,-0.01418250193387293
1.584,-0.014184449217849875
1.588,-0.01418529063685226
1.592,-0.014181299906726667
1.596,-0.014175530176424603
1.6,-0.014182333650072453
1.604,-0.014181035460754488
1.608,-0.014180338285009655
1.612,-0.014183295271789463
1.616,-0.014180362325552582
1.62,-0.014182429812244154
1.624,-0.014186420542369748
1.6280000000000001,-0.014185531042281513
1.6320000000000001,-0.014186348420740971
1.6360000000000001,-0.014186757109970702
1.6400000000000001,-0.014180386366095506
1.6440000000000001,-0.014179064136234617
1.6480000000000001,-0.014179448784921422
1.6520000000000001,-0.01418067485261061
1.6560000000000001,-0.014185651244996138
1.6600000000000001,-0.0141843770962211
1.6640000000000001,-0.014191541178012829
1.668,-0.014185362758481037
1.672,-0.0141820932446432
1.676,-0.014180121920123329
1.68,-0.014181299906726667
1.684,-0.014187286001915057
1.688,-0.014187550447887234
1.692,-0.014182694258216331
1.696,-0.014178871811891215
1.7,-0.014181251825640817
1.704,-0.014181251825640817
1.708,-0.014183992447534296
1.712,-0.014185434880109812
1.716,-0.01418529063685226
1.72,-0.014189545812950032
1.724,-0.014184473258392801
1.728,-0.01418158839324177
1.732,-0.014179112217320468
1.736,-0.014180338285009655
1.74,-0.014181973041928574
1.744,-0.014182550014958781
1.748,-0.014183848204276744
1.752,-0.01418803125874574
1.756,-0.014185218515223485
1.76,-0.014182357690615379
1.764,-0.014184809825993756
1.768,-0.014188656312861796
1.772,-0.014182598096044632
1.776,-0.014185531042281513
1.78,-0.014188343785803768
1.784,-0.014186973474857029
1.788,-0.014190699759010444
1.792,-0.014186588826170224
1.796,-0.014181083541840339
1.8,-0.014187862974945264
1.804,-0.014187718731687712
1.808,-0.01418747832625846
1.812,-0.014181275866183741
1.816,-0.014180362325552582
1.82,-0.014181756677042247
1.824,-0.014183102947446062
1.828,-0.014182333650072453
1.832,-0.014184641542193278
1.836,-0.014190074704894388
1.84,-0.014186781150513627
1.844,-0.014184665582736204
1.848,-0.014185074271965933
1.852,-0.014187694691144786
1.856,-0.014189593894035882
1.86,-0.014189257326434928
1.864,-0.014189305407520779
1.868,-0.014191300772583576
1.872,-0.014185963772054168
1.8760000000000001,-0.014183223150160688
1.8800000000000001,-0.014187790853316487
1.8840000000000001,-0.014189137123720302
1.8880000000000001,-0.01418214132572905
1.8920000000000001,-0.0141843770962211
1.8960000000000001,-0.014184064569163072
1.9000000000000001,-0.01418625225856927
1.9040000000000001,-0.014186973474857029
1.9080000000000001,-0.014188199542546217
1.9120000000000001,-0.01418560316391029
1.9160000000000001,-0.014182381731158303
1.92,-0.014183944366448445
1.924,-0.014187334083000908
1.928,-0.01418843994797547
1.932,-0.01418848802906132
1.936,-0.014185963772054168
1.94,-0.014183271231246538
1.944,-0.014180194041752105
1.948,-0.014183054866360211
1.952,-0.01418940156969248
1.956,-0.014179208379492169
1.96,-0.014171299040869757
1.964,-0.014182213447357827
1.968,-0.014181323947269592
1.972,-0.014177597663116177
1.976,-0.014177886149631279
1.98,-0.014178583325376111
1.984,-0.014183078906903136
1.988,-0.014181059501297414
1.992,-0.014184280934049399
1.996,-0.014186324380198047
2.0,-0.014183126987988987
2.004,-0.014180698893153536
2.008,-0.014179641109264823
2.012,-0.014180482528267207
2.016,-0.014189521772407107
2.02,-0.014185819528796616
2.024,-0.01418291062310266
2.028,-0.014193079772760046
2.032,-0.014197791719173397
2.036,-0.014190651677924594
2.04,-0.014183583758304566
2.044,-0.014182622136587556
2.048,-0.014184930028708381
2.052,-0.014187622569516011
2.056,-0.014185771447710766
2.06,-0.014186853272142402
2.064,-0.014190291069780715
2.068,-0.014188800556119348
2.072,-0.014188560150690097
2.076,-0.01418630033965512
2.08,-0.014186348420740971
2.084,-0.014186276299112196
2.088,-0.014182429812244154
2.092,-0.014184256893506475
2.096,-0.014189834299465135
2.1,-0.014195363624337945
2.104,-0.014199113949034286
2.108,-0.014192358556472287
2.112,-0.014183126987988987
2.116,-0.014189185204806153
2.12,-0.014186973474857029
2.124,-0.014187670650601862
2.128,-0.014187694691144786
2.132,-0.0141889447993769
2.136,-0.01419524342162332
2.14,-0.014193464421446849
2.144,-0.014187694691144786
2.148,-0.014189521772407107
2.152,-0.014195171299994544
2.156,-0.014193031691674195
2.16,-0.0141912286509548
2.164,-0.014188968839919826
2.168,-0.014186733069427776
2.172,-0.01418483386653668
2.176,-0.014188055299288665
2.18,-0.014187454285715533
2.184,-0.01418985834000806
2.188,-0.01419067571846752
2.192,-0.014190002583265611
2.196,-0.014188319745260844
2.2,-0.014186660947799001
2.204,-0.01418529063685226
2.208,-0.014184713663822054
2.212,-0.014190795921182145
2.216,-0.014186781150513627
2.22,-0.014191517137469904
2.224,-0.01419118056986895
2.228,-0.014192118151043036
2.232,-0.0141889447993769
2.236,-0.014185362758481037
2.24,-0.01418336739341824
2.244,-0.014180097879580404
2.248,-0.014182045163557349
2.2520000000000002,-0.014186757109970702
2.2560000000000002,-0.014184064569163072
2.2600000000000002,-0.014181612433784695
2.2640000000000002,-0.01418574740716784
2.2680000000000002,-0.014188271664174993
2.2720000000000002,-0.01418853611014717
2.2760000000000002,-0.014191781583442082
2.2800000000000002,-0.014188295704717918
2.2840000000000003,-0.01418610801531172
2.2880000000000003,-0.014192983610588345
2.2920000000000003,-0.014190988245525548
2.2960000000000003,-0.014178895852434141
2.3000000000000003,-0.01418706963702873
2.3040000000000003,-0.014192767245702018
2.308,-0.014190002583265611
2.312,-0.01419163734018453
2.316,-0.014192046029414259
2.32,-0.014185723366624915
2.324,-0.014188103380374515
2.328,-0.014189233285892004
2.332,-0.014189834299465135
2.336,-0.014191012286068474
2.34,-0.014187550447887234
2.344,-0.014188848637205199
2.348,-0.014186949434314103
2.352,-0.0141912286509548
2.356,-0.014194450083706785
2.36,-0.014198392732746529
2.364,-0.014194570286421413
2.368,-0.014190555515752892
2.372,-0.014192911488959568
2.376,-0.01419255088081569
2.38,-0.01418615609639757
2.384,-0.014183583758304566
2.388,-0.014180698893153536
2.392,-0.014185819528796616
2.396,-0.01418625225856927
2.4,-0.014182069204100275
2.404,-0.014178919892977065
2.408,-0.014181083541840339
2.412,-0.014180410406638432
2.416,-0.014179737271436524
2.42,-0.01418341547450409
2.424,-0.014183655879933343
2.428,-0.014184353055678176
2.432,-0.014183295271789463
2.436,-0.014188608231775948
2.44,-0.014186468623455599
2.444,-0.014168654581147978
2.448,-0.014179232420035093
2.452,-0.014181492231070068
2.456,-0.01417747746040155
2.46,-0.014176491798141615
2.464,-0.014177814028002503
2.468,-0.014176708163027942
2.472,-0.014172837635616975
2.476,-0.014176323514341137
2.48,-0.014177501500944475
2.484,-0.014176660081942091
2.488,-0.01417925646057802
2.492,-0.01418072293369646
2.496,-0.014179160298406318
2.5,-0.014181420109441293
2.504,-0.014183535677218716
2.508,-0.014187334083000908
2.512,-0.01418113162292619
2.516,-0.014185458920652738
2.52,-0.014177765946916653
2.524,-0.014177741906373728
2.528,-0.014180506568810133
2.532,-0.01418346355558994
2.536,-0.014186973474857029
2.54,-0.014182934663645584
2.544,-0.014185867609882467
2.548,-0.014175866744025557
2.552,-0.014173847338419835
2.556,-0.01417519360882365
2.56,-0.014174352189821266
2.564,-0.014176852406285493
2.568,-0.014178992014605842
2.572,-0.014177549582030326
2.576,-0.014178992014605842
2.58,-0.014176708163027942
2.584,-0.014175049365566099
2.588,-0.014174448351992967
2.592,-0.014173102081589152
2.596,-0.01417468875742222
2.6,-0.014175770581853856
2.604,-0.014175842703482633
2.608,-0.014176323514341137
2.612,-0.014183703961019194
2.616,-0.014180626771524759
2.62,-0.014162428080530335
2.624,-0.014174496433078818
2.628,-0.0141775255414874
2.632,-0.014176419676512838
2.636,-0.014172549149101871
2.64,-0.014176852406285493
2.644,-0.014178126555060531
2.648,-0.014173630973533507
2.652,-0.014174760879050995
2.656,-0.014175482095338752
2.66,-0.01417615523054066
2.664,-0.014176419676512838
2.668,-0.014174544514164668
2.672,-0.014174087743849088
2.676,-0.01418122778509789
2.68,-0.014175842703482633
2.684,-0.01416665921608518
2.688,-0.014168269932461173
2.692,-0.01417747746040155
2.696,-0.014176684122485015
2.7,-0.014176395635969914
2.704,-0.014177309176601073
2.708,-0.014171371162498532
2.712,-0.014172597230187722
2.716,-0.014175866744025557
2.72,-0.01417468875742222
2.724,-0.01417702069008597
2.728,-0.014174712797965144
2.732,-0.014171178838155132
2.736,-0.014173558851904732
2.74,-0.014177285136058147
2.744,-0.014177621703659101
2.748,-0.014180554649895984
2.7520000000000002,-0.0141819970824715
2.7560000000000002,-0.014179136257863392
2.7600000000000002,-0.014181444149984217
2.7640000000000002,-0.014187382164086758
2.7680000000000002,-0.014178871811891215
2.7720000000000002,-0.014174159865477863
2.7760000000000002,-0.014183391433961164
2.7800000000000002,-0.01418529063685226
2.7840000000000003,-0.014175289770995352
2.7880000000000003,-0.014176684122485015
2.7920000000000003,-0.014179136257863392
2.7960000000000003,-0.014174111784392013
2.8000000000000003,-0.014174784919593921
2.8040000000000003,-0.014178198676689308
2.8080000000000003,-0.014179617068721898
2.8120000000000003,-0.014176251392712362
2.816,-0.014176491798141615
2.82,-0.014177237054972296
2.824,-0.014177886149631279
2.828,-0.014179568987636048
2.832,-0.014173198243760853
2.836,-0.014173174203217927
2.84,-0.014169832567751317
2.844,-0.014174664716879294
2.848,-0.014185699326081989
2.852,-0.014183054866360211
2.856,-0.014179232420035093
2.86,-0.014179544947093123
2.864,-0.014176852406285493
2.868,-0.014175626338596304
2.872,-0.014175169568280724
2.876,-0.014176804325199643
2.88,-0.014179496866007273
2.884,-0.014177814028002503
2.888,-0.014178198676689308
2.892,-0.014178679487547812
2.896,-0.014175073406109023
2.9,-0.014173847338419835
2.904,-0.014176275433255286
2.908,-0.014175722500768005
2.912,-0.014179280501120944
2.916,-0.014172477027473094
2.92,-0.014173438649190106
2.924,-0.014171827932814112
2.928,-0.014172525108558945
2.932,-0.014164952337537487
2.936,-0.014170553784039074
2.94,-0.014178559284833187
2.944,-0.01417829483886101
2.948,-0.014170866311097102
2.952,-0.014166322648484228
2.956,-0.014166899621514434
2.96,-0.014172236622043843
2.964,-0.01417711685225767
2.968,-0.014176587960313316
2.972,-0.014178078473974681
2.976,-0.014180795055325237
2.98,-0.014179472825464346
2.984,-0.014177092811714746
2.988,-0.014176419676512838
2.992,-0.01417437623036419
2.996,-0.014178102514517607
3.0,-0.014176275433255286
3.004,-0.01417432814927834
3.008,-0.014176395635969914
3.012,-0.014176876446828418
3.016,-0.014183992447534296
3.02,-0.01417976131197945
3.024,-0.014175289770995352
3.028,-0.014175265730452425
3.032,-0.014173630973533507
3.036,-0.014173438649190106
3.04,-0.014171010554354654
3.044,-0.014169784486665466
3.048,-0.014172380865301395
3.052,-0.014175409973709977
3.056,-0.01417122691924098
3.06,-0.014172020257157514
3.064,-0.014170024892094717
3.068,-0.01416879882440553
3.072,-0.014172693392359423
3.076,-0.014172549149101871
3.08,-0.014171275000326831
3.084,-0.014170866311097102
3.088,-0.014168654581147978
3.092,-0.014174760879050995
3.096,-0.01417519360882365
3.1,-0.014174544514164668
3.104,-0.014171467324670233
3.108,-0.014169952770465942
3.112,-0.014169568121779138
3.116,-0.014170072973180568
3.12,-0.014172669351816497
3.124,-0.014174159865477863
3.128,-0.014171827932814112
3.132,-0.014171827932814112
3.136,-0.014175482095338752
3.14,-0.014183151028531913
3.144,-0.01418077101478231
3.148,-0.014179280501120944
3.152,-0.014177092811714746
3.156,-0.01418194900138565
3.16,-0.014177741906373728
3.164,-0.0141775255414874
3.168,-0.014183896285362594
3.172,-0.014188752475033498
3.176,-0.01418625225856927
3.18,-0.014181973041928574
3.184,-0.01417829483886101
3.188,-0.014179641109264823
3.192,-0.014181155663469116
3.196,-0.014179064136234617
3.2,-0.014178775649719514
3.204,-0.014181444149984217
3.208,-0.014180939298582787
3.212,-0.014175458054795828
3.216,-0.014177645744202027
3.22,-0.014181444149984217
3.224,-0.01418574740716784
3.228,-0.014181396068898369
3.232,-0.014183487596132865
3.236,-0.014174280068192489
3.24,-0.014175121487194874
3.244,-0.014176203311626511
3.248,-0.014184545380021576
3.2520000000000002,-0.014184809825993756
3.2560000000000002,-0.014186228218026346
3.2600000000000002,-0.01418021808229503
3.2640000000000002,-0.01418077101478231
3.2680000000000002,-0.014179641109264823
3.2720000000000002,-0.01418168455541347
3.2760000000000002,-0.014178366960489784
3.2800000000000002,-0.014178631406461962
3.2840000000000003,-0.014177958271260055
3.2880000000000003,-0.014174977243937322
3.2920000000000003,-0.014175025325023172
3.2960000000000003,-0.01417884777134829
3.3000000000000003,-0.0141798093930653
3.3040000000000003,-0.014180650812067685
3.3080000000000003,-0.014179040095691691
3.3120000000000003,-0.0141820932446432
3.3160000000000003,-0.014180362325552582
3.3200000000000003,-0.014180290203923805
3.3240000000000003,-0.014180121920123329
3.3280000000000003,-0.014184665582736204
3.332,-0.014188824596662274
3.336,-0.014173582892447658
3.34,-0.014182622136587556
3.344,-0.014186468623455599
3.348,-0.014183583758304566
3.352,-0.014184545380021576
3.356,-0.014181756677042247
3.36,-0.014181900920299799
3.364,-0.014182622136587556
3.368,-0.014182525974415855
3.372,-0.014176515838684539
3.376,-0.014175914825111408
3.38,-0.014188151461460366
3.384,-0.014186757109970702
3.388,-0.014175986946740184
3.392,-0.0141798093930653
3.396,-0.014178463122661486
3.4,-0.014179208379492169
3.404,-0.0141820932446432
3.408,-0.014181420109441293
3.412,-0.014177621703659101
3.416,-0.014176035027826033
3.42,-0.01417879969026244
3.424,-0.014175482095338752
3.428,-0.01417391946004861
3.432,-0.014173318446475479
3.436,-0.014173054000503301
3.44,-0.01416976044612254
3.444,-0.014174400270907116
3.448,-0.014177237054972296
3.452,-0.014174063703306162
3.456,-0.014172885716702825
3.46,-0.014177501500944475
3.464,-0.014176900487371344
3.468,-0.014178150595603458
3.472,-0.014179833433608225
3.476,-0.014176876446828418
3.48,-0.014175049365566099
3.484,-0.014179160298406318
3.488,-0.0141797132308936
3.492,-0.014181107582383265
3.496,-0.014178967974062916
3.5,-0.01417757362257325
3.504,-0.0141819970824715
3.508,-0.014184304974592325
3.512,-0.014179953636322852
3.516,-0.014177333217143998
3.52,-0.014182165366271976
3.524,-0.014182309609529528
3.528,-0.014181540312155919
3.532,-0.014178078473974681
3.536,-0.014181107582383265
3.54,-0.014181804758128098
3.544,-0.014179040095691691
3.548,-0.014176010987283109
3.552,-0.014180650812067685
3.556,-0.014180843136411086
3.56,-0.014177405338772774
3.564,-0.01418026616338088
3.568,-0.014188824596662274
3.572,-0.01418605993422587
3.576,-0.014182309609529528
3.58,-0.014187213880286282
3.584,-0.014186468623455599
3.588,-0.014177405338772774
3.592,-0.0141798093930653
3.596,-0.014177213014429372
3.6,-0.014179232420035093
3.604,-0.014185386799023961
3.608,-0.014183535677218716
3.612,-0.014181732636499321
3.616,-0.014183295271789463
3.62,-0.014184256893506475
3.624,-0.014181804758128098
3.628,-0.01418346355558994
3.632,-0.014183511636675791
3.636,-0.014185482961195662
3.64,-0.014181396068898369
3.644,-0.01418560316391029
3.648,-0.014182550014958781
3.652,-0.014185507001738588
3.656,-0.01418757448843016
3.66,-0.01418291062310266
3.664,-0.014179016055148767
3.668,-0.014176828365742567
3.672,-0.014178126555060531
3.676,-0.014182213447357827
3.68,-0.014180843136411086
3.684,-0.014178078473974681
3.688,-0.014178415041575635
3.692,-0.014181107582383265
3.696,-0.014177886149631279
3.7,-0.014179112217320468
3.704,-0.014178078473974681
3.708,-0.014172356824758469
3.712,-0.014174592595250519
3.716,-0.014179641109264823
3.72,-0.014180001717408703
3.724,-0.01418488194762253
3.728,-0.01417853524429026
3.732,-0.014179160298406318
3.736,-0.014173799257333985
3.74,-0.014179665149807749
3.744,-0.014181924960842723
3.748,-0.014180194041752105
3.7520000000000002,-0.01417848716320441
3.7560000000000002,-0.014178703528090739
3.7600000000000002,-0.01417519360882365
3.7640000000000002,-0.014173510770818881
3.7680000000000002,-0.01417747746040155
3.7720000000000002,-0.014180506568810133
3.7760000000000002,-0.01418240577170123
3.7800000000000002,-0.014185579123367363
3.7840000000000003,-0.014183487596132865
3.7880000000000003,-0.014179520906550197
3.7920000000000003,-0.014179064136234617
3.7960000000000003,-0.014182429812244154
3.8000000000000003,-0.014181732636499321
3.8040000000000003,-0.014181780717585172
3.8080000000000003,-0.014176972609000119
3.8120000000000003,-0.01417853524429026
3.8160000000000003,-0.014177285136058147
3.8200000000000003,-0.014173751176248134
3.8240000000000003,-0.01417706877117182
3.8280000000000003,-0.014177621703659101
3.8320000000000003,-0.014177693825287878
3.8360000000000003,-0.01417610714945481
3.84,-0.01417519360882365
3.844,-0.014177886149631279
3.848,-0.014180049798494554
3.852,-0.014182814460930959
3.856,-0.014182429812244154
3.86,-0.014179689190350673
3.864,-0.014180939298582787
3.868,-0.014183343352875313
3.872,-0.014183175069074837
3.876,-0.014182381731158303
3.88,-0.014183175069074837
3.884,-0.01418295870418851
3.888,-0.014183078906903136
3.892,-0.014182525974415855
3.896,-0.01418346355558994
3.9,-0.01418625225856927
3.904,-0.014181468190527144
3.908,-0.014180843136411086
3.912,-0.014179064136234617
3.916,-0.014183655879933343
3.92,-0.014185627204453214
3.924,-0.014184449217849875
3.928,-0.014186180136940495
3.932,-0.014180650812067685
3.936,-0.014179568987636048
3.94,-0.014180121920123329
3.944,-0.014185458920652738
3.948,-0.014187382164086758
3.952,-0.014187742772230637
3.956,-0.014192502799729839
3.96,-0.01418250193387293
3.964,-0.014185579123367363
3.968,-0.014185771447710766
3.972,-0.01418610801531172
3.976,-0.014184088609705997
3.98,-0.014180578690438908
3.984,-0.01418382416373382
3.988,-0.014184497298935726
3.992,-0.014187959137116965
3.996,-0.014190074704894388
4.0,-0.01418630033965512
4.0040000000000004,-0.014185146393594708
4.008,-0.014188271664174993
4.0120000000000005,-0.014186901353228252
4.016,-0.014187887015488189
4.0200000000000005,-0.014185867609882467
4.024,-0.01418488194762253
4.0280000000000005,-0.014181299906726667
4.032,-0.014176515838684539
4.0360000000000005,-0.0141820932446432
4.04,-0.014181540312155919
4.0440000000000005,-0.014182045163557349
4.048,-0.014186492663998523
4.0520000000000005,-0.014186180136940495
4.056,-0.014181203744554966
4.0600000000000005,-0.014179857474151151
4.064,-0.01417757362257325
4.0680000000000005,-0.014188463988518396
4.072,-0.014189425610235406
4.0760000000000005,-0.014179400703835571
4.08,-0.014175842703482633
4.0840000000000005,-0.01417560229805338
4.088,-0.014181564352698845
4.0920000000000005,-0.014190074704894388
4.096,-0.014187598528973085
4.1,-0.01418021808229503
4.104,-0.01418341547450409
4.108,-0.014181468190527144
4.112,-0.014182261528443678
4.116,-0.014183992447534296
4.12,-0.014180963339125713
4.124,-0.014183607798847492
4.128,-0.0141820932446432
4.132,-0.014182982744731435
4.136,-0.014187430245172609
4.14,-0.014178126555060531
4.144,-0.014171900054442889
4.148,-0.014178415041575635
4.152,-0.014181564352698845
4.156,-0.014178078473974681
4.16,-0.014178967974062916
4.164,-0.014179328582206795
4.168,-0.014172573189644795
4.172,-0.014181059501297414
4.176,-0.014176924527914268
4.18,-0.014176996649543045
4.184,-0.014186011853140019
4.188,-0.014181203744554966
4.192,-0.01418072293369646
4.196,-0.014184184771877698
4.2,-0.014187334083000908
4.204,-0.014187334083000908
4.208,-0.014186492663998523
4.212,-0.014182790420388032
4.216,-0.01418625225856927
4.22,-0.014186492663998523
4.224,-0.014184136690791847
4.228,-0.014185026190880082
4.232,-0.014180554649895984
4.236,-0.014176732203570866
4.24,-0.014177693825287878
4.244,-0.014180290203923805
4.248,-0.014179208379492169
4.252,-0.014176539879227465
4.256,-0.014177814028002503
4.26,-0.014185699326081989
4.264,-0.01418392032590552
4.268,-0.014172741473445273
4.272,-0.014173294405932554
4.276,-0.014181900920299799
4.28,-0.014178775649719514
4.284,-0.014183439515047015
4.288,-0.014185458920652738
4.292,-0.014183944366448445
4.296,-0.014184857907079606
4.3,-0.014187454285715533
4.304,-0.014186853272142402
4.308,-0.014179857474151151
4.312,-0.014185627204453214
4.316,-0.014188752475033498
4.32,-0.014184160731334773
4.324,-0.014181756677042247
4.328,-0.014180242122837954
4.332,-0.014182862542016809
4.336,-0.014180025757951627
4.34,-0.01418026616338088
4.344,-0.0141751455277378
4.348,-0.014176876446828418
4.352,-0.014176443717055764
4.356,-0.014176708163027942
4.36,-0.014173727135705208
4.364,-0.014172236622043843
4.368,-0.014175361892624127
4.372,-0.014178871811891215
4.376,-0.014178703528090739
4.38,-0.014176467757598689
4.384,-0.014179833433608225
4.388,-0.01417483300067977
4.392,-0.014173270365389628
4.396,-0.014178607365919037
4.4,-0.01418336739341824
4.404,-0.014175313811538276
4.408,-0.014176876446828418
4.412,-0.014182766379845108
4.416,-0.01417615523054066
4.42,-0.014175482095338752
4.424,-0.014178054433431756
4.428,-0.014181083541840339
4.432,-0.014181299906726667
4.436,-0.01417483300067977
4.44,-0.014177092811714746
4.444,-0.014178919892977065
4.448,-0.01417706877117182
4.452,-0.014176035027826033
4.456,-0.014175482095338752
4.46,-0.014179184338949243
4.464,-0.014184449217849875
4.468,-0.014185579123367363
4.472,-0.014184569420564503
4.476,-0.01418533871793811
4.48,-0.014184184771877698
4.484,-0.014181708595956397
4.488,-0.014183175069074837
4.492,-0.01418478578545083
4.496,-0.014176395635969914
4.5,-0.014187045596485804
4.5040000000000004,-0.014184497298935726
4.508,-0.014175962906197258
4.5120000000000005,-0.014180362325552582
4.516,-0.014180482528267207
4.5200000000000005,-0.014180530609353058
4.524,-0.014182213447357827
4.5280000000000005,-0.014183126987988987
4.532,-0.014185386799023961
4.5360000000000005,-0.014180049798494554
4.54,-0.014179448784921422
4.5440000000000005,-0.014178559284833187
4.548,-0.014180097879580404
4.5520000000000005,-0.01417925646057802
4.556,-0.014177453419858625
4.5600000000000005,-0.014183583758304566
4.564,-0.014181780717585172
4.5680000000000005,-0.01417976131197945
4.572,-0.014177309176601073
4.5760000000000005,-0.01417843908211856
4.58,-0.01417834291994686
4.5840000000000005,-0.014184545380021576
4.588,-0.014188319745260844
4.5920000000000005,-0.014183655879933343
4.596,-0.014180338285009655
4.6000000000000005,-0.01417976131197945
4.604,-0.014180650812067685
4.6080000000000005,-0.014185218515223485
4.612,-0.014177501500944475
4.616,-0.014173438649190106
4.62,-0.014179088176777542
4.624,-0.014182766379845108
4.628,-0.014182814460930959
4.632,-0.014181852839213948
4.636,-0.014185218515223485
4.64,-0.014185507001738588
4.644,-0.014181973041928574
4.648,-0.014183728001562118
4.652,-0.014187911056031115
4.656,-0.01419310381330297
4.66,-0.01418757448843016
4.664,-0.014188872677748125
4.668,-0.01419158925909868
4.672,-0.014193127853845897
4.676,-0.014192382597015213
4.68,-0.014187862974945264
4.684,-0.014193849070133654
4.688,-0.014196108881168628
4.692,-0.014186540745084374
4.696,-0.014185050231423007
4.7,-0.014192358556472287
4.704,-0.014193392299818074
4.708,-0.014194426043163861
4.712,-0.014194137556648757
4.716,-0.014194426043163861
4.72,-0.014191997948328408
4.724,-0.014192166232128886
4.728,-0.01419392119176243
4.732,-0.01419428179990631
4.736,-0.01419524342162332
4.74,-0.014195676151395975
4.744,-0.014190002583265611
4.748,-0.01418803125874574
4.752,-0.014192767245702018
4.756,-0.014192623002444466
4.76,-0.014192334515929363
4.764,-0.014186468623455599
4.768,-0.014185651244996138
4.772,-0.014195051097279917
4.776,-0.014192502799729839
4.78,-0.014188584191233021
4.784,-0.014190988245525548
4.788,-0.014188175502003292
4.792,-0.014190363191409492
4.796,-0.014190916123896773
4.8,-0.014188463988518396
4.804,-0.014185555082824439
4.808,-0.014183607798847492
4.812,-0.01419382502959073
4.816,-0.014192382597015213
4.82,-0.014191396934755277
4.824,-0.01419158925909868
4.828,-0.01419255088081569
4.832,-0.014190940164439697
4.836,-0.014188704393947647
4.84,-0.0141911324887831
4.844,-0.014191997948328408
4.848,-0.014186660947799001
4.852,-0.014189233285892004
4.856,-0.014186444582912672
4.86,-0.014183848204276744
4.864,-0.014187814893859414
4.868,-0.014188175502003292
4.872,-0.01418853611014717
4.876,-0.01419255088081569
4.88,-0.014188103380374515
4.884,-0.014179737271436524
4.888,-0.01418341547450409
4.892,-0.01418793509657404
4.896,-0.01418264617713048
4.9,-0.01417488108176562
4.904,-0.01418245385278708
4.908,-0.014185434880109812
4.912,-0.014185651244996138
4.916,-0.014181732636499321
4.92,-0.014183607798847492
4.924,-0.014188872677748125
4.928,-0.014188968839919826
4.932,-0.01418985834000806
4.936,-0.014187045596485804
4.94,-0.014185410839566887
4.944,-0.014184905988165457
4.948,-0.014187790853316487
4.952,-0.014184569420564503
4.956,-0.014189137123720302
4.96,-0.014188824596662274
4.964,-0.01418615609639757
4.968,-0.014186420542369748
4.972,-0.014184304974592325
4.976,-0.014186949434314103
4.98,-0.014190459353581191
4.984,-0.014184665582736204
4.988,-0.01418702155594288
4.992,-0.01419392119176243
4.996,-0.014192021988871335
5.0,-0.014187454285715533
5.0040000000000004,-0.014183439515047015
5.008,-0.014185819528796616
5.0120000000000005,-0.014185386799023961
5.016,-0.014186781150513627
5.0200000000000005,-0.01419021894815194
5.024,-0.014192454718643988
5.0280000000000005,-0.014190339150866565
5.032,-0.014193632705247327
5.0360000000000005,-0.014190098745437313
5.04,-0.014194474124249712
5.0440000000000005,-0.014191156529326024
5.048,-0.014185507001738588
5.0520000000000005,-0.014184905988165457
5.056,-0.014192262394300586
5.0600000000000005,-0.014186324380198047
5.064,-0.014181924960842723
5.0680000000000005,-0.014186733069427776
5.072,-0.014184304974592325
5.0760000000000005,-0.014184425177306951
5.08,-0.014186588826170224
5.0840000000000005,-0.01418605993422587
5.088,-0.014191084407697249
5.0920000000000005,-0.014191661380727454
5.096,-0.014187141758657505
5.1000000000000005,-0.014189521772407107
5.104,-0.014184136690791847
5.1080000000000005,-0.014179544947093123
5.112,-0.014182862542016809
5.1160000000000005,-0.014181612433784695
5.12,-0.014183800123190895
5.124,-0.01418168455541347
5.128,-0.01417464067633637
5.132,-0.014175578257510453
5.136,-0.014177910190174205
5.14,-0.014173847338419835
5.144,-0.014177044730628896
5.148,-0.01417706877117182
5.152,-0.014174760879050995
5.156,-0.014171827932814112
5.16,-0.014166995783686135
5.164,-0.014168053567574846
5.168,-0.014174207946563714
5.172,-0.01417391946004861
5.176,-0.014169471959607436
5.18,-0.014172164500415066
5.184,-0.014172236622043843
5.188,-0.014175770581853856
5.192,-0.014176083108911884
5.196,-0.014178679487547812
5.2,-0.014180554649895984
5.204,-0.014182477893330004
5.208,-0.014182574055501706
5.212,-0.014183703961019194
5.216,-0.014178967974062916
5.22,-0.014175073406109023
5.224,-0.014177285136058147
5.228,-0.014181420109441293
5.232,-0.01417930454166387
5.236,-0.014173222284303778
5.24,-0.014173126122132076
5.244,-0.014183944366448445
5.248,-0.014183295271789463
5.252,-0.014175025325023172
5.256,-0.014179184338949243
5.26,-0.014179617068721898
5.264,-0.014183944366448445
5.268,-0.01418341547450409
5.272,-0.014181011420211564
5.276,-0.014178775649719514
5.28,-0.014177333217143998
5.284,-0.014181203744554966
5.288,-0.014187189839743356
5.292,-0.014184930028708381
5.296,-0.014179617068721898
5.3,-0.014184064569163072
5.304,-0.014181828798671022
5.308,-0.014177717865830802
5.312,-0.014182550014958781
5.316,-0.014183006785274361
5.32,-0.014182622136587556
5.324,-0.014184256893506475
5.328,-0.01418122778509789
5.332,-0.014176732203570866
5.336,-0.01417488108176562
5.34,-0.014178174636146382
5.344,-0.014179977676865777
5.348,-0.014179544947093123
5.352,-0.014179617068721898
5.356,-0.01418240577170123
5.36,-0.014179737271436524
5.364,-0.014182790420388032
5.368,-0.014184713663822054
5.372,-0.0141865647856273
5.376,-0.014187790853316487
5.38,-0.014181444149984217
5.384,-0.014184521339478652
5.388,-0.01418651670454145
5.392,-0.014184425177306951
5.396,-0.014183054866360211
5.4,-0.014183992447534296
5.404,-0.014184040528620146
5.408,-0.01418610801531172
5.412,-0.014184593461107427
5.416,-0.014181924960842723
5.42,-0.014182790420388032
5.424,-0.014180049798494554
5.428,-0.014179016055148767
5.432,-0.014179160298406318
5.436,-0.014179208379492169
5.44,-0.014181396068898369
5.444,-0.014181372028355442
5.448,-0.014184665582736204
5.452,-0.014183175069074837
5.456,-0.014182213447357827
5.46,-0.01418017000120918
5.464,-0.014183583758304566
5.468,-0.014185386799023961
5.472,-0.014183199109617763
5.476,-0.01418579548825369
5.48,-0.014189545812950032
5.484,-0.014185218515223485
5.488,-0.014186973474857029
5.492,-0.014183583758304566
5.496,-0.014177285136058147
5.5,-0.01418240577170123
5.5040000000000004,-0.014185410839566887
5.508,-0.014183703961019194
5.5120000000000005,-0.014182574055501706
5.516,-0.014185819528796616
5.5200000000000005,-0.014186997515399953
5.524,-0.01418346355558994
5.5280000000000005,-0.014179857474151151
5.532,-0.014175385933167053
5.5360000000000005,-0.014182838501473883
5.54,-0.014184208812420624
5.5440000000000005,-0.014178919892977065
5.548,-0.014179016055148767
5.5520000000000005,-0.01418702155594288
5.556,-0.014182934663645584
5.5600000000000005,-0.014188512069604246
5.564,-0.014190242988694864
5.5680000000000005,-0.014190988245525548
5.572,-0.0141935125025327
5.5760000000000005,-0.014187646610058936
5.58,-0.014189690056207583
5.5840000000000005,-0.01419026702923779
5.588,-0.014192214313214737
5.5920000000000005,-0.01418625225856927
5.596,-0.014180458487724283
5.6000000000000005,-0.014184425177306951
5.604,-0.014187213880286282
5.6080000000000005,-0.014185699326081989
5.612,-0.014189834299465135
5.6160000000000005,-0.014187165799200431
5.62,-0.014184184771877698
5.6240000000000006,-0.01418843994797547
5.628,-0.01418990642109391
5.632,-0.0141889447993769
5.636,-0.014191805623985006
5.64,-0.014191781583442082
5.644,-0.014189113083177378
5.648,-0.014193752907961953
5.652,-0.014193800989047803
5.656,-0.014190531475209968
5.66,-0.014189738137293434
5.664,-0.014191949867242558
5.668,-0.014191829664527932
5.672,-0.014195051097279917
5.676,-0.014192238353757661
5.68,-0.01418995450217976
5.684,-0.014190916123896773
5.688,-0.014191733502356231
5.692,-0.014186420542369748
5.696,-0.014191541178012829
5.7,-0.014192839367330793
5.704,-0.01418574740716784
5.708,-0.014181492231070068
5.712,-0.014187887015488189
5.716,-0.01419168542127038
5.72,-0.01418848802906132
5.724,-0.01418529063685226
5.728,-0.014186733069427776
5.732,-0.014184184771877698
5.736,-0.014185170434137634
5.74,-0.014186949434314103
5.744,-0.014181924960842723
5.748,-0.014188271664174993
5.752,-0.014188007218202816
5.756,-0.014184088609705997
5.76,-0.014183583758304566
5.764,-0.01418533871793811
5.768,-0.014187742772230637
5.772,-0.01418843994797547
5.776,-0.014181347987812518
5.78,-0.014179689190350673
5.784,-0.014191276732040651
5.788,-0.01419026702923779
5.792,-0.01418940156969248
5.796,-0.014187670650601862
5.8,-0.014190411272495342
5.804,-0.014189281366977854
5.808,-0.014194762610764813
5.812,-0.014191541178012829
5.816,-0.014188704393947647
5.82,-0.014195075137822843
5.824,-0.01419158925909868
5.828,-0.014189305407520779
5.832,-0.014185579123367363
5.836,-0.01419163734018453
5.84,-0.014192070069957185
5.844,-0.014191781583442082
5.848,-0.014195507867595497
5.852,-0.014191541178012829
5.856,-0.014194738570221889
5.86,-0.014191252691497725
5.864,-0.014191613299641605
5.868,-0.014194858772936515
5.872,-0.014195027056736993
5.876,-0.014198633138175782
5.88,-0.014198873543605033
5.884,-0.014194954935108216
5.888,-0.014191757542899155
5.892,-0.01418711771811458
5.896,-0.014190747840096295
5.9,-0.014193272097103448
5.904,-0.014189738137293434
5.908,-0.014188151461460366
5.912,-0.01418889671829105
5.916,-0.014191060367154323
5.92,-0.014186372461283897
5.924,-0.014188103380374515
5.928,-0.014191781583442082
5.932,-0.014192791286244942
5.936,-0.014188800556119348
5.94,-0.01418346355558994
5.944,-0.01418985834000806
5.948,-0.014191781583442082
5.952,-0.0141911324887831
5.956,-0.014187261961372133
5.96,-0.014193199975474672
5.964,-0.014198272530031902
5.968,-0.014186709028884852
5.972,-0.014189569853492958
5.976,-0.014191396934755277
5.98,-0.01418843994797547
5.984,-0.014186132055854644
5.988,-0.01418625225856927
5.992,-0.014194185637734608
5.996,-0.014192623002444466
6.0,-0.014189738137293434
6.0040000000000004,-0.014191997948328408
6.008,-0.014197503232658294
6.0120000000000005,-0.014192382597015213
6.016,-0.014186660947799001
6.0200000000000005,-0.014187165799200431
6.024,-0.014192911488959568
6.0280000000000005,-0.014190483394124117
6.032,-0.014193680786333178
6.0360000000000005,-0.014191252691497725
6.04,-0.014185699326081989
6.0440000000000005,-0.014189690056207583
6.048,-0.014190603596838743
6.0520000000000005,-0.014190627637381669
6.056,-0.014191805623985006
6.0600000000000005,-0.014198248489488977
6.064,-0.014192743205159092
6.0680000000000005,-0.014180819095868161
6.072,-0.014192382597015213
6.0760000000000005,-0.014193993313391206
6.08,-0.014190795921182145
6.0840000000000005,-0.014191829664527932
6.088,-0.014191829664527932
6.0920000000000005,-0.014196397367683732
6.096,-0.014191156529326024
6.1000000000000005,-0.014191805623985006
6.104,-0.014193392299818074
6.1080000000000005,-0.014194017353934132
6.112,-0.014194426043163861
6.1160000000000005,-0.014190459353581191
6.12,-0.014187911056031115
6.1240000000000006,-0.014186035893682943
6.128,-0.014186973474857029
6.132000000000001,-0.01419310381330297
6.136,-0.014190555515752892
6.140000000000001,-0.014189545812950032
6.144,-0.01418971409675051
6.148,-0.014195411705423796
6.152,-0.014194041394477056
6.156,-0.014190699759010444
6.16,-0.01419675797582761
6.164,-0.014195604029767198
6.168,-0.01419428179990631
6.172,-0.014192671083530317
6.176,-0.0141889447993769
6.18,-0.014188824596662274
6.184,-0.014188752475033498
6.188,-0.014186853272142402
6.192,-0.014186709028884852
6.196,-0.014186588826170224
6.2,-0.014186853272142402
6.204,-0.014191661380727454
6.208,-0.014196012718996927
6.212,-0.01419356058361855
6.216,-0.014189521772407107
6.22,-0.01418995450217976
6.224,-0.014186660947799001
6.228,-0.014190339150866565
6.232,-0.01419163734018453
6.236,-0.014195988678454003
6.24,-0.014200291935637625
6.244,-0.014198921624690884
6.248,-0.014193175934931747
6.252,-0.014190699759010444
6.256,-0.014190844002267996
6.26,-0.014191156529326024
6.264,-0.014196084840625704
6.268,-0.014197286867771967
6.272,-0.014186540745084374
6.276,-0.01418889671829105
6.28,-0.014191324813126502
6.284,-0.014188415907432545
6.288,-0.014192310475386436
6.292,-0.01419392119176243
6.296,-0.014187694691144786
6.3,-0.01417976131197945
6.304,-0.014197310908314891
6.308,-0.01419432988099216
6.312,-0.014191276732040651
6.316,-0.014190819961725071
6.32,-0.014191853705070857
6.324,-0.01419392119176243
6.328,-0.01418995450217976
6.332,-0.01418985834000806
6.336,-0.01418889671829105
6.34,-0.01419336825927515
6.344,-0.01419747919211537
6.348,-0.014198753340890408
6.352,-0.014196926259628088
6.356,-0.014185531042281513
6.36,-0.014186901353228252
6.364,-0.014187790853316487
6.368,-0.014191420975298203
6.372,-0.014194402002620935
6.376,-0.014189257326434928
6.38,-0.01418291062310266
6.384,-0.014194233718820459
6.388,-0.014196685854198835
6.392,-0.014190026623808537
6.396,-0.014190050664351462
6.4,-0.014186444582912672
6.404,-0.014192310475386436
6.408,-0.014195123218908694
6.412,-0.014190098745437313
6.416,-0.014192623002444466
6.42,-0.014190098745437313
6.424,-0.014187742772230637
6.428,-0.014191949867242558
6.432,-0.014192935529502494
6.436,-0.014195579989224274
6.44,-0.014198392732746529
6.444,-0.014195075137822843
6.448,-0.014187862974945264
6.452,-0.01418661286671315
6.456,-0.014191276732040651
6.46,-0.014195027056736993
6.464,-0.014191469056384054
6.468,-0.014188776515576424
6.472,-0.014189016921005677
6.476,-0.014192863407873717
6.48,-0.014195123218908694
6.484,-0.014194810691850664
6.488,-0.01419392119176243
6.492,-0.014191541178012829
6.496,-0.014195772313567676
6.5,-0.014198248489488977
6.5040000000000004,-0.014198320611117752
6.508,-0.01420209497635702
6.5120000000000005,-0.014195195340537469
6.516,-0.014196084840625704
6.5200000000000005,-0.014203585490018386
6.524,-0.014201253557354635
6.5280000000000005,-0.014198561016547005
6.532,-0.01419478665130774
6.5360000000000005,-0.01419382502959073
6.54,-0.014192959570045419
6.5440000000000005,-0.014193224016017598
6.548,-0.014194810691850664
6.5520000000000005,-0.014196782016370537
6.556,-0.014198609097632856
6.5600000000000005,-0.014197046462342714
6.564,-0.014191348853669426
6.5680000000000005,-0.014195988678454003
6.572,-0.014195604029767198
6.5760000000000005,-0.014189233285892004
6.58,-0.014188824596662274
6.5840000000000005,-0.014195604029767198
6.588,-0.014196012718996927
6.5920000000000005,-0.014195123218908694
6.596,-0.014200340016723476
6.6000000000000005,-0.014200171732922998
6.604,-0.014195964637911077
6.6080000000000005,-0.014191493096926978
6.612,-0.01418853611014717
6.6160000000000005,-0.01418935348860663
6.62,-0.014191781583442082
6.6240000000000006,-0.014191613299641605
6.628,-0.014190098745437313
6.632000000000001,-0.014190291069780715
6.636,-0.01419747919211537
6.640000000000001,-0.014192863407873717
6.644,-0.014193272097103448
6.648000000000001,-0.014191300772583576
6.652,-0.01418798317765989
6.656000000000001,-0.014189834299465135
6.66,-0.014188103380374515
6.664,-0.014190026623808537
6.668,-0.014192743205159092
6.672,-0.014189329448063705
6.676,-0.014193344218732223
6.68,-0.014195003016194066
6.684,-0.014190699759010444
6.688,-0.014191757542899155
6.692,-0.014197238786686116
6.696,-0.014193272097103448
6.7,-0.014182381731158303
6.704,-0.014192935529502494
6.708,-0.014192478759186914
6.712,-0.014194570286421413
6.716,-0.014191661380727454
6.72,-0.014191805623985006
6.724,-0.01419478665130774
6.728,-0.014195579989224274
6.732,-0.014189738137293434
6.736,-0.014186684988341925
6.74,-0.014188391866889619
6.744,-0.014187790853316487
6.748,-0.01418990642109391
6.752,-0.014201734368213141
6.756,-0.014199642840978643
6.76,-0.014194906854022365
6.764,-0.014198056165145575
6.768,-0.014193945232305355
6.772,-0.014194137556648757
6.776,-0.014188800556119348
6.78,-0.014194906854022365
6.784,-0.014195507867595497
6.788,-0.014194930894565291
6.792,-0.014195147259451618
6.796,-0.014200604462695653
6.8,-0.014202239219614572
6.804,-0.014203849935990564
6.808,-0.014202431543957974
6.812,-0.01419771959754462
6.816,-0.014199065867948436
6.82,-0.01419747919211537
6.824,-0.014195027056736993
6.828,-0.01419214219158596
6.832,-0.014193272097103448
6.836,-0.014196565651484208
6.84,-0.014201950733099468
6.844,-0.014192623002444466
6.848,-0.01419483473239359
6.852,-0.014198152327317276
6.856,-0.014193151894388821
6.86,-0.01419017086706609
6.864,-0.01419118056986895
6.868,-0.014197046462342714
6.872,-0.014197286867771967
6.876,-0.01419702242179979
6.88,-0.014194642408050188
6.884,-0.01419844081383238
6.888,-0.01419899374631966
6.892,-0.01419264704298739
6.896,-0.01419255088081569
6.9,-0.014190315110323641
6.904,-0.014195555948681347
6.908,-0.014194137556648757
6.912,-0.014197407070486593
6.916,-0.014193752907961953
6.92,-0.01419214219158596
6.924,-0.01419214219158596
6.928,-0.014192021988871335
6.932,-0.014192478759186914
6.936,-0.014192070069957185
6.94,-0.014195147259451618
6.944,-0.014198272530031902
6.948,-0.014199234151748914
6.952,-0.01419716666505734
6.956,-0.014195724232481825
6.96,-0.01419844081383238
6.964,-0.014195628070310124
6.968,-0.014193440380903925
6.972,-0.014195075137822843
6.976,-0.014193296137646373
6.98,-0.014197238786686116
6.984,-0.014202455584500898
6.988,-0.014197262827229041
6.992,-0.014196830097456387
6.996,-0.014198777381433334
7.0,-0.01419844081383238
7.0040000000000004,-0.014196637773112985
7.008,-0.01419894566523381
7.0120000000000005,-0.014194810691850664
7.016,-0.014196397367683732
7.0200000000000005,-0.014201878611470691
7.024,-0.01419945051663524
7.0280000000000005,-0.014198248489488977
7.032,-0.014197599394829995
7.0360000000000005,-0.014199690922064493
7.04,-0.014201109314097083
7.0440000000000005,-0.014198633138175782
7.048,-0.014199739003150344
7.0520000000000005,-0.014198873543605033
7.056,-0.014189233285892004
7.0600000000000005,-0.014192430678101064
7.064,-0.014195483827052572
7.0680000000000005,-0.014193199975474672
7.072,-0.014193945232305355
7.0760000000000005,-0.014195844435196451
7.08,-0.014198921624690884
7.0840000000000005,-0.014199378395006465
7.088,-0.014194450083706785
7.0920000000000005,-0.014196998381256863
7.096,-0.01419935435446354
7.1000000000000005,-0.014200796787039055
7.104,-0.014198561016547005
7.1080000000000005,-0.014200676584324428
7.112,-0.014202239219614572
7.1160000000000005,-0.014202960435902329
7.12,-0.014199642840978643
7.1240000000000006,-0.01419995536803667
7.128,-0.014202287300700422
7.132000000000001,-0.014200844868124906
7.136,-0.014197911921888023
7.140000000000001,-0.01419387311067658
7.144,-0.014200195773465924
7.148000000000001,-0.014194474124249712
7.152,-0.014192887448416644
7.156000000000001,-0.014197887881345099
7.16,-0.014201974773642392
7.164000000000001,-0.014200243854551774
7.168,-0.014198969705776734
7.172,-0.014198753340890408
7.176,-0.014197190705600266
7.18,-0.014200291935637625
7.184,-0.014197960002973874
7.188,-0.014199186070663063
7.192,-0.014195964637911077
7.196,-0.014198176367860202
7.2,-0.014202960435902329
7.204,-0.0142003640572664
7.208,-0.014192983610588345
7.212,-0.01419219027267181
7.216,-0.014192935529502494
7.22,-0.014198753340890408
7.224,-0.014199162030120137
7.228,-0.014198585057089931
7.232,-0.014191757542899155
7.236,-0.014194426043163861
7.24,-0.014194450083706785
7.244,-0.014191012286068474
7.248,-0.014199378395006465
7.252,-0.014198152327317276
7.256,-0.014198272530031902
7.26,-0.014198200408403127
7.264,-0.014199162030120137
7.268,-0.014203609530561311
7.272,-0.014200484259981027
7.276,-0.01419387311067658
7.28,-0.014190819961725071
7.284,-0.014190699759010444
7.288,-0.014195628070310124
7.292,-0.014191781583442082
7.296,-0.014188680353404723
7.3,-0.01419574827302475
7.304,-0.014192454718643988
7.308,-0.014190459353581191
7.312,-0.014186684988341925
7.316,-0.01419264704298739
7.32,-0.014198609097632856
7.324,-0.01419721474614319
7.328,-0.014194113516105831
7.332,-0.014197383029943668
7.336,-0.01419067571846752
7.34,-0.014192382597015213
7.344,-0.01419305573221712
7.348,-0.014193392299818074
7.352,-0.014192334515929363
7.356,-0.01419747919211537
7.36,-0.014199618800435717
7.364,-0.014200965070839532
7.368,-0.014198561016547005
7.372,-0.0141957963541106
7.376,-0.014194402002620935
7.38,-0.014196445448769583
7.384,-0.014202046895271169
7.388,-0.0141889447993769
7.392,-0.014184473258392801
7.396,-0.014191012286068474
7.4,-0.014192935529502494
7.404,-0.01419305573221712
7.408,-0.014192983610588345
7.412,-0.014195964637911077
7.416,-0.014192743205159092
7.42,-0.014191420975298203
7.424,-0.014193079772760046
7.428,-0.01418985834000806
7.432,-0.014188415907432545
7.436,-0.014186901353228252
7.44,-0.014192238353757661
7.444,-0.01419255088081569
7.448,-0.014190988245525548
7.452,-0.014190074704894388
7.456,-0.01418483386653668
7.46,-0.014194954935108216
7.464,-0.014195555948681347
7.468,-0.014184905988165457
7.472,-0.014184064569163072
7.476,-0.01418889671829105
7.48,-0.014188463988518396
7.484,-0.01418935348860663
7.488,-0.014190747840096295
7.492,-0.014192791286244942
7.496,-0.014194161597191682
7.5,-0.014192959570045419
7.5040000000000004,-0.014193151894388821
7.508,-0.01419259896190154
7.5120000000000005,-0.014190747840096295
7.516,-0.014199282232834764
7.5200000000000005,-0.01420630207136894
7.524,-0.014197286867771967
7.5280000000000005,-0.014195483827052572
7.532,-0.014195003016194066
7.5360000000000005,-0.014195411705423796
7.54,-0.014193680786333178
7.5440000000000005,-0.014192358556472287
7.548,-0.014199113949034286
7.5520000000000005,-0.014204042260333966
7.556,-0.014205220246937303
7.5600000000000005,-0.01420077274649613
7.564,-0.014193680786333178
7.5680000000000005,-0.014194642408050188
7.572,-0.014194906854022365
7.5760000000000005,-0.014193897151219504
7.58,-0.0141935125025327
7.5840000000000005,-0.014191517137469904
7.588,-0.0141935125025327
7.5920000000000005,-0.014199210111205987
7.596,-0.014200123651837147
7.6000000000000005,-0.014198176367860202
7.604,-0.014197383029943668
7.6080000000000005,-0.014196806056913461
7.612,-0.014197791719173397
7.6160000000000005,-0.014198368692203603
7.62,-0.01419524342162332
7.6240000000000006,-0.014198200408403127
7.628,-0.014200796787039055
7.632000000000001,-0.014194402002620935
7.636,-0.014194594326964337
7.640000000000001,-0.014192671083530317
7.644,-0.014196325246054957
7.648000000000001,-0.014196277164969106
7.652,-0.014196349286597881
7.656000000000001,-0.014195147259451618
7.66,-0.014191877745613783
7.664000000000001,-0.014189473691321257
7.668,-0.014191108448240173
7.672000000000001,-0.014200724665410279
7.676,-0.014198152327317276
7.68,-0.01419848889491823
7.684,-0.014193776948504879
7.688,-0.014195435745966722
7.692,-0.01419894566523381
7.696,-0.014203321044046207
7.7,-0.01419574827302475
7.704,-0.01419168542127038
7.708,-0.014190579556295818
7.712,-0.014192070069957185
7.716,-0.014192959570045419
7.72,-0.014190940164439697
7.724,-0.014192526840272765
7.728,-0.014194089475562907
7.732,-0.014195652110853049
7.736,-0.014198248489488977
7.74,-0.014195267462166244
7.744,-0.014194522205335562
7.748,-0.014199811124779119
7.752,-0.014202407503415048
7.756,-0.014204258625220293
7.76,-0.014200123651837147
7.764,-0.014195267462166244
7.768,-0.014192743205159092
7.772,-0.014192406637558138
7.776,-0.014196277164969106
7.78,-0.014200147692380073
7.784,-0.014202046895271169
7.788,-0.01419945051663524
7.792,-0.014194305840449234
7.796,-0.014197647475915846
7.8,-0.014197960002973874
7.804,-0.014200941030296607
7.808,-0.014209836031178954
7.812,-0.014205725098338734
7.816,-0.014201878611470691
7.82,-0.014200796787039055
7.824,-0.014199690922064493
7.828,-0.01419990728695082
7.832,-0.014206422274083566
7.836,-0.014205652976709959
7.84,-0.014194161597191682
7.844,-0.014195844435196451
7.848,-0.014196445448769583
7.852,-0.014192070069957185
7.856,-0.01419214219158596
7.86,-0.014194233718820459
7.864,-0.014197190705600266
7.868,-0.014195267462166244
7.872,-0.014188223583089143
7.876,-0.014197599394829995
7.88,-0.014197070502885639
7.884,-0.014192623002444466
7.888,-0.014194185637734608
7.892,-0.014196349286597881
7.896,-0.014203801854904713
7.9,-0.014202720030473076
7.904,-0.014199714962607418
7.908,-0.01420031597618055
7.912,-0.014197238786686116
7.916,-0.014198969705776734
7.92,-0.01420625399028309
7.924,-0.014200027489665448
7.928,-0.01419747919211537
7.932,-0.014196108881168628
7.936,-0.01419670989474176
7.94,-0.014194762610764813
7.944,-0.014193728867419028
7.948,-0.014197431111029519
7.952,-0.01419767151645877
7.956,-0.014198729300347483
7.96,-0.014202984476445255
7.964,-0.014197190705600266
7.968,-0.014192118151043036
7.972,-0.014198849503062109
7.976,-0.014200556381609802
7.98,-0.014196854137999312
7.984,-0.01419219027267181
7.988,-0.014197310908314891
7.992,-0.01419899374631966
7.996,-0.014191901786156707
8.0,-0.014185218515223485
8.004,-0.014189209245349079
8.008000000000001,-0.014198633138175782
8.012,-0.014194113516105831
8.016,-0.014189233285892004
8.02,-0.014191877745613783
8.024000000000001,-0.014194954935108216
8.028,-0.014193584624161476
8.032,-0.014195724232481825
8.036,-0.014194257759363383
8.040000000000001,-0.014201998814185319
8.044,-0.01420259982775845
8.048,-0.014201758408756066
8.052,-0.014206686720055744
8.056000000000001,-0.014204883679336349
8.06,-0.014203200841331582
8.064,-0.01419747919211537
8.068,-0.014196469489312507
8.072000000000001,-0.014200484259981027
8.076,-0.01419209411050011
8.08,-0.014193344218732223
8.084,-0.014195652110853049
8.088000000000001,-0.014193151894388821
8.092,-0.014192478759186914
8.096,-0.014195628070310124
8.1,-0.014196830097456387
8.104000000000001,-0.01419488281347944
8.108,-0.014194978975651142
8.112,-0.014191276732040651
8.116,-0.014194402002620935
8.120000000000001,-0.014197118583971489
8.124,-0.0141912286509548
8.128,-0.014194930894565291
8.132,-0.014198368692203603
8.136000000000001,-0.014200724665410279
8.14,-0.014191252691497725
8.144,-0.014192478759186914
8.148,-0.01419752727320122
8.152000000000001,-0.014191829664527932
8.156,-0.014189113083177378
8.16,-0.014188415907432545
8.164,-0.014196012718996927
8.168000000000001,-0.01419767151645877
8.172,-0.014191445015841127
8.176,-0.014189425610235406
8.18,-0.014191156529326024
8.184000000000001,-0.01419428179990631
8.188,-0.01419158925909868
8.192,-0.014192238353757661
8.196,-0.014195772313567676
8.2,-0.014194185637734608
8.204,-0.0141935125025327
8.208,-0.014195483827052572
8.212,-0.014192214313214737
8.216,-0.01419214219158596
8.22,-0.014200916989753681
8.224,-0.01419771959754462
8.228,-0.014191204610411874
8.232,-0.0141957001919389
8.236,-0.014194522205335562
8.24,-0.014189738137293434
8.244,-0.014191517137469904
8.248,-0.01419310381330297
8.252,-0.014191517137469904
8.256,-0.014191060367154323
8.26,-0.014194137556648757
8.264,-0.014196349286597881
8.268,-0.01419382502959073
8.272,-0.014194978975651142
8.276,-0.014194161597191682
8.28,-0.014192767245702018
8.284,-0.014194978975651142
8.288,-0.014198969705776734
8.292,-0.014195844435196451
8.296,-0.014192430678101064
8.3,-0.014198512935461155
8.304,-0.014202167097985795
8.308,-0.014200123651837147
8.312,-0.014195483827052572
8.316,-0.014198056165145575
8.32,-0.014200508300523952
8.324,-0.014204691354992948
8.328,-0.014203200841331582
8.332,-0.014199041827405511
8.336,-0.014198128286774352
8.34,-0.014198056165145575
8.344,-0.014195363624337945
8.348,-0.014194930894565291
8.352,-0.014194402002620935
8.356,-0.014200195773465924
8.36,-0.014198296570574828
8.364,-0.014189209245349079
8.368,-0.014189137123720302
8.372,-0.01419392119176243
8.376,-0.014189497731864181
8.38,-0.014189521772407107
8.384,-0.014194810691850664
8.388,-0.01419483473239359
8.392,-0.014195988678454003
8.396,-0.014194089475562907
8.4,-0.014191252691497725
8.404,-0.014198320611117752
8.408,-0.01419935435446354
8.412,-0.01419488281347944
8.416,-0.014195868475739375
8.42,-0.014195507867595497
8.424,-0.014194498164792636
8.428,-0.014194522205335562
8.432,-0.014192743205159092
8.436,-0.014196998381256863
8.44,-0.014195315543252094
8.444,-0.014189185204806153
8.448,-0.014194810691850664
8.452,-0.014194810691850664
8.456,-0.014188391866889619
8.46,-0.0141935125025327
8.464,-0.014193416340361
8.468,-0.014186829231599477
8.472,-0.014195844435196451
8.476,-0.014194690489136038
8.48,-0.014190819961725071
8.484,-0.01418944965077833
8.488,-0.014188415907432545
8.492,-0.01418747832625846
8.496,-0.014188271664174993
8.5,-0.01418661286671315
8.504,-0.014191757542899155
8.508000000000001,-0.01418651670454145
8.512,-0.014184160731334773
8.516,-0.014186853272142402
8.52,-0.014188560150690097
8.524000000000001,-0.014186132055854644
8.528,-0.014190627637381669
8.532,-0.01419899374631966
8.536,-0.014198368692203603
8.540000000000001,-0.014191060367154323
8.544,-0.014186949434314103
8.548,-0.014192839367330793
8.552,-0.014195531908138423
8.556000000000001,-0.014194113516105831
8.56,-0.014192959570045419
8.564,-0.014194426043163861
8.568,-0.014195868475739375
8.572000000000001,-0.014196229083883256
8.576,-0.014196349286597881
8.58,-0.01419214219158596
8.584,-0.014196421408226658
8.588000000000001,-0.014200532341066878
8.592,-0.014194522205335562
8.596,-0.01419118056986895
8.6,-0.014187550447887234
8.604000000000001,-0.014181660514870546
8.608,-0.014192070069957185
8.612,-0.014196084840625704
8.616,-0.014191396934755277
8.620000000000001,-0.01419382502959073
8.624,-0.014191300772583576
8.628,-0.014192310475386436
8.632,-0.014189185204806153
8.636000000000001,-0.014189473691321257
8.64,-0.014193680786333178
8.644,-0.014193392299818074
8.648,-0.014194113516105831
8.652000000000001,-0.01419259896190154
8.656,-0.014196373327140807
8.66,-0.014192478759186914
8.664,-0.014187814893859414
8.668000000000001,-0.014192070069957185
8.672,-0.014191204610411874
8.676,-0.014192574921358616
8.68,-0.014190194907609014
8.684000000000001,-0.014182574055501706
8.688,-0.014190098745437313
8.692,-0.014195844435196451
8.696,-0.014194666448593112
8.700000000000001,-0.01418971409675051
8.704,-0.014193320178189299
8.708,-0.01419488281347944
8.712,-0.014193296137646373
8.716,-0.014186588826170224
8.72,-0.014188175502003292
8.724,-0.014198753340890408
8.728,-0.014191541178012829
8.732,-0.014186540745084374
8.736,-0.01418803125874574
8.74,-0.014190819961725071
8.744,-0.014188824596662274
8.748,-0.014191733502356231
8.752,-0.014194041394477056
8.756,-0.014193320178189299
8.76,-0.014190339150866565
8.764,-0.014193440380903925
8.768,-0.014191324813126502
8.772,-0.01418661286671315
8.776,-0.014188271664174993
8.78,-0.014187454285715533
8.784,-0.014180963339125713
8.788,-0.014185867609882467
8.792,-0.014189978542722687
8.796,-0.014184737704364979
8.8,-0.014180458487724283
8.804,-0.01418240577170123
8.808,-0.014185579123367363
8.812,-0.014188223583089143
8.816,-0.014190339150866565
8.82,-0.014185915690968318
8.824,-0.014184593461107427
8.828,-0.014185218515223485
8.832,-0.01418843994797547
8.836,-0.014192238353757661
8.84,-0.014191300772583576
8.844,-0.014189473691321257
8.848,-0.014198681219261633
8.852,-0.014197767678630471
8.856,-0.014188632272318872
8.86,-0.01417875160917659
8.864,-0.01418798317765989
8.868,-0.014188920758833976
8.872,-0.014191949867242558
8.876,-0.014188367826346695
8.88,-0.014190699759010444
8.884,-0.01419158925909868
8.888,-0.01418798317765989
8.892,-0.014185987812597093
8.896,-0.014190026623808537
8.9,-0.01418630033965512
8.904,-0.014191829664527932
8.908,-0.014192767245702018
8.912,-0.014191084407697249
8.916,-0.014189738137293434
8.92,-0.014191517137469904
8.924,-0.014190146826523163
8.928,-0.014184617501650353
8.932,-0.014185507001738588
8.936,-0.01418757448843016
8.94,-0.01418341547450409
8.944,-0.014186901353228252
8.948,-0.014187502366801384
8.952,-0.014185651244996138
8.956,-0.014187430245172609
8.96,-0.014183102947446062
8.964,-0.014182381731158303
8.968,-0.01418341547450409
8.972,-0.01418478578545083
8.976,-0.014182525974415855
8.98,-0.014192430678101064
8.984,-0.014188175502003292
8.988,-0.014187334083000908
8.992,-0.014188608231775948
8.996,-0.014188223583089143
9.0,-0.014190579556295818
9.004,-0.014193464421446849
9.008000000000001,-0.01418985834000806
9.012,-0.014186684988341925
9.016,-0.014186372461283897
9.02,-0.014192262394300586
9.024000000000001,-0.014187502366801384
9.028,-0.01419392119176243
9.032,-0.014181372028355442
9.036,-0.01417300591941745
9.040000000000001,-0.01418478578545083
9.044,-0.014184304974592325
9.048,-0.01418529063685226
9.052,-0.01418605993422587
9.056000000000001,-0.014184641542193278
9.06,-0.014183175069074837
9.064,-0.0141821894068149
9.068,-0.014182045163557349
9.072000000000001,-0.01418122778509789
9.076,-0.014181275866183741
9.08,-0.014178126555060531
9.084,-0.014180626771524759
9.088000000000001,-0.014187694691144786
9.092,-0.014189834299465135
9.096,-0.014184497298935726
9.1,-0.014184905988165457
9.104000000000001,-0.014179881514694076
9.108,-0.014178727568633663
9.112,-0.014185482961195662
9.116,-0.014183679920476268
9.120000000000001,-0.014184184771877698
9.124,-0.014185170434137634
9.128,-0.014191420975298203
9.132,-0.014188079339831591
9.136000000000001,-0.014186035893682943
9.14,-0.014188103380374515
9.144,-0.014187189839743356
9.148,-0.014186588826170224
9.152000000000001,-0.014186877312685328
9.156,-0.014186372461283897
9.16,-0.014186276299112196
9.164,-0.014186540745084374
9.168000000000001,-0.014187141758657505
9.172,-0.014190555515752892
9.176,-0.014190988245525548
9.18,-0.014188103380374515
9.184000000000001,-0.014186901353228252
9.188,-0.014194474124249712
9.192,-0.014188175502003292
9.196,-0.014185458920652738
9.200000000000001,-0.014188704393947647
9.204,-0.014182718298759257
9.208,-0.014182934663645584
9.212,-0.01418843994797547
9.216000000000001,-0.014183247190703612
9.22,-0.014180939298582787
9.224,-0.014186132055854644
9.228,-0.01418630033965512
9.232,-0.014185170434137634
9.236,-0.014186468623455599
9.24,-0.014183655879933343
9.244,-0.014189209245349079
9.248,-0.0141936086647044
9.252,-0.014193752907961953
9.256,-0.014189497731864181
9.26,-0.014191300772583576
9.264,-0.014190074704894388
9.268,-0.014183583758304566
9.272,-0.014190146826523163
9.276,-0.01418843994797547
9.28,-0.014189233285892004
9.284,-0.014192070069957185
9.288,-0.014189569853492958
9.292,-0.014191781583442082
9.296,-0.014192262394300586
9.3,-0.014190050664351462
9.304,-0.014187790853316487
9.308,-0.014186925393771178
9.312,-0.014186588826170224
9.316,-0.014191300772583576
9.32,-0.01418843994797547
9.324,-0.014189065002091527
9.328,-0.01419259896190154
9.332,-0.014184857907079606
9.336,-0.01418529063685226
9.34,-0.014191060367154323
9.344,-0.01418803125874574
9.348,-0.014177741906373728
9.352,-0.014188055299288665
9.356,-0.014186588826170224
9.36,-0.014179496866007273
9.364,-0.014179568987636048
9.368,-0.014185362758481037
9.372,-0.01418392032590552
9.376,-0.014185531042281513
9.38,-0.014180819095868161
9.384,-0.014185098312508857
9.388,-0.01418661286671315
9.392,-0.014182069204100275
9.396,-0.014180434447181357
9.4,-0.014181828798671022
9.404,-0.014186660947799001
9.408,-0.01418711771811458
9.412,-0.01418250193387293
9.416,-0.0141820932446432
9.42,-0.014181444149984217
9.424,-0.0141775255414874
9.428,-0.014185891650425391
9.432,-0.014180939298582787
9.436,-0.014169471959607436
9.44,-0.01417391946004861
9.444,-0.014182069204100275
9.448,-0.01418651670454145
9.452,-0.014184930028708381
9.456,-0.014183631839390417
9.46,-0.014181420109441293
9.464,-0.014181011420211564
9.468,-0.01418163647432762
9.472,-0.01418478578545083
9.476,-0.014187622569516011
9.48,-0.014185963772054168
9.484,-0.014186372461283897
9.488,-0.014189593894035882
9.492,-0.014188824596662274
9.496,-0.014186468623455599
9.5,-0.01418848802906132
9.504,-0.014184857907079606
9.508000000000001,-0.01418341547450409
9.512,-0.014182117285186126
9.516,-0.01418214132572905
9.52,-0.01419300765113127
9.524000000000001,-0.014187718731687712
9.528,-0.014184473258392801
9.532,-0.014190098745437313
9.536,-0.014183054866360211
9.540000000000001,-0.014182862542016809
9.544,-0.014185122353051784
9.548,-0.014186396501826822
9.552,-0.014183126987988987
9.556000000000001,-0.014182213447357827
9.56,-0.014182525974415855
9.564,-0.014183295271789463
9.568,-0.01418240577170123
9.572000000000001,-0.014185266596309335
9.576,-0.014186348420740971
9.58,-0.014182814460930959
9.584,-0.01418478578545083
9.588000000000001,-0.014188343785803768
9.592,-0.014184737704364979
9.596,-0.014187550447887234
9.6,-0.014186444582912672
9.604000000000001,-0.014182838501473883
9.608,-0.014186973474857029
9.612,-0.014184184771877698
9.616,-0.014180458487724283
9.620000000000001,-0.014182213447357827
9.624,-0.014185026190880082
9.628,-0.014185987812597093
9.632,-0.014188824596662274
9.636000000000001,-0.014188560150690097
9.64,-0.014196036759539853
9.644,-0.014197911921888023
9.648,-0.014193752907961953
9.652000000000001,-0.014192382597015213
9.656,-0.014196998381256863
9.66,-0.014191541178012829
9.664,-0.014189329448063705
9.668000000000001,-0.014196445448769583
9.672,-0.014199498597721091
9.676,-0.01419844081383238
9.68,-0.01419670989474176
9.684000000000001,-0.014193584624161476
9.688,-0.014191469056384054
9.692,-0.014188632272318872
9.696,-0.014190868042810922
9.700000000000001,-0.014190435313038267
9.704,-0.014188728434490573
9.708,-0.014191348853669426
9.712,-0.014194353921535084
9.716000000000001,-0.014190868042810922
9.72,-0.014183223150160688
9.724,-0.014184689623279128
9.728,-0.014184713663822054
9.732,-0.014186853272142402
9.736,-0.014193151894388821
9.74,-0.014185771447710766
9.744,-0.01416930367580696
9.748,-0.014176587960313316
9.752,-0.014174953203394397
9.756,-0.014184232852963548
9.76,-0.01417935262274972
9.764,-0.014179184338949243
9.768,-0.014185651244996138
9.772,-0.014183535677218716
9.776,-0.014181516271612994
9.78,-0.014183175069074837
9.784,-0.014184497298935726
9.788,-0.014183175069074837
9.792,-0.01418194900138565
9.796,-0.014179136257863392
9.8,-0.014182309609529528
9.804,-0.014180963339125713
9.808,-0.014177597663116177
9.812,-0.014175794622396782
9.816,-0.014178366960489784
9.82,-0.014180650812067685
9.824,-0.01417610714945481
9.828,-0.014181299906726667
9.832,-0.014184232852963548
9.836,-0.014181372028355442
9.84,-0.014179400703835571
9.844,-0.014182838501473883
9.848,-0.014178366960489784
9.852,-0.014176395635969914
9.856,-0.014174953203394397
9.86,-0.014175434014252902
9.864,-0.014173558851904732
9.868,-0.014173270365389628
9.872,-0.014174207946563714
9.876,-0.014176996649543045
9.88,-0.014176996649543045
9.884,-0.01417432814927834
9.888,-0.014171900054442889
9.892,-0.014173342487018405
9.896,-0.014178366960489784
9.9,-0.014180867176954012
9.904,-0.014178174636146382
9.908,-0.014178607365919037
9.912,-0.014176900487371344
9.916,-0.014179568987636048
9.92,-0.01418240577170123
9.924,-0.01417747746040155
9.928,-0.014179665149807749
9.932,-0.014175434014252902
9.936,-0.014173630973533507
9.94,-0.01417072206783955
9.944,-0.014173606932990582
9.948,-0.014176636041399165
9.952,-0.014173438649190106
9.956,-0.014172645311273572
9.96,-0.014177164933343521
9.964,-0.01418341547450409
9.968,-0.014176948568457194
9.972,-0.014176131189997734
9.976,-0.01417240490584432
9.98,-0.014172428946387244
9.984,-0.01417473683850807
9.988,-0.014172981878874526
9.992,-0.014171130757069281
9.996,-0.014179160298406318
10.0,-0.014171707730099486
10.004,-0.014173078041046226
10.008000000000001,-0.014173799257333985
10.012,-0.014172428946387244
10.016,-0.014171635608470711
10.02,-0.014171755811185337
10.024000000000001,-0.014167957405403145
10.028,-0.014169856608294241
10.032,-0.014167644878345117
10.036,-0.014172717432902347
10.040000000000001,-0.01417204429770044
10.044,-0.014167500635087565
10.048,-0.01417158752738486
10.052,-0.01417300591941745
10.056000000000001,-0.014174712797965144
10.06,-0.014172188540957992
10.064,-0.01416930367580696
10.068,-0.014166034161969125
10.072000000000001,-0.014168822864948454
10.076,-0.014164856175365786
10.08,-0.014170649946210775
10.084,-0.014169399837978661
10.088000000000001,-0.014169568121779138
10.092,-0.014175409973709977
10.096,-0.014169471959607436
10.1,-0.014165937999797424
10.104000000000001,-0.01417245298693017
10.108,-0.014169904689380092
10.112,-0.014168029527031922
10.116,-0.014168029527031922
10.120000000000001,-0.014172428946387244
10.124,-0.014175409973709977
10.128,-0.014175025325023172
10.132,-0.014175121487194874
10.136000000000001,-0.014171275000326831
10.14,-0.01417483300067977
10.144,-0.014176395635969914
10.148,-0.01417149136521316
10.152000000000001,-0.014171347121955608
10.156,-0.014168702662233829
10.16,-0.014178679487547812
10.164,-0.01417848716320441
10.168000000000001,-0.014179953636322852
10.172,-0.014176491798141615
10.176,-0.014174568554707593
10.18,-0.014171130757069281
10.184000000000001,-0.014172477027473094
10.188,-0.014171202878698056
10.192,-0.014171515405756084
10.196,-0.01417387137896276
10.200000000000001,-0.014168943067663082
10.204,-0.01416793336486022
10.208,-0.014172765513988198
10.212,-0.014177333217143998
10.216000000000001,-0.014181780717585172
10.22,-0.014168005486488996
10.224,-0.014169399837978661
10.228,-0.014170241256981046
10.232000000000001,-0.014162187675101082
10.236,-0.014169447919064512
10.24,-0.014168678621690904
10.244,-0.01416418304016388
10.248,-0.014166274567398378
10.252,-0.014164976378080413
10.256,-0.014159374931578827
10.26,-0.014167789121602669
10.264,-0.014164471526678983
10.268,-0.014166514972827629
10.272,-0.014164495567221908
10.276,-0.014166298607941302
10.28,-0.014165529310567694
10.284,-0.014162692526502513
10.288,-0.014164976378080413
10.292,-0.014160264431667062
10.296,-0.014163870513105851
10.3,-0.014165096580795039
10.304,-0.014165264864595515
10.308,-0.014170145094809345
10.312,-0.014170048932637644
10.316,-0.014170385500238598
10.32,-0.014171563486841935
10.324,-0.014166034161969125
10.328,-0.014168582459519203
10.332,-0.014165529310567694
10.336,-0.014168510337890426
10.34,-0.014169928729923018
10.344,-0.014166418810655928
10.348,-0.014170072973180568
10.352,-0.014171972176071664
10.356,-0.014169544081236213
10.36,-0.014165457188938918
10.364,-0.01416514466188089
10.368,-0.01416322141844687
10.372,-0.014165769715996947
10.376,-0.014163029094103467
10.38,-0.014165240824052591
10.384,-0.014165385067310143
10.388,-0.01416062503981094
10.392,-0.014165625472739396
10.396,-0.014159783620808556
10.4,-0.014164423445593132
10.404,-0.01417245298693017
10.408,-0.01416569759436817
10.412,-0.014160360593838763
10.416,-0.014165937999797424
10.42,-0.014163389702247346
10.424,-0.014160288472209986
10.428,-0.014164808094279936
10.432,-0.014159951904609032
10.436,-0.014163173337361019
10.44,-0.014164567688850684
10.444,-0.014162812729217138
10.448,-0.014160745242525566
10.452,-0.0141637262698483
10.456,-0.014162788688674214
10.46,-0.014165577391653545
10.464,-0.014162091512929381
10.468,-0.014159759580265632
10.472,-0.014161418377727475
10.476,-0.014162860810302989
10.48,-0.014165024459166264
10.484,-0.014167236189115388
10.488,-0.014166394770113003
10.492,-0.01416661113499933
10.496,-0.014168366094632874
10.5,-0.014159374931578827
10.504,-0.014170746108382476
10.508000000000001,-0.014167260229658312
10.512,-0.014167861243231444
10.516,-0.01416834205408995
10.52,-0.014161730904785503
10.524000000000001,-0.01416692366205736
10.528,-0.01416468789156531
10.532,-0.014161394337184548
10.536,-0.014165673553825246
10.540000000000001,-0.014163894553648776
10.544,-0.014162812729217138
10.548,-0.014164158999620953
10.552,-0.014166178405226677
10.556000000000001,-0.014166394770113003
10.56,-0.014157692093574058
10.564,-0.01416052887763924
10.568,-0.014161129891212371
10.572000000000001,-0.014163365661704421
10.576,-0.01417122691924098
10.58,-0.01416706790531491
10.584,-0.014163029094103467
10.588000000000001,-0.014167861243231444
10.592,-0.01416605820251205
10.596,-0.014161706864242576
10.6,-0.014159326850492976
10.604000000000001,-0.01415966341809393
10.608,-0.014160264431667062
10.612,-0.014167548716173416
10.616,-0.014167716999973892
10.620000000000001,-0.014166034161969125
10.624,-0.01416665921608518
10.628,-0.01416711598640076
10.632,-0.014165264864595515
10.636000000000001,-0.014167789121602669
10.64,-0.01416783720268852
10.644,-0.014167909324317295
10.648,-0.014163485864419047
10.652000000000001,-0.014160817364154343
10.656,-0.014168462256804576
10.66,-0.014168173770289474
10.664,-0.014163077175189318
10.668000000000001,-0.014169375797435737
10.672,-0.0141706739867537
10.676,-0.014174592595250519
10.68,-0.014166370729570079
10.684000000000001,-0.014158773918005695
10.688,-0.014162019391300606
10.692,-0.014164038796906328
10.696,-0.014158629674748143
10.700000000000001,-0.014161418377727475
10.704,-0.014166827499885659
10.708,-0.014165553351110619
10.712,-0.01416290889138884
10.716000000000001,-0.014169039229834783
10.72,-0.014164375364507282
10.724,-0.014158773918005695
10.728,-0.014163942634734627
10.732000000000001,-0.014164471526678983
10.736,-0.014169039229834783
10.74,-0.01416711598640076
10.744,-0.01416884690549138
10.748000000000001,-0.014168654581147978
10.752,-0.014162884850845915
10.756,-0.014162476161616186
10.76,-0.01416423112124973
10.764,-0.014161827066957204
10.768,-0.014159975945151958
10.772,-0.014158100782803787
10.776,-0.014161514539899176
10.78,-0.014166827499885659
10.784,-0.014165096580795039
10.788,-0.014167260229658312
10.792,-0.014164062837449252
10.796,-0.014163197377903943
10.8,-0.014167668918888042
10.804,-0.014168269932461173
10.808,-0.014169471959607436
10.812,-0.014163822432020001
10.816,-0.014162476161616186
10.82,-0.014167524675630492
10.824,-0.014167140026943687
10.828,-0.014166827499885659
10.832,-0.014162740607588363
10.836,-0.014165457188938918
10.84,-0.014165986080883274
10.844,-0.014164856175365786
10.848,-0.014167091945857836
10.852,-0.014168221851375323
10.856,-0.01416834205408995
10.86,-0.014171443284127309
10.864,-0.014166490932284705
10.868,-0.014168919027120155
10.872,-0.014170000851551793
10.876,-0.014167308310744163
10.88,-0.01416925559472111
10.884,-0.014167861243231444
10.888,-0.014173606932990582
10.892,-0.014168822864948454
10.896,-0.014173438649190106
10.9,-0.014174231987106638
10.904,-0.01416701982422906
10.908,-0.014166346689027153
10.912,-0.01416711598640076
10.916,-0.014162981013017616
10.92,-0.014163341621161495
10.924,-0.014162428080530335
10.928,-0.014161971310214756
10.932,-0.01417336652756133
10.936,-0.01417204429770044
10.94,-0.0141683901351758
10.944,-0.014166346689027153
10.948,-0.014169520040693287
10.952,-0.014171154797612205
10.956,-0.014170866311097102
10.96,-0.014165216783509665
10.964,-0.014168943067663082
10.968,-0.01417072206783955
10.972,-0.014171779851728263
10.976,-0.014166274567398378
10.98,-0.014167644878345117
10.984,-0.01417464067633637
10.988,-0.014174159865477863
10.992,-0.01417560229805338
10.996,-0.014174977243937322
11.0,-0.014172645311273572
11.004,-0.014172068338243365
11.008000000000001,-0.014170072973180568
11.012,-0.014165553351110619
11.016,-0.014170481662410299
11.02,-0.01417098651381173
11.024000000000001,-0.014168318013547024
11.028,-0.014166755378256882
11.032,-0.014165986080883274
11.036,-0.014170072973180568
11.040000000000001,-0.014169832567751317
11.044,-0.01416935175689281
11.048,-0.014171755811185337
11.052,-0.014171395203041458
11.056000000000001,-0.014170000851551793
11.06,-0.014164303242878505
11.064,-0.014167957405403145
11.068,-0.014171515405756084
11.072000000000001,-0.014161418377727475
11.076,-0.014165336986224292
11.08,-0.014172981878874526
11.084,-0.014171106716526355
11.088000000000001,-0.01417098651381173
11.092,-0.014172428946387244
11.096,-0.014167476594544641
11.1,-0.014169544081236213
11.104000000000001,-0.014173751176248134
11.108,-0.014171154797612205
11.112,-0.014168943067663082
11.116,-0.014174977243937322
11.120000000000001,-0.014173606932990582
11.124,-0.014169880648837167
11.128,-0.0141798093930653
11.132,-0.014178655447004888
11.136000000000001,-0.01417432814927834
11.14,-0.014172164500415066
11.144,-0.014165000418623338
11.148,-0.01417108267598343
11.152000000000001,-0.01417464067633637
11.156,-0.014176756244113792
11.16,-0.014179617068721898
11.164,-0.014175001284480248
11.168000000000001,-0.01417016913535227
11.172,-0.01417391946004861
11.176,-0.014172020257157514
11.18,-0.014169423878521586
11.184000000000001,-0.01417016913535227
11.188,-0.014170433581324448
11.192,-0.014167548716173416
11.196,-0.014170962473268803
11.200000000000001,-0.014172597230187722
11.204,-0.014172068338243365
11.208,-0.01417290975724575
11.212,-0.014176876446828418
11.216000000000001,-0.014179208379492169
11.22,-0.014169592162322064
11.224,-0.01416711598640076
11.228,-0.014169231554178185
11.232000000000001,-0.014166034161969125
11.236,-0.014167813162145593
11.24,-0.01416834205408995
11.244,-0.0141683901351758
11.248000000000001,-0.014164711932108234
11.252,-0.014169423878521586
11.256,-0.014167716999973892
11.26,-0.014163870513105851
11.264,-0.014169664283950839
11.268,-0.014169159432549408
11.272,-0.014169976811008868
11.276,-0.014169544081236213
11.28,-0.014169976811008868
11.284,-0.014168991148748932
11.288,-0.014167308310744163
11.292,-0.014173534811361807
11.296,-0.014174039662763238
11.3,-0.01417199621661459
11.304,-0.01417569846022508
11.308,-0.014178583325376111
11.312,-0.01417026529752397
11.316,-0.014165673553825246
11.32,-0.014175746541310931
11.324,-0.014170962473268803
11.328,-0.01416980852720839
11.332,-0.014170145094809345
11.336,-0.01416875074331968
11.34,-0.014172260662586767
11.344,-0.014172020257157514
11.348,-0.01417103459489758
11.352,-0.014169904689380092
11.356,-0.01416930367580696
11.36,-0.014174712797965144
11.364,-0.01417488108176562
11.368,-0.014168582459519203
11.372,-0.014168582459519203
11.376,-0.014170866311097102
11.38,-0.014170241256981046
11.384,-0.014171851973357038
11.388,-0.014171683689556562
11.392,-0.01416290889138884
11.396,-0.014164976378080413
11.4,-0.014172164500415066
11.404,-0.014174159865477863
11.408,-0.01417300591941745
11.412,-0.014172308743672618
11.416,-0.014171395203041458
11.42,-0.014166370729570079
11.424,-0.014163341621161495
11.428,-0.01416742851345879
11.432,-0.014167140026943687
11.436,-0.01416976044612254
11.44,-0.014172477027473094
11.444,-0.014171924094985813
11.448,-0.01416687558097151
11.452,-0.014169111351463558
11.456,-0.014169640243407914
11.46,-0.014170193175895195
11.464,-0.01417488108176562
11.468,-0.014177140892800597
11.472,-0.014174352189821266
11.476,-0.0141751455277378
11.48,-0.014170505702953223
11.484,-0.014167861243231444
11.488,-0.014173029959960375
11.492,-0.01417702069008597
11.496,-0.014175289770995352
11.5,-0.01417488108176562
11.504,-0.014168486297347502
11.508000000000001,-0.0141683901351758
11.512,-0.014172020257157514
11.516,-0.014173222284303778
11.52,-0.014173390568104256
11.524000000000001,-0.01417240490584432
11.528,-0.014169159432549408
11.532,-0.014170698027296626
11.536,-0.01417300591941745
11.540000000000001,-0.014174256027649565
11.544,-0.014181540312155919
11.548,-0.014173847338419835
11.552,-0.014172020257157514
11.556000000000001,-0.014183223150160688
11.56,-0.014180338285009655
11.564,-0.01416971236503669
11.568,-0.01417935262274972
11.572000000000001,-0.014177285136058147
11.576,-0.014176371595426987
11.58,-0.014176131189997734
11.584,-0.014183391433961164
11.588000000000001,-0.014183151028531913
11.592,-0.014175722500768005
11.596,-0.01417610714945481
11.6,-0.014178895852434141
11.604000000000001,-0.014181900920299799
11.608,-0.014184905988165457
11.612,-0.014184954069251307
11.616,-0.014181275866183741
11.620000000000001,-0.014182742339302182
11.624,-0.014188007218202816
11.628,-0.014191901786156707
11.632,-0.014188752475033498
11.636000000000001,-0.01418661286671315
11.64,-0.014185026190880082
11.644,-0.014187911056031115
11.648,-0.01418803125874574
11.652000000000001,-0.014186757109970702
11.656,-0.01418944965077833
11.66,-0.014184256893506475
11.664,-0.014184449217849875
11.668000000000001,-0.014189834299465135
11.672,-0.014185146393594708
11.676,-0.014183968406991371
11.68,-0.014180386366095506
11.684000000000001,-0.014179857474151151
11.688,-0.014181155663469116
11.692,-0.01418341547450409
11.696,-0.014183078906903136
11.700000000000001,-0.014181900920299799
11.704,-0.014179929595779926
11.708,-0.01417829483886101
11.712,-0.0141821894068149
11.716000000000001,-0.014180867176954012
11.72,-0.014180001717408703
11.724,-0.014176299473798212
11.728,-0.014175241689909501
11.732000000000001,-0.014181083541840339
11.736,-0.014180362325552582
11.74,-0.014179160298406318
11.744,-0.014176876446828418
11.748000000000001,-0.014175001284480248
11.752,-0.014179953636322852
11.756,-0.014180867176954012
11.76,-0.01417656391977039
11.764000000000001,-0.014176131189997734
11.768,-0.01418077101478231
11.772,-0.014180819095868161
11.776,-0.014178222717232233
11.78,-0.014180843136411086
11.784,-0.01418803125874574
11.788,-0.014183126987988987
11.792,-0.014181323947269592
11.796,-0.014182550014958781
11.8,-0.014177381298229848
11.804,-0.014176395635969914
11.808,-0.014178174636146382
11.812,-0.014178246757775159
11.816,-0.014179737271436524
11.82,-0.014181396068898369
11.824,-0.01418533871793811
11.828,-0.014181900920299799
11.832,-0.014180242122837954
11.836,-0.014178775649719514
11.84,-0.01417848716320441
11.844,-0.014180434447181357
11.848,-0.014180362325552582
11.852,-0.014181612433784695
11.856,-0.014180554649895984
11.86,-0.014182622136587556
11.864,-0.014182165366271976
11.868,-0.014181732636499321
11.872,-0.014179520906550197
11.876,-0.014173967541134461
11.88,-0.014170842270554177
11.884,-0.014178919892977065
11.888,-0.014185699326081989
11.892,-0.014181275866183741
11.896,-0.014176924527914268
11.9,-0.01418017000120918
11.904,-0.014176323514341137
11.908,-0.014176852406285493
11.912,-0.014176491798141615
11.916,-0.014171779851728263
11.92,-0.014171900054442889
11.924,-0.014176443717055764
11.928,-0.01417509744665195
11.932,-0.014178607365919037
11.936,-0.014180025757951627
11.94,-0.014176083108911884
11.944,-0.014171707730099486
11.948,-0.014175770581853856
11.952,-0.01417843908211856
11.956,-0.014175049365566099
11.96,-0.014169592162322064
11.964,-0.014175121487194874
11.968,-0.014171707730099486
11.972,-0.014168510337890426
11.976,-0.014175482095338752
11.98,-0.014178967974062916
11.984,-0.014178727568633663
11.988,-0.014176395635969914
11.992,-0.014178919892977065
11.996,-0.014183439515047015
12.0,-0.0141821894068149
12.004,-0.014178775649719514
12.008000000000001,-0.014178246757775159
12.012,-0.014180458487724283
12.016,-0.014179737271436524
12.02,-0.014176900487371344
12.024000000000001,-0.014177862109088354
12.028,-0.014174039662763238
12.032,-0.014172428946387244
12.036,-0.014172837635616975
12.040000000000001,-0.014175434014252902
12.044,-0.014172525108558945
12.048,-0.014175265730452425
12.052,-0.014177862109088354
12.056000000000001,-0.014175049365566099
12.06,-0.014176924527914268
12.064,-0.014173126122132076
12.068,-0.014167476594544641
12.072000000000001,-0.014178511203747336
12.076,-0.014179881514694076
12.08,-0.014177549582030326
12.084,-0.014174472392535891
12.088000000000001,-0.014176684122485015
12.092,-0.014181924960842723
12.096,-0.014176395635969914
12.1,-0.014169159432549408
12.104000000000001,-0.01417519360882365
12.108,-0.014174400270907116
12.112,-0.014173246324846704
12.116,-0.014176684122485015
12.120000000000001,-0.014172885716702825
12.124,-0.0141729578383316
12.128,-0.01417290975724575
12.132,-0.014175770581853856
12.136000000000001,-0.014177789987459579
12.14,-0.014176491798141615
12.144,-0.014170481662410299
12.148,-0.01417341460864718
12.152000000000001,-0.014176587960313316
12.156,-0.014175938865654334
12.16,-0.014178126555060531
12.164,-0.014176996649543045
12.168000000000001,-0.014180338285009655
12.172,-0.014180025757951627
12.176,-0.014180698893153536
12.18,-0.014176371595426987
12.184000000000001,-0.01417488108176562
12.188,-0.014178607365919037
12.192,-0.014177237054972296
12.196,-0.014174953203394397
12.200000000000001,-0.014178775649719514
12.204,-0.014177669784744952
12.208,-0.014179448784921422
12.212,-0.014179905555237002
12.216000000000001,-0.014180001717408703
12.22,-0.014174520473621742
12.224,-0.014175674419682155
12.228,-0.01417569846022508
12.232000000000001,-0.01417336652756133
12.236,-0.014172933797788676
12.24,-0.014177838068545428
12.244,-0.014180001717408703
12.248000000000001,-0.014181852839213948
12.252,-0.014185699326081989
12.256,-0.014176275433255286
12.26,-0.014173390568104256
12.264000000000001,-0.014175073406109023
12.268,-0.014176708163027942
12.272,-0.014173510770818881
12.276,-0.014176948568457194
12.280000000000001,-0.014178366960489784
12.284,-0.014177381298229848
12.288,-0.014175578257510453
12.292,-0.014176876446828418
12.296,-0.01417747746040155
12.3,-0.014175722500768005
12.304,-0.014177237054972296
12.308,-0.014176876446828418
12.312,-0.014177237054972296
12.316,-0.014180338285009655
12.32,-0.014177405338772774
12.324,-0.014172236622043843
12.328,-0.014176491798141615
12.332,-0.014180097879580404
12.336,-0.014178607365919037
12.34,-0.014173486730275957
12.344,-0.014172981878874526
12.348,-0.014185266596309335
12.352,-0.014179689190350673
12.356,-0.014180001717408703
12.36,-0.014180602730981835
12.364,-0.014178583325376111
12.368,-0.014178679487547812
12.372,-0.014179400703835571
12.376,-0.014181516271612994
12.38,-0.014182333650072453
12.384,-0.014181852839213948
12.388,-0.01417488108176562
12.392,-0.01417468875742222
12.396,-0.0141798093930653
12.4,-0.014176443717055764
12.404,-0.014173751176248134
12.408,-0.014176131189997734
12.412,-0.014172669351816497
12.416,-0.014172741473445273
12.42,-0.014180891217496936
12.424,-0.01416875074331968
12.428,-0.014169856608294241
12.432,-0.014174015622220312
12.436,-0.014172020257157514
12.44,-0.014170649946210775
12.444,-0.014170024892094717
12.448,-0.014174496433078818
12.452,-0.014178198676689308
12.456,-0.014176996649543045
12.46,-0.014177429379315699
12.464,-0.014166010121426199
12.468,-0.014167043864771986
12.472,-0.014175121487194874
12.476,-0.014183295271789463
12.48,-0.014176636041399165
12.484,-0.014169231554178185
12.488,-0.014168149729746548
12.492,-0.014164952337537487
12.496,-0.014161370296641624
12.5,-0.014167500635087565
12.504,-0.014169928729923018
12.508000000000001,-0.014163245458989794
12.512,-0.014162572323787887
12.516,-0.01416711598640076
12.52,-0.014170385500238598
12.524000000000001,-0.014168822864948454
12.528,-0.014164784053737011
12.532,-0.014169063270377707
12.536,-0.01416976044612254
12.540000000000001,-0.014167043864771986
12.544,-0.01417026529752397
12.548,-0.014166803459342733
12.552,-0.014167741040516818
12.556000000000001,-0.014165216783509665
12.56,-0.014166250526855452
12.564,-0.014171443284127309
12.568,-0.014178102514517607
12.572000000000001,-0.014172332784215544
12.576,-0.014172765513988198
12.58,-0.014169375797435737
12.584,-0.014163798391477075
12.588000000000001,-0.014165865878168647
12.592,-0.014169279635264036
12.596,-0.01416738043237294
12.6,-0.014166274567398378
12.604000000000001,-0.014165889918711573
12.608,-0.01416711598640076
12.612,-0.014166827499885659
12.616,-0.01416788528377437
12.620000000000001,-0.014169568121779138
12.624,-0.014171130757069281
12.628,-0.014169231554178185
12.632,-0.014168125689203623
12.636000000000001,-0.01416656305391348
12.64,-0.014167548716173416
12.644,-0.014164760013194085
12.648,-0.014170024892094717
12.652000000000001,-0.014172717432902347
12.656,-0.014168726702776755
12.66,-0.014164471526678983
12.664,-0.01416793336486022
12.668000000000001,-0.014169616202864988
12.672,-0.01416834205408995
12.676,-0.014170072973180568
12.68,-0.014170409540781522
12.684000000000001,-0.014168245891918249
12.688,-0.014164471526678983
12.692,-0.01416326949953272
12.696,-0.014168654581147978
12.700000000000001,-0.014166178405226677
12.704,-0.014165336986224292
12.708,-0.0141615385804421
12.712,-0.014167668918888042
12.716000000000001,-0.014173342487018405
12.72,-0.014163822432020001
12.724,-0.014162668485959588
12.728,-0.014164543648307758
12.732000000000001,-0.014168053567574846
12.736,-0.014169952770465942
12.74,-0.014171395203041458
12.744,-0.014169880648837167
12.748000000000001,-0.014171202878698056
12.752,-0.01416706790531491
12.756,-0.01416569759436817
12.76,-0.014164351323964356
12.764000000000001,-0.014164158999620953
12.768,-0.01416418304016388
12.772,-0.014167668918888042
12.776,-0.014163149296818093
12.780000000000001,-0.014170842270554177
12.784,-0.014165865878168647
12.788,-0.014164447486136057
12.792,-0.014161274134469923
12.796000000000001,-0.014160865445240194
12.8,-0.014166442851198854
12.804,-0.014167500635087565
12.808,-0.014164784053737011
12.812,-0.014167356391830014
12.816,-0.014167140026943687
12.82,-0.014165457188938918
12.824,-0.01416250020215911
12.828,-0.014164423445593132
12.832,-0.014163654148219523
12.836,-0.014166274567398378
12.84,-0.014167548716173416
12.844,-0.014160144228952435
12.848,-0.014162259796729857
12.852,-0.014162620404873738
12.856,-0.014160360593838763
12.86,-0.01416007210732366
12.864,-0.014165361026767216
12.868,-0.014169207513635259
12.872,-0.014168438216261651
12.876,-0.014158533512576442
12.88,-0.014158653715291068
12.884,-0.014161851107500128
12.888,-0.014164014756363402
12.892,-0.014163509904961971
12.896,-0.014163053134646391
12.9,-0.014163533945504897
12.904,-0.014164303242878505
12.908,-0.01416733235128709
12.912,-0.01416418304016388
12.916,-0.014166346689027153
12.92,-0.014164663851022384
12.924,-0.01416742851345879
12.928,-0.014168894986577231
12.932,-0.01416605820251205
12.936,-0.01417194813552874
12.94,-0.014165553351110619
12.944,-0.014159374931578827
12.948,-0.014170962473268803
12.952,-0.014175361892624127
12.956,-0.014171563486841935
12.96,-0.014167260229658312
12.964,-0.014163606067133672
12.968,-0.014166346689027153
12.972,-0.014165625472739396
12.976,-0.014160336553295837
12.98,-0.014161009688497744
12.984,-0.014163029094103467
12.988,-0.01415966341809393
12.992,-0.014163822432020001
12.996,-0.014163389702247346
13.0,-0.014159951904609032
13.004,-0.014159519174836379
13.008000000000001,-0.014171900054442889
13.012,-0.014167981445946071
13.016,-0.014161658783156726
13.02,-0.01416245212107326
13.024000000000001,-0.014167476594544641
13.028,-0.01416290889138884
13.032,-0.014162884850845915
13.036,-0.014166755378256882
13.040000000000001,-0.01415793249900331
13.044,-0.01415545632308201
13.048,-0.014160312512752913
13.052,-0.01415834118823304
13.056000000000001,-0.01415523995819568
13.06,-0.014158220985518414
13.064,-0.014158317147690115
13.068,-0.014156778552942898
13.072000000000001,-0.014155768850140037
13.076,-0.014154662985165475
13.08,-0.014155840971768812
13.084,-0.014158413309861817
13.088000000000001,-0.014157283404344329
13.092,-0.014154518741907924
13.096,-0.014156898755657524
13.1,-0.014168414175718725
13.104000000000001,-0.014160697161439716
13.108,-0.014154566822993774
13.112,-0.014163365661704421
13.116,-0.014159543215379303
13.120000000000001,-0.014155937133940514
13.124,-0.014158124823346713
13.128,-0.014159543215379303
13.132,-0.014159927864066108
13.136000000000001,-0.014159903823523182
13.14,-0.014157211282715553
13.144,-0.014155360160910308
13.148,-0.014161803026414278
13.152000000000001,-0.014161226053384072
13.156,-0.014161875148043054
13.16,-0.014159447053207602
13.164,-0.014157018958372151
13.168000000000001,-0.014165096580795039
13.172,-0.014161202012841146
13.176,-0.01415961533700808
13.18,-0.014157259363801404
13.184000000000001,-0.014161803026414278
13.188,-0.01416346182387612
13.192,-0.01416204343184353
13.196,-0.014163173337361019
13.200000000000001,-0.014165312945681366
13.204,-0.014165889918711573
13.208,-0.014161971310214756
13.212,-0.014160456756010463
13.216000000000001,-0.01416199535075768
13.22,-0.01415884603963447
13.224,-0.014158653715291068
13.228,-0.014154831268965952
13.232000000000001,-0.014156321782627318
13.236,-0.014158148863889638
13.24,-0.014159855742437331
13.244,-0.014167476594544641
13.248000000000001,-0.01416701982422906
13.252,-0.014159951904609032
13.256,-0.014160216350581211
13.26,-0.014160456756010463
13.264000000000001,-0.014157812296288685
13.268,-0.014157644012488207
13.272,-0.0141592547288642
13.276,-0.014157211282715553
13.280000000000001,-0.014158052701717936
13.284,-0.014157740174659908
13.288,-0.0141592547288642
13.292,-0.014164952337537487
13.296000000000001,-0.014165913959254497
13.3,-0.014159326850492976
13.304,-0.014157523809773582
13.308,-0.014161250093926997
13.312000000000001,-0.014161346256098698
13.316,-0.014159735539722705
13.32,-0.01415377348507724
13.324,-0.014161250093926997
13.328,-0.01416468789156531
13.332,-0.01416326949953272
13.336,-0.0141637262698483
13.34,-0.014162019391300606
13.344,-0.01415980766135148
13.348,-0.014162932931931766
13.352,-0.014163582026590748
13.356,-0.014162235756186933
13.36,-0.014162067472386457
13.364,-0.014163894553648776
13.368,-0.014165312945681366
13.372,-0.014162548283244961
13.376,-0.014161226053384072
13.38,-0.014149590430608244
13.384,-0.01415651410697072
13.388,-0.014157235323258478
13.392,-0.014156658350228273
13.396,-0.014160264431667062
13.4,-0.01415742764760188
13.404,-0.014152932066074856
13.408,-0.014153653282362615
13.412,-0.01415473510679425
13.416,-0.014153388836390435
13.42,-0.014152114687615397
13.424,-0.014152162768701248
13.428,-0.014151874282186144
13.432,-0.014153196512047033
13.436,-0.014154013890506493
13.44,-0.014151778120014443
13.444,-0.01415377348507724
13.448,-0.014153989849963567
13.452,-0.014144878484194892
13.456,-0.014140310781039092
13.46,-0.014147763349345924
13.464,-0.01415281186336023
13.468,-0.014147258497944494
13.472,-0.014141368564927804
13.476,-0.01414596030862653
13.48,-0.014149806795494572
13.484,-0.014146224754598707
13.488,-0.014144061105735434
13.492,-0.014146753646543064
13.496,-0.014145239092338772
13.5,-0.014144878484194892
13.504,-0.014142185943387264
13.508000000000001,-0.014146176673512856
13.512,-0.014144253430078836
13.516,-0.014141104118955626
13.52,-0.014142738875874545
13.524000000000001,-0.01414403706519251
13.528,-0.014141296443299029
13.532,-0.014143604335419854
13.536,-0.01414422938953591
13.540000000000001,-0.014141272402756103
13.544,-0.014136560456342751
13.548,-0.014133651550648794
13.552,-0.014139132794435755
13.556000000000001,-0.014142979281303796
13.56,-0.014139517443122558
13.564,-0.01413499782105261
13.568,-0.014137041267201257
13.572000000000001,-0.014140310781039092
13.576,-0.014138315415976295
13.58,-0.014136199848198873
13.584,-0.014136344091456424
13.588000000000001,-0.014135839240054994
13.592,-0.014133531347934169
13.596,-0.014133483266848318
13.6,-0.01413321882087614
13.604000000000001,-0.014127473131117002
13.608,-0.014126150901256112
13.612,-0.014127569293288704
13.616,-0.014127545252745777
13.620000000000001,-0.014130814766583615
13.624,-0.014126487468857066
13.628,-0.014126078779627337
13.632,-0.014122184211673444
13.636000000000001,-0.014118794495120983
13.64,-0.01412139087375691
13.644,-0.0141294684961798
13.648,-0.014124059374021615
13.652000000000001,-0.01412458826596597
13.656,-0.01412463634705182
13.66,-0.014126751914829244
13.664,-0.014123867049678213
13.668000000000001,-0.014117904995032748
13.672,-0.014120236927696497
13.676,-0.014124492103794269
13.68,-0.014121679360272013
13.684000000000001,-0.014122304414388071
13.688,-0.014124708468680598
13.692,-0.014120837941269629
13.696,-0.014117832873403971
13.700000000000001,-0.014119539751951665
13.704,-0.014120525414211601
13.708,-0.014123818968592362
13.712,-0.014122015927872968
13.716000000000001,-0.014121823603529565
13.72,-0.014123314117190932
13.724,-0.014125069076824476
13.728,-0.014125189279539102
13.732000000000001,-0.0141227131036178
13.736,-0.014128074144690134
13.74,-0.014124708468680598
13.744,-0.014123145833390454
13.748000000000001,-0.014125237360624952
13.752,-0.014129612739437351
13.756,-0.014129276171836397
13.76,-0.014124780590309373
13.764000000000001,-0.014126247063427813
13.768,-0.014126583631028767
13.772,-0.01412824242849061
13.776,-0.014128627077177415
13.780000000000001,-0.01412687211754387
13.784,-0.014128675158263266
13.788,-0.014128723239349116
13.792,-0.014129372334008098
13.796000000000001,-0.01413093496929824
13.8,-0.01413189659101525
13.804,-0.014130333955725109
13.808,-0.014132834172189336
13.812000000000001,-0.01413038203681096
13.816,-0.014128098185233058
13.82,-0.01412687211754387
13.824,-0.014127809698717957
13.828,-0.014128482833919863
13.832,-0.01412631918505659
13.836,-0.014124323819993793
13.84,-0.014126535549942917
13.844,-0.014131968712644027
13.848,-0.014134901658880908
13.852,-0.014126150901256112
13.856,-0.014126727874286319
13.86,-0.014130285874639258
13.864,-0.014127040401344347
13.868,-0.01412901172586422
13.872,-0.014125670090397608
13.876,-0.014131535982871372
13.88,-0.014132281239702055
13.884,-0.014128386671748162
13.888,-0.014131487901785521
13.892,-0.014131247496356268
13.896,-0.014133531347934169
13.9,-0.014132978415446888
13.904,-0.014133026496532738
13.908,-0.01412631918505659
13.912,-0.014130598401697286
13.916,-0.014138820267377726
13.92,-0.014125766252569309
13.924,-0.014124564225423046
13.928,-0.01411951571140874
13.932,-0.014119876319552619
13.936,-0.014120236927696497
13.94,-0.014122448657645623
13.944,-0.01412408341456454
13.948,-0.014128314550119387
13.952,-0.014128410712291088
13.956,-0.014129372334008098
13.96,-0.014130213753010483
13.964,-0.014132136996444503
13.968,-0.014133242861419065
13.972,-0.014135142064310161
13.976,-0.01413367559119172
13.98,-0.014132593766760083
13.984,-0.01413312265870444
13.988,-0.014132161036987428
13.992,-0.01413281013164641
13.996,-0.014131295577442119
14.0,-0.014128482833919863
14.004,-0.014126511509399992
14.008000000000001,-0.014130213753010483
14.012,-0.014128434752834013
14.016,-0.014124756549766448
14.02,-0.01412454018488012
14.024000000000001,-0.014126992320258496
14.028,-0.014129252131293471
14.032,-0.01413463721290873
14.036,-0.014130285874639258
14.040000000000001,-0.014129492536722724
14.044,-0.014125237360624952
14.048,-0.0141295646583515
14.052,-0.014129829104323678
14.056000000000001,-0.014125958576912711
14.06,-0.014128410712291088
14.064,-0.01413098305038409
14.068,-0.014131295577442119
14.072000000000001,-0.014129492536722724
14.076,-0.014128723239349116
14.08,-0.014125573928225907
14.084,-0.014128050104147208
14.088000000000001,-0.014125742212026383
14.092,-0.014123843009135287
14.096,-0.014128338590662311
14.1,-0.014129107888035921
14.104000000000001,-0.014125165238996177
14.108,-0.014121174508870583
14.112,-0.01412098218452718
14.116,-0.014122448657645623
14.120000000000001,-0.014120910062898406
14.124,-0.014124203617279167
14.128,-0.014126679793200468
14.132,-0.014118890657292684
14.136000000000001,-0.014121126427784732
14.14,-0.014124011292935765
14.144,-0.014120693698012079
14.148,-0.014118217522090776
14.152000000000001,-0.014115380738025594
14.156,-0.014116390440828457
14.16,-0.014120549454754527
14.164,-0.014124948874109849
14.168000000000001,-0.01411997248172432
14.172,-0.014117929035575672
14.176,-0.014119587833037515
14.18,-0.014122833306332426
14.184000000000001,-0.014116678927343558
14.188,-0.014122112090044669
14.192,-0.014128578996091564
14.196,-0.014123843009135287
14.200000000000001,-0.01412098218452718
14.204,-0.014126006657998562
14.208,-0.014127881820346732
14.212,-0.014127833739260881
14.216000000000001,-0.014124660387594747
14.22,-0.014119155103264861
14.224,-0.014122232292759294
14.228,-0.0141226169414461
14.232000000000001,-0.014118986819464384
14.236,-0.0141158615488841
14.24,-0.01411687125168696
14.244,-0.014119539751951665
14.248000000000001,-0.014115645183997773
14.252,-0.01411992440063847
14.256,-0.014116847211144036
14.26,-0.014124780590309373
14.264000000000001,-0.014127449090574076
14.268,-0.014114659521737837
14.272,-0.014119996522267246
14.276,-0.014126247063427813
14.280000000000001,-0.014122424617102697
14.284,-0.014121414914299836
14.288,-0.014118121359919075
14.292,-0.014115981751598726
14.296000000000001,-0.014116943373315738
14.3,-0.014119395508694114
14.304,-0.014121030265613031
14.308,-0.014120501373668676
14.312000000000001,-0.014122424617102697
14.316,-0.014124203617279167
14.32,-0.014122424617102697
14.324,-0.014117832873403971
14.328000000000001,-0.014115885589427026
14.332,-0.014116390440828457
14.336,-0.014119708035752142
14.34,-0.014128050104147208
14.344,-0.0141180492382903
14.348,-0.014122064008958818
14.352,-0.014132473564045457
14.356,-0.014133194780333215
14.36,-0.014132593766760083
14.364,-0.01412920405020762
14.368,-0.014129396374551023
14.372,-0.014126848077000945
14.376,-0.014122640981989024
14.38,-0.014125285441710803
14.384,-0.014132257199159129
14.388,-0.014134853577795058
14.392,-0.014130406077353884
14.396,-0.014133074577618589
14.4,-0.014136945105029556
14.404,-0.014131511942328447
14.408,-0.014124395941622568
14.412,-0.014136175807655948
14.416,-0.014136704699600303
14.42,-0.014135526712996966
14.424,-0.014142642713702844
14.428,-0.014139805929637662
14.432,-0.014136247929284723
14.436,-0.01413261780730301
14.44,-0.014134613172365805
14.444,-0.014136031564398396
14.448,-0.014135406510282339
14.452,-0.014134829537252133
14.456,-0.014135286307567713
14.46,-0.014139854010723513
14.464,-0.014140310781039092
14.468,-0.014133242861419065
14.472,-0.01413672874014323
14.476,-0.014133266901961991
14.48,-0.014132593766760083
14.484,-0.014137498037516837
14.488,-0.014132593766760083
14.492,-0.014134420848022404
14.496,-0.01413627196982765
14.5,-0.014134853577795058
14.504,-0.014138507740319698
14.508000000000001,-0.014136199848198873
14.512,-0.014138387537605072
14.516,-0.014137618240231463
14.52,-0.014137522078059763
14.524000000000001,-0.014136752780686154
14.528,-0.014137618240231463
14.532,-0.014140983916241
14.536,-0.014137209551001733
14.540000000000001,-0.014136872983400781
14.544,-0.014134853577795058
14.548,-0.014141969578500935
14.552,-0.014142835038046246
14.556000000000001,-0.014145479497768024
14.56,-0.01414418130845006
14.564,-0.014143532213791079
14.568,-0.014142618673159918
14.572000000000001,-0.014144253430078836
14.576,-0.014141128159498553
14.58,-0.014142258065016039
14.584,-0.014145599700482651
14.588000000000001,-0.014147643146631299
14.592,-0.014146777687085988
14.596,-0.014150840538840357
14.6,-0.014150311646896003
14.604000000000001,-0.014147667187174223
14.608,-0.014149806795494572
14.612,-0.014148869214320486
14.616,-0.014147018092515241
14.620000000000001,-0.014149277903550216
14.624,-0.014147234457401568
14.628,-0.014145864146454828
14.632,-0.014149951038752124
14.636000000000001,-0.014151826201100294
14.64,-0.014155119755481055
14.644,-0.01415007124146675
14.648,-0.014148845173777562
14.652000000000001,-0.014145912227540679
14.656,-0.014149758714408722
14.66,-0.014151441552413489
14.664,-0.014145287173424623
14.668000000000001,-0.014147306579030345
14.672,-0.01414769122771715
14.676,-0.014153701363448465
14.68,-0.014147787389888849
14.684000000000001,-0.014151778120014443
14.688,-0.01415569672851126
14.692,-0.014159206647778349
14.696,-0.01415838926931889
14.700000000000001,-0.014149350025178992
14.704,-0.014159495134293452
14.708,-0.014160745242525566
14.712,-0.014156321782627318
14.716000000000001,-0.014155119755481055
14.72,-0.01415560056633956
14.724,-0.014161658783156726
14.728,-0.014163389702247346
14.732000000000001,-0.014158821999091546
14.736,-0.014153869647248941
14.74,-0.01415418217430697
14.744,-0.014158052701717936
14.748000000000001,-0.01416012018840951
14.752,-0.014155840971768812
14.756,-0.014157139161086777
14.76,-0.01416697174314321
14.764000000000001,-0.014163485864419047
14.768,-0.01416341374279027
14.772,-0.014155119755481055
14.776,-0.014154326417564521
14.780000000000001,-0.0141593508910359
14.784,-0.014157571890859432
14.788,-0.014159903823523182
14.792,-0.01416245212107326
14.796000000000001,-0.014165385067310143
14.8,-0.014162668485959588
14.804,-0.014164519607764834
14.808,-0.014168101648660697
14.812000000000001,-0.014168943067663082
14.816,-0.014172669351816497
14.82,-0.014170385500238598
14.824,-0.014169063270377707
14.828000000000001,-0.014162067472386457
14.832,-0.014169015189291857
14.836,-0.014174039662763238
14.84,-0.014175049365566099
14.844000000000001,-0.0141729578383316
14.848,-0.014172645311273572
14.852,-0.01417026529752397
14.856,-0.014171275000326831
14.86,-0.014168053567574846
14.864,-0.014166635175542256
14.868,-0.01416733235128709
14.872,-0.01416935175689281
14.876,-0.014172116419329216
14.88,-0.014171106716526355
14.884,-0.01416793336486022
14.888,-0.01417290975724575
14.892,-0.01417199621661459
14.896,-0.014174280068192489
14.9,-0.014175025325023172
14.904,-0.014176972609000119
14.908,-0.01417803039288883
14.912,-0.014173751176248134
14.916,-0.014174808960136846
14.92,-0.014176587960313316
14.924,-0.014176491798141615
14.928,-0.014174207946563714
14.932,-0.01418072293369646
14.936,-0.014179328582206795
14.94,-0.014174280068192489
14.944,-0.014170794189468327
14.948,-0.01417391946004861
14.952,-0.014172308743672618
14.956,-0.014173318446475479
14.96,-0.014174352189821266
14.964,-0.01417464067633637
14.968,-0.014175434014252902
14.972,-0.014178775649719514
14.976,-0.014179929595779926
14.98,-0.014177044730628896
14.984,-0.014184497298935726
14.988,-0.014183583758304566
14.992,-0.01418478578545083
14.996,-0.014190074704894388
15.0,-0.014183223150160688
15.004,-0.01417843908211856
15.008000000000001,-0.014176539879227465
15.012,-0.014183054866360211
15.016,-0.014182886582559734
15.02,-0.014179160298406318
15.024000000000001,-0.014186444582912672
15.028,-0.014194762610764813
15.032,-0.014190194907609014
15.036,-0.014188391866889619
15.040000000000001,-0.014188391866889619
15.044,-0.01418711771811458
15.048,-0.014191396934755277
15.052,-0.014190435313038267
15.056000000000001,-0.014185002150337158
15.06,-0.014184497298935726
15.064,-0.014187261961372133
15.068,-0.014190795921182145
15.072000000000001,-0.014189593894035882
15.076,-0.01418291062310266
15.08,-0.014186492663998523
15.084,-0.014194233718820459
15.088000000000001,-0.014187550447887234
15.092,-0.014182862542016809
15.096,-0.014182381731158303
15.1,-0.014190146826523163
15.104000000000001,-0.014192214313214737
15.108,-0.014193969272848281
15.112,-0.014186180136940495
15.116,-0.014186733069427776
15.120000000000001,-0.014185627204453214
15.124,-0.014185699326081989
15.128,-0.014187959137116965
15.132,-0.014189497731864181
15.136000000000001,-0.01419392119176243
15.14,-0.014188632272318872
15.144,-0.01418752640734431
15.148,-0.014192310475386436
15.152000000000001,-0.014189569853492958
15.156,-0.014191396934755277
15.16,-0.014189137123720302
15.164,-0.01419255088081569
15.168000000000001,-0.014193728867419028
15.172,-0.01418752640734431
15.176,-0.014190627637381669
15.18,-0.014189497731864181
15.184000000000001,-0.014186660947799001
15.188,-0.014190699759010444
15.192,-0.014190074704894388
15.196,-0.01418752640734431
15.200000000000001,-0.01419072379955337
15.204,-0.014190627637381669
15.208,-0.014190459353581191
15.212,-0.014191925826699633
15.216000000000001,-0.014190579556295818
15.22,-0.01418899288046275
15.224,-0.014190146826523163
15.228,-0.01418990642109391
15.232000000000001,-0.014195003016194066
15.236,-0.01419163734018453
15.24,-0.014187694691144786
15.244,-0.014194666448593112
15.248000000000001,-0.014190387231952416
15.252,-0.014185963772054168
15.256,-0.014184040528620146
15.26,-0.014189666015664659
15.264000000000001,-0.01419067571846752
15.268,-0.014187045596485804
15.272,-0.014184401136764026
15.276,-0.014188343785803768
15.280000000000001,-0.014195555948681347
15.284,-0.014190699759010444
15.288,-0.014188752475033498
15.292,-0.014185507001738588
15.296000000000001,-0.014184425177306951
15.3,-0.014183655879933343
15.304,-0.014180963339125713
15.308,-0.01418264617713048
15.312000000000001,-0.014185723366624915
15.316,-0.01418940156969248
15.32,-0.014196998381256863
15.324,-0.014193079772760046
15.328000000000001,-0.014191541178012829
15.332,-0.014196036759539853
15.336,-0.014193392299818074
15.34,-0.014188127420917442
15.344000000000001,-0.01418483386653668
15.348,-0.014188175502003292
15.352,-0.014188632272318872
15.356,-0.014186468623455599
15.36,-0.014185002150337158
15.364,-0.014187189839743356
15.368,-0.014189641975121733
15.372,-0.01418747832625846
15.376,-0.014191084407697249
15.38,-0.014189065002091527
15.384,-0.014183343352875313
15.388,-0.014190555515752892
15.392,-0.01419168542127038
15.396,-0.014191493096926978
15.4,-0.01418995450217976
15.404,-0.01419428179990631
15.408,-0.014197407070486593
15.412,-0.01419382502959073
15.416,-0.014190940164439697
15.42,-0.014195219381080395
15.424,-0.014202455584500898
15.428,-0.014190315110323641
15.432,-0.014187887015488189
15.436,-0.014189569853492958
15.44,-0.014185651244996138
15.444,-0.014189882380550986
15.448,-0.014193224016017598
15.452,-0.014192574921358616
15.456,-0.014188752475033498
15.46,-0.01418935348860663
15.464,-0.014188343785803768
15.468,-0.014194954935108216
15.472,-0.014198609097632856
15.476,-0.014199594759892792
15.48,-0.014201349719526336
15.484,-0.014198753340890408
15.488,-0.014193199975474672
15.492,-0.014193632705247327
15.496,-0.014188151461460366
15.5,-0.014191012286068474
15.504,-0.014193151894388821
15.508000000000001,-0.014199570719349866
15.512,-0.01420259982775845
15.516,-0.014200965070839532
15.52,-0.014202888314273554
15.524000000000001,-0.014202575787215524
15.528,-0.014201998814185319
15.532,-0.014198921624690884
15.536,-0.01419899374631966
15.540000000000001,-0.014198561016547005
15.544,-0.014202984476445255
15.548,-0.014196325246054957
15.552,-0.014196493529855433
15.556000000000001,-0.014194474124249712
15.56,-0.014189786218379285
15.564,-0.014191901786156707
15.568,-0.014190002583265611
15.572000000000001,-0.014191565218555755
15.576,-0.014190819961725071
15.58,-0.014189738137293434
15.584,-0.01419163734018453
15.588000000000001,-0.01419259896190154
15.592,-0.014187430245172609
15.596,-0.014187286001915057
15.6,-0.014190819961725071
15.604000000000001,-0.0141935125025327
15.608,-0.014193728867419028
15.612,-0.01418661286671315
15.616,-0.014179617068721898
15.620000000000001,-0.014182021123014425
15.624,-0.014178198676689308
15.628,-0.014179641109264823
15.632,-0.014179088176777542
15.636000000000001,-0.014173486730275957
15.64,-0.014174280068192489
15.644,-0.01417026529752397
15.648,-0.014164423445593132
15.652000000000001,-0.014168462256804576
15.656,-0.01416377435093415
15.66,-0.014164880215908712
15.664,-0.014165433148395993
15.668000000000001,-0.014164303242878505
15.672,-0.014157018958372151
15.676,-0.01415737956651603
15.68,-0.014163101215732242
15.684000000000001,-0.014159951904609032
15.688,-0.014158124823346713
15.692,-0.014160264431667062
15.696,-0.01415564864742541
15.700000000000001,-0.014154398539193296
15.704,-0.014161754945328427
15.708,-0.014158172904432564
15.712,-0.01415276378227438
15.716000000000001,-0.014153292674218734
15.72,-0.014152715701188529
15.724,-0.014142979281303796
15.728,-0.01414321968673305
15.732000000000001,-0.01414235422718774
15.736,-0.014141007956783925
15.74,-0.014138099051089969
15.744,-0.014129492536722724
15.748000000000001,-0.014137570159145612
15.752,-0.014139012591721128
15.756,-0.014139589564751335
15.76,-0.014135863280597918
15.764000000000001,-0.014134180442593151
15.768,-0.014135646915711592
15.772,-0.014135646915711592
15.776,-0.014137089348287108
15.780000000000001,-0.01413285821273226
15.784,-0.014135430550825265
15.788,-0.014131487901785521
15.792,-0.014133747712820496
15.796000000000001,-0.014132786091103485
15.8,-0.014126198982341963
15.804,-0.014131199415270418
15.808,-0.014129492536722724
15.812000000000001,-0.014132497604588382
15.816,-0.01413504590213846
15.82,-0.014131535982871372
15.824,-0.014131728307214774
15.828000000000001,-0.014128795360977891
15.832,-0.014131151334184567
15.836,-0.01412997334758123
15.84,-0.014131415780156746
15.844000000000001,-0.014135743077883293
15.848,-0.014135767118426217
15.852,-0.014132593766760083
15.856,-0.014130333955725109
15.860000000000001,-0.014125453725511281
15.864,-0.014131680226128924
15.868,-0.014132257199159129
15.872,-0.014132978415446888
15.876,-0.014131295577442119
15.88,-0.014127593333831628
15.884,-0.014138459659233847
15.888,-0.014134685293994581
15.892,-0.014130598401697286
15.896,-0.014132161036987428
15.9,-0.01413454105073703
15.904,-0.014131752347757699
15.908,-0.014129252131293471
15.912,-0.014132257199159129
15.916,-0.014135238226481862
15.92,-0.014136440253628126
15.924,-0.01413696914557248
15.928,-0.014136223888741799
15.932,-0.014138363497062146
15.936,-0.014139493402579634
15.94,-0.014139012591721128
15.944,-0.014136344091456424
15.948,-0.014140094416152766
15.952,-0.014142835038046246
15.956,-0.014145888186997755
15.96,-0.014145263132881697
15.964,-0.01414824416020443
15.968,-0.014147186376315717
15.972,-0.014143892821934958
15.976,-0.014149638511694094
15.98,-0.014150816498297433
15.984,-0.014148364362919056
15.988,-0.014144421713879312
15.992,-0.014144157267907135
15.996,-0.014142907159675021
16.0,-0.01414285907858917
16.004,-0.0141479316331464
16.008,-0.014146801727628914
16.012,-0.0141478354709747
16.016000000000002,-0.01415281186336023
16.02,-0.014149229822464365
16.024,-0.014153364795847511
16.028,-0.014156297742084392
16.032,-0.014159134526149574
16.036,-0.014153076309332407
16.04,-0.014153100349875334
16.044,-0.01414838840346198
16.048000000000002,-0.014149518308979469
16.052,-0.01415692279620045
16.056,-0.014152571457930977
16.06,-0.014149229822464365
16.064,-0.014155167836566906
16.068,-0.014158725836919845
16.072,-0.014158196944975488
16.076,-0.014160480796553389
16.080000000000002,-0.01416204343184353
16.084,-0.014159951904609032
16.088,-0.01416103372904067
16.092,-0.014165024459166264
16.096,-0.014166298607941302
16.1,-0.01416199535075768
16.104,-0.01416007210732366
16.108,-0.014155095714938129
16.112000000000002,-0.014153148430961184
16.116,-0.014159062404520799
16.12,-0.014155985215026364
16.124,-0.014161971310214756
16.128,-0.014163557986047822
16.132,-0.014156682390771197
16.136,-0.014159735539722705
