0.0,-0.008233573424844752
0.004,-0.00823653041162456
0.008,-0.008242516506812951
0.012,-0.008229558654176234
0.016,-0.00823222715444094
0.02,-0.008240016290348724
0.024,-0.008243357925815336
0.028,-0.008247132291054601
0.032,-0.0082516038320387
0.036000000000000004,-0.008247372696483854
0.04,-0.008249031493945697
0.044,-0.008252180805068907
0.048,-0.008258671751658729
0.052000000000000005,-0.008328413366684918
0.056,-0.008350290260746907
0.06,-0.008319806852317672
0.064,-0.008261941265496564
0.068,-0.0082287653162597
0.07200000000000001,-0.008230520275893244
0.076,-0.00825338283221517
0.08,-0.00826932171217462
0.084,-0.008263407738615005
0.088,-0.008232996451814547
0.092,-0.00822881339734555
0.096,-0.008243237723100708
0.1,-0.008244415709704047
0.10400000000000001,-0.008234775451991016
0.108,-0.008240064371434574
0.112,-0.008250329683263662
0.116,-0.008270235252805779
0.12,-0.008301920688381276
0.124,-0.008319398163087943
0.128,-0.008313604392242954
0.132,-0.00825246929158401
0.136,-0.008211359963181808
0.14,-0.008207609638485467
0.14400000000000002,-0.00822826046485827
0.148,-0.008267566752541075
0.152,-0.008273913455873345
0.156,-0.008259296805774785
0.16,-0.008254729102618985
0.164,-0.008251724034753327
0.168,-0.008256051332479874
0.17200000000000001,-0.00827251910438368
0.176,-0.008286823227424212
0.18,-0.008286390497651556
0.184,-0.00828201511883916
0.188,-0.00828302482164202
0.192,-0.008271894050267622
0.196,-0.008251243223894821
0.2,-0.008248093912771612
0.20400000000000001,-0.008264225117074463
0.20800000000000002,-0.00827941874020323
0.212,-0.008294299836273968
0.216,-0.008286342416565706
0.22,-0.00824612258825174
0.224,-0.008240280736320901
0.228,-0.008253599197101497
0.232,-0.008256460021709603
0.23600000000000002,-0.008236554452167486
0.24,-0.008228044099971943
0.244,-0.008233885951902782
0.248,-0.008249464223718353
0.252,-0.008245930263908338
0.256,-0.008277976307627714
0.26,-0.00831632097359351
0.264,-0.008304372823759653
0.268,-0.00829905986377317
0.272,-0.008265162698248549
0.276,-0.008233020492357471
0.28,-0.00826155661680976
0.28400000000000003,-0.008259657413918663
0.28800000000000003,-0.008268023522856655
0.292,-0.008283457551414674
0.296,-0.008240785587722331
0.3,-0.00823470333036224
0.304,-0.008236987181940141
0.308,-0.008239102749717564
0.312,-0.008241651047267642
0.316,-0.008254272332303405
0.32,-0.008258695792201653
0.324,-0.008267470590369374
0.328,-0.008295117214733427
0.332,-0.00832814892071274
0.336,-0.008290309106148374
0.34,-0.00826287884667065
0.34400000000000003,-0.008261412373552207
0.34800000000000003,-0.008268528374258085
0.352,-0.008272831631441708
0.356,-0.008261700860067311
0.36,-0.008281317943094326
0.364,-0.008296559647308943
0.368,-0.00829732894468255
0.372,-0.008280500564634866
0.376,-0.008263503900786706
0.38,-0.008260667116721524
0.384,-0.008263047130471126
0.388,-0.00826896110403074
0.392,-0.00826936979326047
0.396,-0.008257638008312942
0.4,-0.008265042495533923
0.404,-0.008269514036518022
0.40800000000000003,-0.008273168199042662
0.41200000000000003,-0.008294636403874922
0.41600000000000004,-0.00832733154225328
0.42,-0.008343871435785861
0.424,-0.008314109243644384
0.428,-0.008256508102795454
0.432,-0.008246603399110247
0.436,-0.008257229319083213
0.44,-0.008269393833803396
0.444,-0.008276293469622945
0.448,-0.008261268130294656
0.452,-0.008258022656999747
0.456,-0.008266148360508485
0.46,-0.008262229752011668
0.464,-0.008254176170131704
0.468,-0.008269610198689723
0.47200000000000003,-0.008281029456579223
0.47600000000000003,-0.008296968336538672
0.48,-0.008350146017489356
0.484,-0.008324326474387623
0.488,-0.008297064498710373
0.492,-0.008331779042694455
0.496,-0.008303074634441689
0.5,-0.008287231916653941
0.504,-0.00829316993075648
0.508,-0.008285092308333592
0.512,-0.008276918523739003
0.516,-0.008301920688381276
0.52,-0.008302329377611006
0.524,-0.00827566841550689
0.528,-0.008262470157440919
0.532,-0.008255786886507696
0.536,-0.008262470157440919
0.54,-0.008278817726630099
0.544,-0.00828982829528987
0.548,-0.008296343282422616
0.552,-0.0083017524045808
0.556,-0.008304661310274757
0.56,-0.008315936324906705
0.5640000000000001,-0.008332548340068063
0.5680000000000001,-0.008347285192881249
0.5720000000000001,-0.00837072472223338
0.5760000000000001,-0.008327451744967906
0.58,-0.008324783244703203
0.584,-0.008323461014842314
0.588,-0.00829393922813009
0.592,-0.008283794119015628
0.596,-0.008298218444770786
0.6,-0.008273168199042662
0.604,-0.00826891302294489
0.608,-0.00828078905114997
0.612,-0.008278649442829621
0.616,-0.008272639307098305
0.62,-0.00827439426673185
0.624,-0.0082812939025514
0.628,-0.008287111713939314
0.632,-0.008293001646956004
0.636,-0.008298915620515619
0.64,-0.008304829594075233
0.644,-0.008319758771231821
0.648,-0.008333461880699222
0.652,-0.00831728259531052
0.656,-0.00831646521685106
0.66,-0.008329831758717508
0.664,-0.00835057874726201
0.668,-0.008368825519342284
0.672,-0.008323509095928164
0.676,-0.00831646521685106
0.68,-0.008334904313274738
0.684,-0.008316561379022761
0.6880000000000001,-0.00829175153872389
0.6920000000000001,-0.008277976307627714
0.6960000000000001,-0.008279731267261259
0.7000000000000001,-0.00828855414651483
0.704,-0.008295838431021186
0.708,-0.008304372823759653
0.712,-0.008311705189351858
0.716,-0.008314566013959964
0.72,-0.008313099540841523
0.724,-0.008303242918242165
0.728,-0.008297689552826431
0.732,-0.008297978039341533
0.736,-0.008329350947859002
0.74,-0.008334159056444055
0.744,-0.008346323571164238
0.748,-0.008395919211219056
0.752,-0.008356492720821625
0.756,-0.008299180066487796
0.76,-0.008295958633735811
0.764,-0.00828622221385108
0.768,-0.00828946768714599
0.772,-0.00831271489215472
0.776,-0.008333413799613372
0.78,-0.008306632634794628
0.784,-0.00829083799809273
0.788,-0.008287279997739792
0.792,-0.008286847267967136
0.796,-0.0082905254710347
0.8,-0.008296054795907512
0.804,-0.008300718661235013
0.808,-0.00830485363461816
0.812,-0.008309397297231033
0.8160000000000001,-0.008319133717115765
0.8200000000000001,-0.008321730095751694
0.8240000000000001,-0.008302449580325633
0.8280000000000001,-0.00837072472223338
0.8320000000000001,-0.008385100966902688
0.836,-0.008364882870302542
0.84,-0.008324927487960754
0.844,-0.008310599324377296
0.848,-0.00828850606542898
0.852,-0.008292064065781918
0.856,-0.008303747769643596
0.86,-0.008318364419742156
0.864,-0.008306728796966329
0.868,-0.00830682495913803
0.872,-0.008296920255452821
0.876,-0.008294636403874922
0.88,-0.008299757039518003
0.884,-0.008296126917536287
0.888,-0.008295501863420231
0.892,-0.008349328639029896
0.896,-0.008368609154455958
0.9,-0.008364522262158664
0.904,-0.00833911140828666
0.908,-0.00833262046169684
0.912,-0.00833697179996631
0.916,-0.008313508230071253
0.92,-0.008295117214733427
0.924,-0.008337909381140396
0.928,-0.008332476218439288
0.932,-0.008304012215615775
0.936,-0.008304300702130878
0.9400000000000001,-0.008307714459226265
0.9440000000000001,-0.00830687304022388
0.9480000000000001,-0.0083085077971428
0.9520000000000001,-0.008313291865184926
0.9560000000000001,-0.008321537771408292
0.96,-0.008320095338832776
0.964,-0.008320864636206385
0.968,-0.008332187731924184
0.972,-0.008337909381140396
0.976,-0.008345313868361378
0.98,-0.008346780341479818
0.984,-0.008344208003386816
0.988,-0.008378105168911437
0.992,-0.008354377153044202
0.996,-0.008305695053620542
1.0,-0.008311008013607025
1.004,-0.008350386422918608
1.008,-0.008351636531150721
1.012,-0.008327547907139608
1.016,-0.008280428443006091
1.02,-0.008276101145279543
1.024,-0.008283313308157122
1.028,-0.008291607295466338
1.032,-0.00829905986377317
1.036,-0.008306127783393197
1.04,-0.008312835094869346
1.044,-0.008318460581913857
1.048,-0.008323917785157894
1.052,-0.008328100839626889
1.056,-0.008330336610118939
1.06,-0.008340000908374895
1.064,-0.008342933854611777
1.068,-0.00834454457098777
1.072,-0.008384403791157857
1.076,-0.008403083293010784
1.08,-0.008360940221262799
1.084,-0.008315912284363779
1.088,-0.008303459283128494
1.092,-0.008311176297407503
1.096,-0.008325744866420213
1.1,-0.008327571947682534
1.104,-0.008322547474211153
1.108,-0.008320263622633252
1.112,-0.008311945594781111
1.116,-0.00830367564801482
1.12,-0.008311320540665055
1.124,-0.008321994541723872
1.1280000000000001,-0.008331250150750098
1.1320000000000001,-0.008330793380434518
1.1360000000000001,-0.00832485536633198
1.1400000000000001,-0.00832901438025805
1.1440000000000001,-0.008392481413580745
1.1480000000000001,-0.008388731088884403
1.1520000000000001,-0.008372984533268357
1.156,-0.0083587525318566
1.16,-0.00833966434077394
1.164,-0.008326850731394775
1.168,-0.008326201636735793
1.172,-0.008303266958785091
1.176,-0.008303531404757269
1.18,-0.008331562677808126
1.184,-0.008338558475799378
1.188,-0.00832216282552435
1.192,-0.008325504460990962
1.196,-0.008322932122897957
1.2,-0.008323725460814491
1.204,-0.008325264055561709
1.208,-0.008331947326494931
1.212,-0.008339015246114958
1.216,-0.008338510394713528
1.22,-0.008326970934109402
1.224,-0.008365051154103019
1.228,-0.00839337091366898
1.232,-0.008390462007975021
1.236,-0.008340505759776325
1.24,-0.008325624663705587
1.244,-0.008360747896919396
1.248,-0.00834601104410621
1.252,-0.008325792947506063
1.256,-0.008319253919830391
1.26,-0.00833550532684787
1.264,-0.008327908515283488
1.268,-0.008319253919830391
1.272,-0.008319229879287467
1.276,-0.008323220609413061
1.28,-0.008325937190763615
1.284,-0.008327812353111787
1.288,-0.008325215974475858
1.292,-0.0083702679519178
1.296,-0.008410055050459112
1.3,-0.008395414359817626
1.304,-0.008375292425389182
1.308,-0.008390558170146722
1.312,-0.008366421465049758
1.316,-0.00836012284280334
1.32,-0.008352213504180929
1.324,-0.008337596854082368
1.328,-0.008308051026827218
1.332,-0.008296511566223092
1.336,-0.008312065797495738
1.34,-0.008308219310627696
1.344,-0.008310551243291445
1.348,-0.00831920583874454
1.352,-0.008328052758541038
1.356,-0.008333437840156298
1.36,-0.008335264921418617
1.364,-0.00833651502965073
1.368,-0.008338606556885229
1.372,-0.008358007275025916
1.3760000000000001,-0.008391471710777884
1.3800000000000001,-0.008406809577164201
1.3840000000000001,-0.008362478816010016
1.3880000000000001,-0.008368440870655481
1.3920000000000001,-0.008393731521812858
1.3960000000000001,-0.008347790044282679
1.4000000000000001,-0.008339904746203193
1.4040000000000001,-0.008379788006916205
1.408,-0.008381086196234169
1.412,-0.008345987003563284
1.416,-0.008319277960373317
1.42,-0.008315599757305751
1.424,-0.008317955730512427
1.428,-0.00832723538008158
1.432,-0.008344929219674573
1.436,-0.008344015679043413
1.44,-0.008342044354523542
1.444,-0.008348126611883633
1.448,-0.008404597847215077
1.452,-0.008385149047988538
1.456,-0.008344400327730218
1.46,-0.008353175125897939
1.464,-0.008347958328083157
1.468,-0.008330961664234995
1.472,-0.008319446244173793
1.476,-0.008327571947682534
1.48,-0.008354665639559306
1.484,-0.008366685911021937
1.488,-0.008369570776172968
1.492,-0.00835916122108633
1.496,-0.008349617125545
1.5,-0.008362334572752464
1.504,-0.00836098830234865
1.508,-0.008344881138588722
1.512,-0.008356588882993326
1.516,-0.008364882870302542
1.52,-0.008370123708660249
1.524,-0.00840447764450045
1.528,-0.008393779602898709
1.532,-0.008339880705660269
1.536,-0.008319374122545017
1.54,-0.008338294029827201
1.544,-0.008355314734218288
1.548,-0.008359137180543404
1.552,-0.008358007275025916
1.556,-0.008359089099457553
1.56,-0.008362719221439269
1.564,-0.008349424801201598
1.568,-0.008338101705483799
1.572,-0.00833824594874135
1.576,-0.008343390624927357
1.58,-0.008349785409345476
1.584,-0.008355531099104615
1.588,-0.00836002668063164
1.592,-0.008363031748497297
1.596,-0.008366036816362955
1.6,-0.008379739925830354
1.604,-0.008408973226027475
1.608,-0.008410728185661019
1.612,-0.008407723117795361
1.616,-0.00841757974039472
1.62,-0.00841123303706245
1.624,-0.008349977733688878
1.6280000000000001,-0.008338943124486183
1.6320000000000001,-0.008352189463638002
1.6360000000000001,-0.008375172222674554
1.6400000000000001,-0.008371878668293793
1.6440000000000001,-0.008352982801554536
1.6480000000000001,-0.008364594383787439
1.6520000000000001,-0.00834591488193451
1.6560000000000001,-0.008327355582796205
1.6600000000000001,-0.008336298664764404
1.6640000000000001,-0.008345578314333555
1.668,-0.008349929652603028
1.672,-0.00834956904445915
1.676,-0.008350795112148337
1.68,-0.008350290260746907
1.684,-0.008356396558649924
1.688,-0.008386879967079158
1.692,-0.008439961485858141
1.696,-0.008454241568355747
1.7,-0.00841539205098852
1.704,-0.008414286186013958
1.708,-0.00840666533390665
1.712,-0.008360844059091098
1.716,-0.008377335871537828
1.72,-0.008378417695969465
1.724,-0.008350314301289833
1.728,-0.008344400327730218
1.732,-0.008353391490784266
1.736,-0.008343679111442459
1.74,-0.008331779042694455
1.744,-0.008335938056620525
1.748,-0.008335673610648348
1.752,-0.008338630597428155
1.756,-0.008345578314333555
1.76,-0.008349545003916225
1.764,-0.008349424801201598
1.768,-0.008378610020312868
1.772,-0.008399260846685668
1.776,-0.008397337603251648
1.78,-0.00839981377917295
1.784,-0.008387649264452766
1.788,-0.008381374682749273
1.792,-0.008371061289834334
1.796,-0.008390245643088694
1.8,-0.008407554833994885
1.804,-0.008383177723468667
1.808,-0.00837336918195516
1.812,-0.008363536599898727
1.816,-0.008375292425389182
1.82,-0.008379788006916205
1.824,-0.008367238843509218
1.828,-0.008376542533621295
1.832,-0.008382937318039414
1.836,-0.008379547601486953
1.84,-0.00838894745377073
1.844,-0.008391447670234958
1.848,-0.00837803304728266
1.852,-0.00836514731627472
1.856,-0.008355122409874885
1.86,-0.00834403971958634
1.864,-0.008350458544547384
1.868,-0.008379595682572804
1.872,-0.008394404657014765
1.8760000000000001,-0.008401352373920166
1.8800000000000001,-0.00840406895527072
1.8840000000000001,-0.008420440565002827
1.8880000000000001,-0.008392000602722239
1.8920000000000001,-0.008368320667940854
1.8960000000000001,-0.008377191628280278
1.9000000000000001,-0.008372888371096655
1.9040000000000001,-0.00834769388211098
1.9080000000000001,-0.008350097936403506
1.9120000000000001,-0.008350698949976637
1.9160000000000001,-0.008349472882287448
1.92,-0.008367815816539424
1.924,-0.008358223639912244
1.928,-0.008350025814774729
1.932,-0.00835880061294245
1.936,-0.008373056654897132
1.94,-0.008379523560944027
1.944,-0.008394717184072793
1.948,-0.008408300090825568
1.952,-0.008437509350479764
1.956,-0.008473738448668135
1.96,-0.008439648958800113
1.964,-0.0084044295634146
1.968,-0.00835930546434388
1.972,-0.00833651502965073
1.976,-0.008339688381316867
1.98,-0.008363103870126072
1.984,-0.008384548034415407
1.988,-0.008369931384316848
1.992,-0.008357237977652308
1.996,-0.008378946587913822
2.0,-0.008388731088884403
2.004,-0.008383682574870098
2.008,-0.008378730223027493
2.012,-0.008389091697028282
2.016,-0.008384668237130034
2.02,-0.008373585546841488
2.024,-0.008405174820245283
2.028,-0.00843159537692015
2.032,-0.008402025509122073
2.036,-0.008389284021371684
2.04,-0.008360868099634024
2.044,-0.008354305031415427
2.048,-0.00836291154578267
2.052,-0.008404285320157048
2.056,-0.008407074023136379
2.06,-0.0083906302917755
2.064,-0.008369378451829567
2.068,-0.008358776572399525
2.072,-0.008363488518812877
2.076,-0.008373849992813666
2.08,-0.008373489384669787
2.084,-0.008373321100869309
2.088,-0.008386783804907457
2.092,-0.008396520224792188
2.096,-0.008394044048870886
2.1,-0.008393178589325577
2.104,-0.008408011604310464
2.108,-0.00845347227098214
2.112,-0.008462896163808842
2.116,-0.00842676322779217
2.12,-0.008402313995637177
2.124,-0.008384499953329556
2.128,-0.008389596548429712
2.132,-0.008370027546488547
2.136,-0.00838560581830412
2.14,-0.008410271415345439
2.144,-0.008395318197645925
2.148,-0.008360747896919396
2.152,-0.008366084897448806
2.156,-0.008360146883346265
2.16,-0.008355627261276316
2.164,-0.008362118207866137
2.168,-0.008354713720645156
2.172,-0.008343847395242937
2.176,-0.008382192061208731
2.18,-0.008408372212454343
2.184,-0.008414646794157836
2.188,-0.008439841283143516
2.192,-0.008484484571355729
2.196,-0.008447462135250824
2.2,-0.008427460403537004
2.204,-0.008395654765246879
2.208,-0.008387000169793784
2.212,-0.008406785536621275
2.216,-0.008394572940815243
2.22,-0.008395005670587896
2.224,-0.008383658534327173
2.228,-0.008360483450947219
2.232,-0.00835839192371272
2.236,-0.008371301695263587
2.24,-0.008379066790628447
2.244,-0.008385629858847044
2.248,-0.008393683440727008
2.2520000000000002,-0.00840305925246786
2.2560000000000002,-0.008390654332318424
2.2600000000000002,-0.008426402619648292
2.2640000000000002,-0.00843748530993684
2.2680000000000002,-0.008403179455182486
2.2720000000000002,-0.008402338036180103
2.2760000000000002,-0.008433710944697572
2.2800000000000002,-0.008423181186896308
2.2840000000000003,-0.008411040712719047
2.2880000000000003,-0.008447053446021095
2.2920000000000003,-0.008429840417286606
2.2960000000000003,-0.008385966426447998
2.3000000000000003,-0.008366589748850236
2.3040000000000003,-0.008396400022077562
2.308,-0.008416930645735737
2.312,-0.008390558170146722
2.316,-0.008373777871184889
2.32,-0.008369138046400314
2.324,-0.008369186127486165
2.328,-0.008375460709189658
2.332,-0.008390582210689649
2.336,-0.008403419860611739
2.34,-0.008407723117795361
2.344,-0.008406473009563247
2.348,-0.008416690240306484
2.352,-0.008439721080428888
2.356,-0.008435465904331117
2.36,-0.008431667498548925
2.364,-0.008445226364758774
2.368,-0.008475757854273859
2.372,-0.008451116297775464
2.376,-0.008443687770011556
2.38,-0.008434552363699957
2.384,-0.008442461702322369
2.388,-0.00843940855337086
2.392,-0.008409958888287411
2.396,-0.008381206398948796
2.4,-0.008373152817068833
2.404,-0.008373633627927337
2.408,-0.008391207264805705
2.412,-0.008409790604486933
2.416,-0.008439288350656235
2.42,-0.008434912971843836
2.424,-0.008406833617707126
2.428,-0.008394164251585512
2.432,-0.008409237671999652
2.436,-0.008410247374802515
2.44,-0.008406424928477397
2.444,-0.00842625837639074
2.448,-0.00843945663445671
2.452,-0.008459482406713455
2.456,-0.008468689934653831
2.46,-0.008451500946462267
2.464,-0.00841224273986531
2.468,-0.008401616819892344
2.472,-0.008388683007798553
2.476,-0.00839849154931206
2.48,-0.008404766131015554
2.484,-0.008411713847920955
2.488,-0.008410295455888363
2.492,-0.008414214064385183
2.496,-0.00844351948621108
2.5,-0.008446861121677692
2.504,-0.008429143241541773
2.508,-0.008407915442138763
2.512,-0.008410992631633196
2.516,-0.008428782633397894
2.52,-0.00843017698488756
2.524,-0.008415079523930492
2.528,-0.008413396685925723
2.532,-0.008455107027901056
2.536,-0.008450202757144303
2.54,-0.008423157146353381
2.544,-0.008427796971137958
2.548,-0.008475878056988484
2.552,-0.008463040407066394
2.556,-0.008432124268864506
2.56,-0.00840940595580013
2.564,-0.008380581344832739
2.568,-0.008365700248762
2.572,-0.008378153249997288
2.576,-0.008392481413580745
2.58,-0.008401785103692822
2.584,-0.008412891834524292
2.588,-0.008421065619118885
2.592,-0.008432076187778656
2.596,-0.00843794208025242
2.6,-0.00844570717561728
2.604,-0.00847554148938753
2.608,-0.008464194353126807
2.612,-0.008447750621765927
2.616,-0.008451861554606147
2.62,-0.008435634188131595
2.624,-0.008414406388728585
2.628,-0.008392265048694416
2.632,-0.00838935614300046
2.636,-0.008378465777055316
2.64,-0.00839625577882001
2.644,-0.008419815510886771
2.648,-0.008414334267099808
2.652,-0.008422195524636371
2.656,-0.008426546862905844
2.66,-0.008428974957741297
2.664,-0.008432653160808861
2.668,-0.008441211594090255
2.672,-0.008458977555312025
2.676,-0.008454626217042552
2.68,-0.008482681530636334
2.684,-0.008517997088193547
2.688,-0.008490590869258746
2.692,-0.008438999864141131
2.696,-0.008406473009563247
2.7,-0.008411040712719047
2.704,-0.008427700808966257
2.708,-0.008420993497490108
2.712,-0.008390437967432097
2.716,-0.00839118322426278
2.72,-0.008405607550017938
2.724,-0.008422652294951951
2.728,-0.008477801300422506
2.732,-0.008477200286849375
2.736,-0.008422339767893923
2.74,-0.008410992631633196
2.744,-0.008408564536797745
2.748,-0.008407771198881211
2.7520000000000002,-0.008407891401595837
2.7560000000000002,-0.00841205041552191
2.7600000000000002,-0.008416738321392335
2.7640000000000002,-0.008412098496607758
2.7680000000000002,-0.008439023904684055
2.7720000000000002,-0.00847097378623173
2.7760000000000002,-0.0084224118895227
2.7800000000000002,-0.00840128025229139
2.7840000000000003,-0.008437413188308063
2.7880000000000003,-0.008448736284025862
2.7920000000000003,-0.00846635800199008
2.7960000000000003,-0.008482369003578306
2.8000000000000003,-0.008451885595149072
2.8040000000000003,-0.008444240702498837
2.8080000000000003,-0.008434408120442405
2.8120000000000003,-0.008411208996519525
2.816,-0.00841041565860299
2.82,-0.008400198427859754
2.824,-0.008400462873831931
2.828,-0.008408708780055297
2.832,-0.008419502983828743
2.836,-0.008423758159926513
2.84,-0.008429840417286606
2.844,-0.008432196390493281
2.848,-0.008422796538209503
2.852,-0.00840310733355371
2.856,-0.008405270982416984
2.86,-0.00843570630976037
2.864,-0.008476959881420122
2.868,-0.008506481668132344
2.872,-0.008511890790290529
2.876,-0.008454554095413775
2.88,-0.008436283282790577
2.884,-0.008448375675881983
2.888,-0.008412939915610143
2.892,-0.008401039846862138
2.896,-0.008416858524106962
2.9,-0.008415199726645117
2.904,-0.008415464172617296
2.908,-0.00842621029530489
2.912,-0.008431403052576747
2.916,-0.008438519053282625
2.92,-0.008442293418521893
2.924,-0.008439120066855757
2.928,-0.00843017698488756
2.932,-0.008439552796628412
2.936,-0.008456188852332694
2.94,-0.008483042138780213
2.944,-0.008497346261820745
2.948,-0.008479724543856527
2.952,-0.00844392817544081
2.956,-0.008441812607663387
2.96,-0.008427917173852585
2.964,-0.008425993930418563
2.968,-0.00847539724612998
2.972,-0.008474147137897866
2.976,-0.008437052580164184
2.98,-0.008418926010798534
2.984,-0.008451717311348595
2.988,-0.008435586107045744
2.992,-0.008411978293893133
2.996,-0.008422628254409027
3.0,-0.008431811741806476
3.004,-0.008433927309583901
3.008,-0.008433133971667367
3.012,-0.008424864024901077
3.016,-0.008435441863788192
3.02,-0.0084590496769408
3.024,-0.008484917301128384
3.028,-0.008477657057164955
3.032,-0.008440009566943992
3.036,-0.008432484877008385
3.04,-0.008449553662485322
3.044,-0.008454602176499626
3.048,-0.008461886461005982
3.052,-0.008444601310642718
3.056,-0.008466261839818379
3.06,-0.008471093988946358
3.064,-0.008435970755732547
3.068,-0.008431499214748448
3.072,-0.008472464299893097
3.076,-0.008475998259703112
3.08,-0.00846366546118245
3.084,-0.008440682702145898
3.088,-0.008417531659308869
3.092,-0.008405847955447191
3.096,-0.008416978726821588
3.1,-0.008479436057341423
3.104,-0.0084886435852818
3.108,-0.008439168147941607
3.112,-0.008425272714130806
3.116,-0.008413757294069603
3.12,-0.008417195091707914
3.124,-0.008428157579281836
3.128,-0.008435730350303296
3.132,-0.008462679798922516
3.136,-0.00846772831293682
3.14,-0.008468329326509951
3.144,-0.008454409852156224
3.148,-0.00845270297360853
3.152,-0.008477392611192775
3.156,-0.008456429257761947
3.16,-0.008445731216160204
3.164,-0.008465756988416949
3.168,-0.008450731649088659
3.172,-0.008453087622295335
3.176,-0.008477657057164955
3.18,-0.00846412223149803
3.184,-0.0084498181084575
3.188,-0.008465973353303275
3.192,-0.008456789865905825
3.196,-0.008426835349420948
3.2,-0.008426859389963872
3.204,-0.008442702107751622
3.208,-0.008447774662308852
3.212,-0.008450899932889135
3.216,-0.008440081688572767
3.22,-0.008422508051694401
3.224,-0.008420416524459903
3.228,-0.008453087622295335
3.232,-0.008500351329686403
3.236,-0.008498620410595783
3.24,-0.008482417084664157
3.244,-0.00849011005840024
3.248,-0.008475204921786578
3.2520000000000002,-0.00844890456782634
3.2560000000000002,-0.008437845918080718
3.2600000000000002,-0.008458665028253995
3.2640000000000002,-0.008470949745688806
3.2680000000000002,-0.008458112095766714
3.2720000000000002,-0.008431980025606954
3.2760000000000002,-0.008412122537150684
3.2800000000000002,-0.008424190889699168
3.2840000000000003,-0.0084498181084575
3.2880000000000003,-0.008442870391552098
3.2920000000000003,-0.008438615215454326
3.2960000000000003,-0.008450226797687229
3.3000000000000003,-0.00846438667747021
3.3040000000000003,-0.008456837946991676
3.3080000000000003,-0.008458568866082296
3.3120000000000003,-0.00845671774427705
3.3160000000000003,-0.008476719475990869
3.3200000000000003,-0.008482994057694362
3.3240000000000003,-0.008473257637809631
3.3280000000000003,-0.008482609409007559
3.332,-0.008487609841936012
3.336,-0.008453111662838261
3.34,-0.008458064014680864
3.344,-0.00848777812573649
3.348,-0.008493475734409776
3.352,-0.008478354232909787
3.356,-0.008464242434212657
3.36,-0.008468377407595802
3.364,-0.008433999431212676
3.368,-0.008418685605369281
3.372,-0.008435441863788192
3.376,-0.008445947581046533
3.38,-0.008430970322804092
3.384,-0.00842794121439551
3.388,-0.00843387922849805
3.392,-0.008445971621589457
3.396,-0.008456886028077527
3.4,-0.008469266907684037
3.404,-0.008479339895169722
3.408,-0.008510760884773042
3.412,-0.008509318452197526
3.416,-0.00848462881461328
3.42,-0.008476695435447943
3.424,-0.008499509910684018
3.428,-0.008506914397905
3.432,-0.008463545258467825
3.436,-0.008435081255644314
3.44,-0.008424214930242094
3.444,-0.008442870391552098
3.448,-0.008439841283143516
3.452,-0.008444649391728568
3.456,-0.008459434325627605
3.46,-0.00844722172982157
3.464,-0.008434624485328732
3.468,-0.008443759891640333
3.472,-0.008470733380802477
3.476,-0.008472127732292143
3.48,-0.008441524121148283
3.484,-0.00844909689216974
3.488,-0.008455684000931264
3.492,-0.00845864098771107
3.496,-0.008461189285261149
3.5,-0.00846041998788754
3.504,-0.008490350463829493
3.508,-0.008506601870846972
3.512,-0.008489845612428062
3.516,-0.008495374937300872
3.52,-0.008516963344847759
3.524,-0.008447053446021095
3.528,-0.008418853889169757
3.532,-0.008426354538562442
3.536,-0.008443134837524275
3.54,-0.008447245770364495
3.544,-0.008444505148471016
3.548,-0.008438374810025073
3.552,-0.008442654026665771
3.556,-0.008457246636221405
3.56,-0.008466141637103753
3.564,-0.008471093988946358
3.568,-0.008455203190072758
3.572,-0.00845251064926513
3.576,-0.00845864098771107
3.58,-0.008463689501725376
3.584,-0.008457054311878003
3.588,-0.008463376974667348
3.592,-0.008470949745688806
3.596,-0.00848559043633029
3.6,-0.008504005492211043
3.604,-0.008492826639750796
3.608,-0.00851326110123727
3.612,-0.008494196950697535
3.616,-0.008468016799451923
3.62,-0.008444408986299315
3.624,-0.008434167715013152
3.628,-0.008450491243659406
3.632,-0.008494341193955087
3.636,-0.008487850247365265
3.64,-0.008450443162573556
3.644,-0.008440418256173721
3.648,-0.008456068649618068
3.652,-0.00844128371571903
3.656,-0.008437244904507587
3.66,-0.008447702540680077
3.664,-0.008461646055576729
3.668,-0.008453231865552887
3.672,-0.008458689068796921
3.676,-0.008496552923904211
3.68,-0.008483522949638719
3.684,-0.008458761190425696
3.688,-0.008474868354185624
3.692,-0.00852203589940499
3.696,-0.008522925399493226
3.7,-0.008460131501372438
3.704,-0.008457246636221405
3.708,-0.008449193054341442
3.712,-0.00844250978340822
3.716,-0.008461213325804073
3.72,-0.008465492542444771
3.724,-0.00845027487877308
3.728,-0.00844109139137563
3.732,-0.00844082694540345
3.736,-0.008446861121677692
3.74,-0.008451909635691998
3.744,-0.008454193487269897
3.748,-0.008464290515298508
3.7520000000000002,-0.00848357103072457
3.7560000000000002,-0.008488018531165743
3.7600000000000002,-0.00848051788177306
3.7640000000000002,-0.008502779424521854
3.7680000000000002,-0.008536412144074298
3.7720000000000002,-0.008507395208763504
3.7760000000000002,-0.008469747718542543
3.7800000000000002,-0.008457871690337463
3.7840000000000003,-0.008451909635691998
3.7880000000000003,-0.008459362203998828
3.7920000000000003,-0.008473786529753986
3.7960000000000003,-0.008453135703381185
3.8000000000000003,-0.008440586539974197
3.8040000000000003,-0.00844356756729693
3.8080000000000003,-0.008450106594972603
3.8120000000000003,-0.008458400582281818
3.8160000000000003,-0.008464554961270685
3.8200000000000003,-0.008470300651029824
3.8240000000000003,-0.008473738448668135
3.8280000000000003,-0.008472416218807247
3.8320000000000003,-0.008495519180558424
3.8360000000000003,-0.008531291508431217
3.84,-0.008504750749041726
3.844,-0.008510496438800863
3.848,-0.008556510037959819
3.852,-0.008525113088899425
3.856,-0.008469867921257168
3.86,-0.008449241135427292
3.864,-0.008446187986475784
3.868,-0.008454962784643506
3.872,-0.008505568127501185
3.876,-0.008506722073561597
3.88,-0.008453424189896289
3.884,-0.008427700808966257
3.888,-0.008443663729468632
3.892,-0.00845169327080567
3.896,-0.008454866622471805
3.9,-0.008462607677293739
3.904,-0.008469579434742065
3.908,-0.00847215177283507
3.912,-0.008465973353303275
3.916,-0.00846316060978102
3.92,-0.008460492109516316
3.924,-0.008487994490622817
3.928,-0.00854381663129528
3.932,-0.00854852857770863
3.936,-0.008555452254071108
3.94,-0.008539777820083836
3.944,-0.008481551625118846
3.948,-0.008474387543327118
3.952,-0.008482489206292932
3.956,-0.008473377840524257
3.96,-0.008457030271335078
3.964,-0.008459073717483726
3.968,-0.008469218826598186
3.972,-0.008487345395963835
3.976,-0.008482777692808035
3.98,-0.008476479070561616
3.984,-0.008503957411125192
3.988,-0.008491985220748411
3.992,-0.008462800001637141
3.996,-0.008454361771070375
4.0,-0.008464026069326329
4.0040000000000004,-0.008467463866964642
4.008,-0.008462487474579113
4.0120000000000005,-0.008485927003931245
4.016,-0.008497971315936801
4.0200000000000005,-0.008512059074091007
4.024,-0.00852107427768798
4.0280000000000005,-0.00850422185709737
4.032,-0.008488114693337443
4.0360000000000005,-0.00849965415394157
4.04,-0.008482248800863679
4.0440000000000005,-0.0084933074506093
4.048,-0.008502923667779405
4.0520000000000005,-0.008480157273629182
4.056,-0.008487850247365265
4.0600000000000005,-0.008527949872964605
4.064,-0.008534849508784156
4.0680000000000005,-0.008501505275746815
4.072,-0.008474964516357325
4.0760000000000005,-0.008506313384331868
4.08,-0.008494052707439984
4.0840000000000005,-0.008457030271335078
4.088,-0.00844397625652666
4.0920000000000005,-0.008440610580517123
4.096,-0.00846169413666258
4.1,-0.008478306151823937
4.104,-0.008491095720660176
4.108,-0.008498836775482112
4.112,-0.008498476167338231
4.116,-0.008499341626883542
4.12,-0.008505399843700709
4.124,-0.008517708601678444
4.128,-0.008542374198719763
4.132,-0.008542662685234867
4.136,-0.00852422358881119
4.14,-0.008496865450962239
4.144,-0.00848458073352743
4.148,-0.008524824602384322
4.152,-0.008552158699690346
4.156,-0.008504894992299276
4.16,-0.008476911800334271
4.164,-0.00849741838344952
4.168,-0.008505808532930438
4.172,-0.008489100355597379
4.176,-0.008492730477579095
4.18,-0.008519223155882735
4.184,-0.008519824169455866
4.188,-0.008496721207704687
4.192,-0.008477560894993253
4.196,-0.008474748151470998
4.2,-0.008498716572767484
4.204,-0.008507731776364458
4.208,-0.00850604893835969
4.212,-0.008505087316642679
4.216,-0.008522660953521048
4.22,-0.00851015987119991
4.224,-0.008499029099825512
4.228,-0.008480734246659388
4.232,-0.008513597668838222
4.236,-0.008548456456079856
4.24,-0.008536219819730897
4.244,-0.008507900060164934
4.248,-0.008517732642221368
4.252,-0.008531123224630741
4.256,-0.008511914830833455
4.26,-0.008476094421874811
4.264,-0.008475757854273859
4.268,-0.008496625045532986
4.272,-0.008499822437742046
4.276,-0.008476791597619644
4.28,-0.008484148003754775
4.284,-0.008503668924610089
4.288,-0.008520088615428044
4.292,-0.00851910295316811
4.296,-0.00851102533074522
4.3,-0.008519175074796884
4.304,-0.0085205213452007
4.308,-0.008514054439153802
4.312,-0.008550980713087008
4.316,-0.008551798091546468
4.32,-0.008520954074973355
4.324,-0.008492946842465422
4.328,-0.008501264870317563
4.332,-0.008500952343259534
4.336,-0.008488379139309622
4.34,-0.008484556692984504
4.344,-0.008485181747100562
4.348,-0.008496889491505165
4.352,-0.00851761243950674
4.356,-0.00850280346506478
4.36,-0.00849700969421979
4.364,-0.008511842709204678
4.368,-0.008568386066164899
4.372,-0.00856112582220147
4.376,-0.008510280073914536
4.38,-0.008485662557959066
4.384,-0.00848001303037163
4.388,-0.008497081815848566
4.392,-0.008520497304657775
4.396,-0.008528238359479709
4.4,-0.008525473697043304
4.404,-0.008510736844230116
4.408,-0.008510352195543311
4.412,-0.008501793762261919
4.416,-0.00849458159938434
4.42,-0.008525281372699901
4.424,-0.008535739008872391
4.428,-0.008524463994240443
4.432,-0.008521098318230906
4.436,-0.00851888658828178
4.44,-0.008514487168926457
4.444,-0.008547374631648218
4.448,-0.008525113088899425
4.452,-0.00851910295316811
4.456,-0.008508116425051263
4.46,-0.008509919465770658
4.464,-0.008526723805275417
4.468,-0.008501336991946338
4.472,-0.008492009261291336
4.476,-0.008495783626530603
4.48,-0.00848960520699881
4.484,-0.008503861248953491
4.488,-0.00850568833021581
4.492,-0.008529175940653794
4.496,-0.008560548849171262
4.5,-0.008551245159059187
4.5040000000000004,-0.008532253130148227
4.508,-0.0085708622420862
4.5120000000000005,-0.008567376363362038
4.516,-0.008540571158000368
4.5200000000000005,-0.008538359428051244
4.524,-0.008532878184264285
4.5280000000000005,-0.008513886155353326
4.532,-0.008497706869964624
4.5360000000000005,-0.008502923667779405
4.54,-0.008515881520416123
4.5440000000000005,-0.008510231992828686
4.548,-0.008516025763673675
4.5520000000000005,-0.008508909762967797
4.556,-0.008525425615957453
4.5600000000000005,-0.008543552185323102
4.564,-0.008578987945594939
4.5680000000000005,-0.008578266729307182
4.572,-0.008524920764556023
4.5760000000000005,-0.008518213453079874
4.58,-0.008522468629177646
4.5840000000000005,-0.008520857912801653
4.588,-0.008511818668661754
4.5920000000000005,-0.008508188546680038
4.596,-0.008507755816907384
4.6000000000000005,-0.008512876452550465
4.604,-0.008507803897993235
4.6080000000000005,-0.008522252264291319
4.612,-0.008551028794172858
4.616,-0.008590984176514646
4.62,-0.008605793150956609
4.624,-0.008547903523592575
4.628,-0.008539513374111657
4.632,-0.008521458926374785
4.636,-0.00849477392372774
4.64,-0.008494437356126788
4.644,-0.008501938005519469
4.648,-0.008508573195366843
4.652,-0.00851705950701946
4.656,-0.008526627643103716
4.66,-0.008530930900287339
4.664,-0.008539946103884312
4.668,-0.008550115253541699
4.672,-0.008556101348730088
4.676,-0.00856893899865218
4.68,-0.008586103946300818
4.684,-0.008615337246497937
4.688,-0.008559539146368401
4.692,-0.008500231126971776
4.696,-0.008489557125912959
4.7,-0.00849193713966256
4.704,-0.008504919032842203
4.708,-0.008521867615604514
4.712,-0.008545355226042496
4.716,-0.008548336253365228
4.72,-0.008540186509313565
4.724,-0.008549105550738838
4.728,-0.008566943633589383
4.732,-0.00858086310794311
4.736,-0.00859538359586997
4.74,-0.00861370248957902
4.744,-0.00857807440496378
4.748,-0.008547374631648218
4.752,-0.008533094549150612
4.756,-0.008508717438624394
4.76,-0.008495783626530603
4.764,-0.008508477033195141
4.768,-0.00851568919607272
4.772,-0.00852107427768798
4.776,-0.008530474129971759
4.78,-0.00853970569845506
4.784,-0.008547494834362845
4.788,-0.008547086145133114
4.792,-0.008549946969741222
4.796,-0.008555211848641855
4.8,-0.008559298740939148
4.804,-0.008565477160470942
4.808,-0.00858958982502498
4.812,-0.008623871639236407
4.816,-0.008622910017519397
4.82,-0.008569828498740415
4.824,-0.008524776521298471
4.828,-0.008522997521122002
4.832,-0.008518670223395454
4.836,-0.008521651250718187
4.84,-0.008533575360009118
4.844,-0.008528574927080663
4.848,-0.008534248495211024
4.852,-0.008530930900287339
4.856,-0.008504510343612473
4.86,-0.008509967546856508
4.864,-0.008523093683293702
4.868,-0.008553841537695114
4.872,-0.008569419809510684
4.876,-0.008539369130854105
4.88,-0.008517540317877966
4.884,-0.008515088182499589
4.888,-0.00853655638733185
4.892,-0.008543768550209429
4.896,-0.0085434560231514
4.9,-0.008554538713439946
4.904,-0.008583411405493188
4.908,-0.00861050509736996
4.912,-0.008614447746409702
4.916,-0.008574901053297645
4.92,-0.008529825035312777
4.924,-0.00852696421070467
4.928,-0.008508044303422486
4.932,-0.008510280073914536
4.936,-0.008513789993181625
4.94,-0.008520232858685596
4.944,-0.008523838940124385
4.948,-0.008517227790819938
4.952,-0.008520833872258727
4.956,-0.008526844007990043
4.96,-0.008534104251953473
4.964,-0.008538695995652199
4.968,-0.008545427347671272
4.972,-0.00856893899865218
4.976,-0.008604639204896196
4.98,-0.008583363324407338
4.984,-0.008556678321760295
4.988,-0.008552879915978103
4.992,-0.008527949872964605
4.996,-0.008518213453079874
5.0,-0.00856035652482786
5.0040000000000004,-0.008612211975917654
5.008,-0.008596200974329428
5.0120000000000005,-0.008529825035312777
5.016,-0.008510039668485283
5.0200000000000005,-0.008536388103531373
5.024,-0.008522083980490841
5.0280000000000005,-0.008506481668132344
5.032,-0.008507010560076701
5.0360000000000005,-0.008511674425404202
5.04,-0.008515256466300065
5.0440000000000005,-0.008521555088546486
5.048,-0.008526675724189567
5.0520000000000005,-0.008531796359832648
5.056,-0.008533166670779389
5.0600000000000005,-0.008537493968505935
5.064,-0.008561654714145824
5.0680000000000005,-0.008587546378876333
5.072,-0.008584204743409722
5.0760000000000005,-0.008596321177044055
5.08,-0.008588652243850895
5.0840000000000005,-0.008567736971505917
5.088,-0.0085411721715735
5.0920000000000005,-0.008529320183911346
5.096,-0.00851910295316811
5.1000000000000005,-0.008507659654735683
5.104,-0.008493908464182432
5.1080000000000005,-0.008520353061400223
5.112,-0.008539321049768255
5.1160000000000005,-0.00852960867042645
5.12,-0.008529007656853318
5.124,-0.008533166670779389
5.128,-0.008542278036548062
5.132,-0.008547831401963798
5.136,-0.008553144361950281
5.14,-0.008552278902404972
5.144,-0.008550547983314354
5.148,-0.00856396260626665
5.152,-0.008575958837186357
5.156,-0.008552663551091777
5.16,-0.008535450522357288
5.164,-0.008539633576826284
5.168,-0.008537782455021039
5.172,-0.008544393604325486
5.176,-0.00854655725318876
5.18,-0.008516218088017077
5.184,-0.008500351329686403
5.188,-0.008514655452726934
5.192,-0.00853244545449163
5.196,-0.008542782887949494
5.2,-0.008540402874199892
5.204,-0.008534657184440754
5.208,-0.008530474129971759
5.212,-0.008549995050827073
5.216,-0.008570790120457425
5.22,-0.008588676284393821
5.224,-0.00860680285375947
5.228,-0.008591344784658525
5.232,-0.008586753040959799
5.236,-0.008547302510019443
5.24,-0.008520473264114849
5.244,-0.008504558424698324
5.248,-0.008523862980667311
5.252,-0.008538623874023423
5.256,-0.008528166237850934
5.26,-0.00852331004818003
5.264,-0.008533647481637893
5.268,-0.008534320616839801
5.272,-0.008534416779011502
5.276,-0.008540883685058398
5.28,-0.00854533118549957
5.284,-0.008548264131736453
5.288,-0.008550908591458233
5.292,-0.008562736538577462
5.296,-0.008572472958462193
5.3,-0.008581920891831822
5.304,-0.008588892649280148
5.308,-0.008582113216175224
5.312,-0.008551004753629934
5.316,-0.008539417211939956
5.32,-0.008573458620722129
5.324,-0.008578531175279359
5.328,-0.008570549715028172
5.332,-0.00856771293096299
5.336,-0.008544489766497187
5.34,-0.008535378400728513
5.344,-0.008538167103707842
5.348,-0.0085523991051196
5.352,-0.008534008089781771
5.356,-0.00851112149291692
5.36,-0.008531315548974143
5.364,-0.008550836469829456
5.368,-0.00855985167342643
5.372,-0.008570766079914499
5.376,-0.008552663551091777
5.38,-0.008558601565194316
5.384,-0.00856893899865218
5.388,-0.008563698160294472
5.392,-0.00856218360609018
5.396,-0.008569227485167284
5.4,-0.008575165499269823
5.404,-0.008591344784658525
5.408,-0.008600287866626723
5.412,-0.008562664416948687
5.416,-0.008544658050297664
5.42,-0.008546076442330254
5.424,-0.008585142324583806
5.428,-0.008578939864509088
5.432,-0.008548312212822304
5.436,-0.008556966808275399
5.44,-0.00855025949679925
5.444,-0.00854340794206555
5.448,-0.008540859644515472
5.452,-0.00854198955003296
5.456,-0.008547398672191144
5.46,-0.008551365361773812
5.464,-0.008552375064576673
5.468,-0.00855340880792246
5.472,-0.008557231254247576
5.476,-0.008560332484284935
5.48,-0.008562664416948687
5.484,-0.008577064702160919
5.488,-0.008573578823436755
5.492,-0.008582521905404953
5.496,-0.008591176500858048
5.5,-0.00859076781162832
5.5040000000000004,-0.008580382297084604
5.508,-0.00859959069088189
5.5120000000000005,-0.008588892649280148
5.516,-0.008580718864685559
5.5200000000000005,-0.008560019957226907
5.524,-0.008533647481637893
5.5280000000000005,-0.008545884117986851
5.532,-0.008565068471241213
5.5360000000000005,-0.008547422712734069
5.54,-0.008535450522357288
5.5440000000000005,-0.00851742011516334
5.548,-0.008512587966035361
5.5520000000000005,-0.008550187375170474
5.556,-0.008554250226924845
5.5600000000000005,-0.008557736105649007
5.564,-0.008555644578414508
5.5680000000000005,-0.00856076521405759
5.572,-0.008571054566429603
5.5760000000000005,-0.008564443417125155
5.58,-0.008568746674308778
5.5840000000000005,-0.008563409673779368
5.588,-0.008560861376229292
5.5920000000000005,-0.008572064269232463
5.596,-0.008558168835421662
5.6000000000000005,-0.008553745375523412
5.604,-0.00856208744391848
5.6080000000000005,-0.008552831834892253
5.612,-0.008553961740409741
5.6160000000000005,-0.00854513886115617
5.62,-0.008553168402493207
5.6240000000000006,-0.008554731037783349
5.628,-0.008561318146544872
5.632,-0.008588435878964568
5.636,-0.008590359122398588
5.64,-0.008572400836833418
5.644,-0.008565453119928016
5.648,-0.008565044430698287
5.652,-0.008556798524474921
5.656,-0.008556149429815939
5.66,-0.008563217349435968
5.664,-0.008602090907346118
5.668,-0.008605095975211776
5.672,-0.008578723499622761
5.676,-0.008554610835068723
5.68,-0.008540811563429621
5.684,-0.008537493968505935
5.688,-0.008534008089781771
5.692,-0.008539922063341386
5.696,-0.008557255294790502
5.7,-0.008559539146368401
5.704,-0.008555452254071108
5.708,-0.008559563186911328
5.712,-0.008562928862920864
5.716,-0.008564347254953454
5.72,-0.008565453119928016
5.724,-0.008563577957579846
5.728,-0.008556894686646622
5.732,-0.008559611267997178
5.736,-0.008584084540695095
5.74,-0.008582521905404953
5.744,-0.008585623135442312
5.748,-0.008600744636942303
5.752,-0.008587906987020213
5.756,-0.0086096877189105
5.76,-0.008629328842480442
5.764,-0.008603869907522587
5.768,-0.008574227918095737
5.772,-0.00856090945731514
5.776,-0.008548143929021828
5.78,-0.008547542915448696
5.784,-0.008528983616310392
5.788,-0.008510472398257939
5.792,-0.008516506574532179
5.796,-0.008540018225513087
5.8,-0.008557038929904174
5.804,-0.008565140592869988
5.808,-0.008568313944536122
5.812,-0.008570116985255517
5.816,-0.008566150295672849
5.82,-0.008557736105649007
5.824,-0.00857720894541847
5.828,-0.008597162596046438
5.832,-0.0086119715704884
5.836,-0.008618101908934344
5.84,-0.008616106543871547
5.844,-0.00860228323168952
5.848,-0.008575502066870777
5.852,-0.00856533291721339
5.856,-0.008567881214763469
5.86,-0.0085638183630091
5.864,-0.008581704526945495
5.868,-0.008605648907699057
5.872,-0.008578771580708612
5.876,-0.008565188673955839
5.88,-0.00855605326764424
5.884,-0.008543215617722148
5.888,-0.008545667753100524
5.892,-0.0085523991051196
5.896,-0.008551076875258709
5.9,-0.008555596497328658
5.904,-0.00855852944356554
5.908,-0.008573194174749952
5.912,-0.008607956799819882
5.916,-0.008626492058415262
5.92,-0.008632574315775353
5.924,-0.008629280761394591
5.928,-0.008608966502622743
5.932,-0.008572304674661716
5.936,-0.00855437042963947
5.94,-0.00855167788883184
5.944,-0.008556413875788118
5.948,-0.008554682956697498
5.952,-0.00855263951054885
5.956,-0.008553721334980488
5.96,-0.008557087010990025
5.964,-0.00856259229531991
5.968,-0.00856761676879129
5.972,-0.008566727268703056
5.976,-0.008560140159941533
5.98,-0.008568193741821497
5.984,-0.008608077002534508
5.988,-0.00863238199143195
5.992,-0.00861903949010843
5.996,-0.008577136823789694
6.0,-0.008580214013284128
6.0040000000000004,-0.008586176067929593
6.008,-0.00857579055338588
6.0120000000000005,-0.008595551879670446
6.016,-0.008600528272055976
6.0200000000000005,-0.008551966375346944
6.024,-0.008537301644162533
6.0280000000000005,-0.008550980713087008
6.032,-0.008552375064576673
6.0360000000000005,-0.008552807794349328
6.04,-0.008553288605207833
6.0440000000000005,-0.008555764781129136
6.048,-0.008554731037783349
6.0520000000000005,-0.008558337119222138
6.056,-0.008566631106531355
6.0600000000000005,-0.008570068904169666
6.064,-0.008558000551621184
6.0680000000000005,-0.008543215617722148
6.072,-0.008573073972035324
6.0760000000000005,-0.008632574315775353
6.08,-0.008664355913522551
6.0840000000000005,-0.008647671776732417
6.088,-0.008628920153250712
6.0920000000000005,-0.00862608336918553
6.096,-0.008584685554268227
6.1000000000000005,-0.008581536243145017
6.104,-0.008557255294790502
6.1080000000000005,-0.008543143496093373
6.112,-0.008545259063870795
6.1160000000000005,-0.008550475861685577
6.12,-0.008555716700043285
6.1240000000000006,-0.008559611267997178
6.128,-0.008564467457668081
6.132000000000001,-0.008573025890949474
6.136,-0.008575550147956627
6.140000000000001,-0.008575718431757104
6.144,-0.008576319445330235
6.148,-0.008568770714851702
6.152,-0.008594181568723706
6.156,-0.008630218342568677
6.16,-0.008632165626545623
6.164,-0.008604999813040075
6.168,-0.008632742599575829
6.172,-0.008635891910699038
6.176,-0.008577353188676022
6.18,-0.00855994783559813
6.184,-0.008559250659853298
6.188,-0.00856350583595107
6.192,-0.00856670322816013
6.196,-0.008572304674661716
6.2,-0.0085799014862261
6.204,-0.008584084540695095
6.208,-0.008589830230454234
6.212,-0.008588339716792867
6.216,-0.008588724365479672
6.22,-0.008619472219881083
6.224,-0.008684549969579772
6.228,-0.008664067427007448
6.232,-0.008609327110766622
6.236,-0.008574708728954243
6.24,-0.008583699892008292
6.244,-0.00861100994877139
6.248,-0.008583459486579039
6.252,-0.008575694391214179
6.256,-0.008583291202778561
6.26,-0.008574035593752336
6.264,-0.00857081416100035
6.268,-0.008575165499269823
6.272,-0.008581896851288897
6.276,-0.008581920891831822
6.28,-0.008592162163117983
6.284,-0.008596633704102083
6.288,-0.00861233217863228
6.292,-0.008632045423830996
6.296,-0.008645436006240369
6.3,-0.00868582411835481
6.304,-0.008670221805996315
6.308,-0.00860365354263626
6.312,-0.008576559850759488
6.316,-0.008568602431051226
6.32,-0.008571655580002734
6.324,-0.008585791419242789
6.328,-0.008614928557268208
6.332,-0.008632550275232426
6.336,-0.008598653109707805
6.34,-0.008577521472476498
6.344,-0.008588748406022596
6.348,-0.008588940730365998
6.352,-0.008584252824495573
6.356,-0.00858670495987395
6.36,-0.008578098445506705
6.364,-0.008577401269761873
6.368,-0.008594061366009079
6.372,-0.008631492491343715
6.376,-0.008642719424889814
6.38,-0.008654859899067072
6.384,-0.008672289292687888
6.388,-0.008641974168059131
6.392,-0.008634762005181552
6.396,-0.008657648602046403
6.4,-0.00863365614020699
6.404,-0.008589710027739608
6.408,-0.00857254508009097
6.412,-0.008572496999005119
6.416,-0.008577473391390648
6.42,-0.008584901919154555
6.424,-0.00859273913614819
6.428,-0.008596946231160111
6.432,-0.008595287433698268
6.436,-0.008590359122398588
6.44,-0.008603942029151363
6.444,-0.00862553043669825
6.448,-0.008629208639765816
6.452,-0.00867171231965768
6.456,-0.008707124039386593
6.46,-0.008687458875273729
6.464,-0.008653489588120332
6.468,-0.008606514367244366
6.472,-0.008589854270997158
6.476,-0.008585094243497956
6.48,-0.008574949134383496
6.484,-0.00857629540478731
6.488,-0.008585551013813536
6.492,-0.008591392865744375
6.496,-0.008593820960579828
6.5,-0.008600720596399377
6.5040000000000004,-0.008612812989490785
6.508,-0.008614832395096507
6.5120000000000005,-0.008617020084502706
6.516,-0.008645724492755472
6.5200000000000005,-0.008679357212307915
6.524,-0.008685751996726035
6.5280000000000005,-0.008643104073576617
6.532,-0.008631780977858819
6.5360000000000005,-0.008648465114648951
6.54,-0.008622453247203817
6.5440000000000005,-0.008621683949830209
6.548,-0.008629016315422414
6.5520000000000005,-0.008607524070047227
6.556,-0.008597907852877121
6.5600000000000005,-0.008582618067576655
6.564,-0.008580574621428007
6.5680000000000005,-0.008590695689999543
6.572,-0.008599206042195086
6.5760000000000005,-0.008605552745527356
6.58,-0.008617020084502706
6.5840000000000005,-0.008624833260953417
6.588,-0.008624256287923212
6.5920000000000005,-0.008626443977329411
6.596,-0.008659042953536067
6.6000000000000005,-0.008695079727381037
6.604,-0.00865644657490014
6.6080000000000005,-0.008635651505269785
6.612,-0.008631805018401745
6.6160000000000005,-0.008614928557268208
6.62,-0.008613317840892216
6.6240000000000006,-0.008648777641706979
6.628,-0.00868709826712985
6.632000000000001,-0.008662120143030501
6.636,-0.008603966069694288
6.640000000000001,-0.008578651377993986
6.644,-0.008580045729483652
6.648000000000001,-0.008589301338509877
6.652,-0.008598917555679982
6.656000000000001,-0.008608173164706209
6.66,-0.008616419070929575
6.664,-0.008624088004122735
6.668,-0.00863238199143195
6.672,-0.008629160558679965
6.676,-0.008644883073753088
6.68,-0.0086620239808588
6.684,-0.008685415429125081
6.688,-0.00867878023927771
6.692,-0.008640820221998718
6.696,-0.008610721462256287
6.7,-0.008616274827672025
6.704,-0.008636468883729246
6.708,-0.00866111044022764
6.712,-0.008652095236630667
6.716,-0.008623799517607632
6.72,-0.008608197205249135
6.724,-0.008608052961991583
6.728,-0.008629040355965338
6.732,-0.008634641802466925
6.736,-0.008617861503505091
6.74,-0.008610865705513839
6.744,-0.008614832395096507
6.748,-0.008617452814275362
6.752,-0.00863740646490333
6.756,-0.00864476287103846
6.76,-0.008667529265188685
6.764,-0.008679140847421588
6.768,-0.008653153020519378
6.772,-0.008629040355965338
6.776,-0.008626203571900158
6.78,-0.008618198071106045
6.784,-0.00862228496340334
6.788,-0.008628439342392207
6.792,-0.008627573882846898
6.796,-0.008628198936962955
6.8,-0.008631636734601267
6.804,-0.008635266856582982
6.808,-0.008639858600281707
6.812,-0.008643969533121926
6.816,-0.0086528885745472
6.82,-0.008681785307143367
6.824,-0.008685223104781679
6.828,-0.008684381685779294
6.832,-0.008672601819745916
6.836,-0.008614736232924806
6.84,-0.008612668746233234
6.844,-0.008653826155721285
6.848,-0.008665389656868337
6.852,-0.008640627897655316
6.856,-0.008623342747292052
6.86,-0.008634978370067879
6.864,-0.008634906248439104
6.868,-0.00863507453223958
6.872,-0.008621203138971703
6.876,-0.008617981706219718
6.88,-0.008618390395449448
6.884,-0.008621683949830209
6.888,-0.008628992274879487
6.892,-0.00865009987156787
6.896,-0.00865695142630157
6.9,-0.008633584018578213
6.904,-0.008650797047312702
6.908,-0.008675342441639396
6.912,-0.00865425888549394
6.916,-0.008635002410610803
6.92,-0.008655292628839727
6.924,-0.008682193996373096
6.928,-0.008677818617560697
6.932,-0.008650869168941477
6.936,-0.008617116246674408
6.94,-0.008614183300437525
6.944,-0.008634257153780122
6.948,-0.008627597923389824
6.952,-0.008625386193440698
6.956,-0.008628078734248328
6.96,-0.00862050596322687
6.964,-0.00860593739421416
6.968,-0.008623847598693482
6.972,-0.008663586616148942
6.976,-0.008688540699705365
6.98,-0.008719769364965284
6.984,-0.008723615851833327
6.988,-0.008668755332877873
6.992,-0.008657215872273747
6.996,-0.008650388358082973
7.0,-0.008684525929036846
7.0040000000000004,-0.008649282493108411
7.008,-0.008614303503152152
7.0120000000000005,-0.00861137055691527
7.016,-0.008615457449212565
7.0200000000000005,-0.008621395463315105
7.024,-0.008627525801761047
7.0280000000000005,-0.008631636734601267
7.032,-0.008635771707984413
7.0360000000000005,-0.008642959830319066
7.04,-0.008659571845480423
7.0440000000000005,-0.008673515360377075
7.048,-0.008668466846362771
7.0520000000000005,-0.00867435677937946
7.056,-0.008661278724028117
7.0600000000000005,-0.008634233113237196
7.064,-0.008619424138795233
7.0680000000000005,-0.00863694969458775
7.072,-0.008665822386640992
7.0760000000000005,-0.008687266550930326
7.08,-0.008671399792599652
7.0840000000000005,-0.00865841789942001
7.088,-0.008651638466315087
7.0920000000000005,-0.008649330574194262
7.096,-0.00863923354616565
7.1000000000000005,-0.008634810086267403
7.104,-0.008646421668500303
7.1080000000000005,-0.008658129412904907
7.112,-0.008669957360024136
7.1160000000000005,-0.008660918115884238
7.12,-0.00863142036971494
7.1240000000000006,-0.00865740819661715
7.128,-0.00864644570904323
7.132000000000001,-0.008679886104252271
7.136,-0.00873943452907815
7.140000000000001,-0.00870217168754399
7.144,-0.008657504358788851
7.148000000000001,-0.008630530869626705
7.152,-0.008615313205955013
7.156000000000001,-0.00862238112557504
7.16,-0.008638872938021772
7.164000000000001,-0.008633439775320662
7.168,-0.008632357950889026
7.172,-0.008649883506681543
7.176,-0.008672145049430336
7.18,-0.008658201534533684
7.184,-0.008651854831201414
7.188,-0.00863649292427217
7.192,-0.008631805018401745
7.196,-0.008634329275408897
7.2,-0.008660894075341312
7.204,-0.008666110873156095
7.208,-0.008648200668676774
7.212,-0.00864786410107582
7.216,-0.008638392127163266
7.22,-0.008634329275408897
7.224,-0.00864512347918234
7.228,-0.00865690334521572
7.232,-0.008659595886023348
7.236,-0.008688684942962916
7.24,-0.008715922878097242
7.244,-0.008677866698646548
7.248,-0.008627790247733224
7.252,-0.008623583152721303
7.256,-0.008625193869097297
7.26,-0.008645315803525741
7.264,-0.008641902046430354
7.268,-0.008617597057532914
7.272,-0.00863603615395659
7.276,-0.008637358383817479
7.28,-0.008665197332524934
7.284,-0.008668106238218891
7.288,-0.008627573882846898
7.292,-0.008614327543695077
7.296,-0.008619760706396187
7.3,-0.008630699153427183
7.304,-0.008641012546342119
7.308,-0.008676448306613958
7.312,-0.008711259012769739
7.316,-0.008660533467197433
7.32,-0.0086277662071903
7.324,-0.008649763303966915
7.328,-0.008701570673970859
7.332,-0.008717269148501057
7.336,-0.008642935789776141
7.34,-0.008619015449565504
7.344,-0.008627237315245943
7.348,-0.008640435573311914
7.352,-0.008627044990902543
7.356,-0.008601081204543257
7.36,-0.008602643839833399
7.364,-0.008613245719263439
7.368,-0.00862973753171017
7.372,-0.008640796181455792
7.376,-0.008643945492579002
7.38,-0.008631107842656912
7.384,-0.008653321304319854
7.388,-0.008716836418728403
7.392,-0.008717942283702965
7.396,-0.008701450471256231
7.4,-0.008750517219366696
7.404,-0.008732246406743496
7.408,-0.008663730859406494
7.412,-0.008628295099134656
7.416,-0.008622020517431161
7.42,-0.008618871206307952
7.424,-0.008634185032151345
7.428,-0.008623847598693482
7.432,-0.008624136085208584
7.436,-0.008631083802113986
7.44,-0.008614447746409702
7.444,-0.008615433408669639
7.448,-0.008641373154486
7.452,-0.008657552439874702
7.456,-0.00866736098138821
7.46,-0.008670870900655298
7.464,-0.00867933317176499
7.468,-0.00872537081146687
7.472,-0.00872902497399151
7.476,-0.008685655834554334
7.48,-0.008695199930095663
7.484,-0.008732727217602002
7.488,-0.00868750695635958
7.492,-0.008649811385052766
7.496,-0.008650532601340525
7.5,-0.008642527100546412
7.5040000000000004,-0.00863507453223958
7.508,-0.008641757803172802
7.5120000000000005,-0.008625434274526549
7.516,-0.00861831827382067
7.5200000000000005,-0.008630530869626705
7.524,-0.00864014708679681
7.5280000000000005,-0.008638945059650547
7.532,-0.008641517397743551
7.5360000000000005,-0.008645676411669622
7.54,-0.00865151826360046
7.5440000000000005,-0.008657191831730821
7.548,-0.008675703049783275
7.5520000000000005,-0.00869491144358056
7.556,-0.008687434834730803
7.5600000000000005,-0.00868289117211793
7.564,-0.008697772268188667
7.5680000000000005,-0.008713326499461311
7.572,-0.008660966196970089
7.5760000000000005,-0.008698325200675948
7.58,-0.008672313333230812
7.5840000000000005,-0.00860776447547648
7.588,-0.008597571285276167
7.5920000000000005,-0.008615914219528144
7.596,-0.00866801007604719
7.6000000000000005,-0.00866928422482223
7.604,-0.008631901180573446
7.6080000000000005,-0.00862242920666089
7.612,-0.008626588220586961
7.6160000000000005,-0.00863380038346454
7.62,-0.008638055559562312
7.6240000000000006,-0.008646830357730034
7.628,-0.008659932453624302
7.632000000000001,-0.008664500156780101
7.636,-0.008657143750644972
7.640000000000001,-0.008659259318422395
7.644,-0.00868440572632222
7.648000000000001,-0.008698325200675948
7.652,-0.008709143444992316
7.656000000000001,-0.008718278851303917
7.66,-0.00869070434856864
7.664000000000001,-0.008650364317540047
7.668,-0.008664548237865952
7.672000000000001,-0.00863380038346454
7.676,-0.0086277662071903
7.68,-0.008645700452212546
7.684,-0.008642623262718113
7.688,-0.008634185032151345
7.692,-0.00863466584300985
7.696,-0.00864969118233814
7.7,-0.00865695142630157
7.704,-0.008665149251439084
7.708,-0.008688588780791215
7.712,-0.008726620919698985
7.716,-0.008747319827157636
7.72,-0.008701474511799158
7.724,-0.008668154319304741
7.728,-0.008660942156427162
7.732,-0.008631324207543239
7.736,-0.008623126382405723
7.74,-0.008657816885846879
7.744,-0.008656206169470887
7.748,-0.008649739263423991
7.752,-0.008651758669029713
7.756,-0.00866010073742478
7.76,-0.008654571412551968
7.764,-0.008634473518666448
7.768,-0.008626323774614784
7.772,-0.008636348681014618
7.776,-0.00865380211517836
7.78,-0.008655557074811904
7.784,-0.008659860331995527
7.788,-0.008663802981035269
7.792,-0.008686425131927942
7.796,-0.008717172986329355
7.8,-0.008701426430713307
7.804,-0.008670606454683118
7.808,-0.008676304063356406
7.812,-0.008659884372538451
7.816,-0.008621443544400956
7.82,-0.00863000197768235
7.824,-0.008643512762806347
7.828,-0.008654691615266595
7.832,-0.008679212969050363
7.836,-0.008673323036033674
7.84,-0.008638295964991565
7.844,-0.008617957665676792
7.848,-0.008635507262012235
7.852,-0.008651085533827806
7.856,-0.008657744764218104
7.86,-0.008667986035504265
7.864,-0.008671736360200607
7.868,-0.008672265252144961
7.872,-0.008674837590237966
7.876,-0.008678179225704578
7.88,-0.008718350972932694
7.884,-0.008773355735145696
7.888,-0.008722053216543185
7.892,-0.008684598050665623
7.896,-0.008672673941374692
7.9,-0.008653369385405705
7.904,-0.008656302331642588
7.908,-0.008639305667794426
7.912,-0.008662384589002679
7.916,-0.008656302331642588
7.92,-0.008637550708160881
7.924,-0.008631083802113986
7.928,-0.008635411099840534
7.932,-0.008642527100546412
7.936,-0.008649811385052766
7.94,-0.00865654273707184
7.944,-0.008661302764571043
7.948,-0.008664956927095683
7.952,-0.008668514927448622
7.956,-0.008698349241218872
7.96,-0.008718807743248274
7.964,-0.008692699713631435
7.968,-0.008669404427536855
7.972,-0.008681544901714114
7.976,-0.008711427296570215
7.98,-0.008697219335701386
7.984,-0.008662312467373904
7.988,-0.008658393858877084
7.992,-0.00865668698032939
7.996,-0.008637887275761836
8.0,-0.008627573882846898
8.004,-0.00863091551831351
8.008000000000001,-0.008629376923566292
8.012,-0.008632574315775353
8.016,-0.008639089302908099
8.02,-0.008646758236101258
8.024000000000001,-0.008653393425948631
8.028,-0.008659066994078993
8.032,-0.008663250048547988
8.036,-0.008664788643295205
8.040000000000001,-0.008680294793482
8.044,-0.008692603551459736
8.048,-0.008685896239983587
8.052,-0.008675751130869125
8.056000000000001,-0.008713518823804714
8.06,-0.008703974728263385
8.064,-0.008690920713454967
8.068,-0.008676736793129062
8.072000000000001,-0.008669164022107604
8.076,-0.008647791979447044
8.08,-0.008641156789599671
8.084,-0.008651374020342908
8.088000000000001,-0.008655917682955783
8.092,-0.00864964310125229
8.096,-0.008646710155015407
8.1,-0.008647888141618746
8.104000000000001,-0.008653369385405705
8.108,-0.008655484953183128
8.112,-0.008658057291276132
8.116,-0.008674212536121908
8.120000000000001,-0.008674044252321432
8.124,-0.00865324918269108
8.128,-0.00869632983561315
8.132,-0.008755133003608346
8.136000000000001,-0.00870572968789693
8.14,-0.008693444970462118
8.144,-0.008675198198381844
8.148,-0.008651205736542432
8.152000000000001,-0.00864598893872765
8.156,-0.008650484520254674
8.16,-0.008653273223234004
8.164,-0.008647647736189493
8.168000000000001,-0.008659235277879469
8.172,-0.008667120575958956
8.176,-0.008671087265541624
8.18,-0.00867805902298995
8.184000000000001,-0.008685223104781679
8.188,-0.008693396889376268
8.192,-0.008693757497520148
8.196,-0.00869435851109328
8.2,-0.008708590512505035
8.204,-0.008727414257615519
8.208,-0.008712244675029675
8.212,-0.008702412092973242
8.216,-0.008709287688249868
8.22,-0.008682770969403302
8.224,-0.008649907547224467
8.228,-0.008645387925154518
8.232,-0.00865101341219903
8.236,-0.008650893209484404
8.24,-0.00866207206194465
8.244,-0.0086687793734208
8.248,-0.008669452508622706
8.252,-0.00867339515766245
8.256,-0.008673082630604421
8.26,-0.00867440486046531
8.264,-0.008668995738307126
8.268,-0.008684285523607593
8.272,-0.008697171254615535
8.276,-0.008719673202793583
8.28,-0.008705296958124274
8.284,-0.008710946485711711
8.288,-0.008737944015416783
8.292,-0.008713759229233967
8.296,-0.008685944321069438
8.3,-0.008678660036563082
8.304,-0.008688901307849245
8.308,-0.008682746928860377
8.312,-0.008656927385758644
8.316,-0.008649210371479634
8.32,-0.008648344911934325
8.324,-0.008650917250027328
8.328,-0.00865608596675626
8.332,-0.008662144183573426
8.336,-0.00866938038699393
8.34,-0.00867618386064178
8.344,-0.00868298733428963
8.348,-0.008695416294981991
8.352,-0.008714600648236353
8.356,-0.008733208028460506
8.36,-0.008725010203322992
8.364,-0.008709816580194223
8.368,-0.008685703915640185
8.372,-0.00866978907622366
8.376,-0.008686064523784063
8.38,-0.008694622957065457
8.384,-0.008668851495049574
8.388,-0.008662216305202202
8.392,-0.008661495088914443
8.396,-0.00866928422482223
8.4,-0.008691473645942248
8.404,-0.00868075156379758
8.408,-0.00864923441202256
8.412,-0.008651085533827806
8.416,-0.008655388791011426
8.42,-0.008685583712925557
8.424,-0.008700969660397727
8.428,-0.008751022070768126
8.432,-0.008728375879332529
8.436,-0.008679261050136214
8.44,-0.00866248075117438
8.444,-0.008675919414669601
8.448,-0.00867435677937946
8.452,-0.008653898277350061
8.456,-0.008656927385758644
8.46,-0.008665894508269767
8.464,-0.008673803846892179
8.468,-0.00867527032001062
8.472,-0.008665918548812693
8.476,-0.008663658737777719
8.48,-0.00867445294155116
8.484,-0.008692026578429528
8.488,-0.008692843956888987
8.492,-0.008693252646118716
8.496,-0.008711259012769739
8.5,-0.00872678920349946
8.504,-0.008735660163838883
8.508000000000001,-0.008694887403037635
8.512,-0.008685559672382633
8.516,-0.008684069158721266
8.52,-0.00866928422482223
8.524000000000001,-0.008656302331642588
8.528,-0.008660052656338929
8.532,-0.008686809780614747
8.536,-0.008689718686308703
8.540000000000001,-0.00868851665916244
8.544,-0.008671279589885027
8.548,-0.008658586183220487
8.552,-0.00870582585006863
8.556000000000001,-0.008687915645589309
8.56,-0.008654018480064687
8.564,-0.008657263953359598
8.568,-0.008661230642942266
8.572000000000001,-0.008648200668676774
8.576,-0.008665509859582964
8.58,-0.008683564307319836
8.584,-0.008673683644177553
8.588000000000001,-0.008667385021931134
8.592,-0.008672890306261019
8.596,-0.008686761699528896
8.6,-0.008711571539827767
8.604000000000001,-0.008720081892023312
8.608,-0.00870678747178564
8.612,-0.008669212103193453
8.616,-0.008647599655103642
8.620000000000001,-0.008662216305202202
8.624,-0.008657792845303953
8.628,-0.008654523331466117
8.632,-0.008663827021578195
8.636000000000001,-0.00864598893872765
8.64,-0.008641349113943073
8.644,-0.008656470615443064
8.648,-0.008666279156956572
8.652000000000001,-0.00866736098138821
8.656,-0.008674236576664834
8.66,-0.008680463077282477
8.664,-0.00868120833411316
8.668000000000001,-0.008674573144265788
8.672,-0.008684525929036846
8.676,-0.008721476243512978
8.68,-0.008741429894140947
8.684000000000001,-0.00874491577286511
8.688,-0.008732799339230777
8.692,-0.008683660469491537
8.696,-0.008661038318598864
8.700000000000001,-0.008658177493990758
8.704,-0.008685751996726035
8.708,-0.008681328536827786
8.712,-0.008653850196264211
8.716,-0.008642911749233215
8.72,-0.008657937088561505
8.724,-0.008676039617384229
8.728,-0.008650436439168824
8.732,-0.008636613126986797
8.736,-0.008640339411140213
8.74,-0.008641757803172802
8.744,-0.00864430610072288
8.748,-0.008662264386288053
8.752,-0.00867608769847008
8.756,-0.008678179225704578
8.76,-0.00868527118586753
8.764,-0.008693709416434298
8.768,-0.008701450471256231
8.772,-0.008728784568562258
8.776,-0.008765590639780836
8.78,-0.008751214395111529
8.784,-0.008677866698646548
8.788,-0.008629473085737993
8.792,-0.00867029392762509
8.796,-0.008698229038504247
8.8,-0.00869796459253207
8.804,-0.008710874364082934
8.808,-0.00868632896975624
8.812,-0.008671183427713326
8.816,-0.008653369385405705
8.82,-0.008637093937845302
8.824,-0.008634834126810327
8.828,-0.008643632965520974
8.832,-0.008652383723145769
8.836,-0.008661471048371519
8.84,-0.008670510292511417
8.844,-0.00868070348271173
8.848,-0.008690656267482789
8.852,-0.00868349218569106
8.856,-0.008673972130692657
8.86,-0.008679958225881046
8.864,-0.008691329402684696
8.868,-0.008732510852715675
8.872,-0.00875998919327925
8.876,-0.008721692608399306
8.88,-0.00868298733428963
8.884,-0.008689574443051152
8.888,-0.008681689144971666
8.892,-0.008667745630075012
8.896,-0.008659619926566274
8.9,-0.008661471048371519
8.904,-0.008655653236983606
8.908,-0.008653321304319854
8.912,-0.008649739263423991
8.916,-0.00865659081815769
8.92,-0.008665894508269767
8.924,-0.008673082630604421
8.928,-0.00867608769847008
8.932,-0.008677313766159267
8.936,-0.008677746495931922
8.94,-0.00868582411835481
8.944,-0.008712124472315048
8.948,-0.008722317662515362
8.952,-0.00870669130961394
8.956,-0.008696594281585328
8.96,-0.008691930416257827
8.964,-0.008717653797187861
8.968,-0.008730731852539204
8.972,-0.008704143012063861
8.976,-0.008700873498226026
8.98,-0.008714744891493905
8.984,-0.008689454240336526
8.988,-0.008676712752586135
8.992,-0.008671111306084549
8.996,-0.008664908846009832
9.0,-0.008645099438639415
9.004,-0.008642719424889814
9.008000000000001,-0.008646349546871528
9.012,-0.008652215439345292
9.016,-0.00866010073742478
9.02,-0.008657528399331775
9.024000000000001,-0.008664644400037653
9.028,-0.008664836724381056
9.032,-0.008664956927095683
9.036,-0.008736982393699773
9.040000000000001,-0.008786650155383366
9.044,-0.008772442194514537
9.048,-0.008748882462447777
9.052,-0.008694935484123485
9.056000000000001,-0.008663418332348466
9.06,-0.008646758236101258
9.064,-0.008644907114296012
9.068,-0.008651374020342908
9.072000000000001,-0.008666663805643376
9.076,-0.008735804407096434
9.08,-0.008751647124884184
9.084,-0.00868385279383494
9.088000000000001,-0.008643055992490767
9.092,-0.008637045856759451
9.096,-0.008636228478299993
9.1,-0.008626011247556756
9.104000000000001,-0.00864476287103846
9.108,-0.00866572622446929
9.112,-0.008663418332348466
9.116,-0.008669188062650528
9.120000000000001,-0.008700248444109968
9.124,-0.008727919109016949
9.128,-0.008714215999549546
9.132,-0.008699527227822211
9.136000000000001,-0.008697724187102816
9.14,-0.008724481311378636
9.144,-0.008704744025636993
9.148,-0.008677217603987566
9.152000000000001,-0.008681064090855608
9.156,-0.008674092333407282
9.16,-0.008644810952124311
9.164,-0.008646662073929556
9.168000000000001,-0.00866065366991206
9.172,-0.008671832522372308
9.176,-0.008672145049430336
9.18,-0.008680607320540028
9.184000000000001,-0.008711403256027291
9.188,-0.008719553000078957
9.192,-0.008689598483594078
9.196,-0.008677385887788044
9.200000000000001,-0.008697315497873087
9.204,-0.008692291024401706
9.208,-0.008687362713102028
9.212,-0.00871231679665845
9.216000000000001,-0.00873070781199628
9.22,-0.008697267416787237
9.224,-0.008670558373597268
9.228,-0.008660990237513013
9.232,-0.008657456277703
9.236,-0.008669548670794407
9.24,-0.008685295226410455
9.244,-0.00867664063095736
9.248,-0.008668274522019369
9.252,-0.008678732158191859
9.256,-0.008676520428242733
9.26,-0.008676832955300763
9.264,-0.008687050186044
9.268,-0.008698565606105201
9.272,-0.008699094498049556
9.276,-0.008707316363729995
9.28,-0.00871582671592554
9.284,-0.008707532728616324
9.288,-0.008690175456624283
9.292,-0.00873618905578324
9.296,-0.008775447262380194
9.3,-0.008729145176706136
9.304,-0.008697171254615535
9.308,-0.008677241644530492
9.312,-0.008671471914228429
9.316,-0.008679958225881046
9.32,-0.008680222671853224
9.324,-0.00868846857807659
9.328,-0.008693156483947017
9.332,-0.008677818617560697
9.336,-0.008674044252321432
9.34,-0.008672241211602037
9.344,-0.008692387186573407
9.348,-0.00871034547213858
9.352,-0.008713422661633012
9.356,-0.00874455516472123
9.36,-0.008722437865229988
9.364,-0.008706907674500266
9.368,-0.00868293925320378
9.372,-0.00865618212892796
9.376,-0.008662192264659276
9.38,-0.008682362280173573
9.384,-0.008679405293393765
9.388,-0.008672553738660065
9.392,-0.008693372848833343
9.396,-0.008736717947727596
9.4,-0.008727774865759397
9.404,-0.008708686674676737
9.408,-0.008693108402861166
9.412,-0.008679910144795196
9.416,-0.008673972130692657
9.42,-0.00866755330573161
9.424,-0.008673226873861973
9.428,-0.008704479579664815
9.432,-0.008743473340289593
9.436,-0.008732054082400093
9.44,-0.0086894301997936
9.444,-0.008675077995667219
9.448,-0.00867928509067914
9.452,-0.008680895807055132
9.456,-0.008688757064591693
9.46,-0.008698493484476424
9.464,-0.008705104633780872
9.468,-0.008711234972226815
9.472,-0.008701041782026502
9.476,-0.008683997037092491
9.48,-0.00867796286081825
9.484,-0.008701113903655277
9.488,-0.008708542431419185
9.492,-0.008693565173176746
9.496,-0.008687434834730803
9.5,-0.00868435764523637
9.504,-0.008690992835083742
9.508000000000001,-0.008701690876685484
9.512,-0.008708446269247484
9.516,-0.008732703177059075
9.52,-0.008774461600120258
9.524000000000001,-0.008755325327951749
9.528,-0.008720514621795968
9.532,-0.008713903472491518
9.536,-0.008677674374303146
9.540000000000001,-0.008666351278585347
9.544,-0.008680943888140983
9.548,-0.00868293925320378
9.552,-0.008682602685602826
9.556000000000001,-0.008680847725969281
9.56,-0.008696161551812675
9.564,-0.008701642795599634
9.568,-0.008705345039210124
9.572000000000001,-0.00870669130961394
9.576,-0.008703782403919983
9.58,-0.008714215999549546
9.584,-0.008733424393346834
9.588000000000001,-0.008730491447109951
9.592,-0.008720322297452565
9.596,-0.00870943193150742
9.6,-0.008704335336407264
9.604000000000001,-0.00872303887880312
9.608,-0.008720730986682294
9.612,-0.008674212536121908
9.616,-0.008682242077458947
9.620000000000001,-0.008707172120472444
9.624,-0.00872385625726258
9.628,-0.008747391948786412
9.632,-0.008706955755586117
9.636000000000001,-0.008674236576664834
9.64,-0.008675005874038442
9.644,-0.008683828753292013
9.648,-0.008688492618619514
9.652000000000001,-0.008694959524666411
9.656,-0.00870176299831426
9.66,-0.008706306660927135
9.664,-0.0087145525671505
9.668000000000001,-0.008727606581958921
9.672,-0.008759724747307072
9.676,-0.00875643119292631
9.68,-0.008743401218660818
9.684000000000001,-0.008753762692661607
9.688,-0.008686713618443045
9.692,-0.008666663805643376
9.696,-0.008681352577370712
9.700000000000001,-0.008673058590061495
9.704,-0.008676929117472464
9.708,-0.008688396456447815
9.712,-0.008698565606105201
9.716000000000001,-0.008709648296393747
9.72,-0.008733977325834115
9.724,-0.008748642057018526
9.728,-0.0087144564049788
9.732,-0.008691185159427144
9.736,-0.008701522592885008
9.74,-0.008720634824510593
9.744,-0.008728568203675931
9.748,-0.008730058717337298
9.752,-0.008721067554283249
9.756,-0.008704984431066246
9.76,-0.008692507389288034
9.764,-0.00870861455304796
9.768,-0.00872700556838579
9.772,-0.008697099132986759
9.776,-0.008691401524313472
9.78,-0.008707821215131426
9.784,-0.00870039268736752
9.788,-0.008721283919169575
9.792,-0.008759628585135371
9.796,-0.008750973989682276
9.8,-0.008719528959536031
9.804,-0.00868678574007182
9.808,-0.008689790807937478
9.812,-0.008702460174059092
9.816,-0.008704744025636993
9.82,-0.008704431498578965
9.824,-0.008707099998843669
9.828,-0.008709792539651299
9.832,-0.008713398621090088
9.836,-0.008712869729145731
9.84,-0.008710633958653683
9.844,-0.008728952852362734
9.848,-0.008738857556047943
9.852,-0.00871710086470058
9.856,-0.008710513755939056
9.86,-0.008741934745542378
9.864,-0.008790111993564605
9.868,-0.008820330956021662
9.872,-0.008746165881097223
9.876,-0.008698277119590097
9.88,-0.008706018174412031
9.884,-0.008722798473373868
9.888,-0.008713807310319817
9.892,-0.00870714807992952
9.896,-0.008707628890788025
9.9,-0.008694719119237158
9.904,-0.008694767200323009
9.908,-0.008701137944198203
9.912,-0.008713062053489134
9.916,-0.00873404944746289
9.92,-0.008746358205440626
9.924,-0.008749507516563835
9.928,-0.008737511285644128
9.932,-0.008712196593943825
9.936,-0.008696041349098047
9.94,-0.008739146042563047
9.944,-0.00873349651497561
9.948,-0.008736621785555895
9.952,-0.00873090013633968
9.956,-0.008712797607516956
9.96,-0.008727726784673547
9.964,-0.008749219030048732
9.968,-0.008745276381008988
9.972,-0.008728327798246678
9.976,-0.00870938385042157
9.98,-0.008712196593943825
9.984,-0.00872532273038102
9.988,-0.00872527464929517
9.992,-0.008724000500520131
9.996,-0.008725899703411227
10.0,-0.00873573228546766
10.004,-0.00874349738083252
10.008000000000001,-0.00874501193503681
10.012,-0.008722774432830942
10.016,-0.00873527551515208
10.02,-0.008754483908949364
10.024000000000001,-0.008770807437595618
10.028,-0.008758859287761763
10.032,-0.008726164149383405
10.036,-0.008715418026695811
10.040000000000001,-0.008715057418551933
10.044,-0.008712004269600422
10.048,-0.008704263214778487
10.052,-0.008700921579311877
10.056000000000001,-0.008711787904714096
10.06,-0.008715706513210915
10.064,-0.00872537081146687
10.068,-0.008737078555871474
10.072000000000001,-0.008737583407272905
10.076,-0.008734794704293574
10.08,-0.008740828880567816
10.084,-0.008734987028636976
10.088000000000001,-0.008711018607340486
10.092,-0.008716956621443029
10.096,-0.008768836113075747
10.1,-0.0087622249637713
10.104000000000001,-0.008743449299746669
10.108,-0.008747968921816618
10.112,-0.00874816124616002
10.116,-0.008727582541415995
10.120000000000001,-0.008712100431772124
10.124,-0.008712749526431106
10.128,-0.008707051917757818
10.132,-0.008702291890258616
10.136000000000001,-0.008720105932566238
10.14,-0.008740732718396114
10.144,-0.008743329097032043
10.148,-0.008725226568209319
10.152000000000001,-0.008723255243689448
10.156,-0.008729337501049539
10.16,-0.008730058717337298
10.164,-0.008724962122237142
10.168000000000001,-0.008743064651059864
10.172,-0.008766023369553491
10.176,-0.008776625248983531
10.18,-0.008794679696720405
10.184000000000001,-0.008758258274188632
10.188,-0.008725130406037618
10.192,-0.008717245107958132
10.196,-0.008745324462094839
10.200000000000001,-0.00873349651497561
10.204,-0.008700296525195819
10.208,-0.008704816147265768
10.212,-0.008691521727028098
10.216000000000001,-0.00868298733428963
10.22,-0.008692074659515379
10.224,-0.008699959957594865
10.228,-0.008707797174588501
10.232000000000001,-0.00871568247266799
10.236,-0.008722293621972438
10.24,-0.008727774865759397
10.244,-0.008733352271718058
10.248,-0.0087212117975408
10.252,-0.008719528959536031
10.256,-0.008753762692661607
10.26,-0.008811243630795912
10.264,-0.008808743414331684
10.268,-0.008760806571738708
10.272,-0.008743473340289593
10.276,-0.008720490581253043
10.28,-0.008695704781497093
10.284,-0.008692459308202184
10.288,-0.008712749526431106
10.292,-0.008732679136516151
10.296,-0.008729698109193417
10.3,-0.008713663067062265
10.304,-0.008711667701999468
10.308,-0.008705345039210124
10.312,-0.008717365310672758
10.316,-0.008740227866994684
10.32,-0.008732222366200571
10.324,-0.008703686241748282
10.328,-0.008715466107781662
10.332,-0.008716788337642552
10.336,-0.008739266245277672
10.34,-0.008757825544415976
10.344,-0.008747896800187843
10.348,-0.00871974532442236
10.352,-0.00871327841837546
10.356,-0.008712653364259405
10.36,-0.008707003836671967
10.364,-0.008711259012769739
10.368,-0.008710105066709327
10.372,-0.008708710715219661
10.376,-0.00871222063448675
10.38,-0.008724673635722038
10.384,-0.008738761393876242
10.388,-0.008739122002020122
10.392,-0.008739146042563047
10.396,-0.008755902300981956
10.4,-0.008747391948786412
10.404,-0.008758715044504211
10.408,-0.00879383827771802
10.412,-0.008774341397405632
10.416,-0.008746358205440626
10.42,-0.008708253944904081
10.424,-0.008700921579311877
10.428,-0.00871231679665845
10.432,-0.00871039355322443
10.436,-0.00872025017582379
10.44,-0.008728279717160827
10.444,-0.008724072622148906
10.448,-0.008731981960771318
10.452,-0.008743160813231565
10.456,-0.00875135863836908
10.46,-0.008758138071474004
10.464,-0.008762393247571776
10.468,-0.008773451897317397
10.472,-0.008794583534548704
10.476,-0.008784318222719616
10.48,-0.008778620614046329
10.484,-0.008795352831922312
10.488,-0.008833360930287155
10.492,-0.00880210822448431
10.496,-0.008757993828216452
10.5,-0.008746454367612327
10.504,-0.008764220328834097
10.508000000000001,-0.008783621046974784
10.512,-0.008765638720866687
10.516,-0.008740035542651282
10.52,-0.008729265379420764
10.524000000000001,-0.008732871460859553
10.528,-0.008736597745012968
10.532,-0.008741886664456527
10.536,-0.00874724770552886
10.540000000000001,-0.008760758490652859
10.544,-0.008781361235939809
10.548,-0.008775206856950941
10.552,-0.008767369639957306
10.556000000000001,-0.008775807870524073
10.56,-0.008795280710293537
10.564,-0.00882790372704312
10.568,-0.008838024795614656
10.572000000000001,-0.008843097350171886
10.576,-0.008818311550415939
10.58,-0.008764580936977975
10.584,-0.008737126636957325
10.588000000000001,-0.008729650028107567
10.592,-0.008727486379244294
10.596,-0.0087326310554303
10.6,-0.00874957963819261
10.604000000000001,-0.008759628585135371
10.608,-0.008759796868935847
10.612,-0.008766047410096416
10.616,-0.008775591505637746
10.620000000000001,-0.008781577600826136
10.624,-0.008783669128060634
10.628,-0.008785424087694178
10.632,-0.008787876223072555
10.636000000000001,-0.008790977453109914
10.64,-0.008823408145516095
10.644,-0.008838962376788741
10.648,-0.008815883455580488
10.652000000000001,-0.008810113725278424
10.656,-0.008779798600649667
10.66,-0.008752007733028063
10.664,-0.008755397449580524
10.668000000000001,-0.008776264640839653
10.672,-0.008768090856245064
10.676,-0.008749411354392134
10.68,-0.008746069718925522
10.684000000000001,-0.008746358205440626
10.688,-0.008754652192749842
10.692,-0.008768090856245064
10.696,-0.00879059280442311
10.700000000000001,-0.008803214089458873
10.704,-0.008782394979285596
10.708,-0.008769629450992281
10.712,-0.008770206424022486
10.716000000000001,-0.008829346159618636
10.72,-0.00882521118623549
10.724,-0.008811940806540743
10.728,-0.008775206856950941
10.732000000000001,-0.00875450794949229
10.736,-0.008758258274188632
10.74,-0.008752849152030447
10.744,-0.00875126247619738
10.748000000000001,-0.008752344300629017
10.752,-0.008746814975756205
10.756,-0.008746213962183074
10.76,-0.008751671165427109
10.764,-0.008758186152559855
10.768,-0.008762898098973206
10.772,-0.008756960084870667
10.776,-0.008754940679264944
10.78,-0.00878090446562423
10.784,-0.008821653185882551
10.788,-0.008818624077473967
10.792,-0.00881972994244853
10.796,-0.008822662888685412
10.8,-0.008832759916714023
10.804,-0.008782659425257773
10.808,-0.008731861758056693
10.812,-0.008729577906478792
10.816,-0.008739674934507403
10.82,-0.008756575436183862
10.824,-0.008769869856421532
10.828,-0.008769148640133775
10.832,-0.008766960950727576
10.836,-0.00877268259994379
10.84,-0.008780351533136948
10.844,-0.00880475268420609
10.848,-0.00881698932055505
10.852,-0.008812589901199725
10.856,-0.00883114920033803
10.86,-0.008822831172485888
10.864,-0.008807637549357122
10.868,-0.00877419715414808
10.872,-0.008758907368847614
10.876,-0.008756815841613115
10.88,-0.008764725180235527
10.884,-0.0087964827374398
10.888,-0.008775254938036792
10.892,-0.008756575436183862
10.896,-0.008760830612281634
10.9,-0.008768523586017719
10.904,-0.00877607231649625
10.908,-0.008782202654942194
10.912,-0.008788549358274462
10.916,-0.008807300981756168
10.92,-0.008815643050151235
10.924,-0.00880109852168145
10.928,-0.008794150804776048
10.932,-0.008802156305570161
10.936,-0.008809104022475563
10.94,-0.008831990619340414
10.944,-0.008849179607531978
10.948,-0.00881744609087063
10.952,-0.008807541387185421
10.956,-0.008810089684735498
10.96,-0.008786794398640918
10.964,-0.008770735315966843
10.968,-0.00874496385395096
10.972,-0.008773932708175903
10.976,-0.00877099976193902
10.98,-0.008765326193808659
10.984,-0.008766984991270502
10.988,-0.008767249437242679
10.992,-0.008758907368847614
10.996,-0.008768355302217241
11.0,-0.008782443060371445
11.004,-0.008800545589194169
11.008000000000001,-0.008830355862421497
11.012,-0.00880379106248908
11.016,-0.008811243630795912
11.02,-0.008818792361274445
11.024000000000001,-0.008808623211617057
11.028,-0.008805978751895278
11.032,-0.00877734646527129
11.036,-0.008759051612105164
11.040000000000001,-0.008776937776041561
11.044,-0.008777538789614693
11.048,-0.008777971519387346
11.052,-0.008781818006255389
11.056000000000001,-0.008775663627266521
11.06,-0.008776432924640129
11.064,-0.008779029303276058
11.068,-0.00878282770905825
11.072000000000001,-0.008787563696014527
11.076,-0.008792516047857132
11.08,-0.008803166008373022
11.084,-0.008809753117134545
11.088000000000001,-0.008804031467918333
11.092,-0.008828841308217204
11.096,-0.008823937037460452
11.1,-0.00879424696694775
11.104000000000001,-0.008817590334128182
11.108,-0.008795833642780818
11.112,-0.00878018324933647
11.116,-0.008798478102502597
11.120000000000001,-0.008812325455227548
11.124,-0.00881059453613693
11.128,-0.008799608008020083
11.132,-0.008785039439007374
11.136000000000001,-0.008769605410449355
11.14,-0.008761864355627421
11.144,-0.008769076518505
11.148,-0.008771119964653646
11.152000000000001,-0.008774918370435838
11.156,-0.00878359700643186
11.16,-0.00878799642578718
11.164,-0.008789895628678277
11.168000000000001,-0.008790833209852363
11.172,-0.008797155872641706
11.176,-0.008805834508637728
11.18,-0.008805425819407997
11.184000000000001,-0.008830716470565375
11.188,-0.008832543551827695
11.192,-0.008816292144810218
11.196,-0.008798694467388924
11.200000000000001,-0.008790208155736307
11.204,-0.00879237180459958
11.208,-0.008801819737969207
11.212,-0.008810522414508153
11.216000000000001,-0.008804127630090032
11.22,-0.00879643465635395
11.224,-0.008827519078356315
11.228,-0.008818696199102744
11.232000000000001,-0.008786962682441396
11.236,-0.008751502881626632
11.24,-0.008780063046621845
11.244,-0.008808430887273655
11.248000000000001,-0.008779245668162386
11.252,-0.00876126334205429
11.256,-0.008756190787497058
11.26,-0.008767369639957306
11.264,-0.00878013516825062
11.268,-0.008794367169662377
11.272,-0.008818575996388118
11.276,-0.008821821469683027
11.28,-0.00880201206231261
11.284,-0.008800569629737093
11.288,-0.00880617107623868
11.292,-0.008812277374141697
11.296,-0.008800930237880974
11.3,-0.008817373969241855
11.304,-0.00884759293169891
11.308,-0.008853146297114646
11.312,-0.008834875484491446
11.316,-0.008814993955492253
11.32,-0.008795280710293537
11.324,-0.008775038573150465
11.328,-0.00875272894931582
11.332,-0.00876881207253282
11.336,-0.008790280277365082
11.34,-0.008763547193632188
11.344,-0.008766167612811043
11.348,-0.008771071883567795
11.352,-0.008766359937154444
11.356,-0.008764412653177497
11.36,-0.0087760242354104
11.364,-0.00878607318235316
11.368,-0.008794607575091628
11.372,-0.008802733278600369
11.376,-0.008806098954609905
11.38,-0.00880694037361229
11.384,-0.008811435955139313
11.388,-0.008818215388244238
11.392,-0.008817926901729136
11.396,-0.008821292577738673
11.4,-0.008827206551298287
11.404,-0.008804440157148062
11.408,-0.008794655656177479
11.412,-0.008854276202632133
11.416,-0.00887677815081018
11.42,-0.008832110822055041
11.424,-0.00881384000943184
11.428,-0.008820282874935812
11.432,-0.008793477669574142
11.436,-0.008778163843730749
11.44,-0.008780087087164769
11.444,-0.008785904898552684
11.448,-0.008792443926228355
11.452,-0.008797708805128987
11.456,-0.008803622778688602
11.46,-0.008806002792438204
11.464,-0.008804416116605136
11.468,-0.008804175711175883
11.472,-0.008814921833863478
11.476,-0.008834130227660763
11.48,-0.008852473161912738
11.484,-0.00883571690349383
11.488,-0.008815643050151235
11.492,-0.0088191289288754
11.496,-0.008843361796144063
11.5,-0.008868291839157562
11.504,-0.008830644348936599
11.508000000000001,-0.008796050007667144
11.512,-0.008795280710293537
11.516,-0.00881059453613693
11.52,-0.008825691997093996
11.524000000000001,-0.008820258834392886
11.528,-0.008812349495770474
11.532,-0.008809031900846786
11.536,-0.0088033342921735
11.540000000000001,-0.008802132265027237
11.544,-0.008803598738145678
11.548,-0.008810474333422302
11.552,-0.008816965280012124
11.556000000000001,-0.008807108657412766
11.56,-0.00880302176511547
11.564,-0.008830956875994628
11.568,-0.008829706767762515
11.572000000000001,-0.00883434659254709
11.576,-0.00884631878292387
11.58,-0.008847256364097956
11.584,-0.00884439553948985
11.588000000000001,-0.00882739887564169
11.592,-0.00883078859219415
11.596,-0.008812277374141697
11.6,-0.008789871588135352
11.604000000000001,-0.00878799642578718
11.608,-0.008786746317555067
11.612,-0.008799463764762532
11.616,-0.008797083751012931
11.620000000000001,-0.008797973251101167
11.624,-0.008812758185000203
11.628,-0.008813719806717215
11.632,-0.008814969914949329
11.636000000000001,-0.008818720239645668
11.64,-0.00882470633483406
11.644,-0.008840116322849154
11.648,-0.008835909227837233
11.652000000000001,-0.008821196415566971
11.656,-0.008801314886567777
11.66,-0.008784678830863495
11.664,-0.008801435089282404
11.668000000000001,-0.008830139497535168
11.672,-0.008817974982814987
11.676,-0.008815787293408787
11.68,-0.008830115456992244
11.684000000000001,-0.008838481565930235
11.688,-0.008841318349995417
11.692,-0.00882302349682929
11.696,-0.008799608008020083
11.700000000000001,-0.008816003658295114
11.704,-0.008822085915655207
11.708,-0.008789607142163175
11.712,-0.008775182816408017
11.716000000000001,-0.00877633676246843
11.72,-0.008780327492594022
11.724,-0.008797468399699734
11.728,-0.00880982523876332
11.732000000000001,-0.00882013863167826
11.736,-0.008811964847083669
11.74,-0.008807998157501001
11.744,-0.008835885187294307
11.748000000000001,-0.008854781054033563
11.752,-0.008852593364627365
11.756,-0.008822855213028814
11.76,-0.008838289241586833
11.764000000000001,-0.008843746444830868
11.768,-0.008809200184647264
11.772,-0.008797708805128987
11.776,-0.008826148767409576
11.78,-0.00880987331984917
11.784,-0.008792804534372234
11.788,-0.008796795264497828
11.792,-0.008796242332010547
11.796,-0.008794607575091628
11.8,-0.008803406413802275
11.804,-0.008811435955139313
11.808,-0.008813311117487484
11.812,-0.008817133563812602
11.816,-0.008821196415566971
11.82,-0.008825379470035966
11.824,-0.008833673457345183
11.828,-0.008866200311923063
11.832,-0.008872426812540708
11.836,-0.00885074224282212
11.84,-0.008834659119605119
11.844,-0.008829346159618636
11.848,-0.008811724441654416
11.852,-0.008796146169838846
11.856,-0.008807349062842019
11.86,-0.008801387008196554
11.864,-0.008792660291114682
11.868,-0.00879114573691039
11.872,-0.008793886358803871
11.876,-0.008801266805481926
11.88,-0.008807541387185421
11.884,-0.00881251777957095
11.888,-0.00881643638806777
11.892,-0.008817926901729136
11.896,-0.008822374402170308
11.9,-0.008835524579150428
11.904,-0.008842616539313381
11.908,-0.008862137460168694
11.912,-0.00885672833801051
11.916,-0.008824826537548685
11.92,-0.00882982697047714
11.924,-0.008817686496299883
11.928,-0.008811219590252986
11.932,-0.008798550224131372
11.936,-0.008806315319496232
11.94,-0.00882612472686665
11.944,-0.008820210753307035
11.948,-0.008812277374141697
11.952,-0.008791362101796719
11.956,-0.00877369230274665
11.96,-0.00876775428864411
11.964,-0.008768980356333299
11.968,-0.008770062180764935
11.972,-0.008786746317555067
11.976,-0.008800858116252197
11.98,-0.008805906630266503
11.984,-0.008799608008020083
11.988,-0.008804536319319763
11.992,-0.008820980050680645
11.996,-0.008824489969947733
12.0,-0.00884170299868222
12.004,-0.008900698491020816
12.008000000000001,-0.00889961666658918
12.012,-0.00882302349682929
12.016,-0.008777947478844422
12.02,-0.008795953845495443
12.024000000000001,-0.008788789763703715
12.028,-0.008810955144280808
12.032,-0.008837592065842
12.036,-0.008782154573856343
12.040000000000001,-0.008753354003431878
12.044,-0.008759748787849997
12.048,-0.008782346898199745
12.052,-0.008783044073944576
12.056000000000001,-0.008780014965535994
12.06,-0.008793020899258562
12.064,-0.008790472601708484
12.068,-0.00878140931702566
12.072000000000001,-0.008790160074650456
12.076,-0.00880785391424345
12.08,-0.008808959779218011
12.084,-0.008808959779218011
12.088000000000001,-0.008800930237880974
12.092,-0.00880749330609957
12.096,-0.00881968186136268
12.1,-0.008785424087694178
12.104000000000001,-0.008822109956198131
12.108,-0.008857641878641671
12.112,-0.00881982610462023
12.116,-0.008785856817466834
12.120000000000001,-0.008775495343466045
12.124,-0.008771480572797526
12.128,-0.008771696937683853
12.132,-0.008776769492241083
12.136000000000001,-0.00878511156063615
12.14,-0.008796626980697352
12.144,-0.00880302176511547
12.148,-0.008807781792614672
12.152000000000001,-0.008816652752954096
12.156,-0.008821797429140103
12.16,-0.008814657387891299
12.164,-0.008810113725278424
12.168000000000001,-0.008798646386303073
12.172,-0.008829514443419112
12.176,-0.008837495903670299
12.18,-0.00881917700996125
12.184000000000001,-0.008818047104443762
12.188,-0.008803069846201321
12.192,-0.008788909966418342
12.196,-0.008804127630090032
12.200000000000001,-0.008822422483256159
12.204,-0.008793597872288767
12.208,-0.00878927057456222
12.212,-0.008809031900846786
12.216000000000001,-0.008803166008373022
12.22,-0.00880059367028002
12.224,-0.008804031467918333
12.228,-0.008801747616340432
12.232000000000001,-0.008800257102679065
12.236,-0.008804776724749015
12.24,-0.008801819737969207
12.244,-0.008807757752071748
12.248000000000001,-0.008834562957433418
12.252,-0.008832832038342798
12.256,-0.008828576862245027
12.26,-0.00880982523876332
12.264000000000001,-0.008789030169132968
12.268,-0.008812301414684623
12.272,-0.008824826537548685
12.276,-0.008807781792614672
12.280000000000001,-0.008794174845318975
12.284,-0.008795112426493059
12.288,-0.008805353697779222
12.292,-0.008815883455580488
12.296,-0.008820571361450914
12.3,-0.008833360930287155
12.304,-0.00882763928107094
12.308,-0.008797252034813408
12.312,-0.008798670426845998
12.316,-0.008845837972065366
12.32,-0.008827615240528016
12.324,-0.008794439291291152
12.328,-0.00882196571294058
12.332,-0.008795376872465238
12.336,-0.008769749653706907
12.34,-0.008768956315790373
12.344,-0.008780063046621845
12.348,-0.008795040304864284
12.352,-0.00879287665600101
12.356,-0.00878967926379195
12.36,-0.00879328534523074
12.364,-0.008800617710822944
12.368,-0.008804007427375407
12.372,-0.00881201292816952
12.376,-0.008826341091752978
12.38,-0.00883150980848191
12.384,-0.008852978013314168
12.388,-0.008876080975065348
12.392,-0.008833625376259332
12.396,-0.008788837844789565
12.4,-0.008780591938566201
12.404,-0.008812589901199725
12.408,-0.008823985118546302
12.412,-0.008786361668868264
12.416,-0.008772297951256985
12.42,-0.00877465392446366
12.424,-0.008770783397052694
12.428,-0.008746478408155251
12.432,-0.008755517652295151
12.436,-0.008777226262556663
12.44,-0.008795136467035985
12.444,-0.008819778023534381
12.448,-0.008868123555357085
12.452,-0.008888846503358663
12.456,-0.008844756147633729
12.46,-0.008819152969418324
12.464,-0.00883348113300178
12.468,-0.008827350794555839
12.472,-0.00880379106248908
12.476,-0.008801459129825329
12.48,-0.008831774254454087
12.484,-0.008823624510402422
12.488,-0.008792804534372234
12.492,-0.008778788897846806
12.496,-0.008775735748895298
12.5,-0.008778500411331703
12.504,-0.008783645087517708
12.508000000000001,-0.008786265506696563
12.512,-0.008792972818172711
12.516,-0.008798478102502597
12.52,-0.008800665791908795
12.524000000000001,-0.008804536319319763
12.528,-0.00881069069830863
12.532,-0.008816845077297499
12.536,-0.008831413646310208
12.540000000000001,-0.008853338621458049
12.544,-0.008864974244233876
12.548,-0.008876946434610657
12.552,-0.008866056068665513
12.556000000000001,-0.008788068547415958
12.56,-0.008784173979462065
12.564,-0.008805546022122624
12.568,-0.00879922335933328
12.572000000000001,-0.00881968186136268
12.576,-0.00884997294544851
12.58,-0.008879302407817332
12.584,-0.008819297212675875
12.588000000000001,-0.008754652192749842
12.592,-0.008749146908419957
12.596,-0.008764629018063826
12.6,-0.008769893896964458
12.604000000000001,-0.008777466667985916
12.608,-0.008786193385067786
12.612,-0.008793453629031216
12.616,-0.008798934872818177
12.620000000000001,-0.008803430454345201
12.624,-0.008802036102855536
12.628,-0.008799127197161579
12.632,-0.008808743414331684
12.636000000000001,-0.008826413213381753
12.64,-0.008838890255159965
12.644,-0.008833192646486677
12.648,-0.008855622473035948
12.652000000000001,-0.00883612559272356
12.656,-0.008804271873347584
12.66,-0.0087736442216608
12.664,-0.008778067681559048
12.668000000000001,-0.008801579332539956
12.672,-0.008802853481314994
12.676,-0.008800401345936617
12.68,-0.008805137332892895
12.684000000000001,-0.008793886358803871
12.688,-0.008777538789614693
12.692,-0.008769365005020102
12.696,-0.008773812505461276
12.700000000000001,-0.008785087520093224
12.704,-0.008788405115016912
12.708,-0.008796651021240276
12.712,-0.008799800332363486
12.716000000000001,-0.00877648100572598
12.72,-0.00879643465635395
12.724,-0.008844323417861075
12.728,-0.008843722404287943
12.732000000000001,-0.008852497202455664
12.736,-0.008819152969418324
12.74,-0.008778620614046329
12.744,-0.008773019167544742
12.748000000000001,-0.008786001060724385
12.752,-0.0087897273448778
12.756,-0.008800305183764916
12.76,-0.008794607575091628
12.764000000000001,-0.008774245235233931
12.768,-0.00876871591036112
12.772,-0.00877657716789768
12.776,-0.00879556919680864
12.780000000000001,-0.00883110111925218
12.784,-0.008866416676809392
12.788,-0.008810834941566181
12.792,-0.008762104761056672
12.796000000000001,-0.008746045678382598
12.8,-0.008772850883744266
12.804,-0.008808118360215627
12.808,-0.008774485640663184
12.812,-0.008761022936625036
12.816,-0.00878338064154553
12.82,-0.00878338064154553
12.824,-0.008768932275247448
12.828,-0.00877191330257018
12.832,-0.008777731113958093
12.836,-0.008781986290055865
12.84,-0.00878871764207494
12.844,-0.008793044939801486
12.848,-0.00879917527824743
12.852,-0.008815402644721982
12.856,-0.008828889389303055
12.86,-0.008844131093517673
12.864,-0.008826485335010528
12.868,-0.008830812632737077
12.872,-0.008842496336598754
12.876,-0.008812253333598773
12.88,-0.008798093453815792
12.884,-0.00880256499479989
12.888,-0.008764893464036003
12.892,-0.00876095081499626
12.896,-0.00876135950422599
12.9,-0.008767081153442203
12.904,-0.008770014099679084
12.908,-0.008768932275247448
12.912,-0.008770879559224395
12.916,-0.008778957181647283
12.92,-0.008782995992858728
12.924,-0.008786650155383366
12.928,-0.008774125032519304
12.932,-0.008784702871406421
12.936,-0.008840020160677453
12.94,-0.008869734271733078
12.944,-0.008845116755777607
12.948,-0.008843241593429437
12.952,-0.008820523280365063
12.956,-0.008779486073591638
12.96,-0.008760974855539186
12.964,-0.008760373841966054
12.968,-0.00877826000590245
12.972,-0.00879597788603837
12.976,-0.008801819737969207
12.98,-0.008791482304511345
12.984,-0.008779798600649667
12.988,-0.008777875357215645
12.992,-0.008778235965359524
12.996,-0.008763426990917563
13.0,-0.008745035975579737
13.004,-0.008792924737086861
13.008000000000001,-0.008817253766527228
13.012,-0.00881480163114885
13.016,-0.008808623211617057
13.02,-0.008814609306805448
13.024000000000001,-0.008836534281953289
13.028,-0.008823384104973171
13.032,-0.008794872021063807
13.036,-0.008765518518152061
13.040000000000001,-0.008765230031636958
13.044,-0.008782707506343624
13.048,-0.008798381940330896
13.052,-0.00878150547919736
13.056000000000001,-0.008767129234528053
13.06,-0.00876135950422599
13.064,-0.008771047843024871
13.068,-0.008785832776923908
13.072000000000001,-0.00878374124968941
13.076,-0.008778788897846806
13.08,-0.00879749244024266
13.084,-0.008815450725807833
13.088000000000001,-0.008799656089105934
13.092,-0.00882694210532611
13.096,-0.008850934567165522
13.1,-0.008823215821172693
13.104000000000001,-0.008781938208970014
13.108,-0.008769413086105952
13.112,-0.008773764424375425
13.116,-0.0087736442216608
13.120000000000001,-0.008764701139692601
13.124,-0.008766119531725193
13.128,-0.008768187018416765
13.132,-0.00877150461334045
13.136000000000001,-0.008773524018946172
13.14,-0.00877561554618067
13.144,-0.00877292300537304
13.148,-0.008778788897846806
13.152000000000001,-0.008763475072003413
13.156,-0.008782106492770492
13.16,-0.008809801198220396
13.164,-0.008840308647192555
13.168000000000001,-0.008821460861539149
13.172,-0.008808551089988282
13.176,-0.008808214522387328
13.18,-0.008766480139869071
13.184000000000001,-0.008750324895023294
13.188,-0.008763306788202935
13.192,-0.008766672464212474
13.196,-0.0087440503133198
13.200000000000001,-0.008731260744483561
13.204,-0.00873628521795494
13.208,-0.008744026272776874
13.212,-0.008750781665338873
13.216000000000001,-0.008752632787144119
13.22,-0.00874715154335716
13.224,-0.008759652625678295
13.228,-0.00876587912629594
13.232000000000001,-0.008759099693191014
13.236,-0.008804151670632959
13.24,-0.008838241160500982
13.244,-0.008810257968535976
13.248000000000001,-0.008789294615105145
13.252,-0.008757537057900873
13.256,-0.008755036841436645
13.26,-0.008753666530489906
13.264000000000001,-0.008739506650706925
13.268,-0.008740203826451758
13.272,-0.008746454367612327
13.276,-0.008765133869465256
13.280000000000001,-0.008782298817113895
13.284,-0.008772514316143312
13.288,-0.008757873625501827
13.292,-0.008750685503167172
13.296000000000001,-0.008734169650177518
13.3,-0.008742728083458912
13.304,-0.008757440895729171
13.308,-0.008786409749954115
13.312000000000001,-0.008809176144104338
13.316,-0.008807805833157599
13.32,-0.008770783397052694
13.324,-0.008757633220072574
13.328,-0.008747319827157636
13.332,-0.008743761826804697
13.336,-0.008740155745365907
13.34,-0.008736357339583715
13.344,-0.008741045245454142
13.348,-0.00874592547566797
13.352,-0.008751887530313435
13.356,-0.00876830722113139
13.36,-0.00877826000590245
13.364,-0.0087736442216608
13.368,-0.008753281881803101
13.372,-0.008751647124884184
13.376,-0.008763547193632188
13.38,-0.008759292017534417
13.384,-0.008771312288997048
13.388,-0.008754652192749842
13.392,-0.008750012367965266
13.396,-0.008767922572444587
13.4,-0.00875126247619738
13.404,-0.008730058717337298
13.408,-0.008712124472315048
13.412,-0.008703205430889776
13.416,-0.008704888268894545
13.42,-0.008719072189220451
13.424,-0.008730251041680698
13.428,-0.008727390217072592
13.432,-0.008723880297805504
13.436,-0.00872486596006544
13.44,-0.008722413824687063
13.444,-0.008731549230998663
13.448,-0.008748377611046347
13.452,-0.008753161679088475
13.456,-0.008741477975226798
13.46,-0.008751214395111529
13.464,-0.008773379775688622
13.468,-0.00874628608381185
13.472,-0.008727871027931098
13.476,-0.008721884932742707
13.48,-0.008716115202440644
13.484,-0.008724721716807889
13.488,-0.008706066255497882
13.492,-0.008680775604340505
13.496,-0.008682795009946228
13.5,-0.008679501455565466
13.504,-0.008674140414493133
13.508000000000001,-0.008674260617207758
13.512,-0.008680871766512206
13.516,-0.00869166597028565
13.52,-0.008692747794717286
13.524000000000001,-0.008693781538063073
13.528,-0.008702364011887391
13.532,-0.008714648729322204
13.536,-0.008705104633780872
13.540000000000001,-0.00867928509067914
13.544,-0.008721476243512978
13.548,-0.008796578899611501
13.552,-0.008737415123472427
13.556000000000001,-0.008658730426478039
13.56,-0.008630651072341332
13.564,-0.008629376923566292
13.568,-0.00862416012575151
13.572000000000001,-0.008657816885846879
13.576,-0.008682458442345274
13.58,-0.00864283962760444
13.584,-0.008623486990549604
13.588000000000001,-0.00862192435525946
13.592,-0.008627573882846898
13.596,-0.008633103207719709
13.6,-0.008638488289334967
13.604000000000001,-0.008641781843715729
13.608,-0.008643200235748319
13.612,-0.008642406897831785
13.616,-0.008645315803525741
13.620000000000001,-0.008643080033033693
13.624,-0.008626227612443083
13.628,-0.008653080898890601
13.632,-0.00868385279383494
13.636000000000001,-0.008674621225351637
13.64,-0.00871277356697403
13.644,-0.00870089753876895
13.648,-0.008633271491520185
13.652000000000001,-0.008580694824142634
13.656,-0.008588003149191913
13.66,-0.008601273528886658
13.664,-0.0086163469493008
13.668000000000001,-0.00861771726024754
13.672,-0.008609567516195875
13.676,-0.008601033123457407
13.68,-0.008593796920036902
13.684000000000001,-0.00860269192091925
13.688,-0.00861141863800112
13.692,-0.008616106543871547
13.696,-0.008628174896420029
13.700000000000001,-0.008629376923566292
13.704,-0.008659307399508246
13.708,-0.008643584884435123
13.712,-0.008593845001122752
13.716000000000001,-0.008605288299555178
13.72,-0.008666519562385825
13.724,-0.008681905509857993
13.728,-0.008618702922507476
13.732000000000001,-0.008595792285099699
13.736,-0.0085913207441156
13.74,-0.008593748838951051
13.744,-0.008588003149191913
13.748000000000001,-0.008566583025445504
13.752,-0.008562015322289705
13.756,-0.008565308876670464
13.76,-0.0085684822283366
13.764000000000001,-0.008569107282452656
13.768,-0.00856994870145504
13.772,-0.008572208512490015
13.776,-0.008572713363891446
13.780000000000001,-0.008581247756629915
13.784,-0.008607620232218928
13.788,-0.008610865705513839
13.792,-0.008601033123457407
13.796000000000001,-0.008616779679073455
13.8,-0.008651734628486788
13.804,-0.008640724059827017
13.808,-0.008601946664088566
13.812000000000001,-0.008584300905581424
13.816,-0.008607932759276956
13.82,-0.008613990976094122
13.824,-0.008574444282982065
13.828,-0.008559058335509897
13.832,-0.008564034727895426
13.836,-0.008557255294790502
13.84,-0.008534200414125174
13.844,-0.00854843241553693
13.848,-0.008569924660912115
13.852,-0.008563674119751548
13.856,-0.008569732336568714
13.86,-0.008588820527651373
13.864,-0.008581920891831822
13.868,-0.008573218215292876
13.872,-0.008589854270997158
13.876,-0.008585406770555986
13.88,-0.008566895552503532
13.884,-0.008564707863097333
13.888,-0.008554731037783349
13.892,-0.008561294106001946
13.896,-0.008573987512666486
13.9,-0.008570790120457425
13.904,-0.008552567388920075
13.908,-0.008543936834009907
13.912,-0.008556389835245192
13.916,-0.008577521472476498
13.92,-0.00857492509384057
13.924,-0.008573771147780157
13.928,-0.008572232553032941
13.932,-0.008582449783776178
13.936,-0.008598100177220524
13.94,-0.008602908285805577
13.944,-0.008591392865744375
13.948,-0.008594277730895408
13.952,-0.008596946231160111
13.956,-0.0085570629704471
13.96,-0.008534657184440754
13.964,-0.008542590563606092
13.968,-0.008548600699337407
13.972,-0.008553048199778581
13.976,-0.008555572456785733
13.98,-0.00854970656431197
13.984,-0.008556389835245192
13.988,-0.00858588758141449
13.992,-0.008602643839833399
13.996,-0.008601994745174417
14.0,-0.008622669612090144
14.004,-0.008593772879493977
14.008000000000001,-0.00855675044338907
14.012,-0.008557856308363634
14.016,-0.008565212714498763
14.02,-0.00857172770163151
14.024000000000001,-0.008585983743586191
14.028,-0.008589734068282532
14.032,-0.008587017486931978
14.036,-0.008562303808804806
14.040000000000001,-0.008554803159412126
14.044,-0.00854477825301229
14.048,-0.008541893387861259
14.052,-0.008546677455903385
14.056000000000001,-0.008572737404434372
14.06,-0.008604446880552794
14.064,-0.008583483527121964
14.068,-0.00856487614689781
14.072000000000001,-0.008563938565723725
14.076,-0.008549778685940744
14.08,-0.008570597796114023
14.084,-0.008602788083090951
14.088000000000001,-0.00863324745097726
14.092,-0.0086186308008787
14.096,-0.008588748406022596
14.1,-0.008591753473888254
14.104000000000001,-0.008590214879141038
14.108,-0.008578002283335004
14.112,-0.008578218648221331
14.116,-0.008589613865567907
14.120000000000001,-0.008610216610854857
14.124,-0.008624809220410493
14.128,-0.008625097706925596
14.132,-0.008627646004475674
14.136000000000001,-0.008625241950183148
14.14,-0.008614976638354059
14.144,-0.008608485691764237
14.148,-0.008608581853935938
14.152000000000001,-0.00864182992480158
14.156,-0.008649282493108411
14.16,-0.008613750570664871
14.164,-0.008598196339392225
14.168000000000001,-0.008606009515842936
14.172,-0.00861329380034929
14.176,-0.008614495827495553
14.18,-0.008607451948418452
14.184000000000001,-0.008616683516901754
14.188,-0.008630771275055958
14.192,-0.008616996043959782
14.196,-0.008611586921801596
14.200000000000001,-0.008627165193617168
14.204,-0.008639353748880276
14.208,-0.00864791218216167
14.212,-0.008677698414846072
14.216000000000001,-0.008647791979447044
14.22,-0.00862608336918553
14.224,-0.008647479452389016
14.228,-0.008620578084855645
14.232000000000001,-0.008608389529592536
14.236,-0.008608485691764237
14.24,-0.008596441379758681
14.244,-0.008590839933257094
14.248000000000001,-0.00860461516435327
14.252,-0.00862146758494388
14.256,-0.008628631666735609
14.26,-0.008623030220234022
14.264000000000001,-0.008620866571370749
14.268,-0.008631540572429566
14.272,-0.008662312467373904
14.276,-0.008670510292511417
14.280000000000001,-0.00869262759200266
14.284,-0.008703301593061477
14.288,-0.008687002104958149
14.292,-0.008654595453094894
14.296000000000001,-0.008603292934492381
14.3,-0.008603341015578232
14.304,-0.008614495827495553
14.308,-0.008624809220410493
14.312000000000001,-0.00863045874799793
14.316,-0.00863334361314896
14.32,-0.008636300599928768
14.324,-0.00863553130255516
14.328000000000001,-0.00864243093837471
14.332,-0.008653128979976452
14.336,-0.008659764169823825
14.34,-0.008647359249674389
14.344,-0.008670125643824614
14.348,-0.008694959524666411
14.352,-0.00870080137659725
14.356,-0.008672241211602037
14.36,-0.008621900314716536
14.364,-0.008648489155191877
14.368,-0.00867892448253526
14.372,-0.008632742599575829
14.376,-0.008607139421360424
14.38,-0.008612260057003504
14.384,-0.00863384846455039
14.388,-0.00864452246560921
14.392,-0.008644017614207777
14.396,-0.008642983870861992
14.4,-0.008640892343627493
14.404,-0.008642022249144982
14.408,-0.008644594587237984
14.412,-0.008643873370950227
14.416,-0.008635795748527337
14.42,-0.008637574748703808
14.424,-0.008658706385935114
14.428,-0.008685992402155288
14.432,-0.008740925042739517
14.436,-0.008694839321951784
14.44,-0.008643176195205394
14.444,-0.00862639589624356
14.448,-0.008643128114119544
14.452,-0.008639257586708575
14.456,-0.008621611828201432
14.46,-0.0086187269630504
14.464,-0.008621515666029731
14.468,-0.00862872782890731
14.472,-0.008631949261659295
14.476,-0.008631324207543239
14.48,-0.008627285396331794
14.484,-0.008631756937315894
14.488,-0.008657287993902522
14.492,-0.00866014881851063
14.496,-0.008643873370950227
14.5,-0.008668154319304741
14.504,-0.00868430956415052
14.508000000000001,-0.008678635996020157
14.512,-0.008651446141971685
14.516,-0.008658009210190281
14.52,-0.00866394722429282
14.524000000000001,-0.008634305234865972
14.528,-0.008617188368303184
14.532,-0.008627694085561525
14.536,-0.00863050682908378
14.540000000000001,-0.008608966502622743
14.544,-0.008590383162941514
14.548,-0.008590936095428795
14.552,-0.008601273528886658
14.556000000000001,-0.008610817624427988
14.56,-0.008610769543342138
14.564,-0.008613534205778543
14.568,-0.008613750570664871
14.572000000000001,-0.008623775477064706
14.576,-0.008657095669559122
14.58,-0.00867613577955593
14.584,-0.008653778074635434
14.588000000000001,-0.008629400964109218
14.592,-0.008629833693881872
14.596,-0.008661422967285668
14.6,-0.008703301593061477
14.604000000000001,-0.00866466844058058
14.608,-0.008608413570135462
14.612,-0.008599758974682367
14.616,-0.008592138122575059
14.620000000000001,-0.008585647175985237
14.624,-0.008593676717322276
14.628,-0.008603773745350886
14.632,-0.008606730732130693
14.636000000000001,-0.008601153326172032
14.64,-0.00861730857101781
14.644,-0.008645411965697443
14.648,-0.00864699864153051
14.652000000000001,-0.008647215006416837
14.656,-0.008649835425595692
14.66,-0.008639377789423202
14.664,-0.008623895679779333
14.668000000000001,-0.00861680371961638
14.672,-0.008603052529063128
14.676,-0.008599109880023385
14.68,-0.00859954260979604
14.684000000000001,-0.008603124650691903
14.688,-0.00860639416452974
14.692,-0.008611106110943092
14.696,-0.008618871206307952
14.700000000000001,-0.008625410233983624
14.704,-0.008622837895890622
14.708,-0.008616443111472501
14.712,-0.008620986774085376
14.716000000000001,-0.008625794882670429
14.72,-0.008634810086267403
14.724,-0.008641397195028924
14.728,-0.008649210371479634
14.732000000000001,-0.008661711453800772
14.736,-0.008681352577370712
14.74,-0.008672890306261019
14.744,-0.00866079791316961
14.748000000000001,-0.008646157222528126
14.752,-0.0086369016135019
14.756,-0.008632983005005082
14.76,-0.008626419936786485
14.764000000000001,-0.008632742599575829
14.768,-0.008635290897125907
14.772,-0.008647359249674389
14.776,-0.008654883939609996
14.780000000000001,-0.0086391854650798
14.784,-0.008630530869626705
14.788,-0.008632093504916847
14.792,-0.008634906248439104
14.796000000000001,-0.008670390089796792
14.8,-0.008674164455036057
14.804,-0.008619352017166458
14.808,-0.008599903217939919
14.812000000000001,-0.008599422407081413
14.816,-0.00860598547530001
14.82,-0.008612572584061532
14.824,-0.008620794449741974
14.828000000000001,-0.008632093504916847
14.832,-0.008635218775497132
14.836,-0.008634497559209373
14.84,-0.00863360805912114
14.844000000000001,-0.00863750262707503
14.848,-0.008639041221822248
14.852,-0.008649859466138617
14.856,-0.008654427169294416
14.86,-0.008646758236101258
14.864,-0.008653681912463733
14.868,-0.008685415429125081
14.872,-0.008694598916522531
14.876,-0.008645003276467713
14.88,-0.008625386193440698
14.884,-0.008636180397214142
14.888,-0.008614904516725284
14.892,-0.008607932759276956
14.896,-0.008608461651221313
14.9,-0.008596753906816709
14.904,-0.008597234717675215
14.908,-0.008606273961815113
14.912,-0.008612692786776158
14.916,-0.008616947962873931
14.92,-0.008620602125398572
14.924,-0.008629376923566292
14.928,-0.008636276559385843
14.932,-0.008639353748880276
14.936,-0.008645748533298397
14.94,-0.008660990237513013
14.944,-0.008688829186220468
14.948,-0.008709335769335719
14.952,-0.008668587049077397
14.956,-0.008635627464726861
14.96,-0.008628655707278535
14.964,-0.008657047588473271
14.968,-0.008667841792246713
14.972,-0.008632622396861203
14.976,-0.0086141592598946
14.98,-0.008608293367420836
14.984,-0.008611586921801596
14.988,-0.008623102341862799
14.992,-0.00863146845080079
14.996,-0.008631901180573446
15.0,-0.008629569247909695
15.004,-0.00863822384336279
15.008000000000001,-0.008639113343451025
15.012,-0.008640675978741167
15.016,-0.008650724925683926
15.02,-0.008655364750468502
15.024000000000001,-0.008672553738660065
15.028,-0.008698445403390574
15.032,-0.008701258146912829
15.036,-0.008673347076576599
15.040000000000001,-0.008671111306084549
15.044,-0.00866882745450665
15.048,-0.00866014881851063
15.052,-0.008632910883376307
15.056000000000001,-0.008633896545636241
15.06,-0.008638584451506668
15.064,-0.008635266856582982
15.068,-0.008661639332171995
15.072000000000001,-0.008673996171235581
15.076,-0.008623559112178379
15.08,-0.008598460785364402
15.084,-0.00860096100182863
15.088000000000001,-0.008606586488873141
15.092,-0.00861411117880875
15.096,-0.008616779679073455
15.1,-0.008616322908757874
15.104000000000001,-0.008622260922860414
15.108,-0.008648969966050381
15.112,-0.008672265252144961
15.116,-0.008662336507916828
15.120000000000001,-0.008653225142148153
15.124,-0.008670173724910465
15.128,-0.008678131144618727
15.132,-0.00865252796640332
15.136000000000001,-0.008625386193440698
15.14,-0.00861233217863228
15.144,-0.008627910450447852
15.148,-0.008650773006769776
15.152000000000001,-0.008626323774614784
15.156,-0.008599230082738012
15.16,-0.008590335081855664
15.164,-0.008595551879670446
15.168000000000001,-0.008603268893949455
15.172,-0.008610937827142614
15.176,-0.008618943327936729
15.18,-0.008618294233277746
15.184000000000001,-0.008608341448506687
15.188,-0.008619135652280131
15.192,-0.008642935789776141
15.196,-0.008653561709749107
15.200000000000001,-0.008652455844774545
15.204,-0.008624881342039268
15.208,-0.00860973579999635
15.212,-0.008621804152544835
15.216000000000001,-0.008635915951241965
15.22,-0.008633728261835765
15.224,-0.00865659081815769
15.228,-0.008642935789776141
15.232000000000001,-0.008599230082738012
15.236,-0.008570597796114023
15.24,-0.00857547802632785
15.244,-0.008587546378876333
15.248000000000001,-0.00859543167695582
15.252,-0.008604278596752316
15.256,-0.00860269192091925
15.26,-0.008603845866979662
15.264000000000001,-0.00860685093484532
15.268,-0.008609976205425604
15.272,-0.008615385327583788
15.276,-0.008622621531004293
15.280000000000001,-0.008634810086267403
15.284,-0.008636180397214142
15.288,-0.008649787344509842
15.292,-0.008680294793482
15.296000000000001,-0.008644113776379478
15.3,-0.008634305234865972
15.304,-0.008612187935374728
15.308,-0.008583339283864412
15.312000000000001,-0.008569540012225312
15.316,-0.008556317713616417
15.32,-0.008576054999358058
15.324,-0.008597234717675215
15.328000000000001,-0.008600408069341349
15.332,-0.00860588931312831
15.336,-0.00860218706951782
15.34,-0.008602932326348503
15.344000000000001,-0.008611851367773775
15.348,-0.00861899140902258
15.352,-0.00862264557154722
15.356,-0.008634185032151345
15.36,-0.008670149684367539
15.364,-0.00867385192797803
15.368,-0.008636613126986797
15.372,-0.008625001544753895
15.376,-0.008608894380993968
15.38,-0.008598797352965357
15.384,-0.008603172731777754
15.388,-0.008628439342392207
15.392,-0.008629208639765816
15.396,-0.008591176500858048
15.4,-0.008570669917742798
15.404,-0.008592907419948666
15.408,-0.008603821826436736
15.412,-0.00857903602668079
15.416,-0.008569828498740415
15.42,-0.008573458620722129
15.424,-0.008579637040253921
15.428,-0.008587281932904155
15.432,-0.00859487874446854
15.436,-0.008605696988784908
15.44,-0.008610937827142614
15.444,-0.008609254989137846
15.448,-0.008612404300261056
15.452,-0.008655364750468502
15.456,-0.008697459741130637
15.46,-0.008632766640118755
15.464,-0.008564972309069512
15.468,-0.008583699892008292
15.472,-0.008609663678367576
15.476,-0.00860365354263626
15.48,-0.008598484825907329
15.484,-0.008585695257071087
15.488,-0.00856816970127857
15.492,-0.008558096713792885
15.496,-0.008561895119575077
15.5,-0.008574564485696691
15.504,-0.008576776215645815
15.508000000000001,-0.00858035825654168
15.512,-0.008588556081679194
15.516,-0.008596826028445486
15.52,-0.008608581853935938
15.524000000000001,-0.008617500895361212
15.528,-0.008624400531180763
15.532,-0.008641036586885045
15.536,-0.008664524197323028
15.540000000000001,-0.008647599655103642
15.544,-0.0086073077051609
15.548,-0.008583459486579039
15.552,-0.00857177578271736
15.556000000000001,-0.008562712498034536
15.56,-0.008573434580179205
15.564,-0.008578603296908136
15.568,-0.008580574621428007
15.572000000000001,-0.008585791419242789
15.576,-0.008591537109001927
15.58,-0.008607283664617974
15.584,-0.008618943327936729
15.588000000000001,-0.008608942462079818
15.592,-0.008606923056474095
15.596,-0.008619063530651354
15.6,-0.00863041066691208
15.604000000000001,-0.008655412831554353
15.608,-0.008638440208249117
15.612,-0.008606129718557561
15.616,-0.008622116679602863
15.620000000000001,-0.008602475556032921
15.624,-0.008582449783776178
15.628,-0.008576920458903367
15.632,-0.008574828931668868
15.636000000000001,-0.0085822814999757
15.64,-0.008590287000769813
15.644,-0.008598244420478076
15.648,-0.008598052096134673
15.652000000000001,-0.008596994312245962
15.656,-0.00860096100182863
15.66,-0.008605408502269804
15.664,-0.008612308138089355
15.668000000000001,-0.00861949626042401
15.672,-0.008624905382582194
15.676,-0.008637166059474078
15.68,-0.008670870900655298
15.684000000000001,-0.008700128241395343
15.688,-0.00867517415783892
15.692,-0.008620722328113197
15.696,-0.008600936961285706
15.700000000000001,-0.008566631106531355
15.704,-0.008588267595164092
15.708,-0.008609399232395398
15.712,-0.008603292934492381
15.716000000000001,-0.008588339716792867
15.72,-0.00859045528457029
15.724,-0.008596970271703036
15.728,-0.008609783881082201
15.732000000000001,-0.008615673814098892
15.736,-0.008613269759806365
15.74,-0.008618149990020195
15.744,-0.008626371855700634
15.748000000000001,-0.008636420802643395
15.752,-0.008643921452036078
15.756,-0.008634233113237196
15.76,-0.008639113343451025
15.764000000000001,-0.008628415301849282
15.768,-0.008657504358788851
15.772,-0.008674476982094087
15.776,-0.008639329708337352
15.780000000000001,-0.008620986774085376
15.784,-0.008581512202602093
15.788,-0.008574636607325468
15.792,-0.008572905688234848
15.796000000000001,-0.008577978242792078
15.8,-0.008593003582120368
15.804,-0.008605288299555178
15.808,-0.008612067732660102
15.812000000000001,-0.008616178665500324
15.816,-0.008613534205778543
15.82,-0.00861045701628411
15.824,-0.008622020517431161
15.828000000000001,-0.008645315803525741
15.832,-0.008691834254086126
15.836,-0.008676207901184705
15.84,-0.008632574315775353
15.844000000000001,-0.008628367220763431
15.848,-0.008604687285982047
15.852,-0.00858406050015217
15.856,-0.00859076781162832
15.860000000000001,-0.008621347382229255
15.864,-0.008646085100899351
15.868,-0.008617380692646587
15.872,-0.008594806622839762
15.876,-0.008585310608384284
15.88,-0.008584565351553601
15.884,-0.008589301338509877
15.888,-0.008597234717675215
15.892,-0.00860593739421416
15.896,-0.008613630367950244
15.9,-0.008619279895537683
15.904,-0.008620313638883468
15.908,-0.008625674679955802
15.912,-0.008634136951065494
15.916,-0.00864517156026819
15.92,-0.008660028615796003
15.924,-0.008662769237689483
15.928,-0.008665245413610785
15.932,-0.008669067859935903
15.936,-0.008628198936962955
15.94,-0.008587906987020213
15.944,-0.008609567516195875
15.948,-0.00861827019273482
15.952,-0.008625794882670429
15.956,-0.008642190532945458
15.96,-0.008625362152897774
15.964,-0.008597066433874737
15.968,-0.008602523637118772
15.972,-0.008624592855524166
15.976,-0.008628054693705403
15.98,-0.008620169395625916
15.984,-0.008620938692999526
15.988,-0.00862598720701383
15.992,-0.008633415734777737
15.996,-0.008641757803172802
16.0,-0.00864238285728886
16.004,-0.00863913738399395
16.008,-0.008672673941374692
16.012,-0.008725851622325377
16.016000000000002,-0.00871568247266799
16.02,-0.008655484953183128
16.024,-0.008617981706219718
16.028,-0.008613966935551198
16.032,-0.008616274827672025
16.036,-0.008609206908051996
16.04,-0.008606322042900964
16.044,-0.00861831827382067
16.048000000000002,-0.008629569247909695
16.052,-0.008634858167353253
16.056,-0.008637190100017003
16.06,-0.008646589952300781
16.064,-0.00864868147953528
16.068,-0.008640675978741167
16.072,-0.00864836895247725
16.076,-0.008702099565915214
16.080000000000002,-0.008750781665338873
16.084,-0.008689959091737956
16.088,-0.008660966196970089
16.092,-0.008632694518489978
16.096,-0.008608822259365191
16.1,-0.00861146671908697
16.104,-0.008637478586532106
16.108,-0.008662793278232408
16.112000000000002,-0.008658922750821441
16.116,-0.008645315803525741
16.12,-0.008634185032151345
16.124,-0.008615096841068684
16.128,-0.0086210108146283
16.132,-0.008655965764041634
