0.0,0.005437369796121493
0.004,0.005433258863281273
0.008,0.005421767483762997
0.012,0.005396164305547592
0.016,0.0053676762621811544
0.02,0.00537998502015889
0.024,0.005419195145669993
0.028,0.005437321715035642
0.032,0.005465377028629426
0.036000000000000004,0.0054711467589314885
0.04,0.005457708095436267
0.044,0.005444678121170774
0.048,0.005437730404265372
0.052000000000000005,0.005438619904353606
0.056,0.005434340687712909
0.06,0.005431984714506234
0.064,0.00542758529515091
0.068,0.005425109119229609
0.07200000000000001,0.005420853943131837
0.076,0.0054180171590666555
0.08,0.0054129205639665
0.084,0.005401789792592103
0.088,0.005380730276989572
0.092,0.005400732008703391
0.096,0.005409747212300365
0.1,0.005404338090142181
0.10400000000000001,0.005417319983321824
0.108,0.0054464090402613925
0.112,0.005460713163301925
0.116,0.005450808459616716
0.12,0.005441360526247088
0.124,0.005433619471425151
0.128,0.005430975011703373
0.132,0.005421695362134221
0.136,0.005418281605038834
0.14,0.00541109348270418
0.14400000000000002,0.005398953008526922
0.148,0.005411309847590508
0.152,0.005424868713800356
0.156,0.005406838306606408
0.16,0.005399265535584951
0.164,0.005418690294268563
0.168,0.005401549387162851
0.17200000000000001,0.005380561993189096
0.176,0.005401789792592103
0.18,0.005430999052246298
0.184,0.005447418743064254
0.188,0.0054700408939569265
0.192,0.0054653529880865
0.196,0.0054484765269529655
0.2,0.005441889418191443
0.20400000000000001,0.005436360093318632
0.20800000000000002,0.0054280901465523414
0.212,0.0054243638623989255
0.216,0.005422176172992726
0.22,0.005413521577539632
0.224,0.005407343158007839
0.228,0.005390322453616752
0.232,0.0053792638038711316
0.23600000000000002,0.0054121512665928915
0.24,0.005419603834899723
0.244,0.005417632510379852
0.248,0.0054368889852629875
0.252,0.0054578282981508925
0.256,0.005468983110068215
0.26,0.00547311808345136
0.264,0.005485282598171544
0.268,0.005498649140037991
0.272,0.005502832194506987
0.276,0.005490475355443401
0.28,0.005480089840899686
0.28400000000000003,0.005465689555687454
0.28800000000000003,0.00544434155356982
0.292,0.005432994417309094
0.296,0.0054275372140650605
0.3,0.005425854376060291
0.304,0.005428354592524519
0.308,0.005417560388751076
0.312,0.005390827305018183
0.316,0.005366402113406115
0.32,0.0053696716272439516
0.324,0.005421887686477623
0.328,0.005481219746417174
0.332,0.005498264491351186
0.336,0.0054751855701429325
0.34,0.005460617001130224
0.34400000000000003,0.005448067837723236
0.34800000000000003,0.005439485363898916
0.352,0.00543667262037666
0.356,0.005440543147787628
0.36,0.005436864944720062
0.364,0.005425878416603217
0.368,0.005422488700050755
0.372,0.005422993551452185
0.376,0.005422897389280484
0.38,0.00542748913297921
0.384,0.00542429174077015
0.388,0.005418594132096862
0.392,0.005420301010644556
0.396,0.00541017994207302
0.4,0.005381595736534882
0.404,0.005352795166110417
0.40800000000000003,0.00537185931665015
0.41200000000000003,0.005425373565201786
0.41600000000000004,0.005477445381177908
0.42,0.005504010181110325
0.424,0.005485787449572974
0.428,0.005461458420132607
0.432,0.005448500567495891
0.436,0.0054403748639871505
0.44,0.00543708130960639
0.444,0.005436408174404482
0.448,0.005430181673786839
0.452,0.005424219619141374
0.456,0.005425686092259815
0.46,0.005426888119406078
0.464,0.005422080010821026
0.468,0.005412367631479219
0.47200000000000003,0.005401260900647747
0.47600000000000003,0.005398424116582566
0.48,0.005400852211418018
0.484,0.005420252929558706
0.488,0.005439317080098439
0.492,0.005445399337458532
0.496,0.005447178337635001
0.5,0.005444245391398119
0.504,0.005446529242976019
0.508,0.005443331850766959
0.512,0.00543073460627412
0.516,0.005422921429823409
0.52,0.005420853943131837
0.524,0.005416502604862364
0.528,0.005412175307135817
0.532,0.00540017907621611
0.536,0.0053728449789100866
0.54,0.005356497409720907
0.544,0.005358949545099284
0.548,0.005403688995483199
0.552,0.0054506161352733135
0.556,0.005461987312076963
0.56,0.0054580687035801455
0.5640000000000001,0.0054535490815101955
0.5680000000000001,0.005452659581421961
0.5720000000000001,0.005458236987380623
0.5760000000000001,0.0054657616773162295
0.58,0.005444101148140567
0.584,0.005432922295680319
0.588,0.005426383268004647
0.592,0.0054195317132709475
0.596,0.005418618172639787
0.6,0.005419916361957751
0.604,0.005419411510556321
0.608,0.005419892321414826
0.612,0.005420565456616734
0.616,0.0054185700915539365
0.62,0.0054208779836747625
0.624,0.00541616603726141
0.628,0.005395419048716908
0.632,0.00539145235913424
0.636,0.00541022802315887
0.64,0.005416959375177944
0.644,0.005424940835429132
0.648,0.00544794763500861
0.652,0.005457756176522117
0.656,0.005441096080274909
0.66,0.005439797890956944
0.664,0.005439485363898916
0.668,0.005436143728432304
0.672,0.0054276093356938355
0.676,0.00542708044374948
0.68,0.005424940835429132
0.684,0.005412800361251874
0.6880000000000001,0.0053958998595754135
0.6920000000000001,0.005405131428058715
0.6960000000000001,0.005425349524658861
0.7000000000000001,0.005440254661272524
0.704,0.005424099416426747
0.708,0.005387629912809123
0.712,0.005389384872442667
0.716,0.005410925198903703
0.72,0.005447635107950581
0.724,0.0054534769598814205
0.728,0.005431840471248682
0.732,0.0054129205639665
0.736,0.005432273201021337
0.74,0.005449943000071406
0.744,0.005456938798062658
0.748,0.005446048432117514
0.752,0.005432225119935487
0.756,0.00542018080792993
0.76,0.005424075375883822
0.764,0.005429388335870305
0.768,0.005424387902941851
0.772,0.005426960241034853
0.776,0.005437225552863941
0.78,0.005444605999541998
0.784,0.005430349957587316
0.788,0.005403616873854423
0.792,0.00540241484670816
0.796,0.005408232658096074
0.8,0.0054381631340380265
0.804,0.005466963704462493
0.808,0.005458813960410829
0.812,0.005440086377472048
0.8160000000000001,0.00543525422834407
0.8200000000000001,0.005446360959175542
0.8240000000000001,0.005446072472660439
0.8280000000000001,0.00544200962090607
0.8320000000000001,0.005428619038496697
0.836,0.005421070308018164
0.84,0.005414867847943447
0.844,0.005422320416250278
0.848,0.005428643079039622
0.852,0.005424460024570627
0.856,0.0054222963757073524
0.86,0.005407150833664436
0.864,0.005394168940484795
0.868,0.005381836141964135
0.872,0.005395250764916431
0.876,0.0054289075250118
0.88,0.005449654513556303
0.884,0.0054530682706516904
0.888,0.005435999485174752
0.892,0.005426407308547572
0.896,0.005420156767387004
0.9,0.005418618172639787
0.904,0.005423113754166812
0.908,0.005430253795415615
0.912,0.00544982279735678
0.916,0.005447058134920375
0.92,0.005418930699697816
0.924,0.005395395008173983
0.928,0.00539104366990451
0.932,0.005406694063348857
0.936,0.005451746040790801
0.9400000000000001,0.005466651177404465
0.9440000000000001,0.005456890716976808
0.9480000000000001,0.005456049297974423
0.9520000000000001,0.005468334015409233
0.9560000000000001,0.005464199042026088
0.96,0.005447659148493506
0.964,0.005438139093495101
0.968,0.0054479235944656845
0.972,0.0054596553794132125
0.976,0.00545571273037347
0.98,0.005446216715917991
0.984,0.005449654513556303
0.988,0.0054471302565491505
0.992,0.005442490431764575
0.996,0.00543987001258572
1.0,0.005434629174228013
1.004,0.005406814266063483
1.008,0.0054160458345467845
1.012,0.0054508565407025665
1.016,0.005460040028100017
1.02,0.0054565541493758534
1.024,0.005442875080451379
1.028,0.005433451187624675
1.032,0.005448212080980787
1.036,0.00546809360997998
1.04,0.005465016420485546
1.044,0.0054492698648694994
1.048,0.005448356324238339
1.052,0.005456746473719256
1.056,0.005457323446749462
1.06,0.005451529675904474
1.064,0.005441552850590489
1.068,0.005435037863457742
1.072,0.00545160179753325
1.076,0.005463790352796358
1.08,0.0054404710261588525
1.084,0.005430999052246298
1.088,0.005448091878266162
1.092,0.00546352590682418
1.096,0.005461049730902878
1.1,0.005452875946308289
1.104,0.005440446985615926
1.108,0.0054320568361350095
1.112,0.00543758616100782
1.116,0.005443908823797165
1.12,0.0054376102015507456
1.124,0.005441096080274909
1.1280000000000001,0.005442442350678724
1.1320000000000001,0.005447298540349628
1.1360000000000001,0.005474993245799531
1.1400000000000001,0.005482998746593643
1.1440000000000001,0.005482830462793167
1.1480000000000001,0.005470930394045162
1.1520000000000001,0.005458669717153277
1.156,0.005446288837546767
1.16,0.0054516498786191005
1.164,0.005468358055952158
1.168,0.005474776880913203
1.172,0.005474536475483951
1.176,0.005471122718388563
1.18,0.005466122285460109
1.184,0.005466242488174735
1.188,0.005459439014526886
1.192,0.005434773417485564
1.196,0.005426647713976825
1.2,0.005457467690007014
1.204,0.005446457121347243
1.208,0.005413281172110379
1.212,0.0054278497411230885
1.216,0.005480618732844042
1.22,0.005511366587245455
1.224,0.0055220646288471975
1.228,0.0055002598564139835
1.232,0.005483744003424326
1.236,0.005487710693006995
1.24,0.005499923288813029
1.244,0.005490042625670747
1.248,0.005469608164184272
1.252,0.005470233218300329
1.256,0.0054692475560403925
1.26,0.00546718006934882
1.264,0.005464343285283639
1.268,0.005464367325826564
1.272,0.005469512002012571
1.276,0.005480474489586491
1.28,0.005483311273651672
1.284,0.005492855369193002
1.288,0.005510621330414772
1.292,0.005512328208962466
1.296,0.005517112277004593
1.3,0.005530406697242264
1.304,0.005506582519203327
1.308,0.005505837262372645
1.312,0.0055173767229767705
1.316,0.0055423548470761195
1.32,0.005540359482013322
1.324,0.00551504479031302
1.328,0.005493961234167564
1.332,0.005482349651934662
1.336,0.005475546178286812
1.34,0.005474560516026876
1.344,0.005474584556569801
1.348,0.0054754259755721854
1.352,0.005475209610685858
1.356,0.0054748730430849045
1.36,0.005468334015409233
1.364,0.00546941583984087
1.368,0.005467083907177119
1.372,0.005464319244740714
1.3760000000000001,0.00546941583984087
1.3800000000000001,0.005470401502100805
1.3840000000000001,0.005483840165596028
1.3880000000000001,0.0054722045428202
1.3920000000000001,0.005444918526600027
1.3960000000000001,0.005458525473895725
1.4000000000000001,0.005474199907882997
1.4040000000000001,0.005492158193448169
1.408,0.005511318506159605
1.412,0.005515886209315405
1.416,0.005501101275416368
1.42,0.0054804264085006405
1.424,0.005475690421544364
1.428,0.005482854503336092
1.432,0.00548768665246407
1.436,0.005477854070407637
1.44,0.005473911421367894
1.444,0.005476339516203346
1.448,0.0054722045428202
1.452,0.005471964137390948
1.456,0.0054746326376556515
1.46,0.005460953568731177
1.464,0.005451625838076175
1.468,0.0054716996914187695
1.472,0.005467396434235147
1.476,0.005463261460852002
1.48,0.005462035393162814
1.484,0.005468430177580934
1.488,0.005459607298327362
1.492,0.005440999918103208
1.496,0.0054470821754633
1.5,0.005477950232579338
1.504,0.005502591789077734
1.508,0.005508385559922722
1.512,0.005501245518673919
1.516,0.005487470287577742
1.52,0.005483503597995074
1.524,0.005479296502983153
1.528,0.005476171232402869
1.532,0.005470906353502236
1.536,0.00545804466303722
1.54,0.00545982366321369
1.544,0.005469079272239916
1.548,0.005472348786077752
1.552,0.005468021488351204
1.556,0.0054735267726810895
1.56,0.005478070435293965
1.564,0.005471795853590471
1.568,0.005457155162948985
1.572,0.0054621075147915895
1.576,0.005492590923220825
1.58,0.005514563979454515
1.584,0.005510861735844024
1.588,0.005504058262196175
1.592,0.005507039289518908
1.596,0.005504058262196175
1.6,0.005493768909824163
1.604,0.00548545088197202
1.608,0.005476026989145317
1.612,0.005479272462440228
1.616,0.005471723731961695
1.62,0.005476195272945794
1.624,0.005474416272769325
1.6280000000000001,0.005479296502983153
1.6320000000000001,0.005485907652287601
1.6360000000000001,0.00548266217899269
1.6400000000000001,0.00546165074447601
1.6440000000000001,0.005453092311194616
1.6480000000000001,0.005468983110068215
1.6520000000000001,0.0054822534897629605
1.6560000000000001,0.005505524735314616
1.6600000000000001,0.005512977303621448
1.6640000000000001,0.005511078100730352
1.668,0.005509082735667555
1.672,0.005504178464910801
1.676,0.005495620031629408
1.68,0.005493240017879807
1.684,0.005483984408853579
1.688,0.0054809793409879215
1.692,0.005474824961999054
1.696,0.005459799622670764
1.7,0.005469752407441823
1.704,0.005473454651052314
1.708,0.005484561381883786
1.712,0.005491845666390141
1.716,0.005479032057010975
1.72,0.00545352504096727
1.724,0.005455231919514965
1.728,0.005488239584951351
1.732,0.0054783589218090675
1.736,0.005479993678727985
1.74,0.005501870572789976
1.744,0.005511366587245455
1.748,0.005504058262196175
1.752,0.005499490559040375
1.756,0.005497014383119073
1.76,0.005494874774798725
1.764,0.005490571517615102
1.768,0.005483551679080925
1.772,0.0054761471918599435
1.776,0.0054711467589314885
1.78,0.005471098677845638
1.784,0.005469367758755019
1.788,0.005456265662860751
1.792,0.005446889851119898
1.796,0.005480354286871865
1.8,0.005493696788195387
1.804,0.005481219746417174
1.808,0.005456578189918779
1.812,0.005448933297268545
1.816,0.005469632204727197
1.82,0.005505140086627812
1.824,0.005521944426132571
1.828,0.005527930521320962
1.832,0.005509275060010957
1.836,0.005498024085921934
1.84,0.0054960527614020625
1.844,0.005494273761225593
1.848,0.005491100409559458
1.852,0.005481219746417174
1.856,0.0054753538539434096
1.86,0.005458164865751847
1.864,0.005479609030041181
1.868,0.005497543275063428
1.872,0.005492302436705721
1.8760000000000001,0.005487927057893322
1.8800000000000001,0.0054822534897629605
1.8840000000000001,0.005475618299915588
1.8880000000000001,0.005481989043790782
1.8920000000000001,0.005459559217241511
1.8960000000000001,0.0054238109299116445
1.9000000000000001,0.005460280433529269
1.9040000000000001,0.005520646236814607
1.9080000000000001,0.005555745429485491
1.9120000000000001,0.005554230875281199
1.9160000000000001,0.00556158728141633
1.92,0.005570458241755752
1.924,0.005558558173007747
1.928,0.00554742740163335
1.932,0.005530743264843217
1.936,0.005507447978748637
1.94,0.005483142989851195
1.944,0.0054842248142828315
1.948,0.005498072167007785
1.952,0.005501173397045143
1.956,0.005490234950014149
1.96,0.0054840805710252806
1.964,0.005485306638714469
1.968,0.005473622934852791
1.972,0.005475714462087289
1.976,0.005483070868222419
1.98,0.0055011253159592925
1.984,0.00550586130291557
1.988,0.005504322708168353
1.992,0.005500067532070581
1.996,0.005500452180757386
2.0,0.00549814428863656
2.004,0.005484609462969636
2.008,0.005463549947367106
2.012,0.005453452919338495
2.016,0.005462444082392544
2.02,0.005456289703403676
2.024,0.005443331850766959
2.028,0.005450495932558688
2.032,0.005474272029511773
2.036,0.00550951546544021
2.04,0.005537642900662768
2.044,0.005541441306444959
2.048,0.005516943993204116
2.052,0.005501485924103172
2.056,0.005489682017526866
2.06,0.0054862923009744045
2.064,0.005487181801062639
2.068,0.005487470287577742
2.072,0.00548778281463577
2.076,0.0054840805710252806
2.08,0.005481580354561053
2.084,0.00548083509773037
2.088,0.0054703534210149545
2.092,0.005459078406383006
2.096,0.0054697283668988985
2.1,0.0054836718817955505
2.104,0.005481628435646904
2.108,0.005486580787489507
2.112,0.0054909802068448315
2.116,0.005455039595171562
2.12,0.0054161900778043354
2.124,0.005440302742358375
2.128,0.00549718266691955
2.132,0.0055104049655284445
2.136,0.005501534005189023
2.14,0.005493167896251031
2.144,0.005491148490645309
2.148,0.005493095774622255
2.152,0.005495451747828931
2.156,0.005486196138802703
2.16,0.005477349219006207
2.164,0.0054735267726810895
2.168,0.005485066233285216
2.172,0.005483744003424326
2.176,0.005486124017173927
2.18,0.005485306638714469
2.184,0.005490860004130206
2.188,0.005484128652111131
2.192,0.005471579488704143
2.196,0.00547078615078761
2.2,0.005474247988968848
2.204,0.005476892448690627
2.208,0.00546718006934882
2.212,0.0054591024469259316
2.216,0.005458549514438651
2.22,0.005477926192036413
2.224,0.0054889848417820335
2.228,0.005483816125053102
2.232,0.005486027855002226
2.236,0.005476387597289196
2.24,0.005472781515850406
2.244,0.005496629734432269
2.248,0.0055173767229767705
2.2520000000000002,0.005503457248623044
2.2560000000000002,0.005490162828385373
2.2600000000000002,0.005486412503689031
2.2640000000000002,0.005487326044320191
2.2680000000000002,0.0054785272056095445
2.2720000000000002,0.00547357485376694
2.2760000000000002,0.005488720395809856
2.2800000000000002,0.005493552544937835
2.2840000000000003,0.005476075070231168
2.2880000000000003,0.005468574420838485
2.2920000000000003,0.0054628287310793475
2.2960000000000003,0.005466434812518137
2.3000000000000003,0.00548768665246407
2.3040000000000003,0.005511558911588857
2.308,0.005518097939264529
2.312,0.005507063330061833
2.316,0.005485162395456917
2.32,0.005470497664272506
2.324,0.0054623479202208424
2.328,0.0054652808664577245
2.332,0.005467300272063447
2.336,0.005478166597465665
2.34,0.005492350517791572
2.344,0.005480089840899686
2.348,0.0054668675422907915
2.352,0.005476628002718449
2.356,0.00550403422165325
2.36,0.005526800615803474
2.364,0.005517641168948949
2.368,0.005500548342929086
2.372,0.005494249720682668
2.376,0.005495067099142127
2.38,0.005495980639773287
2.384,0.005496028720859137
2.388,0.005491605260960888
2.392,0.005489585855355165
2.396,0.005483840165596028
2.4,0.005472565150964079
2.404,0.005461578622847234
2.408,0.005464054798768536
2.412,0.005473021921279659
2.416,0.005486628868575358
2.42,0.005480955300444996
2.424,0.00546895906952529
2.428,0.00545073633798794
2.432,0.005450495932558688
2.436,0.005468718664096037
2.44,0.005490956166301906
2.444,0.005518049858178678
2.448,0.005533051156964042
2.452,0.005536368751887729
2.456,0.005531296197330498
2.46,0.005510981938558651
2.464,0.005504010181110325
2.468,0.0055000194509847306
2.472,0.0054997790455554784
2.476,0.0054995145995833
2.48,0.005499610761755001
2.484,0.005494369923397294
2.488,0.005490523436529252
2.492,0.005489970504041971
2.496,0.005496677815518119
2.5,0.005499755005012553
2.504,0.005486268260431479
2.508,0.005489273328297137
2.512,0.005499490559040375
2.516,0.0054949468964275005
2.52,0.0054769405297764775
2.524,0.005470449583186656
2.528,0.005473791218653268
2.532,0.005493624666566611
2.536,0.005532185697418733
2.54,0.005557788875634138
2.544,0.005573847958308214
2.548,0.005568775403750984
2.552,0.005545696482542731
2.556,0.005535647535599971
2.56,0.005528267088921915
2.564,0.005518915317723988
2.568,0.005505789181286794
2.572,0.005502519667448958
2.576,0.005505981505630196
2.58,0.00547672416489015
2.584,0.005449125621611948
2.588,0.005460881447102401
2.592,0.005486003814459301
2.596,0.005489970504041971
2.6,0.0054809793409879215
2.604,0.0055032649242796414
2.608,0.005516655506689013
2.612,0.005505116046084887
2.616,0.005505741100200944
2.62,0.005509587587068985
2.624,0.0055124724522200175
2.628,0.005527882440235111
2.632,0.0055269688996039505
2.636,0.0055154053984568996
2.64,0.005503962100024474
2.644,0.005496124883030838
2.648,0.005494249720682668
2.652,0.005499658842840852
2.656,0.005500067532070581
2.66,0.005491028287930682
2.664,0.005491052328473607
2.668,0.0054823977330205114
2.672,0.005475810624258989
2.676,0.005481556314018128
2.68,0.005493167896251031
2.684,0.005498601058952141
2.688,0.005496942261490297
2.692,0.005485931692830526
2.696,0.005471459285989517
2.7,0.005473646975395716
2.704,0.005490835963587281
2.708,0.005499755005012553
2.712,0.005501750370075349
2.716,0.005506967167890132
2.72,0.005508385559922722
2.724,0.005499730964469628
2.728,0.0054876385713782195
2.732,0.005484513300797935
2.736,0.005474344151140549
2.74,0.005461097811988729
2.744,0.005449702594642154
2.748,0.005459150528011782
2.7520000000000002,0.00548271026007854
2.7560000000000002,0.005492951531364703
2.7600000000000002,0.005502543707991883
2.7640000000000002,0.00551042900607137
2.7680000000000002,0.005485258557628618
2.7720000000000002,0.0054866048280324325
2.7760000000000002,0.005507832627435441
2.7800000000000002,0.005518121979807454
2.7840000000000003,0.005507423938205712
2.7880000000000003,0.005496846099318596
2.7920000000000003,0.0054902830311
2.7960000000000003,0.0054883597876659775
2.8000000000000003,0.005487854936264546
2.8040000000000003,0.005489441612097614
2.8080000000000003,0.005488047260607949
2.8120000000000003,0.00548179671944738
2.816,0.005481219746417174
2.82,0.005472853637479182
2.824,0.005473094042908435
2.828,0.0054778059893217865
2.832,0.005463573987910031
2.836,0.005443331850766959
2.84,0.005453452919338495
2.844,0.005493720828738312
2.848,0.005511991641361512
2.852,0.005508625965351975
2.856,0.005514756303797917
2.86,0.005529949926926684
2.864,0.005519324006953717
2.868,0.005505188167713663
2.872,0.005500187734785208
2.876,0.005498913586010169
2.88,0.005495163261313827
2.884,0.0054884319092947526
2.888,0.005484393098083309
2.892,0.005485523003600796
2.896,0.00547996963818506
2.9,0.00547357485376694
2.904,0.00547174777250462
2.908,0.005480234084157238
2.912,0.005487830895721621
2.916,0.005484753706227188
2.92,0.005483311273651672
2.924,0.005468165731608756
2.928,0.005451385432646922
2.932,0.00546713198826297
2.936,0.005500740667272489
2.94,0.0055115108305030065
2.944,0.005523555142508563
2.948,0.005529877805297908
2.952,0.0055162708580022085
2.956,0.0055034332080801185
2.96,0.0054995386401262255
2.964,0.005494369923397294
2.968,0.005485402800886169
2.972,0.005478671448867096
2.976,0.005475690421544364
2.98,0.005496148923573764
2.984,0.005501750370075349
2.988,0.005488071301150874
2.992,0.005463670150081732
2.996,0.005467083907177119
3.0,0.005473502732138164
3.004,0.005459631338870287
3.008,0.00545753981163579
3.012,0.005469968772328151
3.016,0.0054914610177033375
3.02,0.005519540371840045
3.024,0.005525790913000613
3.028,0.0055280026429497375
3.032,0.0055194442096683435
3.036,0.005507664343634965
3.04,0.005500187734785208
3.044,0.005491268693359935
3.048,0.005489369490468838
3.052,0.005493336180051507
3.056,0.005495043058599202
3.06,0.005486628868575358
3.064,0.00548266217899269
3.068,0.00549357658548076
3.072,0.005503889978395698
3.076,0.005494730531541173
3.08,0.005486725030747059
3.084,0.005480474489586491
3.088,0.005480234084157238
3.092,0.005472685353678706
3.096,0.0054728055563933314
3.1,0.005490138787842448
3.104,0.005521968466675496
3.108,0.0055458407258002825
3.112,0.005546537901545115
3.116,0.005531344278416349
3.12,0.005521800182875019
3.124,0.005511871438646886
3.128,0.005502784113421136
3.132,0.005487422206491892
3.136,0.005487518368663593
3.14,0.0054994665184974496
3.144,0.005496701856061045
3.148,0.005504346748711278
3.152,0.00551225608733369
3.156,0.0055259351562581644
3.16,0.0055431481849926535
3.164,0.005559519794724757
3.168,0.005549855496468801
3.172,0.0055477399286913785
3.176,0.005562813349105519
3.18,0.005564063457337632
3.184,0.005546465779916339
3.188,0.005525574548114286
3.192,0.005516583385060237
3.196,0.005517184398633369
3.2,0.005522425236991076
3.204,0.005531825089274854
3.208,0.005517977736549902
3.212,0.005502495626906033
3.216,0.005502543707991883
3.22,0.005508842330238303
3.224,0.005508914451867079
3.228,0.005510188600642117
3.232,0.005513458114479953
3.236,0.005511823357561035
3.24,0.005504779478483933
3.244,0.0055011253159592925
3.248,0.005500932991615891
3.2520000000000002,0.005485811490115899
3.2560000000000002,0.005485282598171544
3.2600000000000002,0.005506077667801897
3.2640000000000002,0.005506726762460879
3.2680000000000002,0.005503048559393314
3.2720000000000002,0.005507952830150068
3.2760000000000002,0.005518795115009361
3.2800000000000002,0.005519299966410792
3.2840000000000003,0.005510453046614295
3.2880000000000003,0.005512520533305868
3.2920000000000003,0.0055085778842661245
3.2960000000000003,0.005500788748358339
3.3000000000000003,0.005491797585304291
3.3040000000000003,0.005491941828561843
3.3080000000000003,0.005477469421720833
3.3120000000000003,0.005449558351384602
3.3160000000000003,0.005457948500865519
3.3200000000000003,0.005477060732491103
3.3240000000000003,0.005490691720329729
3.3280000000000003,0.005508698086980751
3.332,0.005530815386471993
3.336,0.005528146886207289
3.34,0.005520285628670728
3.344,0.005523771507394891
3.348,0.005515814087686629
3.352,0.005500932991615891
3.356,0.005490595558158028
3.36,0.005491316774445786
3.364,0.0054936727476524614
3.368,0.0054947064909982475
3.372,0.005499947329355955
3.376,0.005500356018585685
3.38,0.0055002598564139835
3.384,0.005495451747828931
3.388,0.005492518801592049
3.392,0.005482541976278063
3.396,0.005459799622670764
3.4,0.0054650404610284715
3.404,0.005479200340811452
3.408,0.005496870139861522
3.412,0.005484296935911607
3.416,0.005467612799121475
3.42,0.00549357658548076
3.424,0.0055222088721047485
3.428,0.005540046954955294
3.432,0.005535719657228747
3.436,0.005517136317547518
3.44,0.005499298234696973
3.444,0.0054939131530817135
3.448,0.005504178464910801
3.452,0.005510789614215248
3.456,0.005505524735314616
3.46,0.005509707789783612
3.464,0.0055100924384704165
3.468,0.005494994977513351
3.472,0.005499105910353571
3.476,0.00550727969494816
3.48,0.005513313871222401
3.484,0.005512929222535597
3.488,0.0055242763587963215
3.492,0.005517641168948949
3.496,0.00549489881534165
3.5,0.005488167463322575
3.504,0.005495283464028454
3.508,0.005490234950014149
3.512,0.005470714029158834
3.516,0.005466482893603988
3.52,0.005473719097024492
3.524,0.005497663477778055
3.528,0.005522329074819375
3.532,0.0055341089408527545
3.536,0.005540720090157202
3.54,0.0055311038729870966
3.544,0.005517809452749426
3.548,0.005510116479013342
3.552,0.005508481722094423
3.556,0.005503817856766922
3.56,0.005503361086451343
3.564,0.005501894613332901
3.568,0.005494490126111921
3.572,0.005491845666390141
3.576,0.0054932880989656575
3.58,0.005487734733549921
3.584,0.005491436977160412
3.588,0.005502255221476781
3.592,0.0055017984511612
3.596,0.005495211342399678
3.6,0.005487374125406041
3.604,0.005467348353149297
3.608,0.005464920258313846
3.612,0.0054902830311
3.616,0.0055106453709576975
3.62,0.00551504479031302
3.624,0.0055199971421556245
3.628,0.0055216559396174675
3.632,0.005514612060540366
3.636,0.0055035774513376694
3.64,0.005500908951072966
3.644,0.005496148923573764
3.648,0.005496245085745465
3.652,0.00549453820719777
3.656,0.005492230315076945
3.66,0.005493336180051507
3.664,0.0054962210452025395
3.668,0.005487830895721621
3.672,0.005494562247740696
3.676,0.00550038005912861
3.68,0.005482277530305886
3.684,0.0054823977330205114
3.688,0.0055056449380292425
3.692,0.005527353548290755
3.696,0.005526848696889325
3.7,0.0055111983034449785
3.704,0.00551905956098154
3.708,0.005517641168948949
3.712,0.0055056449380292425
3.716,0.005496966302033222
3.72,0.005505765140743869
3.724,0.0055130253847072985
3.728,0.005504659275769307
3.732,0.005502615829620659
3.736,0.005507423938205712
3.74,0.005502495626906033
3.744,0.005516799749946564
3.748,0.005522857966763731
3.7520000000000002,0.005514419736196963
3.7560000000000002,0.0055039861405673995
3.7600000000000002,0.005497302869634176
3.7640000000000002,0.005489081003953735
3.7680000000000002,0.005485907652287601
3.7720000000000002,0.005490210909471224
3.7760000000000002,0.005517160358090444
3.7800000000000002,0.00553326752185037
3.7840000000000003,0.005516463182345611
3.7880000000000003,0.005519708655640522
3.7920000000000003,0.0055402873603845465
3.7960000000000003,0.005556274321429847
3.8000000000000003,0.005581468810415523
3.8040000000000003,0.0056091154347795765
3.8080000000000003,0.0056000761906396775
3.8120000000000003,0.005544205968881365
3.8160000000000003,0.005517208439176294
3.8200000000000003,0.005529517197154029
3.8240000000000003,0.005537402495233515
3.8280000000000003,0.005528459413265317
3.8320000000000003,0.005515309236285198
3.8360000000000003,0.005512568614391718
3.84,0.0055176171284060235
3.844,0.00552280988567788
3.848,0.005512953263078523
3.852,0.005499298234696973
3.856,0.005503144721565015
3.86,0.005503865937852773
3.864,0.00549174950421844
3.868,0.005501029153787592
3.872,0.005521415534188215
3.876,0.00551905956098154
3.88,0.005496701856061045
3.884,0.005473598894309865
3.888,0.0054575157710928645
3.892,0.00548037832741479
3.896,0.005513410033394102
3.9,0.005525430304856734
3.904,0.005531175994615872
3.908,0.005532426102847985
3.912,0.005533604089451323
3.916,0.005523194534364685
3.92,0.005512520533305868
3.924,0.005508770208609527
3.928,0.00550682292463258
3.932,0.0055034332080801185
3.936,0.005507111411147684
3.94,0.005504635235226382
3.944,0.005495331545114304
3.948,0.005489754139155643
3.952,0.005501558045731948
3.956,0.005500596424014937
3.96,0.005491388896074562
3.964,0.0054801860030713875
3.968,0.005463045095965675
3.972,0.005451842202962502
3.976,0.005450255527129435
3.98,0.005483022787136568
3.984,0.0055269688996039505
3.988,0.0055442540499672155
3.992,0.005537811184463244
3.996,0.005510068397927491
4.0,0.005503144721565015
4.0040000000000004,0.0055024715863631075
4.008,0.005494994977513351
4.0120000000000005,0.005488071301150874
4.016,0.005487350084863116
4.0200000000000005,0.0054901147472995225
4.024,0.005490331112185849
4.0280000000000005,0.005475209610685858
4.032,0.0054690071506111404
4.0360000000000005,0.00548535471980032
4.04,0.005491485058246263
4.0440000000000005,0.005481171665331323
4.048,0.005464800055599219
4.0520000000000005,0.005455953135802722
4.056,0.005464343285283639
4.0600000000000005,0.005496846099318596
4.064,0.005529709521497431
4.0680000000000005,0.00553281075153479
4.072,0.005519852898898073
4.0760000000000005,0.005519588452925895
4.08,0.005517953696006977
4.0840000000000005,0.005520141385413176
4.088,0.0055132177090507
4.0920000000000005,0.005506702721917954
4.096,0.005503769775681072
4.1,0.0055042986676254275
4.104,0.00549905782926772
4.108,0.0055032649242796414
4.112,0.005504635235226382
4.116,0.0054972307480054
4.12,0.005483407435823373
4.124,0.005469560083098421
4.128,0.005466050163831333
4.132,0.005470738069701759
4.136,0.005464968339399696
4.14,0.005464992379942621
4.144,0.005484753706227188
4.148,0.005511847398103961
4.152,0.005519780777269297
4.156,0.00551408316859601
4.16,0.0055096837492406864
4.164,0.005509755870869462
4.168,0.005508361519379797
4.172,0.005501509964646097
4.176,0.005500860869987115
4.18,0.005504346748711278
4.184,0.005497903883207308
4.188,0.005494418004483145
4.192,0.005496485491174717
4.196,0.005495884477601585
4.2,0.00549444204502607
4.204,0.00549078788250143
4.208,0.0054839122872248035
4.212,0.005475954867516541
4.216,0.005462396001306693
4.22,0.005438427580010204
4.224,0.005446360959175542
4.228,0.005467396434235147
4.232,0.0054846335035125615
4.236,0.0055091308167534055
4.24,0.005535960062658
4.244,0.00553555137342827
4.248,0.005525358183227958
4.252,0.005511342546702529
4.256,0.005497062464204923
4.26,0.00549220627453402
4.264,0.005495451747828931
4.268,0.005496172964116689
4.272,0.0054925668826778995
4.276,0.005489826260784419
4.28,0.005490908085216056
4.284,0.005486628868575358
4.288,0.005478623367781246
4.292,0.005482830462793167
4.296,0.005485907652287601
4.3,0.005483215111479971
4.304,0.005476531840546747
4.308,0.005472012218476798
4.312,0.00547129100218904
4.316,0.005471892015762172
4.32,0.005474921124170755
4.324,0.005461915190448188
4.328,0.005478983975925124
4.332,0.00550727969494816
4.336,0.005521175128758962
4.34,0.005527930521320962
4.344,0.005513962965881383
4.348,0.00550316876210794
4.352,0.005508553843723199
4.356,0.005506630600289178
4.36,0.0055032649242796414
4.364,0.005510453046614295
4.368,0.005511078100730352
4.372,0.0055005002618432365
4.376,0.00549078788250143
4.38,0.005485378760343244
4.384,0.005479176300268527
4.388,0.005473406569966463
4.392,0.005474223948425922
4.396,0.0054932880989656575
4.4,0.005500187734785208
4.404,0.005492086071819394
4.408,0.005485931692830526
4.412,0.00549672589660397
4.416,0.005501149356502218
4.42,0.005510188600642117
4.424,0.005536224508630177
4.428,0.005567453173890094
4.432,0.0055820698239886545
4.436,0.005587719351576091
4.44,0.005586926013659558
4.444,0.005575867363913936
4.448,0.005559063024409177
4.452,0.005542715455219998
4.456,0.005529300832267702
4.46,0.005511991641361512
4.464,0.0054884319092947526
4.468,0.005473671015938641
4.472,0.0054847056251413374
4.476,0.005499947329355955
4.48,0.005491941828561843
4.484,0.005484681584598412
4.488,0.005500452180757386
4.492,0.005505620897486317
4.496,0.005499610761755001
4.5,0.005507952830150068
4.5040000000000004,0.005506486357031627
4.508,0.0055144437767398885
4.5120000000000005,0.005523410899251012
4.516,0.005516679547231939
4.5200000000000005,0.0055122320467907646
4.524,0.005509347181639733
4.5280000000000005,0.005502183099848005
4.532,0.005498360653522888
4.5360000000000005,0.005499995410441805
4.54,0.005496701856061045
4.5440000000000005,0.0054899464634990455
4.548,0.005470257258843254
4.5520000000000005,0.005472372826620677
4.556,0.0054841526926540565
4.5600000000000005,0.005473094042908435
4.564,0.005485835530658825
4.5680000000000005,0.005521127047673112
4.572,0.005518338344693782
4.5760000000000005,0.00549535558565723
4.58,0.005483263192565821
4.5840000000000005,0.005481267827503024
4.588,0.005497278829091251
4.5920000000000005,0.0055194442096683435
4.596,0.00552595919680109
4.6000000000000005,0.005517400763519696
4.604,0.005501461883560247
4.6080000000000005,0.005488720395809856
4.612,0.0054915331393321125
4.616,0.0054923264772486465
4.62,0.005492494761049124
4.624,0.005492374558334497
4.628,0.005488744436352781
4.632,0.005487590490292369
4.636,0.005473334448337688
4.64,0.005471315042731966
4.644,0.005487806855178696
4.648,0.005489369490468838
4.652,0.00547124292110319
4.656,0.005488215544408426
4.66,0.005504659275769307
4.664,0.005491725463675515
4.668,0.005467997447808279
4.672,0.005465785717859155
4.676,0.005480762976101594
4.68,0.005500692586186638
4.684,0.005516799749946564
4.688,0.005511558911588857
4.692,0.005508121113950545
4.696,0.0055010531943305175
4.7,0.005505933424544345
4.704,0.005515092871398871
4.708,0.005517472885148472
4.712,0.005517352682433845
4.716,0.005508169195036395
4.72,0.005505380492057064
4.724,0.0054973269101771015
4.728,0.005495427707286006
4.732,0.005508986573495854
4.736,0.005512400330591242
4.74,0.005509587587068985
4.744,0.0055034332080801185
4.748,0.005491917788018917
4.752,0.00550134168084562
4.756,0.0054997790455554784
4.76,0.0054785272056095445
4.764,0.005473743137567417
4.768,0.005470810191330535
4.772,0.005472060299562649
4.776,0.005502110978219229
4.78,0.005536272589716028
4.784,0.00554057584689965
4.788,0.005525237980513332
4.792,0.005527185264490278
4.796,0.005536320670801878
4.8,0.005521776142332094
4.804,0.005507904749064217
4.808,0.005496822058775671
4.812,0.005496124883030838
4.816,0.005495716193801108
4.82,0.00549997136989888
4.824,0.005501846532247051
4.828,0.005499298234696973
4.832,0.005501173397045143
4.836,0.0054949468964275005
4.84,0.005479777313841658
4.844,0.005486508665860732
4.848,0.005495620031629408
4.852,0.005493961234167564
4.856,0.005499370356325748
4.86,0.005486676949661208
4.864,0.005472396867163602
4.868,0.005503914018938624
4.872,0.005538844927809031
4.876,0.005536128346458476
4.88,0.005522906047849581
4.884,0.005513073465793149
4.888,0.005503216843193791
4.892,0.005498216410265336
4.896,0.005501534005189023
4.9,0.005506943127347207
4.904,0.005513001344164373
4.908,0.0055189633988098384
4.912,0.005502543707991883
4.916,0.005487518368663593
4.92,0.005476075070231168
4.924,0.005482517935735138
4.928,0.005489633936441016
4.932,0.005507423938205712
4.936,0.00552139149364529
4.94,0.005516559344517312
4.944,0.005490162828385373
4.948,0.005475017286342456
4.952,0.005485426841429095
4.956,0.005502856235049912
4.96,0.005506053627258972
4.964,0.005504923721741484
4.968,0.005507039289518908
4.972,0.0055149245875983945
4.976,0.005519035520438614
4.98,0.005506654640832103
4.984,0.005498000045379009
4.988,0.005502736032335286
4.992,0.005511558911588857
4.996,0.005504707356855158
5.0,0.005500283896956909
5.0040000000000004,0.005499730964469628
5.008,0.005494778612627023
5.0120000000000005,0.005501221478130994
5.016,0.005509154857296331
5.0200000000000005,0.0055131696279648494
5.024,0.005502399464734332
5.0280000000000005,0.0054931198151651804
5.032,0.00548453734134086
5.0360000000000005,0.005492494761049124
5.04,0.0055189633988098384
5.0440000000000005,0.005524925453455304
5.048,0.005541609590245436
5.0520000000000005,0.005533027116421117
5.056,0.005509876073584089
5.0600000000000005,0.0054969182209473715
5.064,0.005492735166478376
5.0680000000000005,0.00550494776228441
5.072,0.005523458980336862
5.0760000000000005,0.005523122412735909
5.08,0.005510861735844024
5.0840000000000005,0.005498889545467243
5.088,0.005513650438823355
5.0920000000000005,0.005530743264843217
5.096,0.005541729792960063
5.1000000000000005,0.0055405277658137995
5.104,0.00554285969847755
5.1080000000000005,0.005545383955484703
5.112,0.005548821753123015
5.1160000000000005,0.005561755565216807
5.12,0.005567308930632542
5.124,0.005554904010483107
5.128,0.005537690981748619
5.132,0.005524324439882172
5.136,0.0055157900471437035
5.14,0.00551129446561668
5.144,0.005508866370781228
5.148,0.005520285628670728
5.152,0.0055261034400586415
5.156,0.005520405831385354
5.16,0.005521944426132571
5.164,0.005520285628670728
5.168,0.005508625965351975
5.172,0.005517713290577725
5.176,0.005513842763166757
5.18,0.0055155496417144505
5.184,0.005511462749417156
5.188,0.005504827559569783
5.192,0.005509731830326537
5.196,0.005512087803533213
5.2,0.005504418870340054
5.204,0.0054934323422232085
5.208,0.005486340382060255
5.212,0.005482109246505409
5.216,0.005501269559216844
5.22,0.005520501993557055
5.224,0.005531296197330498
5.228,0.005535070562569765
5.232,0.005522785845134955
5.236,0.005515092871398871
5.24,0.005510597289871847
5.244,0.005509395262725584
5.248,0.005498625099495066
5.252,0.005499682883383777
5.256,0.0055126166954775685
5.26,0.005517689250034799
5.264,0.0055131696279648494
5.268,0.005502904316135763
5.272,0.0054885040309235284
5.276,0.005481868841076156
5.28,0.005475642340458513
5.284,0.005474103745711296
5.288,0.005496437410088866
5.292,0.005520261588127803
5.296,0.00553235398121921
5.3,0.005523627264137339
5.304,0.0055218242234179446
5.308,0.00553011821072716
5.312,0.005520646236814607
5.316,0.005510188600642117
5.32,0.005502928356678687
5.324,0.005493624666566611
5.328,0.005485162395456917
5.332,0.005495571950543557
5.336,0.0055096837492406864
5.34,0.005509827992498238
5.344,0.00550764030309204
5.348,0.005515838128229554
5.352,0.005514107209138935
5.356,0.005496100842487913
5.36,0.005478070435293965
5.364,0.005467805123464877
5.368,0.005484801787313038
5.372,0.005511823357561035
5.376,0.005526584250917147
5.38,0.005521054926044336
5.384,0.005517545006777248
5.388,0.005508938492410003
5.392,0.005494730531541173
5.396,0.005509226978925107
5.4,0.005521367453102365
5.404,0.005519732696183447
5.408,0.005515525601171526
5.412,0.005504394829797129
5.416,0.005494418004483145
5.42,0.005494129517968041
5.424,0.005494177599053892
5.428,0.005483215111479971
5.432,0.005484056530482355
5.436,0.005473262326708912
5.44,0.005461819028276487
5.444,0.00546809360997998
5.448,0.005497543275063428
5.452,0.005523555142508563
5.456,0.005522545439705703
5.46,0.005514251452396487
5.464,0.005517953696006977
5.468,0.00553240206230506
5.472,0.005536561076231131
5.476,0.0055234830208797875
5.48,0.005513145587421924
5.484,0.005508553843723199
5.488,0.005510717492586473
5.492,0.005516126614744658
5.496,0.00550773646526374
5.5,0.005497735599406831
5.5040000000000004,0.005498817423838467
5.508,0.005505500694771691
5.5120000000000005,0.005505789181286794
5.516,0.0054997069239267025
5.5200000000000005,0.005489441612097614
5.524,0.005480570651758191
5.5280000000000005,0.0054748730430849045
5.532,0.005491653342046739
5.5360000000000005,0.005506101708344822
5.54,0.0055027119917923605
5.5440000000000005,0.0055098520330411635
5.548,0.005505140086627812
5.5520000000000005,0.005487830895721621
5.556,0.00549453820719777
5.5600000000000005,0.005526680413088848
5.564,0.005538436238579301
5.5680000000000005,0.005530238413441787
5.572,0.005531127913530022
5.5760000000000005,0.005526632332002997
5.58,0.005507664343634965
5.5840000000000005,0.005498312572437037
5.588,0.005509323141096808
5.5920000000000005,0.005506245951602374
5.596,0.005502976437764538
5.6000000000000005,0.005515525601171526
5.604,0.005515886209315405
5.6080000000000005,0.005507135451690608
5.612,0.00549453820719777
5.6160000000000005,0.005500356018585685
5.62,0.00550220714039093
5.6240000000000006,0.005498721261666766
5.628,0.005497903883207308
5.632,0.00549900974818187
5.636,0.005501942694418752
5.64,0.005515621763343226
5.644,0.00553194529198948
5.648,0.005544350212138917
5.652,0.0055380756304354226
5.656,0.005521728061246243
5.66,0.005505043924456111
5.664,0.005498336612979962
5.668,0.005501509964646097
5.672,0.005505524735314616
5.676,0.005506895046261356
5.68,0.005504154424367876
5.684,0.005493648707109536
5.688,0.005488335747123052
5.692,0.005500692586186638
5.696,0.005507832627435441
5.7,0.005487854936264546
5.704,0.00546895906952529
5.708,0.005483551679080925
5.712,0.005502808153964062
5.716,0.005526512129288371
5.72,0.005545816685257357
5.724,0.0055543270374529006
5.728,0.005537089968175487
5.732,0.005520453912471204
5.736,0.0055325222650196865
5.74,0.005546898509688994
5.744,0.005541176860472782
5.748,0.005532474183933836
5.752,0.005524372520968023
5.756,0.005518867236638137
5.76,0.005516799749946564
5.764,0.00551591024985833
5.768,0.005509443343811434
5.772,0.0054939131530817135
5.776,0.005481099543702548
5.78,0.005474704759284427
5.784,0.005459078406383006
5.788,0.005483070868222419
5.792,0.005523386858708086
5.796,0.005561611321959255
5.8,0.005586805810944931
5.804,0.0056083942184918184
5.808,0.00562173671981534
5.812,0.005599643460867023
5.816,0.0055716843094449405
5.82,0.005562861430191369
5.824,0.0055633662815928
5.828,0.00556113051110075
5.832,0.005545576279828105
5.836,0.005525887075172314
5.84,0.005507063330061833
5.844,0.00550449099196883
5.848,0.005509034654581704
5.852,0.0054976394372351295
5.856,0.005485691287401273
5.86,0.0054779742731222636
5.864,0.005485474922514945
5.868,0.0054989857076389445
5.872,0.0055198288583551474
5.876,0.005538796846723181
5.88,0.005534469548996633
5.884,0.005512280127876615
5.888,0.00549271112593545
5.892,0.005500981072701742
5.896,0.005511534871045932
5.9,0.005520622196271681
5.904,0.00552550242648551
5.908,0.005520718358443383
5.912,0.005515020749770095
5.916,0.0055077845463495905
5.92,0.005488552112009379
5.924,0.005464751974513369
5.928,0.005449293905412425
5.932,0.005457900419779668
5.936,0.005499418437411599
5.94,0.005534012778681053
5.944,0.0055280026429497375
5.948,0.005513794682080906
5.952,0.005523050291107133
5.956,0.005531825089274854
5.96,0.005507832627435441
5.964,0.005501582086274873
5.968,0.005520141385413176
5.972,0.00552184826396087
5.976,0.005513073465793149
5.98,0.005506582519203327
5.984,0.0055002598564139835
5.988,0.0054973269101771015
5.992,0.005491364855531636
5.996,0.0054914610177033375
6.0,0.005489970504041971
6.0040000000000004,0.005491004247387757
6.008,0.005489633936441016
6.0120000000000005,0.0054881193822367245
6.016,0.005472348786077752
6.0200000000000005,0.005431359660390177
6.024,0.005424051335340897
6.0280000000000005,0.00546713198826297
6.032,0.005496798018232746
6.0360000000000005,0.005509948195212865
6.04,0.0055102366817279674
6.0440000000000005,0.0055128571009068214
6.048,0.005511991641361512
6.0520000000000005,0.0055149967092271695
6.056,0.005511943560275661
6.0600000000000005,0.005506510397574552
6.064,0.005499610761755001
6.0680000000000005,0.005512039722447362
6.072,0.005513650438823355
6.0760000000000005,0.005510356884442594
6.08,0.005503865937852773
6.0840000000000005,0.005493264058422732
6.088,0.005491605260960888
6.0920000000000005,0.005497976004836084
6.096,0.0054825660168209885
6.1000000000000005,0.005475522137743887
6.104,0.005500957032158816
6.1080000000000005,0.005521367453102365
6.112,0.005519732696183447
6.1160000000000005,0.005501509964646097
6.12,0.005491845666390141
6.1240000000000006,0.005496990342576147
6.128,0.0054868452334616855
6.132000000000001,0.005483936327767729
6.136,0.005483719962881401
6.140000000000001,0.005501509964646097
6.144,0.005505620897486317
6.148,0.005501413802474396
6.152,0.005504394829797129
6.156,0.005504370789254203
6.16,0.005523050291107133
6.164,0.005529949926926684
6.168,0.005523579183051489
6.172,0.005518049858178678
6.176,0.005506149789430673
6.18,0.0055000194509847306
6.184,0.0055028802755928375
6.188,0.005503673613509371
6.192,0.005499899248270105
6.196,0.005495091139685052
6.2,0.00549768751832098
6.204,0.005491509098789187
6.208,0.005485667246858348
6.212,0.005486508665860732
6.216,0.005459463055069811
6.22,0.005461963271534038
6.224,0.005478935894839274
6.228,0.005503385126994268
6.232,0.005526704453631773
6.236,0.005530671143214441
6.24,0.00552865173760872
6.244,0.0055123041684195405
6.248,0.005517641168948949
6.252,0.00552047795301413
6.256,0.005506991208433057
6.26,0.0055034332080801185
6.264,0.005507664343634965
6.268,0.00550316876210794
6.272,0.00550088491053004
6.276,0.005499586721212076
6.28,0.005493552544937835
6.284,0.005492687085392526
6.288,0.005494177599053892
6.292,0.0054989857076389445
6.296,0.005498889545467243
6.3,0.005495187301856753
6.304,0.005489393531011764
6.308,0.005498577018409215
6.312,0.005509996276298715
6.316,0.0055149967092271695
6.32,0.005505236248799513
6.324,0.005494778612627023
6.328,0.005505019883913186
6.332,0.005512328208962466
6.336,0.0055091308167534055
6.34,0.005487470287577742
6.344,0.005468838866810663
6.348,0.005485426841429095
6.352,0.005510741533129398
6.356,0.005523410899251012
6.36,0.005517448844605546
6.364,0.005508073032864694
6.368,0.005502038856590453
6.372,0.005495980639773287
6.376,0.005477060732491103
6.38,0.005448163999894937
6.384,0.005444269431941044
6.388,0.005467083907177119
6.392,0.005504707356855158
6.396,0.005510188600642117
6.4,0.0054939131530817135
6.404,0.00548545088197202
6.408,0.00548992242295612
6.412,0.0055119195197327366
6.416,0.005524949493998229
6.42,0.0055268246563464
6.424,0.005518602790665959
6.428,0.005512520533305868
6.432,0.005507808586892516
6.436,0.005503914018938624
6.44,0.005492134152905244
6.444,0.00548499411165644
6.448,0.005485595125229572
6.452,0.005502423505277257
6.456,0.005496341247917165
6.46,0.005465184704286023
6.464,0.005433138660566646
6.468,0.00542159919996252
6.472,0.0054476831890364315
6.476,0.00547261323204993
6.48,0.005487614530835294
6.484,0.005514011046967234
6.488,0.005541970198389316
6.492,0.005550528631670709
6.496,0.005547138915118247
6.5,0.005533483886736698
6.5040000000000004,0.005522401196448151
6.508,0.0055087461680666016
6.5120000000000005,0.0055029523972216126
6.516,0.005513674479366281
6.5200000000000005,0.005529949926926684
6.524,0.005547307198918724
6.5280000000000005,0.005563558605936202
6.532,0.0055754105935983565
6.5360000000000005,0.005567933984748599
6.54,0.005559423632553056
6.5440000000000005,0.0055527403616198335
6.548,0.005538051589892497
6.5520000000000005,0.00552600727788694
6.556,0.005515068830855945
6.5600000000000005,0.005511438708874231
6.564,0.005521151088216037
6.5680000000000005,0.005518121979807454
6.572,0.0054883597876659775
6.5760000000000005,0.005463549947367106
6.58,0.005467925326179504
6.5840000000000005,0.005492855369193002
6.588,0.005515164993027647
6.5920000000000005,0.005528363251093616
6.596,0.005536512995145281
6.6000000000000005,0.005532281859590434
6.604,0.005516943993204116
6.6080000000000005,0.005512280127876615
6.612,0.005507135451690608
6.6160000000000005,0.005500139653699357
6.62,0.0054997069239267025
6.6240000000000006,0.005492037990733544
6.628,0.005482061165419558
6.632000000000001,0.005489129085039585
6.636,0.005481965003247857
6.640000000000001,0.00546352590682418
6.644,0.005476892448690627
6.648000000000001,0.00549900974818187
6.652,0.005491845666390141
6.656000000000001,0.005457876379236743
6.66,0.005491340814988711
6.664,0.005546465779916339
6.668,0.005557860997262914
6.672,0.005530623062128591
6.676,0.005514275492939412
6.68,0.005506269992145299
6.684,0.0055017022889895
6.688,0.005497254788548326
6.692,0.005477517502806684
6.696,0.005462420041849618
6.7,0.005475714462087289
6.704,0.0054889848417820335
6.708,0.005498024085921934
6.712,0.00549078788250143
6.716,0.005464030758225611
6.72,0.005450784419073791
6.724,0.005442081742534846
6.728,0.005439990215300347
6.732,0.005488528071466454
6.736,0.005530839427014918
6.74,0.0055176171284060235
6.744,0.005510669411500623
6.748,0.005509803951955313
6.752,0.0055072316138623095
6.756,0.005498793383295542
6.76,0.005486652909118283
6.764,0.005486508665860732
6.768,0.00548768665246407
6.772,0.005485883611744675
6.776,0.005487205841605564
6.78,0.005485667246858348
6.784,0.005481868841076156
6.788,0.0054889848417820335
6.792,0.005481989043790782
6.796,0.005487927057893322
6.8,0.005484561381883786
6.804,0.005472300704991901
6.808,0.005478334881266142
6.812,0.005470521704815432
6.816,0.005472084340105574
6.82,0.0055063661543170005
6.824,0.005535190765284391
6.828,0.005539229576495835
6.832,0.005523507061422713
6.836,0.005513482155022878
6.84,0.00550586130291557
6.844,0.005504827559569783
6.848,0.005504635235226382
6.852,0.0054928794097359275
6.856,0.005495043058599202
6.86,0.0054995386401262255
6.864,0.0054954998289147815
6.868,0.005484345016997458
6.872,0.005474223948425922
6.876,0.005479200340811452
6.88,0.005491965869104768
6.884,0.00548083509773037
6.888,0.005492158193448169
6.892,0.005505116046084887
6.896,0.005513001344164373
6.9,0.0055198288583551474
6.904,0.0055027119917923605
6.908,0.005491316774445786
6.912,0.005505572816400467
6.916,0.005530358616156413
6.92,0.005530791345929068
6.924,0.005519660574554671
6.928,0.00550905869512463
6.932,0.005484176733196981
6.936,0.005466915623376642
6.94,0.005482878543879017
6.944,0.005490595558158028
6.948,0.0055080249517788435
6.952,0.005513241749593625
6.956,0.005500139653699357
6.96,0.005512688817106344
6.964,0.005531031751358321
6.968,0.0055474995232621255
6.972,0.005554615523968003
6.976,0.005557356145861484
6.98,0.005547211036747023
6.984,0.005531392359502199
6.988,0.0055266563725459225
6.992,0.005526776575260549
6.996,0.005520285628670728
7.0,0.005513818722623832
7.0040000000000004,0.005515333276828124
7.008,0.0055109338574728
7.0120000000000005,0.005472036259019724
7.016,0.005470930394045162
7.0200000000000005,0.0055133379117653265
7.024,0.005537258251975963
7.0280000000000005,0.0055338685354235015
7.032,0.005530815386471993
7.0360000000000005,0.005527425669919531
7.04,0.005547066793489471
7.0440000000000005,0.0055634384032215755
7.048,0.0055714439040156875
7.0520000000000005,0.00556250082204749
7.056,0.005550047820812204
7.0600000000000005,0.005544085766166738
7.064,0.005540960495586454
7.0680000000000005,0.005537450576319366
7.072,0.005536729360031608
7.0760000000000005,0.005526151521144492
7.08,0.0055157900471437035
7.0840000000000005,0.005512809019820971
7.088,0.005528747899780421
7.0920000000000005,0.005519468250211269
7.096,0.005492783247564226
7.1000000000000005,0.005473887380824969
7.104,0.005472132421191425
7.1080000000000005,0.005505668978572168
7.112,0.0055448069824544964
7.1160000000000005,0.005565794376428251
7.12,0.005570458241755752
7.1240000000000006,0.0055703139984982
7.128,0.005567885903662749
7.132000000000001,0.0055521874291325525
7.136,0.005543484752593607
7.140000000000001,0.005543941522909187
7.144,0.005545071428426674
7.148000000000001,0.005542378887619045
7.152,0.005537330373604739
7.156000000000001,0.005523002210021282
7.16,0.005515092871398871
7.164000000000001,0.005519396128582493
7.168,0.005493336180051507
7.172,0.005458765879324978
7.176,0.005484585422426711
7.18,0.005533964697595203
7.184,0.00558122840498627
7.188,0.005607480677860659
7.192,0.005596470109200888
7.196,0.005575915444999787
7.2,0.005563895173537155
7.204,0.0055541587536524235
7.208,0.005545023347340823
7.212,0.005530719224300292
7.216,0.005533507927279623
7.22,0.005542811617391699
7.224,0.005542451009247821
7.228,0.005524661007483125
7.232,0.005504515032511755
7.236,0.005508241316665171
7.24,0.005523074331650058
7.244,0.005531680846017303
7.248,0.005534205103024455
7.252,0.005541273022644483
7.256,0.005555505024056238
7.26,0.005559279389295505
7.264,0.005615101529967967
7.268,0.005656499344885271
7.272,0.0056535183175625385
7.276,0.005627843017718357
7.28,0.005594643027938568
7.284,0.0055731988636492326
7.288,0.005564928916882941
7.292,0.005554831888854331
7.296,0.005548941955837642
7.3,0.005549158320723969
7.304,0.005549999739726353
7.308,0.005540335441470397
7.312,0.005523266655993461
7.316,0.0055226175613344785
7.32,0.005533676211080099
7.324,0.005539445941382163
7.328,0.005546249415030012
7.332,0.005543484752593607
7.336,0.005524853331826528
7.34,0.005491917788018917
7.344,0.005501942694418752
7.348,0.005547451442176275
7.352,0.005585219135111864
7.356,0.005589474311209637
7.36,0.005577838688433808
7.364,0.005567453173890094
7.368,0.005552139348046702
7.372,0.005548653469322538
7.376,0.005543965563452112
7.38,0.005538796846723181
7.384,0.0055355273328853444
7.388,0.005520646236814607
7.392,0.005509226978925107
7.396,0.005506438275945776
7.4,0.005493720828738312
7.404,0.005497807721035607
7.408,0.005514155290224786
7.412,0.005535431170713643
7.416,0.005531632764931452
7.42,0.005518097939264529
7.424,0.005538796846723181
7.428,0.0055620921328177605
7.432,0.005566755998145261
7.436,0.00555930342983843
7.44,0.005547860131406005
7.444,0.005539301698124611
7.448,0.005539998873869444
7.452,0.005542499090333671
7.456,0.0055316568054743775
7.46,0.005521776142332094
7.464,0.0055128571009068214
7.468,0.005512376290048316
7.472,0.005518771074466436
7.476,0.005522882007306656
7.48,0.005530959629729545
7.484,0.005534878238226362
7.488,0.0055285555754370184
7.492,0.005490162828385373
7.496,0.005476579921632598
7.5,0.0054958123559728095
7.5040000000000004,0.0055312481162446475
7.508,0.005555384821341612
7.5120000000000005,0.00555843797029312
7.516,0.0055562262403439965
7.5200000000000005,0.005547259117832873
7.524,0.005534565711168334
7.5280000000000005,0.005528603656522869
7.532,0.005518386425779632
7.5360000000000005,0.005508986573495854
7.54,0.005521776142332094
7.5440000000000005,0.005530959629729545
7.548,0.00552271372350618
7.5520000000000005,0.00552230503427645
7.556,0.005515886209315405
7.5600000000000005,0.005506991208433057
7.564,0.005519372088039568
7.5680000000000005,0.005522689682963254
7.572,0.005495932558687436
7.5760000000000005,0.005494754572084098
7.58,0.005526680413088848
7.5840000000000005,0.005551850861531598
7.588,0.005563823051908379
7.5920000000000005,0.00554930256398152
7.596,0.005535791778857523
7.6000000000000005,0.005530022048555459
7.604,0.005526992940146876
7.6080000000000005,0.00552367534522319
7.612,0.005518819155552287
7.6160000000000005,0.005508794249152452
7.62,0.0055082653572080965
7.6240000000000006,0.005507976870692993
7.628,0.0055188912771810626
7.632000000000001,0.005522497358619852
7.636,0.00551869895283766
7.640000000000001,0.005519299966410792
7.644,0.005501534005189023
7.648000000000001,0.005507832627435441
7.652,0.0055205500746429055
7.656000000000001,0.005541128779386931
7.66,0.005551754699359897
7.664000000000001,0.0055413932253591085
7.668,0.005529469116068178
7.672000000000001,0.0055250696967128555
7.676,0.005524901412912378
7.68,0.005513121546879
7.684,0.005501870572789976
7.688,0.0055157179255149276
7.692,0.005512400330591242
7.696,0.005504274627082502
7.7,0.005514347614568187
7.704,0.0055229300883925065
7.708,0.005494418004483145
7.712,0.005460592960587298
7.716,0.005492158193448169
7.72,0.005524156156081695
7.724,0.005521968466675496
7.728,0.005521247250387738
7.732,0.0055345897517112596
7.736,0.00555564926731379
7.74,0.00555843797029312
7.744,0.005546537901545115
7.748,0.005524084034452919
7.752,0.005509395262725584
7.756,0.005508505762637349
7.76,0.005516198736373433
7.764,0.005514780344340843
7.768,0.00551819410143623
7.772,0.005524348480425097
7.776,0.005523458980336862
7.78,0.005519251885324941
7.784,0.005521127047673112
7.788,0.005519900979983923
7.792,0.005514732263254992
7.796,0.005505188167713663
7.8,0.00549220627453402
7.804,0.00548499411165644
7.808,0.005497471153434653
7.812,0.00551956441238297
7.816,0.005532450143390911
7.82,0.005534012778681053
7.824,0.005528507494351168
7.828,0.005515693884972002
7.832,0.005513193668507775
7.836,0.005503962100024474
7.84,0.005511246384530829
7.844,0.005505284329885364
7.848,0.00549453820719777
7.852,0.005508313438293947
7.856,0.005504106343282026
7.86,0.005489441612097614
7.864,0.005494778612627023
7.868,0.005497206707462475
7.872,0.005485835530658825
7.876,0.005484801787313038
7.88,0.005473502732138164
7.884,0.005491148490645309
7.888,0.005534349346282007
7.892,0.005558510091921896
7.896,0.005550865199271663
7.9,0.005535791778857523
7.904,0.005526223642773268
7.908,0.005528507494351168
7.912,0.005529709521497431
7.916,0.005526271723859119
7.92,0.005526488088745445
7.924,0.005519660574554671
7.928,0.005513121546879
7.932,0.005511030019644501
7.936,0.005508674046437826
7.94,0.005511174262902053
7.944,0.005518795115009361
7.948,0.005510549208785996
7.952,0.005483744003424326
7.956,0.005473815259196193
7.96,0.005491725463675515
7.964,0.005511438708874231
7.968,0.005507952830150068
7.972,0.005506582519203327
7.976,0.005535863900486299
7.98,0.00556290951127722
7.984,0.005565602052084849
7.988,0.005568583079407581
7.992,0.005576925147802648
7.996,0.005584810445882134
8.0,0.00558803187863412
8.004,0.0055716843094449405
8.008000000000001,0.005545984969057834
8.012,0.00552869981869457
8.016,0.005519227844782016
8.02,0.00549814428863656
8.024000000000001,0.0054654491502582015
8.028,0.005465641474601603
8.032,0.005493384261137358
8.036,0.005507135451690608
8.040000000000001,0.005502038856590453
8.044,0.005518049858178678
8.048,0.005542475049790746
8.052,0.005552644199448132
8.056000000000001,0.005547691847605528
8.06,0.00554057584689965
8.064,0.00553925361703876
8.068,0.005539349779210462
8.072000000000001,0.005528627697065794
8.076,0.005523050291107133
8.08,0.005524228277710471
8.084,0.005512400330591242
8.088000000000001,0.005501389761931471
8.092,0.005506414235402851
8.096,0.0055067508030038044
8.1,0.005490307071642924
8.104000000000001,0.0054841526926540565
8.108,0.005482854503336092
8.112,0.005462179636420365
8.116,0.0054754259755721854
8.120000000000001,0.005510308803356743
8.124,0.00553783522500617
8.128,0.005551033483072139
8.132,0.005546201333944161
8.136000000000001,0.005535791778857523
8.14,0.005537089968175487
8.144,0.005537450576319366
8.148,0.00552271372350618
8.152000000000001,0.005520742398986308
8.156,0.005515357317371049
8.16,0.005509755870869462
8.164,0.005506269992145299
8.168000000000001,0.005502423505277257
8.172,0.005506101708344822
8.176,0.00549261496376375
8.18,0.005478887813753423
8.184000000000001,0.0054793926651548535
8.188,0.005476026989145317
8.192,0.005454198176169178
8.196,0.005452851905765364
8.2,0.005489081003953735
8.204,0.005520117344870251
8.208,0.005538844927809031
8.212,0.0055463936582875635
8.216,0.005540936455043529
8.22,0.005526512129288371
8.224,0.005523843629023667
8.228,0.005526560210374221
8.232,0.005515886209315405
8.236,0.005508433641008573
8.24,0.005503962100024474
8.244,0.005503096640479164
8.248,0.005507423938205712
8.252,0.00550727969494816
8.256,0.005505308370428289
8.26,0.005499610761755001
8.264,0.005484200773739906
8.268,0.005479296502983153
8.272,0.005488528071466454
8.276,0.005485595125229572
8.28,0.005497615396692204
8.284,0.005502832194506987
8.288,0.005481820759990305
8.292,0.005496581653346418
8.296,0.005532714589363089
8.3,0.0055336281299942485
8.304,0.005519468250211269
8.308,0.0055119195197327366
8.312,0.005515862168772479
8.316,0.005521415534188215
8.32,0.005523699385766115
8.324,0.005517160358090444
8.328,0.00550727969494816
8.332,0.005492687085392526
8.336,0.005481604395103978
8.34,0.005481219746417174
8.344,0.0055008127889012645
8.348,0.005513049425250224
8.352,0.005511727195389334
8.356,0.005501942694418752
8.36,0.005492278396162796
8.364,0.005495571950543557
8.368,0.005501558045731948
8.372,0.005497014383119073
8.376,0.005512688817106344
8.38,0.0055197567367263715
8.384,0.005527137183404428
8.388,0.005524420602053873
8.392,0.005520045223241475
8.396,0.005511078100730352
8.4,0.005503457248623044
8.404,0.005502543707991883
8.408,0.0055058132218297196
8.412,0.0054986731805809165
8.416,0.005480594692301117
8.42,0.005445495499630233
8.424,0.005421118389104015
8.428,0.005459559217241511
8.432,0.00552778627806341
8.436,0.0055575725107478114
8.44,0.005540311400927472
8.444,0.005539157454867059
8.448,0.00553559945451412
8.452,0.0055188912771810626
8.456,0.005512352249505391
8.46,0.005503240883736716
8.464,0.005511631033217633
8.468,0.00550946738435436
8.472,0.005511606992674708
8.476,0.00551271285764927
8.48,0.005502038856590453
8.484,0.0054973269101771015
8.488,0.005496245085745465
8.492,0.0055030245188503885
8.496,0.005502543707991883
8.5,0.005485523003600796
8.504,0.005467372393692222
8.508000000000001,0.005457443649464089
8.512,0.005463766312253432
8.516,0.005487710693006995
8.52,0.005501221478130994
8.524000000000001,0.0055202375475848775
8.528,0.0055437011174799345
8.532,0.005538844927809031
8.536,0.0055152371146564225
8.540000000000001,0.005510669411500623
8.544,0.005508313438293947
8.548,0.005502423505277257
8.552,0.005501534005189023
8.556000000000001,0.00549540366674308
8.56,0.005491893747475992
8.564,0.005500716626729563
8.568,0.00550403422165325
8.572000000000001,0.005499370356325748
8.576,0.005493816990910013
8.58,0.005489201206668361
8.584,0.005492759207021301
8.588000000000001,0.0054889848417820335
8.592,0.0054625162040213195
8.596,0.005441841337105593
8.6,0.005468526339752635
8.604000000000001,0.005490162828385373
8.608,0.005499730964469628
8.612,0.005533387724564996
8.616,0.005547691847605528
8.620000000000001,0.005542715455219998
8.624,0.005517256520262145
8.628,0.005510308803356743
8.632,0.005516679547231939
8.636000000000001,0.005527521832091232
8.64,0.005532642467734313
8.644,0.00552002118269855
8.648,0.0055028802755928375
8.652000000000001,0.005502255221476781
8.656,0.005504466951425905
8.66,0.0055054045325999895
8.664,0.005498408734608738
8.668000000000001,0.00548179671944738
8.672,0.00547494516471368
8.676,0.005481099543702548
8.68,0.005495115180227977
8.684000000000001,0.005484441179169159
8.688,0.005488263625494276
8.692,0.005537210170890113
8.696,0.005591012905956853
8.700000000000001,0.0056128417189329925
8.704,0.005598104866119806
8.708,0.005580891837385317
8.712,0.0055780310127772105
8.716,0.005558942821694551
8.72,0.005543388590421906
8.724,0.005531368318959274
8.728,0.00551956441238297
8.732,0.005509803951955313
8.736,0.005507255654405235
8.74,0.00550631807323115
8.744,0.005499682883383777
8.748,0.005485643206315422
8.752,0.005476988610862327
8.756,0.005493264058422732
8.76,0.005492590923220825
8.764,0.005484801787313038
8.768,0.005472228583363125
8.772,0.005480474489586491
8.776,0.0055141312496818605
8.78,0.005534950359855138
8.784,0.005516919952661191
8.788,0.005506558478660402
8.792,0.005520189466499027
8.796,0.00552915658901015
8.8,0.005516583385060237
8.804,0.005510717492586473
8.808,0.005515645803886152
8.812,0.005515092871398871
8.816,0.005509707789783612
8.82,0.005506462316488702
8.824,0.005501077234873443
8.828,0.005497302869634176
8.832,0.005490090706756597
8.836,0.005489129085039585
8.84,0.005483864206138953
8.844,0.005464800055599219
8.848,0.005460064068642943
8.852,0.005462804690536422
8.856,0.005490884044673131
8.86,0.005523458980336862
8.864,0.00553194529198948
8.868,0.005523338777622237
8.872,0.005511727195389334
8.876,0.005509395262725584
8.88,0.005507039289518908
8.884,0.00549540366674308
8.888,0.005491485058246263
8.892,0.005491941828561843
8.896,0.005489297368840062
8.9,0.005480306205786014
8.904,0.005471603529247068
8.908,0.005470064934499852
8.912,0.0054606891227589995
8.916,0.005432778052422768
8.92,0.00546083336601655
8.924,0.005505548775857541
8.928,0.00552966144041158
8.932,0.005536873603289159
8.936,0.005528435372722392
8.94,0.005518097939264529
8.944,0.005508698086980751
8.948,0.005505308370428289
8.952,0.005503240883736716
8.956,0.005498408734608738
8.96,0.005498504896780439
8.964,0.005498817423838467
8.968,0.005497543275063428
8.972,0.005497807721035607
8.976,0.005495740234344034
8.98,0.00548960989589809
8.984,0.005481820759990305
8.988,0.00548174863836153
8.992,0.005485138354913992
8.996,0.005462684487821796
9.0,0.005460280433529269
9.004,0.005494778612627023
9.008000000000001,0.005491436977160412
9.012,0.005498841464381393
9.016,0.005497663477778055
9.02,0.005492639004306675
9.024000000000001,0.005508361519379797
9.028,0.005519925020526849
9.032,0.00553098367027247
9.036,0.005520045223241475
9.040000000000001,0.005508842330238303
9.044,0.0055030245188503885
9.048,0.005498528937323365
9.052,0.005494321842311444
9.056000000000001,0.005491965869104768
9.06,0.005488023220065023
9.064,0.005478310840723217
9.068,0.0054503036082152855
9.072000000000001,0.005453741405853598
9.076,0.0054721083806484995
9.08,0.005491845666390141
9.084,0.005508073032864694
9.088000000000001,0.005507327776034011
9.092,0.005507423938205712
9.096,0.005508409600465647
9.1,0.005496581653346418
9.104000000000001,0.005501990775504602
9.108,0.00550956354652606
9.112,0.005506967167890132
9.116,0.005506245951602374
9.120000000000001,0.005502423505277257
9.124,0.005490475355443401
9.128,0.005482469854649287
9.132,0.005482902584421943
9.136000000000001,0.00548001771927091
9.14,0.005450904621788417
9.144,0.005463165298680301
9.148,0.00550129359975977
9.152000000000001,0.005507423938205712
9.156,0.0055061978705165235
9.16,0.0055131696279648494
9.164,0.0054962931668313154
9.168000000000001,0.005472781515850406
9.172,0.005494321842311444
9.176,0.005518338344693782
9.18,0.005523290696536386
9.184000000000001,0.005511005979101576
9.188,0.005498577018409215
9.192,0.005487903017350397
9.196,0.005482277530305886
9.200000000000001,0.005481580354561053
9.204,0.00548266217899269
9.208,0.005476195272945794
9.212,0.0054729738401938085
9.216000000000001,0.005477781948778861
9.22,0.005475161529600007
9.224,0.005473815259196193
9.228,0.005476579921632598
9.232,0.005480065800356761
9.236,0.005504250586539577
9.24,0.005511967600818586
9.244,0.005498000045379009
9.248,0.005496100842487913
9.252,0.005486989476719237
9.256,0.005481027422073772
9.26,0.005483695922338476
9.264,0.005491028287930682
9.268,0.005500187734785208
9.272,0.00550449099196883
9.276,0.0054966056938893434
9.28,0.0054873981659489665
9.284,0.005494009315253415
9.288,0.005490523436529252
9.292,0.005474464353855175
9.296,0.005470738069701759
9.3,0.005479104178639751
9.304,0.0054833593547375225
9.308,0.005488840598524483
9.312,0.005487806855178696
9.316,0.00547129100218904
9.32,0.005481388030217651
9.324,0.005507351816576936
9.328,0.005515309236285198
9.332,0.005507760505806665
9.336,0.00551408316859601
9.34,0.005499730964469628
9.344,0.005481388030217651
9.348,0.005488768476895707
9.352,0.005494201639596817
9.356,0.005482157327591259
9.36,0.005477060732491103
9.364,0.005479993678727985
9.368,0.005487422206491892
9.372,0.005507087370604759
9.376,0.005525334142685033
9.38,0.005541681711874212
9.384,0.005550600753299485
9.388,0.005526440007659595
9.392,0.005494201639596817
9.396,0.005496124883030838
9.4,0.005491869706933067
9.404,0.00549220627453402
9.408,0.005504827559569783
9.412,0.005515693884972002
9.416,0.00550951546544021
9.42,0.005508674046437826
9.424,0.0055039861405673995
9.428,0.005494321842311444
9.432,0.005490643639243878
9.436,0.005495764274886959
9.44,0.0055054045325999895
9.444,0.005505380492057064
9.448,0.005496172964116689
9.452,0.005488407868751827
9.456,0.005481051462616697
9.46,0.005480498530129416
9.464,0.005482109246505409
9.468,0.005478791651581722
9.472,0.005478310840723217
9.476,0.0054729738401938085
9.48,0.0054676368396644
9.484,0.005461362257960906
9.488,0.005459991947014167
9.492,0.005460232352443419
9.496,0.0054744883943981006
9.5,0.005472036259019724
9.504,0.005463718231167583
9.508000000000001,0.005465401069172351
9.512,0.005465713596230379
9.516,0.005448981378354396
9.52,0.005464968339399696
9.524000000000001,0.005476531840546747
9.528,0.005493889112538789
9.532,0.005491388896074562
9.536,0.005488792517438632
9.540000000000001,0.005490571517615102
9.544,0.005480354286871865
9.548,0.005472228583363125
9.552,0.00546895906952529
9.556000000000001,0.005465713596230379
9.56,0.005464607731255817
9.564,0.00546398267713976
9.568,0.0054587899198679036
9.572000000000001,0.005446144594289215
9.576,0.005443259729138184
9.58,0.005438066971866325
9.584,0.0054366485798337345
9.588000000000001,0.005428787322297173
9.592,0.005430902890074597
9.596,0.0054468177294911225
9.6,0.005465929961116707
9.604000000000001,0.005476988610862327
9.608,0.0054679012856365785
9.612,0.005464271163654864
9.616,0.0054607852849307
9.620000000000001,0.005475738502630214
9.624,0.0054846335035125615
9.628,0.005481267827503024
9.632,0.005471411204903667
9.636000000000001,0.005464391366369489
9.64,0.0054679012856365785
9.644,0.005467949366722428
9.648,0.005469127353325767
9.652000000000001,0.005465641474601603
9.656,0.005455977176345647
9.66,0.005454534743770132
9.664,0.005458140825208921
9.668000000000001,0.005459679419956138
9.672,0.005464872177227995
9.676,0.005461169933617505
9.68,0.005447442783607179
9.684000000000001,0.005442250026335322
9.688,0.005425421646287637
9.692,0.005429484498042006
9.696,0.005457299406206537
9.700000000000001,0.005488864639067408
9.704,0.0055024715863631075
9.708,0.005512015681904437
9.712,0.005506534438117477
9.716000000000001,0.005482878543879017
9.72,0.005474368191683474
9.724,0.005467781082921952
9.728,0.0054650404610284715
9.732,0.005467781082921952
9.736,0.005467252190977596
9.74,0.005463670150081732
9.744,0.005460160230814643
9.748,0.0054495823919275274
9.752,0.005449967040614331
9.756,0.005457419608921163
9.76,0.005467684920750251
9.764,0.005462684487821796
9.768,0.005453861608568224
9.772,0.005460400636243896
9.776,0.005465641474601603
9.78,0.005464800055599219
9.784,0.005452899986851214
9.788,0.005452323013821007
9.792,0.005483527638538
9.796,0.005510549208785996
9.8,0.005508722127523676
9.804,0.005504178464910801
9.808,0.00548910504449666
9.812,0.005476652043261374
9.816,0.005470689988615909
9.82,0.005473310407794763
9.824,0.005469199474954542
9.828,0.0054654491502582015
9.832,0.005463694190624657
9.836,0.005454462622141356
9.84,0.005457347487292387
9.844,0.005465497231344052
9.848,0.005463862474425134
9.852,0.005451770081333726
9.856,0.00545352504096727
9.86,0.005469608164184272
9.864,0.00548174863836153
9.868,0.005474536475483951
9.872,0.005479104178639751
9.876,0.005479536908412405
9.88,0.005469223515497467
9.884,0.0054648962177709206
9.888,0.005465328947543575
9.892,0.0054641750014831625
9.896,0.00545891012258253
9.9,0.005466362690889361
9.904,0.0054689350289823645
9.908,0.005461770947190636
9.912,0.005444101148140567
9.916,0.005428739241211324
9.92,0.005445567621259009
9.924,0.005445808026688261
9.928,0.0054368889852629875
9.932,0.005460857406559476
9.936,0.005499105910353571
9.94,0.005511847398103961
9.944,0.005511486789960081
9.948,0.00549997136989888
9.952,0.005493167896251031
9.956,0.0054904993959863264
9.96,0.005479705192212882
9.964,0.00547489708362783
9.968,0.005476820327061851
9.972,0.005479272462440228
9.976,0.005476243354031645
9.98,0.005471964137390948
9.984,0.005473622934852791
9.988,0.005481556314018128
9.992,0.005486412503689031
9.996,0.005487470287577742
10.0,0.005479128219182676
10.004,0.005466170366545959
10.008000000000001,0.005467997447808279
10.012,0.005481363989674725
10.016,0.005459198609097633
10.02,0.00543210491722086
10.024000000000001,0.005424892754343281
10.028,0.005446721567319421
10.032,0.00548864827418108
10.036,0.005520646236814607
10.040000000000001,0.005533195400221594
10.044,0.005554302996909975
10.048,0.005564207700595184
10.052,0.005556803213374203
10.056000000000001,0.005543388590421906
10.06,0.0055319693325324056
10.064,0.005518819155552287
10.068,0.005509924154669939
10.072000000000001,0.005507111411147684
10.076,0.005491509098789187
10.08,0.005486941395633387
10.084,0.0054796330705841065
10.088000000000001,0.0054663146098035105
10.092,0.005464631771798742
10.096,0.005465905920573781
10.1,0.005462396001306693
10.104000000000001,0.005457034960234359
10.108,0.0054553040411437406
10.112,0.005470641907530058
10.116,0.005466843501747866
10.120000000000001,0.00545439050051258
10.124,0.005471723731961695
10.128,0.005491989909647693
10.132,0.005493696788195387
10.136000000000001,0.005485066233285216
10.14,0.00547124292110319
10.144,0.005466506934146913
10.148,0.005482878543879017
10.152000000000001,0.005480666813929893
10.156,0.00547489708362783
10.16,0.005474223948425922
10.164,0.005470882312959311
10.168000000000001,0.005462131555334515
10.172,0.005459751541584914
10.176,0.005462011352619888
10.18,0.005462492163478394
10.184000000000001,0.005454053932911627
10.188,0.005455592527658843
10.192,0.005470521704815432
10.196,0.0054693196776691684
10.200000000000001,0.0054636220689958815
10.204,0.0054471302565491505
10.208,0.005443283769681109
10.212,0.005448861175639769
10.216000000000001,0.005466290569260585
10.22,0.0054654491502582015
10.224,0.005458164865751847
10.228,0.0054490294594402465
10.232000000000001,0.005449125621611948
10.236,0.005455520406030067
10.24,0.00545895820366838
10.244,0.005447202378177926
10.248,0.0054444377157415215
10.252,0.005452419175992708
10.256,0.005453332716623869
10.26,0.005439629607156467
10.264,0.005432345322650113
10.268,0.005435975444631827
10.272,0.005443452053481585
10.276,0.005461770947190636
10.28,0.005467612799121475
10.284,0.005465665515144528
10.288,0.005462852771622273
10.292,0.005460881447102401
10.296,0.005464607731255817
10.3,0.005467396434235147
10.304,0.005462876812165198
10.308,0.005456193541231975
10.312,0.005456145460146124
10.316,0.0054625883256500946
10.32,0.0054583812306381735
10.324,0.005465328947543575
10.328,0.005468117650522905
10.332,0.0054532365544521675
10.336,0.005442899120994304
10.34,0.005448885216182695
10.344,0.005456145460146124
10.348,0.005457107081863135
10.352,0.005465785717859155
10.356,0.005470641907530058
10.36,0.00546443944745534
10.364,0.005439894053128645
10.368,0.005444077107597642
10.372,0.005465569352972827
10.376,0.0054610016498170275
10.38,0.005457059000777285
10.384,0.005449245824326574
10.388,0.005459799622670764
10.392,0.005465713596230379
10.396,0.005463093177051526
10.4,0.005477373259549132
10.404,0.005476411637832121
10.408,0.005476820327061851
10.412,0.005474247988968848
10.416,0.0054686946235531116
10.42,0.005463766312253432
10.424,0.005461266095789206
10.428,0.0054556165682017686
10.432,0.005453164432823392
10.436,0.00545941497398396
10.44,0.005465401069172351
10.444,0.00545895820366838
10.448,0.005452419175992708
10.452,0.005448115918809086
10.456,0.005450423810929912
10.46,0.005444581958999072
10.464,0.005433763714682703
10.468,0.0054357831202884255
10.472,0.005451818162419577
10.476,0.005460304474072195
10.48,0.005462756609450572
10.484,0.00545936689289811
10.488,0.0054558569736310215
10.492,0.0054657616773162295
10.496,0.005468430177580934
10.5,0.005461843068819412
10.504,0.005456265662860751
10.508000000000001,0.005461434379589682
10.512,0.0054554482844012915
10.516,0.005442201945249471
10.52,0.005429532579127857
10.524000000000001,0.005433234822738347
10.528,0.005433980079569031
10.532,0.005441360526247088
10.536,0.005461362257960906
10.540000000000001,0.005472396867163602
10.544,0.005469968772328151
10.548,0.005456578189918779
10.552,0.005445279134743905
10.556000000000001,0.005446048432117514
10.56,0.005449798756813855
10.564,0.005444774283342475
10.568,0.005440831634302732
10.572000000000001,0.005439437282813066
10.576,0.005432946336223245
10.58,0.0054152044155444
10.584,0.0054412643640753865
10.588000000000001,0.005448043797180311
10.592,0.005440999918103208
10.596,0.005438667985439457
10.6,0.0054311913765897
10.604000000000001,0.005429171970983978
10.608,0.005444485796827372
10.612,0.005474272029511773
10.616,0.005480787016644519
10.620000000000001,0.005454438581598431
10.624,0.005428739241211324
10.628,0.005447514905235954
10.632,0.005475882745887765
10.636000000000001,0.005481628435646904
10.64,0.005475786583716064
10.644,0.005466723299033241
10.648,0.00544941410812705
10.652000000000001,0.005450928662331342
10.656,0.005458597595524501
10.66,0.00545160179753325
10.664,0.005452924027394139
10.668000000000001,0.005454318378883804
10.672,0.0054560012168885725
10.676,0.005455520406030067
10.68,0.005454991514085712
10.684000000000001,0.005451866243505427
10.688,0.0054429231615372295
10.692,0.005429340254784455
10.696,0.0054315760252765044
10.700000000000001,0.005425878416603217
10.704,0.005435855241917201
10.708,0.0054889127201532585
10.712,0.005526319804944969
10.716000000000001,0.005529541237696954
10.72,0.0055191316826103155
10.724,0.005514371655111113
10.728,0.005490307071642924
10.732000000000001,0.0054623479202208424
10.736,0.005447322580892553
10.74,0.005451457554275698
10.744,0.005454005851825776
10.748000000000001,0.005450928662331342
10.752,0.005448019756637386
10.756,0.005449654513556303
10.76,0.005446505202433094
10.764,0.0054473706619784035
10.768,0.0054548953519140105
10.772,0.005442201945249471
10.776,0.005430542281930718
10.78,0.005430926930617522
10.784,0.005434028160654881
10.788,0.005434533012056312
10.792,0.00544383670216839
10.796,0.005442995283166005
10.8,0.00543758616100782
10.804,0.005440398904530076
10.808,0.005456746473719256
10.812,0.0054716996914187695
10.816,0.005462564285107169
10.82,0.005446505202433094
10.824,0.005446865810576973
10.828,0.0054447983238854
10.832,0.0054501353244148084
10.836,0.005452298973278083
10.84,0.005451529675904474
10.844,0.00545205856784883
10.848,0.005450880581245492
10.852,0.005452731703050737
10.856,0.005442875080451379
10.86,0.005434220484998283
10.864,0.005440278701815449
10.868,0.005447178337635001
10.872,0.005452803824679513
10.876,0.005437369796121493
10.88,0.0054078720499521945
10.884,0.005387461629008646
10.888,0.005393495805282887
10.892,0.0054285709574108465
10.896,0.0054583091090093985
10.9,0.005466122285460109
10.904,0.0054372015123210155
10.908,0.005400563724902914
10.912,0.0054370572690634646
10.916,0.005469031191154066
10.92,0.005477926192036413
10.924,0.005472637272592855
10.928,0.005461602663390159
10.932,0.005452178770563456
10.936,0.005442033661448995
10.94,0.0054318164307057566
10.944,0.005433739674139778
10.948,0.005440134458557898
10.952,0.005441456688418789
10.956,0.005436600498747884
10.96,0.005433234822738347
10.964,0.005426094781489544
10.968,0.005423618605568242
10.972,0.005420853943131837
10.976,0.005433980079569031
10.98,0.005441240323532461
10.984,0.00544114416136076
10.988,0.005464992379942621
10.992,0.005474007583539595
10.996,0.005467228150434671
11.0,0.0054525153381644095
11.004,0.005438379498924353
11.008000000000001,0.00542296951090926
11.012,0.005412199347678742
11.016,0.0054252293219442345
11.02,0.0054525153381644095
11.024000000000001,0.005458597595524501
11.028,0.00544845248641004
11.032,0.005447322580892553
11.036,0.005437826566437072
11.040000000000001,0.005434941701286041
11.044,0.00543484553911434
11.048,0.005437826566437072
11.052,0.005445158932029279
11.056000000000001,0.005457467690007014
11.06,0.0054540298923687015
11.064,0.005451457554275698
11.068,0.005449606432470453
11.072000000000001,0.005450640175816239
11.076,0.0054470821754633
11.08,0.005438091012409251
11.084,0.005436528377119109
11.088000000000001,0.005436239890604005
11.092,0.005439701728785243
11.096,0.0054395094044418415
11.1,0.005435350390515771
11.104000000000001,0.0054208779836747625
11.108,0.0054152044155444
11.112,0.005413136928852827
11.116,0.005393423683654111
11.120000000000001,0.00539602006229004
11.124,0.005441889418191443
11.128,0.005489802220241494
11.132,0.005493480423309059
11.136000000000001,0.005476123151317018
11.14,0.005475690421544364
11.144,0.00547032938047203
11.148,0.005463405704109554
11.152000000000001,0.0054591024469259316
11.156,0.005460665082216074
11.16,0.005453765446396523
11.164,0.005450904621788417
11.168000000000001,0.005447442783607179
11.172,0.0054441973103122685
11.176,0.00544571186451656
11.18,0.005436023525717678
11.184000000000001,0.005420421213359182
11.188,0.005416983415720869
11.192,0.005408785590583355
11.196,0.005398111589524537
11.200000000000001,0.005392438021394176
11.204,0.0054259505382319925
11.208,0.005464535609627041
11.212,0.0054842248142828315
11.216000000000001,0.005477349219006207
11.22,0.00546119397416043
11.224,0.005477156894662804
11.228,0.005481940962704932
11.232000000000001,0.005480234084157238
11.236,0.00546580975840208
11.24,0.005453188473366317
11.244,0.00544977471627093
11.248000000000001,0.005451024824503044
11.252,0.0054447502427995495
11.256,0.005444029026511791
11.26,0.0054534769598814205
11.264,0.005457227284577761
11.268,0.0054468177294911225
11.272,0.005428138227638192
11.276,0.005406742144434707
11.28,0.005392798629538054
11.284,0.005422031929735175
11.288,0.005476291435117495
11.292,0.005501245518673919
11.296,0.005494850734255799
11.3,0.005480859138273295
11.304,0.005485042192742291
11.308,0.005475450016115111
11.312,0.0054693196776691684
11.316,0.005464030758225611
11.32,0.005458838000953754
11.324,0.005462564285107169
11.328,0.005464102879854387
11.332,0.0054587899198679036
11.336,0.005456746473719256
11.34,0.005447250459263777
11.344,0.0054128724828806495
11.348,0.005392389940308325
11.352,0.005403520711682722
11.356,0.005450255527129435
11.36,0.005488552112009379
11.364,0.005512448411677092
11.368,0.005551634496645271
11.372,0.005560313132641291
11.376,0.00554153746861666
11.38,0.005535719657228747
11.384,0.005539638265725564
11.388,0.005528603656522869
11.392,0.005510260722270893
11.396,0.005495235382942603
11.4,0.005476507800003822
11.404,0.005465881880030856
11.408,0.005452948067937064
11.412,0.005454991514085712
11.416,0.0054615545823043085
11.42,0.005455183838429114
11.424,0.005437754444808297
11.428,0.005402535049422786
11.432,0.005393111156596083
11.436,0.005423378200138989
11.44,0.005466362690889361
11.444,0.005481412070760576
11.448,0.0054744883943981006
11.452,0.005486556746946583
11.456,0.005501582086274873
11.46,0.005493961234167564
11.464,0.0054783589218090675
11.468,0.005473502732138164
11.472,0.005467516636949774
11.476,0.005457563852178715
11.48,0.005459631338870287
11.484,0.005459631338870287
11.488,0.005449053499983172
11.492,0.005434653214770938
11.496,0.00542708044374948
11.5,0.005437802525894147
11.504,0.005427008322120704
11.508000000000001,0.005399025130155698
11.512,0.005415300577716101
11.516,0.005475954867516541
11.52,0.005505284329885364
11.524000000000001,0.005493696788195387
11.528,0.005457299406206537
11.532,0.0054334752281676
11.536,0.0054436443778249875
11.540000000000001,0.005467372393692222
11.544,0.005469896650699375
11.548,0.005464511569084116
11.552,0.005456457987204153
11.556000000000001,0.005440543147787628
11.56,0.0054211905107327905
11.564,0.005395370967631058
11.568,0.005386740412720888
11.572000000000001,0.005429893187271736
11.576,0.005462564285107169
11.58,0.0054751855701429325
11.584,0.005473887380824969
11.588000000000001,0.005454102013997477
11.592,0.00543753807992197
11.596,0.005439244958469663
11.6,0.00545717920349191
11.604000000000001,0.005463405704109554
11.608,0.005460400636243896
11.612,0.005454150095083327
11.616,0.005448740972925143
11.620000000000001,0.005446144594289215
11.624,0.005443259729138184
11.628,0.005433186741652497
11.632,0.005426815997777302
11.636000000000001,0.005435951404088903
11.64,0.005449245824326574
11.644,0.005439797890956944
11.648,0.00539830391386794
11.652000000000001,0.005378831074098477
11.656,0.005410276104244721
11.66,0.005455424243858366
11.664,0.005489682017526866
11.668000000000001,0.005504442910882979
11.672,0.005501654207903649
11.676,0.005479945597642135
11.68,0.005457924460322594
11.684000000000001,0.005455111716800338
11.688,0.005463718231167583
11.692,0.0054648962177709206
11.696,0.005462900852708123
11.700000000000001,0.005452707662507812
11.704,0.005442442350678724
11.708,0.005444726202256624
11.712,0.005449293905412425
11.716000000000001,0.005445495499630233
11.72,0.005445880148317037
11.724,0.005458020622494295
11.728,0.0054648962177709206
11.732000000000001,0.005462780649993497
11.736,0.0054447502427995495
11.74,0.005423209916338513
11.744,0.005421262632361566
11.748000000000001,0.005431672187448206
11.752,0.005456145460146124
11.756,0.005483239152022896
11.76,0.005482349651934662
11.764000000000001,0.0054796330705841065
11.768,0.00548951373372639
11.772,0.005492855369193002
11.776,0.005482277530305886
11.78,0.005471459285989517
11.784,0.0054663146098035105
11.788,0.005456602230461704
11.792,0.005451265229932296
11.796,0.005452707662507812
11.8,0.005446216715917991
11.804,0.00543717747177809
11.808,0.005447971675551535
11.812,0.0054554482844012915
11.816,0.0054438847832542405
11.82,0.0054548953519140105
11.824,0.00546398267713976
11.828,0.005461987312076963
11.832,0.005458525473895725
11.836,0.005446240756460916
11.84,0.005438884350325785
11.844,0.005450832500159641
11.848,0.005466242488174735
11.852,0.0054785272056095445
11.856,0.005468334015409233
11.86,0.005472565150964079
11.864,0.005480474489586491
11.868,0.005483840165596028
11.872,0.005476988610862327
11.876,0.005461770947190636
11.88,0.005454630905941833
11.884,0.005457611933264566
11.888,0.005467035826091269
11.892,0.005465064501571397
11.896,0.005467156028805895
11.9,0.005465184704286023
11.904,0.005464631771798742
11.908,0.005463910555510984
11.912,0.005458765879324978
11.916,0.005441913458734369
11.92,0.0054020061574784305
11.924,0.005396741278577798
11.928,0.005448091878266162
11.932,0.0055000915726135064
11.936,0.005500740667272489
11.94,0.005488888679610333
11.944,0.0054952594234855285
11.948,0.005498312572437037
11.952,0.005488311706580127
11.956,0.005485787449572974
11.96,0.005488624233638155
11.964,0.005486628868575358
11.968,0.00548083509773037
11.972,0.0054722045428202
11.976,0.005469367758755019
11.98,0.005469343718212094
11.984,0.0054674204747780725
11.988,0.005472853637479182
11.992,0.005471771813047545
11.996,0.005469848569613524
12.0,0.005467324312606372
12.004,0.005473238286165987
12.008000000000001,0.005482541976278063
12.012,0.005462131555334515
12.016,0.005445519540173158
12.02,0.005492302436705721
12.024000000000001,0.005546850428603143
12.028,0.005545504158199329
12.032,0.005555817551114266
12.036,0.005560601619156395
12.040000000000001,0.005535359049084868
12.044,0.005513289830679476
12.048,0.005506967167890132
12.052,0.0055034332080801185
12.056000000000001,0.005494850734255799
12.06,0.005486099976631002
12.064,0.005477469421720833
12.068,0.005468862907353589
12.072000000000001,0.005473622934852791
12.076,0.005472324745534826
12.08,0.005470257258843254
12.084,0.005469824529070599
12.088000000000001,0.005471819894133396
12.092,0.00547124292110319
12.096,0.005467156028805895
12.1,0.005464150960940237
12.104000000000001,0.00545717920349191
12.108,0.00545667435209048
12.112,0.005466410771975212
12.116,0.0054633816635666285
12.120000000000001,0.005445327215829756
12.124,0.0054390285935833355
12.128,0.005456313743946601
12.132,0.005485763409030049
12.136000000000001,0.005488407868751827
12.14,0.0054783589218090675
12.144,0.005479584989498256
12.148,0.005475618299915588
12.152000000000001,0.005477589624435459
12.156,0.005477902151493488
12.16,0.005463646109538807
12.164,0.005471050596759787
12.168000000000001,0.005489249287754212
12.172,0.005486941395633387
12.176,0.005476796286518926
12.18,0.0054726613131357805
12.184000000000001,0.005468141691065831
12.188,0.005461434379589682
12.192,0.005464751974513369
12.196,0.005471002515673937
12.200000000000001,0.005463453785195404
12.204,0.00545210664893468
12.208,0.00545302018956584
12.212,0.005446697526776496
12.216000000000001,0.005451313311018146
12.22,0.0054553040411437406
12.224,0.005455328081686665
12.228,0.0054434760940245104
12.232000000000001,0.005456193541231975
12.236,0.00547540193502926
12.24,0.005479536908412405
12.244,0.005492158193448169
12.248000000000001,0.005497350950720027
12.252,0.005495163261313827
12.256,0.005482878543879017
12.26,0.005468790785724813
12.264000000000001,0.005465088542114322
12.268,0.005467204109891746
12.272,0.0054602083119004935
12.276,0.005458020622494295
12.280000000000001,0.0054679012856365785
12.284,0.005474007583539595
12.288,0.005478431043437843
12.292,0.005475329813400484
12.296,0.005477132854119879
12.3,0.005473142123994286
12.304,0.005448548648581741
12.308,0.005441841337105593
12.312,0.005453621203138971
12.316,0.005473166164537211
12.32,0.005487446247034817
12.324,0.005493744869281237
12.328,0.005497134585833699
12.332,0.005495019018056276
12.336,0.005500788748358339
12.34,0.005493648707109536
12.344,0.005487446247034817
12.348,0.005472901718565033
12.352,0.005470738069701759
12.356,0.005474824961999054
12.36,0.0054774934622637585
12.364,0.005480282165243089
12.368,0.005482181368134185
12.372,0.005480137921985537
12.376,0.005457155162948985
12.38,0.005436624539290809
12.384,0.005437634242093671
12.388,0.005461434379589682
12.392,0.005483695922338476
12.396,0.00547819063800859
12.4,0.005481123584245473
12.404,0.00550038005912861
12.408,0.005502375424191406
12.412,0.005482493895192213
12.416,0.00547819063800859
12.42,0.005495884477601585
12.424,0.005500187734785208
12.428,0.005489850301327344
12.432,0.005487326044320191
12.436,0.005488167463322575
12.44,0.005482061165419558
12.444,0.005480618732844042
12.448,0.005476507800003822
12.452,0.0054693196776691684
12.456,0.005458741838782053
12.46,0.005445519540173158
12.464,0.00545352504096727
12.468,0.005465064501571397
12.472,0.005470233218300329
12.476,0.005482950665507793
12.48,0.005493648707109536
12.484,0.005483527638538
12.488,0.0054623479202208424
12.492,0.0054798734760133595
12.496,0.005500620464557862
12.5,0.005503361086451343
12.504,0.0054966056938893434
12.508000000000001,0.005486989476719237
12.512,0.005478118516379815
12.516,0.00547626739457457
12.52,0.005474728799827353
12.524000000000001,0.005476628002718449
12.528,0.005472060299562649
12.532,0.005463429744652479
12.536,0.005449173702697798
12.540000000000001,0.0054328501740515435
12.544,0.0054486448107534426
12.548,0.005456073338517348
12.552,0.005453380797709719
12.556000000000001,0.005469439880383795
12.56,0.005497134585833699
12.564,0.005494850734255799
12.568,0.005491004247387757
12.572000000000001,0.005502543707991883
12.576,0.005502687951249435
12.58,0.005494682450455322
12.584,0.005487157760519714
12.588000000000001,0.005480522570672342
12.592,0.0054761471918599435
12.596,0.005474969205256606
12.6,0.005467324312606372
12.604000000000001,0.005469848569613524
12.608,0.0054697283668988985
12.612,0.005467324312606372
12.616,0.005466506934146913
12.620000000000001,0.00544982279735678
12.624,0.005432273201021337
12.628,0.005428931565554725
12.632,0.005427320849178733
12.636000000000001,0.005458717798239128
12.64,0.005486436544231956
12.644,0.005502375424191406
12.648,0.005500668545643713
12.652000000000001,0.005482902584421943
12.656,0.005469175434411617
12.66,0.005497543275063428
12.664,0.005543388590421906
12.668000000000001,0.005568222471263703
12.672,0.005568462876692955
12.676,0.005554663605053854
12.68,0.005547763969234304
12.684000000000001,0.0055333156029362205
12.688,0.005514852465969619
12.692,0.005506221911059449
12.696,0.005496245085745465
12.700000000000001,0.005481099543702548
12.704,0.005477469421720833
12.708,0.005464511569084116
12.712,0.005438427580010204
12.716000000000001,0.005421959808106399
12.72,0.005451529675904474
12.724,0.005487350084863116
12.728,0.005484248854825757
12.732000000000001,0.005474849002541979
12.736,0.005466627136861539
12.74,0.005456626271004629
12.744,0.005464511569084116
12.748000000000001,0.0054702812993861795
12.752,0.00546859846138141
12.756,0.005470449583186656
12.76,0.005467324312606372
12.764000000000001,0.005472517069878229
12.768,0.005478503165066619
12.772,0.005478142556922741
12.776,0.005481099543702548
12.780000000000001,0.005473238286165987
12.784,0.005460304474072195
12.788,0.005451746040790801
12.792,0.0054506161352733135
12.796000000000001,0.005454486662684281
12.8,0.005460112149728793
12.804,0.005465617434058678
12.808,0.005462997014879825
12.812,0.005461915190448188
12.816,0.0054554482844012915
12.82,0.00545987174429954
12.824,0.005454174135626252
12.828,0.0054315039036477285
12.832,0.005442322147964098
12.836,0.00546941583984087
12.84,0.005481989043790782
12.844,0.005464607731255817
12.848,0.005444846404971251
12.852,0.0054431635669664824
12.856,0.005448212080980787
12.86,0.005460184271357568
12.864,0.005456650311547555
12.868,0.005451938365134203
12.872,0.005449293905412425
12.876,0.005453356757166794
12.88,0.005461025690359953
12.884,0.005454414541055505
12.888,0.005453669284224822
12.892,0.005434220484998283
12.896,0.005433787755225628
12.9,0.005451938365134203
12.904,0.005462083474248664
12.908,0.0054556165682017686
12.912,0.00544799571609446
12.916,0.005432633809165216
12.92,0.005412992685595276
12.924,0.005423378200138989
12.928,0.005454414541055505
12.932,0.005477709827150085
12.936,0.005481484192389352
12.94,0.00547768578660716
12.944,0.005476603962175523
12.948,0.005475618299915588
12.952,0.005471026556216862
12.956,0.0054593428523551845
12.96,0.005456938798062658
12.964,0.005462732568907646
12.968,0.0054722045428202
12.972,0.005467372393692222
12.976,0.0054540298923687015
12.98,0.005449005418897321
12.984,0.0054516498786191005
12.988,0.0054607612443877745
12.992,0.005464319244740714
12.996,0.005465617434058678
13.0,0.00546215559587744
13.004,0.005440927796474432
13.008000000000001,0.005414603401971268
13.012,0.005401260900647747
13.016,0.005415949672375083
13.02,0.005467564718035624
13.024000000000001,0.005491172531188234
13.028,0.005493720828738312
13.032,0.005505043924456111
13.036,0.005488888679610333
13.040000000000001,0.005477349219006207
13.044,0.005488455949837678
13.048,0.005477637705521309
13.052,0.005466194407088884
13.056000000000001,0.005465641474601603
13.06,0.005458453352266949
13.064,0.005459246690183483
13.068,0.005458741838782053
13.072000000000001,0.005461482460675533
13.076,0.005461674785018935
13.08,0.005455953135802722
13.084,0.005444125188683493
13.088000000000001,0.00542794590329479
13.092,0.005412223388221667
13.096,0.005416430483233588
13.1,0.005438523742181905
13.104000000000001,0.0054839122872248035
13.108,0.005505596856943392
13.112,0.005497783680492681
13.116,0.005488960801239109
13.120000000000001,0.0054901147472995225
13.124,0.005488744436352781
13.128,0.005480714895015743
13.132,0.005476531840546747
13.136000000000001,0.005469439880383795
13.14,0.0054607852849307
13.144,0.005459318811812259
13.148,0.005462852771622273
13.152000000000001,0.005453284635538018
13.156,0.0054395094044418415
13.16,0.005413569658625482
13.164,0.005427897822208939
13.168000000000001,0.005459030325297156
13.172,0.0054617949877335615
13.176,0.005459030325297156
13.18,0.0054647279339704435
13.184000000000001,0.005456385865575377
13.188,0.0054495102702987516
13.192,0.0054617949877335615
13.196,0.005485066233285216
13.200000000000001,0.005497543275063428
13.204,0.005483936327767729
13.208,0.005471651610332919
13.212,0.005469079272239916
13.216000000000001,0.005466050163831333
13.22,0.005470689988615909
13.224,0.005474656678198577
13.228,0.005474296070054698
13.232000000000001,0.0054728055563933314
13.236,0.005470906353502236
13.24,0.0054724209077065275
13.244,0.00546946392092672
13.248000000000001,0.005450568054187463
13.252,0.005441793256019742
13.256,0.0054462647970038415
13.26,0.005447971675551535
13.264000000000001,0.005470689988615909
13.268,0.005483431476366298
13.272,0.005451120986674744
13.276,0.005450928662331342
13.280000000000001,0.0054769405297764775
13.284,0.005488479990380603
13.288,0.005476531840546747
13.292,0.005468045528894129
13.296000000000001,0.005487590490292369
13.3,0.005489177166125436
13.304,0.005484561381883786
13.308,0.005493240017879807
13.312000000000001,0.005509251019468032
13.316,0.005528122845664364
13.32,0.005536368751887729
13.324,0.005539614225182639
13.328,0.005535839859943373
13.332,0.005524059993909994
13.336,0.005504827559569783
13.34,0.005474608597112726
13.344,0.005456073338517348
13.348,0.005467252190977596
13.352,0.005473166164537211
13.356,0.005462227717506216
13.36,0.005456818595348032
13.364,0.0054644875285411905
13.368,0.0054650404610284715
13.372,0.005434797458028489
13.376,0.0054315760252765044
13.38,0.005466843501747866
13.384,0.005498625099495066
13.388,0.005500860869987115
13.392,0.005489369490468838
13.396,0.0054903791932717
13.4,0.005492903450278853
13.404,0.005492759207021301
13.408,0.005486099976631002
13.412,0.005482301570848811
13.416,0.005478455083980769
13.42,0.0054764597189179715
13.424,0.005474247988968848
13.428,0.005467276231520522
13.432,0.005455808892545171
13.436,0.0054615545823043085
13.44,0.00545799658195137
13.444,0.005474560516026876
13.448,0.005492831328650077
13.452,0.005473983542996669
13.456,0.005450399770386987
13.46,0.00545352504096727
13.464,0.005459030325297156
13.468,0.005477637705521309
13.472,0.005482181368134185
13.476,0.005476291435117495
13.48,0.005478791651581722
13.484,0.005466338650346436
13.488,0.005436360093318632
13.492,0.005442394269592874
13.496,0.0054641750014831625
13.5,0.005481989043790782
13.504,0.0054939852747104894
13.508000000000001,0.005478743570495872
13.512,0.005455231919514965
13.516,0.005471363123817816
13.52,0.0054904993959863264
13.524000000000001,0.005495331545114304
13.528,0.005488576152552304
13.532,0.005486628868575358
13.536,0.005485042192742291
13.540000000000001,0.005481676516732754
13.544,0.005471723731961695
13.548,0.00546626652871766
13.552,0.005468237853237532
13.556000000000001,0.005466050163831333
13.56,0.005463453785195404
13.564,0.005453452919338495
13.568,0.005449606432470453
13.572000000000001,0.005457732135979191
13.576,0.005448260162066638
13.58,0.0054267438761485265
13.584,0.005443019323708931
13.588000000000001,0.005450952702874268
13.592,0.005469896650699375
13.596,0.005510212641185042
13.6,0.005516487222888536
13.604000000000001,0.005501413802474396
13.608,0.005494610328826546
13.612,0.005494778612627023
13.616,0.005494850734255799
13.620000000000001,0.005489754139155643
13.624,0.0054851864359998425
13.628,0.005479296502983153
13.632,0.005471964137390948
13.636000000000001,0.005471819894133396
13.64,0.005472132421191425
13.644,0.0054690071506111404
13.648,0.005468021488351204
13.652000000000001,0.0054652808664577245
13.656,0.005465713596230379
13.66,0.00546494429885677
13.664,0.005450904621788417
13.668000000000001,0.005433571390339301
13.672,0.005451337351561072
13.676,0.005481965003247857
13.68,0.0055024715863631075
13.684000000000001,0.005496245085745465
13.688,0.005497735599406831
13.692,0.005516198736373433
13.696,0.005515838128229554
13.700000000000001,0.005491677382589664
13.704,0.005478382962351993
13.708,0.005474560516026876
13.712,0.005476195272945794
13.716000000000001,0.005476291435117495
13.72,0.005471723731961695
13.724,0.0054679012856365785
13.728,0.005469896650699375
13.732000000000001,0.005476916489233552
13.736,0.0054732142456230615
13.74,0.005474223948425922
13.744,0.005481820759990305
13.748000000000001,0.0054839122872248035
13.752,0.005479705192212882
13.756,0.005476531840546747
13.76,0.0054774934622637585
13.764000000000001,0.0054779742731222636
13.768,0.005474728799827353
13.772,0.005485234517085693
13.776,0.005490643639243878
13.780000000000001,0.00548727796323434
13.784,0.005485667246858348
13.788,0.00547819063800859
13.792,0.005458838000953754
13.796000000000001,0.005454606865398908
13.8,0.005456650311547555
13.804,0.0054503036082152855
13.808,0.00544612055374629
13.812000000000001,0.0054374419177502685
13.816,0.005453837568025299
13.82,0.005479032057010975
13.824,0.005490595558158028
13.828,0.005485090273828141
13.832,0.005478214678551516
13.836,0.0054854989630578705
13.84,0.0054932880989656575
13.844,0.005483864206138953
13.848,0.005481051462616697
13.852,0.005482181368134185
13.856,0.005478214678551516
13.86,0.005476099110774093
13.864,0.0054658337989450054
13.868,0.005454823230285235
13.872,0.005462732568907646
13.876,0.005475257691771708
13.88,0.005477469421720833
13.884,0.005479344584069004
13.888,0.005480787016644519
13.892,0.005475017286342456
13.896,0.0054610016498170275
13.9,0.0054593428523551845
13.904,0.0054676368396644
13.908,0.005477998313665189
13.912,0.005476507800003822
13.916,0.005487109679433864
13.92,0.005501269559216844
13.924,0.0054965335722605676
13.928,0.005489321409382988
13.932,0.0054818448005332305
13.936,0.005474608597112726
13.94,0.005469536042555496
13.944,0.0054537894869394485
13.948,0.005456097379060274
13.952,0.005480137921985537
13.956,0.005475666381001438
13.96,0.005466074204374258
13.964,0.0054844652197120845
13.968,0.00552002118269855
13.972,0.005558582213550672
13.976,0.005552932685963235
13.98,0.005527257386119054
13.984,0.005517761371663575
13.988,0.005522329074819375
13.992,0.005525213939970406
13.996,0.005525646669743062
14.0,0.00551636702017391
14.004,0.005492903450278853
14.008000000000001,0.0054699206912423
14.012,0.005456746473719256
14.016,0.005462636406735945
14.02,0.005476603962175523
14.024000000000001,0.005480474489586491
14.028,0.0054828064222502415
14.032,0.005481267827503024
14.036,0.005470016853414001
14.040000000000001,0.0054700408939569265
14.044,0.0054718679752192466
14.048,0.005471531407618293
14.052,0.005465857839487931
14.056000000000001,0.0054558569736310215
14.06,0.005442274066878247
14.064,0.005450976743417193
14.068,0.005461097811988729
14.072000000000001,0.00546119397416043
14.076,0.005443355891309884
14.08,0.0054278497411230885
14.084,0.005436864944720062
14.088000000000001,0.005468718664096037
14.092,0.005485811490115899
14.096,0.005476772245976
14.1,0.005474223948425922
14.104000000000001,0.00546215559587744
14.108,0.005461963271534038
14.112,0.005468646542467261
14.116,0.005469680285813048
14.120000000000001,0.005463766312253432
14.124,0.005453909689654075
14.128,0.0054486448107534426
14.132,0.0054493419864982745
14.136000000000001,0.005449053499983172
14.14,0.005446360959175542
14.144,0.005439990215300347
14.148,0.005434220484998283
14.152000000000001,0.005422801227108783
14.156,0.005409098117641383
14.16,0.005419411510556321
14.164,0.005428787322297173
14.168000000000001,0.005431960673963308
14.172,0.00540789609049512
14.176,0.005404265968513405
14.18,0.005428811362840099
14.184000000000001,0.005444726202256624
14.188,0.005464150960940237
14.192,0.005448043797180311
14.196,0.005439389201727215
14.200000000000001,0.0054379227286087736
14.204,0.005441745174933892
14.208,0.00544616863483214
14.212,0.005444678121170774
14.216000000000001,0.005439196877383813
14.22,0.005438836269239934
14.224,0.005433980079569031
14.228,0.005431768349619906
14.232000000000001,0.005430133592700988
14.236,0.005428210349266967
14.24,0.005424580227285252
14.244,0.005422536781136605
14.248000000000001,0.0054160458345467845
14.252,0.005409434685242337
14.256,0.005402294643993534
14.26,0.005403640914397348
14.264000000000001,0.005436263931146931
14.268,0.005448596729667592
14.272,0.005424099416426747
14.276,0.005424940835429132
14.280000000000001,0.005425686092259815
14.284,0.005425325484115936
14.288,0.005451818162419577
14.292,0.005459030325297156
14.296000000000001,0.005457972541408444
14.3,0.00545073633798794
14.304,0.005434340687712909
14.308,0.005418882618611965
14.312000000000001,0.005418281605038834
14.316,0.005413040766681127
14.32,0.005414314915456166
14.324,0.005415036131743923
14.328000000000001,0.005416935334635019
14.332,0.005414915929029297
14.336,0.005405828603803548
14.34,0.005397486535408481
14.344,0.005389865683301172
14.348,0.005367435856751902
14.352,0.005356377207006281
14.356,0.005372917100538862
14.36,0.005400539684359989
14.364,0.005418690294268563
14.368,0.005441312445161237
14.372,0.005444966607685877
14.376,0.00543530230942992
14.38,0.005428042065466491
14.384,0.00542296951090926
14.388,0.0054147716857717455
14.392,0.005405852644346473
14.396,0.005399457859928352
14.4,0.005394890156772553
14.404,0.005391235994247913
14.408,0.005384696966572241
14.412,0.005382629479880668
14.416,0.005377677128038064
14.42,0.005378758952469701
14.424,0.005391428318591315
14.428,0.00537597024949037
14.432,0.005351545057878303
14.436,0.00535084788213347
14.44,0.005344957949116781
14.444,0.0053641903834569914
14.448,0.005406958509321035
14.452,0.005409290441984785
14.456,0.005390875386104034
14.46,0.005388206885839329
14.464,0.00539373621071214
14.468,0.0053977269408377335
14.472,0.005388904061584162
14.476,0.005381691898706583
14.48,0.005380706236446647
14.484,0.005370633248960962
14.488,0.005360127531702622
14.492,0.005351809503850481
14.496,0.00534623209789182
14.5,0.005352771125567491
14.504,0.005356112761034103
14.508000000000001,0.005350655557790068
14.512,0.005350463233446666
14.516,0.00535445396357226
14.52,0.0053514248551636764
14.524000000000001,0.0053419048001652715
14.528,0.005340678732476083
14.532,0.005350246868560339
14.536,0.005364743315944272
14.540000000000001,0.005364166342914066
14.544,0.005349285246843328
14.548,0.005338707407956211
14.552,0.005335750421176404
14.556000000000001,0.005334115664257486
14.56,0.005351737382221705
14.564,0.005342890462425208
14.568,0.005313416756798834
14.572000000000001,0.00531394564874319
14.576,0.005323970555143025
14.58,0.005338250637640631
14.584,0.005351328692991975
14.588000000000001,0.005344789665316304
14.592,0.0053439001652280695
14.596,0.005339308421529343
14.6,0.005319282649272598
14.604000000000001,0.00529795868769789
14.608,0.005306613283150985
14.612,0.005322431960395808
14.616,0.0053413518676779905
14.620000000000001,0.005351184449734424
14.624,0.005361618045363988
14.628,0.005364022099656514
14.632,0.005355535788003896
14.636000000000001,0.005354646287915662
14.64,0.005351665260592929
14.644,0.005338274678183557
14.648,0.005324571568716157
14.652000000000001,0.005318633554613616
14.656,0.005318946081671645
14.66,0.005326254406720925
14.664,0.005326494812150177
14.668000000000001,0.005323057014511865
14.672,0.005317527689639054
14.676,0.005308897134728885
14.68,0.005299905971674837
14.684000000000001,0.005293030376398211
14.688,0.005280649496791699
14.692,0.005268436900985666
14.696,0.005268340738813965
14.700000000000001,0.005268172455013488
14.704,0.005271081360707444
14.708,0.005272259347310782
14.712,0.005272908441969764
14.716000000000001,0.005274158550201878
14.72,0.005270384184962612
14.724,0.005259662102817944
14.728,0.005246199398779797
14.732000000000001,0.005240525830649435
14.736,0.00526196999493877
14.74,0.0052730767257702415
14.744,0.005279255145302034
14.748000000000001,0.005280168685933194
14.752,0.005279134942587408
14.756,0.005278533929014276
14.76,0.005265912643978513
14.764000000000001,0.005249348709903007
14.768,0.005238073695271058
14.772,0.0052578590620985495
14.776,0.005266321333208242
14.780000000000001,0.005254709750975341
14.784,0.005251728723652608
14.788,0.0052505747775921955
14.792,0.005245141614891086
14.796000000000001,0.005235669640978532
14.8,0.005226918883353736
14.804,0.005240621992821136
14.808,0.005244925250004758
14.812000000000001,0.005243819385030196
14.816,0.005242857763313185
14.82,0.005235549438263906
14.824,0.005222471382912562
14.828000000000001,0.005217470949984108
14.832,0.005212446476512728
14.836,0.00520948948973292
14.84,0.005187179865898275
14.844000000000001,0.005174005648375231
14.848,0.005196868204697157
14.852,0.005229346978189188
14.856,0.00524237695245468
14.86,0.005240333506306033
14.864,0.005228794045701907
14.868,0.005221605923367253
14.872,0.005217999841928464
14.876,0.005220980869251196
14.88,0.005227832423984896
14.884,0.005222928153228143
14.888,0.005212254152169325
14.892,0.005208455746387134
14.896,0.0052155236660071614
14.9,0.005215307301120834
14.904,0.005215235179492058
14.908,0.00520857594910176
14.912,0.005200786813193975
14.916,0.005201171461880779
14.92,0.005197228812841036
14.924,0.005186218244181264
14.928,0.005183237216858531
14.932,0.005188454014673314
14.936,0.00519573829917967
14.94,0.005230861532393479
14.944,0.005234972465233699
14.948,0.005216028517408592
14.952,0.005211220408823539
14.956,0.005208912516702714
14.96,0.0052117252602249696
14.964,0.005216869936410976
14.968,0.00521812004464309
14.972,0.005213888909088244
14.976,0.005204993908205896
14.98,0.005194704555833883
14.984,0.005187324109155827
14.988,0.005181626500482539
14.992,0.005186410568524666
14.996,0.005201796515996836
15.0,0.005194464150404631
15.004,0.0051775396081852445
15.008000000000001,0.005178212743387152
15.012,0.0051780204190437495
15.016,0.005169173499247253
15.02,0.005180929324737706
15.024000000000001,0.0051941035422607505
15.028,0.005205643002864878
15.032,0.005206917151639917
15.036,0.005205258354178074
15.040000000000001,0.005205763205579504
15.044,0.005200690651022274
15.048,0.005188141487615285
15.052,0.005174390297062035
15.056000000000001,0.005169173499247253
15.06,0.0051695341073911315
15.064,0.005178765675874433
15.068,0.005196074866780623
15.072000000000001,0.005185761473865684
15.076,0.005171817958969031
15.08,0.0051666492422401
15.084,0.005161648809311645
15.088000000000001,0.005155999281724209
15.092,0.005157273430499248
15.096,0.005161648809311645
15.1,0.005158307173845034
15.104000000000001,0.005174702824120064
15.108,0.0051865788523251435
15.112,0.005186987541554873
15.116,0.005183261257401457
15.120000000000001,0.0051793666894475645
15.124,0.0051740537294610815
15.128,0.0051647740798919295
15.132,0.00514878711884663
15.136000000000001,0.005139363226019925
15.14,0.005134675320149499
15.144,0.005139291104391149
15.148,0.005157778281900678
15.152000000000001,0.005160879511938037
15.156,0.005140949901852993
15.16,0.005124554251577963
15.164,0.005148883281018331
15.168000000000001,0.005181073567995258
15.172,0.00518766067675678
15.176,0.005169870674992086
15.18,0.005159773646963474
15.184000000000001,0.005160038092935653
15.188,0.005159581322620073
15.192,0.005155085741093048
15.196,0.005147777416043768
15.200000000000001,0.00514746488898574
15.204,0.005152152794856166
15.208,0.005151479659654259
15.212,0.005154484727519917
15.216000000000001,0.005144459821120081
15.22,0.0051297229683068945
15.224,0.005132631874000851
15.228,0.005119385534849031
15.232000000000001,0.005127631441072397
15.236,0.005156480092582714
15.24,0.0051844392440047946
15.244,0.00518679521721147
15.248000000000001,0.005165134688035808
15.252,0.005161071836281439
15.256,0.005166264593553296
15.26,0.005160326579450755
15.264000000000001,0.00515609544389591
15.268,0.005148258226902274
15.272,0.005141911523570003
15.276,0.005150397835222622
15.280000000000001,0.005160927593023887
15.284,0.005162586390485731
15.288,0.005177900216329123
15.292,0.00519720477229811
15.296000000000001,0.005212927287371233
15.3,0.005207878773356928
15.304,0.005184703689976973
15.308,0.005143113550716266
15.312000000000001,0.005113086912602613
15.316,0.0051347234012353495
15.32,0.005163163363515937
15.324,0.005176073135066803
15.328000000000001,0.005181001446366482
15.332,0.005166769444954727
15.336,0.005158235052216258
15.34,0.0051516960245405865
15.344000000000001,0.005145733969895121
15.348,0.0051355167391518835
15.352,0.005123592629860952
15.356,0.005124914859721842
15.36,0.005133641576803713
15.364,0.005138137158330737
15.368,0.005104023627919788
15.372,0.00508178612571392
15.376,0.005109144263562869
15.38,0.005136526441954744
15.384,0.005140372928822786
15.388,0.005141839401941227
15.392,0.005155205943807675
15.396,0.005169005215446776
15.4,0.005160158295650279
15.404,0.005147609132243292
15.408,0.005141767280312451
15.412,0.005132006819884794
15.416,0.005125732238181301
15.42,0.0051230637379165965
15.424,0.005121861710770333
15.428,0.005124842738093066
15.432,0.005118423913132021
15.436,0.0051208520079674726
15.44,0.005115154399294185
15.444,0.005109288506820421
15.448,0.005108615371618513
15.452,0.005107148898500073
15.456,0.0051019801817711406
15.46,0.005110009723108179
15.464,0.005132848238887179
15.468,0.005150518037937249
15.472,0.005152345119199569
15.476,0.005138257361045363
15.48,0.005130227819708325
15.484,0.005125275467865721
15.488,0.0051148178316932314
15.492,0.005100585830281476
15.496,0.005100225222137596
15.5,0.005121380899911828
15.504,0.005112774385544584
15.508000000000001,0.005104720803664621
15.512,0.005128881549304511
15.516,0.005141286469453946
15.52,0.0051324876307433
15.524000000000001,0.005134867644492901
15.528,0.005124698494835515
15.532,0.0051145053046352034
15.536,0.00510873557433314
15.540000000000001,0.005106523844384016
15.544,0.005114553385721053
15.548,0.005119121088876854
15.552,0.005117943102273516
15.556000000000001,0.005115394804723438
15.56,0.005105273736151902
15.564,0.005100754114081952
15.568,0.005097652884044594
15.572000000000001,0.005099455924763989
15.576,0.005105321817237753
15.58,0.005099552086935689
15.584,0.005098830870647932
15.588000000000001,0.005087411612758432
15.592,0.005079838841736973
15.596,0.00511243781794363
15.6,0.00513568502295236
15.604000000000001,0.005131886617170169
15.608,0.0051195778591924335
15.612,0.005109889520393552
15.616,0.005114529345178128
15.620000000000001,0.005120587561995294
15.624,0.005129073873647912
15.628,0.005122126156742512
15.632,0.005118688359104199
15.636000000000001,0.005115707331781467
15.64,0.0051097452771360005
15.644,0.005110370331252057
15.648,0.005100850276253653
15.652000000000001,0.005083012193403108
15.656,0.005086474031584346
15.66,0.005109072141934094
15.664,0.005130924995453158
15.668000000000001,0.005110706898853012
15.672,0.005085464328781485
15.676,0.0050835891664333145
15.68,0.0051041197900914895
15.684000000000001,0.005112029128713901
15.688,0.005118568156389573
15.692,0.00513025186025125
15.696,0.005131766414455542
15.700000000000001,0.005128761346589884
15.704,0.005127943968130425
15.708,0.0051279199275875
15.712,0.005122727170315643
15.716000000000001,0.0051201307916797145
15.72,0.005116428548069224
15.724,0.005113399439660641
15.728,0.005108206682388784
15.732000000000001,0.0051046727225787705
15.736,0.005100345424852223
15.74,0.005099624208564465
15.744,0.005099696330193241
15.748000000000001,0.0051081586013029335
15.752,0.0051118848854563494
15.756,0.0050984943030469776
15.76,0.005091161937454772
15.764000000000001,0.005095970046039825
15.768,0.0050992876409635115
15.772,0.0051219578729420345
15.776,0.005139483428734552
15.780000000000001,0.0051345551174348724
15.784,0.005142007685741704
15.788,0.005144844469806885
15.792,0.005133353090288609
15.796000000000001,0.005122967575744895
15.8,0.005120491399823594
15.804,0.005116572791326776
15.808,0.0051083990067321864
15.812000000000001,0.005103999587376863
15.816,0.005105466060495304
15.82,0.00510558626320993
15.824,0.005103687060318835
15.828000000000001,0.005099576127478614
15.832,0.005086233626155094
15.836,0.005086714437013599
15.84,0.005103037965659853
15.844000000000001,0.005122631008143942
15.848,0.005136286036525491
15.852,0.005116500669698
15.856,0.005100297343766372
15.860000000000001,0.005121356859368903
15.864,0.005123592629860952
15.868,0.005131718333369692
15.872,0.005134699360692424
15.876,0.005126525576097835
15.88,0.005114865912779082
15.884,0.005113639845089894
15.888,0.00511832775096032
15.892,0.005118664318561274
15.896,0.005113014790973837
15.9,0.005109360628449197
15.904,0.005108254763474635
15.908,0.005112269534143153
15.912,0.005102172506114543
15.916,0.005081738044628069
15.92,0.005082507342001678
15.924,0.005100177141051746
15.928,0.00511741421032916
15.932,0.00511508227766541
15.936,0.00511010588527988
15.94,0.005123760913661429
15.944,0.005126213049039806
15.948,0.0051432097128879676
15.952,0.0051636682149173675
15.956,0.0051809533652806316
15.96,0.005189728163448353
15.964,0.005186771176668545
15.968,0.005182732365457101
15.972,0.005172611296885565
15.976,0.005151912389426913
15.98,0.005135252293179705
15.984,0.005121933832399109
15.988,0.00510782203370198
15.992,0.005098710667933305
15.996,0.005095344991923768
16.0,0.005076256800841109
16.004,0.005066520380956377
16.008,0.005094768018893562
16.012,0.005131742373912617
16.016000000000002,0.005161937295826749
16.02,0.005152585524628821
16.024,0.005138978577333121
16.028,0.0051233041433458495
16.032,0.005118760480732974
16.036,0.005119433615934882
16.04,0.005121549183712305
16.044,0.005122655048686867
16.048000000000002,0.005117318048157459
16.052,0.005114769750607381
16.056,0.005112582061201182
16.06,0.00511147619622662
16.064,0.005108254763474635
16.068,0.005102124425028692
16.072,0.005093445789032673
16.076,0.005097797127302145
16.080000000000002,0.0051000809788800455
16.084,0.0050982538976177254
16.088,0.005088301112846666
16.092,0.005086594234298972
16.096,0.005093638113376074
16.1,0.005118015223902292
16.104,0.005149820862192416
16.108,0.005151840267798138
16.112000000000002,0.005113495601832342
16.116,0.005105514141581154
16.12,0.0051217895891415574
16.124,0.0051210924133967255
16.128,0.0051083990067321864
16.132,0.005106379601126464
16.136,0.005105754547010407
16.14,0.0051096731555072255
16.144000000000002,0.005107485466101026
16.148,0.005104215952263191
16.152,0.005106836371442044
16.156,0.005099696330193241
16.16,0.005082507342001678
16.164,0.005077506909073223
16.168,0.005102701398058899
16.172,0.005123640710946803
16.176000000000002,0.005112798426087509
16.18,0.005111307912426143
16.184,0.0051225108054293155
16.188,0.005130227819708325
16.192,0.005131141360339485
16.196,0.005126669819355386
16.2,0.005126525576097835
16.204,0.005121212616111351
16.208000000000002,0.005119553818649508
16.212,0.005119529778106583
16.216,0.0051116444800270965
16.22,0.005111043466453965
16.224,0.005108230722931709
16.228,0.00510695657415667
16.232,0.005111692561112947
16.236,0.005102701398058899
16.240000000000002,0.005090897491482595
16.244,0.005086161504526318
16.248,0.005095176708123292
16.252,0.005127703562701173
16.256,0.005132511671286226
16.26,0.005110971344825189
16.264,0.005107269101214699
16.268,0.005127439116728995
16.272000000000002,0.0051448685103498105
16.276,0.005145541645551719
16.28,0.0051347234012353495
16.284,0.005130924995453158
16.288,0.005122294440542989
16.292,0.005113014790973837
16.296,0.005121260697197202
16.3,0.005126621738269535
16.304000000000002,0.005119625940278284
16.308,0.005118904723990526
16.312,0.005109288506820421
16.316,0.005097292275900714
16.32,0.00510147533036971
16.324,0.005100297343766372
16.328,0.005106475763298165
16.332,0.0051278237654157986
16.336000000000002,0.0051452771995795414
16.34,0.00516299507971546
16.344,0.0051684282424165695
16.348,0.005162898917543759
16.352,0.005144195375147903
16.356,0.005138810293532644
16.36,0.005139291104391149
16.364,0.005134050266033442
16.368000000000002,0.005132151063142346
16.372,0.005134819563407051
16.376,0.005132511671286226
16.38,0.005132391468571599
16.384,0.005127703562701173
16.388,0.005120900089053323
16.392,0.005106331520040613
16.396,0.005095513275724245
16.4,0.0051035668576042085
16.404,0.005116284304811673
16.408,0.00513888241516142
16.412,0.005146767713240907
16.416,0.0051387622124467935
16.42,0.0051419355641129285
16.424,0.005166408836810847
16.428,0.005167226215270306
16.432,0.005159893849678101
16.436,0.0051518643083410635
16.44,0.005138810293532644
16.444,0.005135709063495285
16.448,0.005135372495894332
16.452,0.005131910657713094
16.456,0.005125059102979394
16.46,0.005121260697197202
16.464,0.005124602332663814
16.468,0.0051209241295962485
16.472,0.005107509506643951
16.476,0.005102509073715496
16.48,0.005108134560760008
16.484,0.0051126061017441075
16.488,0.0051212366566542765
16.492,0.005156432011496863
16.496,0.005175688486379999
16.5,0.005176505864839458
16.504,0.005169293701961879
16.508,0.005155446349236928
16.512,0.0051490034837329566
16.516000000000002,0.005148258226902274
16.52,0.005142656780400687
16.524,0.00514070949642374
16.528,0.005137848671815634
16.532,0.005139940199050131
16.536,0.005138353523217064
16.54,0.005125227386779871
16.544,0.005132247225314047
16.548000000000002,0.005153378862545355
16.552,0.005138810293532644
16.556,0.005132824198344254
16.56,0.005136117752725015
16.564,0.005137439982585904
