0.0,-0.0014548374956652517
0.004,-0.001477387524929149
0.008,-0.0014676270645014918
0.012,-0.0013936543139204556
0.016,-0.0014196181002797406
0.02,-0.0014022127472018496
0.024,-0.0014091123830214003
0.028,-0.0013426402818330465
0.032,-0.0013615121080293785
0.036000000000000004,-0.00136119958097135
0.04,-0.001380095447710607
0.044,-0.0013102576705127163
0.048,-0.0013004972100850594
0.052000000000000005,-0.0013260042261287641
0.056,-0.001310498075941969
0.06,-0.0012547240163553574
0.064,-0.0012200815940000527
0.068,-0.001254219164953927
0.07200000000000001,-0.0012614072872885807
0.076,-0.0012311642842885993
0.08,-0.0011892616179698648
0.084,-0.0012637151794094063
0.088,-0.0012760960590159167
0.092,-0.0012442663801828678
0.096,-0.001189453942313267
0.1,-0.0012407564609157793
0.10400000000000001,-0.001262152544119264
0.108,-0.0012403718122289751
0.112,-0.001183371684953175
0.116,-0.0011758469950175678
0.12,-0.001228135175880016
0.124,-0.0011854872527305982
0.128,-0.0011440653972703693
0.132,-0.00111177894812174
0.136,-0.0011541383847560546
0.14,-0.0011231982060112404
0.14400000000000002,-0.0010650200921321026
0.148,-0.0010492014148872789
0.152,-0.0011099999479452706
0.156,-0.0010853583914468754
0.16,-0.0010311229266074808
0.164,-0.001019367101117027
0.168,-0.0010588416726003097
0.17200000000000001,-0.0010588176320573846
0.176,-9.906386523213368E-4
0.18,-9.682569068579165E-4
0.184,-9.860228680796863E-4
0.188,-0.0010075151134548719
0.192,-9.276524298571462E-4
0.196,-9.186131857172472E-4
0.2,-9.406583635797138E-4
0.20400000000000001,-9.666702310248492E-4
0.20800000000000002,-9.12122239127426E-4
0.212,-8.78008708716477E-4
0.216,-8.759412220249043E-4
0.22,-9.290467813468115E-4
0.224,-8.996932784350646E-4
0.228,-8.33221177246711E-4
0.232,-8.537998819907364E-4
0.23600000000000002,-9.091412118046934E-4
0.24,-3.180323423583121E-4
0.244,-3.1702263955545105E-4
0.248,-3.598388465053455E-4
0.252,-2.9303017771603796E-4
0.256,-2.602629177089037E-4
0.26,-2.840149741190641E-4
0.264,-3.1675819358327316E-4
0.268,-2.540123765483352E-4
0.272,-2.2124511654120086E-4
0.276,-2.1754287293071029E-4
0.28,-2.41415132055497E-4
0.28400000000000003,-2.1941803527888082E-4
0.28800000000000003,-1.7422181457938524E-4
0.292,-2.037676418345342E-4
0.296,-2.273033333583673E-4
0.3,-2.0917676399271855E-4
0.304,-1.6768278690371357E-4
0.308,-1.784769906771569E-4
0.312,-2.127588048885828E-4
0.316,-1.6599994889894513E-4
0.32,-1.4465194678131105E-4
0.324,-1.4676751455873423E-4
0.328,-1.9237242448795928E-4
0.332,-1.9371869489177404E-4
0.336,-1.4525296035444263E-4
0.34,-1.3633391892916986E-4
0.34400000000000003,-1.4357012234967418E-4
0.34800000000000003,-1.2371263389340646E-4
0.352,-7.313133157865185E-5
0.356,-3.5483841357689064E-5
0.36,-5.846660039424106E-5
0.364,-7.834812939343405E-5
0.368,-3.28153410929848E-5
0.372,8.438230566767521E-6
0.376,-3.327211140856482E-5
0.38,-4.966776168359459E-5
0.384,-6.034176274241162E-6
0.388,4.51000585277945E-5
0.392,2.7454300020651025E-5
0.396,-2.2694272521448835E-5
0.4,9.135406311600165E-7
0.404,8.981546836878479E-5
0.40800000000000003,5.928397885370002E-5
0.41200000000000003,-1.1587541689977053E-5
0.41600000000000004,2.7983191965006824E-5
0.42,1.0080199648563026E-4
0.424,8.808454927816582E-5
0.428,4.632612621698294E-5
0.432,5.736073541967894E-5
0.436,1.2029887679801902E-4
0.44,1.4169496000150363E-4
0.444,1.1895260639420425E-4
0.448,1.0431191575271874E-4
0.452,1.703032060825673E-4
0.456,1.619851782304261E-4
0.46,1.2109221471455272E-4
0.464,1.2965064799594657E-4
0.468,2.0198864165806474E-4
0.47200000000000003,2.0754200707380057E-4
0.47600000000000003,2.058110879831816E-4
0.48,1.8624208604201708E-4
0.484,2.010029793981289E-4
0.488,2.4994952479396557E-4
0.492,2.0494562843787213E-4
0.496,1.965795194998804E-4
0.5,2.1554750786791338E-4
0.504,2.671865940713796E-4
0.508,2.627390936302058E-4
0.512,2.1783135944581345E-4
0.516,2.3797733441718432E-4
0.52,2.8076950082415347E-4
0.524,2.691579185912512E-4
0.528,2.4826668678919715E-4
0.532,2.77163419385364E-4
0.536,3.261580458670512E-4
0.54,3.438759260029705E-4
0.544,2.725716756866387E-4
0.548,2.712013647398986E-4
0.552,3.2839381635910067E-4
0.556,3.361829522668861E-4
0.56,2.971170700133328E-4
0.5640000000000001,2.977661646723149E-4
0.5680000000000001,3.596705627048686E-4
0.5720000000000001,4.050591077477663E-4
0.5760000000000001,3.839034299735343E-4
0.58,3.5406911620328223E-4
0.584,4.251810421762119E-4
0.588,5.031445228828418E-4
0.592,4.176082711547539E-4
0.596,3.67555860784355E-4
0.6,4.12968446370178E-4
0.604,4.513611934218239E-4
0.608,4.369609082095911E-4
0.612,3.8200422708243854E-4
0.616,4.0835266212852736E-4
0.62,4.527074638256388E-4
0.624,4.4297104394090697E-4
0.628,4.272966099536351E-4
0.632,4.321047185386878E-4
0.636,4.652325866897011E-4
0.64,4.749930471173581E-4
0.644,4.419373005951207E-4
0.648,4.440528683725438E-4
0.652,5.127847805958724E-4
0.656,5.153330781459504E-4
0.66,4.6905503301481794E-4
0.664,4.589099239003568E-4
0.668,5.330749988247949E-4
0.672,5.580050418382933E-4
0.676,5.488455949837678E-4
0.68,5.261994035481696E-4
0.684,5.695204618994946E-4
0.6880000000000001,6.044032896840519E-4
0.6920000000000001,5.933446399384307E-4
0.6960000000000001,5.705061241594304E-4
0.7000000000000001,6.00845289331113E-4
0.704,6.398150094129653E-4
0.708,6.303911165862619E-4
0.712,6.097643307563858E-4
0.716,6.280591839225114E-4
0.72,6.871267978898841E-4
0.724,6.770538104041986E-4
0.728,5.994990189272983E-4
0.732,6.222173319916723E-4
0.736,6.683511338652533E-4
0.74,6.790251349240702E-4
0.744,6.348145764845104E-4
0.748,6.143801149980365E-4
0.752,6.620044305329836E-4
0.756,6.725582288771743E-4
0.76,6.443105909399896E-4
0.764,6.535181188803656E-4
0.768,7.3008724809733E-4
0.772,7.35544451341365E-4
0.776,7.019357723318464E-4
0.78,6.818138379034008E-4
0.784,7.36914762288105E-4
0.788,7.791299556648679E-4
0.792,7.601860078397602E-4
0.796,7.377802218334144E-4
0.8,7.661240219423002E-4
0.804,8.083151747761379E-4
0.808,7.962468222276556E-4
0.812,7.896837540090584E-4
0.8160000000000001,7.910781054987238E-4
0.8200000000000001,8.554586794525797E-4
0.8240000000000001,8.621659909287282E-4
0.8280000000000001,8.043725257363946E-4
0.8320000000000001,8.001413901815482E-4
0.836,8.454818541385954E-4
0.84,8.44808718936688E-4
0.844,7.981700656616767E-4
0.848,8.08868107263419E-4
0.852,8.928417237013647E-4
0.856,9.12579009443006E-4
0.86,8.384379750614932E-4
0.864,8.287736768055371E-4
0.868,9.075304954287008E-4
0.872,9.287342542887831E-4
0.876,8.931782913023183E-4
0.88,8.942841562768804E-4
0.884,9.326288222426759E-4
0.888,9.636170820733406E-4
0.892,9.554913785646016E-4
0.896,9.18685307346023E-4
0.9,9.858786248221347E-4
0.904,0.0010022742750971645
0.908,9.809022324366052E-4
0.912,9.473416345129372E-4
0.916,9.790751511742852E-4
0.92,0.0010243434935025566
0.924,9.957352474214928E-4
0.928,9.645306227045006E-4
0.932,9.777288807704702E-4
0.936,0.001027588966797467
0.9400000000000001,0.0010257859260780723
0.9440000000000001,0.0010029233697561465
0.9480000000000001,0.0010009039641504245
0.9520000000000001,0.0010561010507068298
0.9560000000000001,0.0010784347150843995
0.96,0.0010422056168960274
0.964,0.0010352098189047756
0.968,0.0010838438372425838
0.972,0.0010863680942497364
0.976,0.0010559568074492783
0.98,0.0010457155361631159
0.984,0.001101633839007279
0.988,0.0011300497607449405
0.992,0.0010941091490716715
0.996,0.0010360271973642345
1.0,0.0010791318908292323
1.004,0.0011474070327369807
1.008,0.001135098274759246
1.012,0.001088339418769608
1.016,0.001139113045427765
1.02,0.0011816407658625562
1.024,0.001167192399564473
1.028,0.0011240636655565498
1.032,0.001157648304023143
1.036,0.001241453636660612
1.04,0.0011806791441455456
1.044,0.0011535854522687736
1.048,0.001162191966636018
1.052,0.0012154177286725517
1.056,0.0012323422708919371
1.06,0.0011949592266431524
1.064,0.0011912569830326617
1.068,0.0012495793401693512
1.072,0.0012438096098672878
1.076,0.0012296497300843077
1.08,0.0014288496687630415
1.084,0.0014559193200968886
1.088,0.0014344030341787778
1.092,0.001402789720232056
1.096,0.0014609437935682685
1.1,0.0014532267792892592
1.104,0.0014367590073854535
1.108,0.001430893114911689
1.112,0.0014683242402463244
1.116,0.0015210451508814277
1.12,0.0015094576091914506
1.124,0.0014883500125030692
1.1280000000000001,0.0015232328402876266
1.1320000000000001,0.0015645344930332295
1.1360000000000001,0.001570424426049919
1.1400000000000001,0.0015314306654251415
1.1440000000000001,0.0014930619589164208
1.1480000000000001,0.0015281130705014551
1.1520000000000001,0.0015294593409052699
1.156,0.001517150582927535
1.16,0.0015063563791540913
1.164,0.0015679242095856915
1.168,0.001614466700689002
1.172,0.0015954265906921933
1.176,0.0015516487620252882
1.18,0.0015927340498845639
1.184,0.0016489648797867551
1.188,0.0015964362934950543
1.192,0.001570592709850396
1.196,0.0016185535929862968
1.2,0.0016576915968686257
1.204,0.0016527392450260215
1.208,0.0016133848762573653
1.212,0.0016382187570991623
1.216,0.0016950265600315603
1.22,0.0016579320022978782
1.224,0.0016193709714457558
1.228,0.0016613457593932658
1.232,0.0017278899822103953
1.236,0.0016361512704075895
1.24,0.0015955467934068196
1.244,0.0016361272298646642
1.248,0.0016756498824337979
1.252,0.001675481598633321
1.256,0.0016449020280323856
1.26,0.0016394207842454255
1.264,0.0016861796402350632
1.268,0.0017139224267708174
1.272,0.0016666346788368242
1.276,0.0016760826122064526
1.28,0.0017018300336794098
1.284,0.0017383476183828854
1.288,0.0017256782522612711
1.292,0.0017253416846603174
1.296,0.0017552240795164202
1.3,0.0017846256635140174
1.304,0.001759863904300996
1.308,0.0017391169157564938
1.312,0.001792510961593504
1.316,0.0018445346964837746
1.32,0.0018319614925338616
1.324,0.0017322653610227932
1.328,0.0017649124183153017
1.332,0.0018327548304503953
1.336,0.0018269610596054068
1.34,0.0017765240005482037
1.344,0.0017885202314679104
1.348,0.0018537422244241503
1.352,0.0018678780636642053
1.356,0.0018248454918279836
1.36,0.0018138108826252879
1.364,0.0019068718242889829
1.368,0.0019067997026602072
1.372,0.0018324903844782175
1.3760000000000001,0.0018291247084686805
1.3800000000000001,0.0018935774040513124
1.3840000000000001,0.0019201662445266538
1.3880000000000001,0.0018812205649877266
1.3920000000000001,0.0018717726316180982
1.3960000000000001,0.001907520918947965
1.4000000000000001,0.0019525488558469837
1.4040000000000001,0.0019297103400679834
1.408,0.0018906204172715049
1.412,0.0019075690000338156
1.416,0.0019199258390974012
1.42,0.0019083623379503496
1.424,0.0018774461997484602
1.428,0.001900020269555283
1.432,0.0019388217058366583
1.436,0.001943725976593412
1.44,0.0018923032552762733
1.444,0.0019077613243772176
1.448,0.0019685358168922843
1.452,0.0020029618743612615
1.456,0.0019860132915989507
1.46,0.0019367542191450857
1.464,0.0019922397922165942
1.468,0.002013948402478107
1.472,0.001992432116559996
1.476,0.0019738006957929167
1.48,0.0019995721578087993
1.484,0.0020329404313890655
1.488,0.002019141159749964
1.492,0.0020128184969606198
1.496,0.0020757566383389596
1.5,0.0020965276674263875
1.504,0.002031642242071101
1.508,0.0020097893885520366
1.512,0.0020665971914844345
1.516,0.002106384290025746
1.52,0.002079074233262646
1.524,0.002041378661955833
1.528,0.0020596494745790334
1.532,0.0021221308456417934
1.536,0.0021227558997578503
1.54,0.0020910704641823527
1.544,0.002121097102296007
1.548,0.0021277322921433796
1.552,0.0021057351953667636
1.556,0.00206575577248205
1.56,0.0020723909623294227
1.564,0.0021232367106163554
1.568,0.0021402814555503673
1.572,0.0020930658292451494
1.576,0.0021032109383596104
1.58,0.0021423008611560893
1.584,0.0021620381468977308
1.588,0.0021459550236807294
1.592,0.002143478847759427
1.596,0.0021608120792085423
1.6,0.0021919205417538336
1.604,0.002168721417830954
1.608,0.0021338145495034713
1.612,0.0021672068636266625
1.616,0.002201464637295163
1.62,0.002164514322819033
1.624,0.002138165887772944
1.6280000000000001,0.002175476810392953
1.6320000000000001,0.0022338712891584183
1.6360000000000001,0.002222091423125039
1.6400000000000001,0.002149392821319042
1.6440000000000001,0.002201031907522508
1.6480000000000001,0.002282264902066974
1.6520000000000001,0.00227462000941674
1.6560000000000001,0.0022077873000845077
1.6600000000000001,0.0022187497876584275
1.6640000000000001,0.0022697157386599863
1.668,0.0022487523852291564
1.672,0.0022102634760058095
1.676,0.002233654924272091
1.68,0.0023117626482362726
1.684,0.002285149767218006
1.688,0.0022552433318189778
1.692,0.0022404824384628656
1.696,0.002280029131574925
1.7,0.002296977714337235
1.704,0.0022752931446186476
1.708,0.002262623778497034
1.712,0.002310007688602728
1.716,0.0023539057199842596
1.72,0.002328566987741032
1.724,0.002316378432477923
1.728,0.0023324615556949246
1.732,0.0023563338148197112
1.736,0.0023571992743650206
1.74,0.002325345554989046
1.744,0.0023344569207577213
1.748,0.0023814081010907614
1.752,0.00235618957156216
1.756,0.0023158014594477166
1.76,0.002331427812349138
1.764,0.0023988615352545026
1.768,0.002430282524857822
1.772,0.002363257491182187
1.776,0.0023518622738356123
1.78,0.0024136464691535396
1.784,0.0024188873075112467
1.788,0.00238080708751763
1.792,0.0023937408996114215
1.796,0.0024324461737210957
1.8,0.0024605014873148785
1.804,0.0024244406729269827
1.808,0.002370181167544663
1.812,0.002430931619516804
1.816,0.0024980528153641397
1.82,0.0024234309701241215
1.824,0.002414896577385653
1.828,0.002456053986873705
1.832,0.0024840371788387113
1.836,0.0024497313240843606
1.84,0.002405665008902352
1.844,0.002443625026181343
1.848,0.0025073805460191423
1.852,0.002503678302408652
1.856,0.0024692762854825996
1.86,0.0025025724374340896
1.864,0.002509976924655071
1.868,0.002524569534210706
1.872,0.002501490613002453
1.8760000000000001,0.0025108664247433057
1.8800000000000001,0.002548850482565222
1.8840000000000001,0.002539787197882398
1.8880000000000001,0.0024989903965382254
1.8920000000000001,0.0024867056791034155
1.8960000000000001,0.002547047441845827
1.9000000000000001,0.0025646210787241947
1.9040000000000001,0.00253774375173375
1.9080000000000001,0.002506539127016758
1.9120000000000001,0.0025660875518426357
1.9160000000000001,0.002600802095826717
1.92,0.0025783722692774456
1.924,0.002543008630634383
1.928,0.0025766413501868268
1.932,0.0026244099089793253
1.936,0.0026058025287551715
1.94,0.0025621689433458178
1.944,0.002578059742219417
1.948,0.0026508545061971157
1.952,0.0026307325717686695
1.956,0.002544739549725002
1.96,0.002582843810261545
1.964,0.0026466954922710452
1.968,0.0026484744924475147
1.972,0.0025956814601836354
1.976,0.0025942390276081197
1.98,0.002646599330099344
1.984,0.002667610764616024
1.988,0.0026257802199260655
1.992,0.002624457990065176
1.996,0.0026613602234554557
2.0,0.002646286803041315
2.004,0.0026319105583720074
2.008,0.002625179206352934
2.012,0.0026798714415079087
2.016,0.0027032628897741898
2.02,0.002660470723367221
2.024,0.002651840168457051
2.028,0.002713407998888651
2.032,0.0027309095141382434
2.036,0.0026937428347757857
2.04,0.0026804724550810403
2.044,0.002683453482403773
2.048,0.002716749634355263
2.052,0.002725692716323461
2.056,0.0027006665111382615
2.06,0.002707349782071485
2.064,0.002749661137619949
2.068,0.002739491987962562
2.072,0.0027044168358346028
2.076,0.0027116289987121817
2.08,0.0027674511393846438
2.084,0.0027969729260968676
2.088,0.0027194902562487425
2.092,0.0026894395775921634
2.096,0.002772956423714529
2.1,0.0027990644533313655
2.104,0.0027743748157471196
2.108,0.002764806679662865
2.112,0.0028263023884656895
2.116,0.002849381309673942
2.12,0.0027978624261851023
2.124,0.0027776683701278807
2.128,0.002823345401685882
2.132,0.0028479388770984264
2.136,0.002808079656928339
2.14,0.0027693503422757397
2.144,0.0027980547505285047
2.148,0.0028593581349879264
2.152,0.0028618102703663034
2.156,0.002825340766748679
2.16,0.002835654159663617
2.164,0.0029035927339704118
2.168,0.0028859469754632682
2.172,0.0028480109987272023
2.176,0.002867099189809861
2.18,0.0028821004885952258
2.184,0.002893183178883773
2.188,0.0028703927441906226
2.192,0.0028734939742279817
2.196,0.002930301777160379
2.2,0.0029343405883718236
2.204,0.0028986644226707326
2.208,0.002880369569504607
2.212,0.0029359753452907413
2.216,0.002967516537608688
2.22,0.0029545346444290453
2.224,0.002896957544123039
2.228,0.0029292199527287425
2.232,0.0029440529677136305
2.236,0.0029421297242796093
2.24,0.002929364195986294
2.244,0.0029779982143241027
2.248,0.0029982403514671745
2.2520000000000002,0.002962708429023635
2.2560000000000002,0.0029162380595491003
2.2600000000000002,0.002955544347231906
2.2640000000000002,0.003029108408583213
2.2680000000000002,0.0029837198635403153
2.2720000000000002,0.0029334270477406636
2.2760000000000002,0.0029357830209473393
2.2800000000000002,0.0029855469448026354
2.2840000000000003,0.002986412404347945
2.2880000000000003,0.002942394170251787
2.2920000000000003,0.002958910023241443
2.2960000000000003,0.0030148764071714564
2.3000000000000003,0.0030279544625228002
2.3040000000000003,0.0029842247149417457
2.308,0.0030045389737135934
2.312,0.003044037585739802
2.316,0.0030306470033304297
2.32,0.0029941534591698795
2.324,0.0029690310918129795
2.328,0.0030327385305649276
2.332,0.003063414263337564
2.336,0.0030303344762724013
2.34,0.0030191315832692285
2.344,0.0030717563317326302
2.348,0.0031042591457675866
2.352,0.003081420629988586
2.356,0.003012376190707229
2.36,0.0030161024748606453
2.364,0.003094763131312108
2.368,0.0030705783451292924
2.372,0.003027016881348715
2.376,0.0030481244780370966
2.38,0.003118010336320838
2.384,0.00310409086196711
2.388,0.003058101303351081
2.392,0.0030781751566936757
2.396,0.003139286216809696
2.4,0.003150248704383616
2.404,0.0030752422104567937
2.408,0.0030954362665140153
2.412,0.003156643488801736
2.416,0.0031688320440648446
2.42,0.003128972823894758
2.424,0.0031227463232771147
2.428,0.0031702263955545097
2.432,0.0031974883712317594
2.436,0.0031715005443295487
2.44,0.0031293815131244874
2.444,0.003163687367878838
2.448,0.003172822774190438
2.452,0.0031611631108716854
2.456,0.0031566194482588105
2.46,0.0031877279108041023
2.464,0.0032321548341299896
2.468,0.0032262649011133
2.472,0.003173351666134794
2.476,0.003190997424641938
2.48,0.0032609313640115296
2.484,0.003256604066284982
2.488,0.0032233319548764174
2.492,0.0031910935868136392
2.496,0.003249752511551282
2.5,0.0032555943634821212
2.504,0.0032200624410385816
2.508,0.0032154706973398562
2.512,0.0032489351330918233
2.516,0.0032413623620703652
2.52,0.0032158553460266606
2.524,0.0032249907523382608
2.528,0.003268095445803258
2.532,0.0032878086910019745
2.536,0.003276533676370026
2.54,0.0032159515081983613
2.544,0.0032767981223422037
2.548,0.003314637936906568
2.552,0.003279923392922488
2.556,0.0032462906733700444
2.56,0.0032580224583175724
2.564,0.003308964368776206
2.568,0.0033101183148366185
2.572,0.0032852603934518964
2.576,0.0033237012215893936
2.58,0.0033496650079486777
2.584,0.003331682681840581
2.588,0.0033236771810464683
2.592,0.0033059352603676227
2.596,0.0033570454546267337
2.6,0.0033486793456887418
2.604,0.003305598692766669
2.608,0.003305334246794491
2.612,0.0033767106187395993
2.616,0.0033759894024518416
2.62,0.0033414191017253126
2.624,0.0033523815892992324
2.628,0.0033803647812642394
2.632,0.003407169986625908
2.636,0.003367575212427999
2.64,0.0033518286568119515
2.644,0.0034009915670941155
2.648,0.003420320163606027
2.652,0.0033659885365949316
2.656,0.0033381015068016263
2.66,0.0033909426201513553
2.664,0.0034201759203484755
2.668,0.0034133724467006257
2.672,0.003368873401745963
2.676,0.0033884183631442025
2.68,0.0034491928556592685
2.684,0.0034451540444478245
2.688,0.0033982509452006354
2.692,0.003419310460803166
2.696,0.003481286980464496
2.7,0.0034757095745058353
2.704,0.003415560136106825
2.708,0.003405775635136243
2.712,0.0034869845891377835
2.716,0.003504534185473226
2.72,0.0034100067706910892
2.724,0.003399501053432749
2.728,0.0034778251422832585
2.732,0.0034884270217132992
2.736,0.003444120301102038
2.74,0.0034348646920758117
2.744,0.003489412683973235
2.748,0.003497995157797554
2.7520000000000002,0.0034687137765145822
2.7560000000000002,0.003478065547712511
2.7600000000000002,0.0035053275233897594
2.7640000000000002,0.0035002309282896036
2.7680000000000002,0.003516145767706128
2.7720000000000002,0.003474483506816647
2.7760000000000002,0.003494797765588494
2.7800000000000002,0.003539104486199755
2.7840000000000003,0.0035122511997522352
2.7880000000000003,0.0034536163155575172
2.7920000000000003,0.0034885953055137763
2.7960000000000003,0.003546244527448558
2.8000000000000003,0.003554466393128998
2.8040000000000003,0.003530546052918361
2.8080000000000003,0.0034947496845026435
2.8120000000000003,0.003557375298822955
2.816,0.0035654769617887686
2.82,0.0035092461318865773
2.824,0.003520473065432676
2.828,0.003573145894981928
2.832,0.0035843487879851006
2.836,0.0035404747971464947
2.84,0.003514318686443808
2.844,0.0035677608133666684
2.848,0.003605816992817361
2.852,0.0035691070837704834
2.856,0.0035546827580153254
2.86,0.003589397301999406
2.864,0.0036063458847617165
2.868,0.003603533141239461
2.872,0.0035863201125049724
2.876,0.003613413804381744
2.88,0.0036463012671035053
2.884,0.0036425990234930147
2.888,0.0035906474102315195
2.892,0.0036273332787354726
2.896,0.0037008973400867785
2.9,0.003655989605902386
2.904,0.0036130772367807904
2.908,0.00361302915569494
2.912,0.003661446809146421
2.916,0.003679645500140846
2.92,0.0036212029402895303
2.924,0.0035894694236281817
2.928,0.0036432000370661462
2.932,0.003678467513537508
2.936,0.0036460849022171777
2.94,0.0036421182126345096
2.944,0.003663370052580442
2.948,0.0036984211641654763
2.952,0.003692699514949264
2.956,0.0036855594737004605
2.96,0.0037439299119230002
2.964,0.003760517886541432
2.968,0.003715730355071666
2.972,0.0036886607037378196
2.976,0.0037274140589333444
2.98,0.0037621045623744995
2.984,0.003735131073212354
2.988,0.0036634902552950687
2.992,0.0037212596799444772
2.996,0.003791025335513592
3.0,0.00376626357630057
3.004,0.0037154899496424135
3.008,0.003733279951407109
3.012,0.003795568998126467
3.016,0.003765374076212335
3.02,0.003711162651915866
3.024,0.003720610585285495
3.028,0.0037908810922560403
3.032,0.003770013900996912
3.036,0.0037179180444778656
3.04,0.0037235675720653024
3.044,0.0037862412674714648
3.048,0.003796410417128851
3.052,0.003747704277162267
3.056,0.003741405654915848
3.06,0.0037773703071320424
3.064,0.003801723377115334
3.068,0.0037813129561717856
3.072,0.0037691484414516026
3.076,0.0037591956566805423
3.08,0.0038088393778212123
3.084,0.0038197537843092824
3.088,0.0037595562648244213
3.092,0.0037714563335724278
3.096,0.0038258360416693737
3.1,0.003799487606623285
3.104,0.0037579695889913543
3.108,0.003799151039022331
3.112,0.003831798096314839
3.116,0.0038280718121614233
3.12,0.0037882366325342615
3.124,0.0037654942789269613
3.128,0.003835740745354582
3.132,0.003848842841248851
3.136,0.003818816203135197
3.14,0.003817181446216279
3.144,0.0038744460194642567
3.148,0.0038777876549308684
3.152,0.0038471840437870075
3.156,0.0038269659471868614
3.16,0.003868628208076343
3.164,0.003905001549522266
3.168,0.0038295623258227897
3.172,0.003820547122225816
3.176,0.003880961006597003
3.18,0.00392026729427981
3.184,0.00390031364365184
3.188,0.003866825167356948
3.192,0.003900433846366466
3.196,0.003963780676974536
3.2,0.003944307837205073
3.204,0.003885095979980148
3.208,0.003927407335528613
3.212,0.0039352445525222485
3.216,0.0039103385500516745
3.22,0.003882138993200341
3.224,0.003887716399159002
3.228,0.003943947229061193
3.232,0.003965583717693931
3.236,0.003916709293926871
3.24,0.003908367225531803
3.244,0.0039598139873918674
3.248,0.003970391826278984
3.2520000000000002,0.003950197770221762
3.2560000000000002,0.003913535942260735
3.2600000000000002,0.00392721501118521
3.2640000000000002,0.0039741181104324
3.2680000000000002,0.003971113042566742
3.2720000000000002,0.00393086917370985
3.2760000000000002,0.003964045122946715
3.2800000000000002,0.004013640763001533
3.2840000000000003,0.003979286827161331
3.2880000000000003,0.003939980539478525
3.2920000000000003,0.003973949826631923
3.2960000000000003,0.004041551833337763
3.3000000000000003,0.0040015243293671995
3.3040000000000003,0.003942480755942753
3.3080000000000003,0.003988181828043678
3.3120000000000003,0.004045566604006283
3.3160000000000003,0.004029747926761459
3.3200000000000003,0.003999961694077058
3.3240000000000003,0.004003784140402174
3.3280000000000003,0.0040451338742336276
3.332,0.0040588369837010274
3.336,0.004031671170195481
3.34,0.004041455671166062
3.344,0.004102686933996709
3.348,0.0040831179320555445
3.352,0.004046504185180368
3.356,0.0040103952897066215
3.36,0.004047417725811527
3.364,0.004082468837396562
3.368,0.004042777901026952
3.372,0.004026045683150969
3.376,0.004068789768472088
3.38,0.004101388744678745
3.384,0.004084608445716911
3.388,0.004048427428614389
3.392,0.004047561969069079
3.396,0.004096724879351244
3.4,0.00407674718818035
3.404,0.004033979062316306
3.408,0.004062274781339342
3.412,0.00411917874644344
3.416,0.00410004247427493
3.42,0.004077300120667631
3.424,0.004092830311397351
3.428,0.004127184247237553
3.432,0.004144733843572995
3.436,0.004079511850616755
3.44,0.00408907998670101
3.444,0.00416389415628443
3.448,0.0041608169667899965
3.452,0.004098840447128667
3.456,0.004094801635917223
3.46,0.0041515373172208445
3.464,0.004185121955687438
3.468,0.004153725006627043
3.472,0.004133002058625467
3.476,0.004184352658313829
3.48,0.004185650847631794
3.484,0.00413744955906664
3.488,0.004106629583036452
3.492,0.004156778155578552
3.496,0.004211494431276453
3.5,0.00418348719876852
3.504,0.00416425476442831
3.508,0.0041777895900952326
3.512,0.00423135191973272
3.516,0.00420983563381461
3.52,0.004166202048405255
3.524,0.004174664319514948
3.528,0.004202839835823357
3.532,0.004226063000289162
3.536,0.004175553819603183
3.54,0.004160865047875847
3.544,0.0042025994303941045
3.548,0.0042146677829425876
3.552,0.004174496035714471
3.556,0.004177909792809859
3.56,0.004235246487686613
3.564,0.0042636624094242745
3.568,0.0042227454053654755
3.572,0.0041603361559314905
3.576,0.004232890514479937
3.58,0.0042686628423527296
3.584,0.0042409440963599
3.588,0.004196949902806667
3.592,0.0042298854466142795
3.596,0.004265225044714416
3.6,0.004229837365528429
3.604,0.004184064171798727
3.608,0.00423779478523669
3.612,0.004320758698871776
3.616,0.004271547707503761
3.62,0.004217889215694572
3.624,0.004267100207062587
3.628,0.0043240762937954615
3.632,0.004309002873381321
3.636,0.004275249951114252
3.64,0.004263013314765292
3.644,0.004322633861219945
3.648,0.004337250511318506
3.652,0.004292703385277993
3.656,0.004295395926085622
3.66,0.0043344618083391755
3.664,0.004327730456320102
3.668,0.004297198966805017
3.672,0.004281933222047475
3.676,0.004344294390395608
3.68,0.00437357577167858
3.684,0.004320686577243
3.688,0.004266403031317754
3.692,0.004300636764443329
3.696,0.0043304951187565065
3.7,0.004335134943541083
3.704,0.00431753726611979
3.708,0.004326432267002137
3.712,0.004377879028862202
3.716,0.004366411689886851
3.72,0.004325927415600707
3.724,0.004334846457025979
3.728,0.004397039341573637
3.732,0.0043806917723844575
3.736,0.004330999970157937
3.74,0.004338019808692114
3.744,0.004402208058302568
3.748,0.004420502911468694
3.7520000000000002,0.004317272820147612
3.7560000000000002,0.004326071658858259
3.7600000000000002,0.004398481774149152
3.7640000000000002,0.004408578802177763
3.7680000000000002,0.00438088409672786
3.7720000000000002,0.004369008068522779
3.7760000000000002,0.004406343031685713
3.7800000000000002,0.00440240038264597
3.7840000000000003,0.004374922042082395
3.7880000000000003,0.004371820812045036
3.7920000000000003,0.004438148669975837
3.7960000000000003,0.004429421952893967
3.8000000000000003,0.004423003127932921
3.8040000000000003,0.004385259475540257
3.8080000000000003,0.004444807900366135
3.8120000000000003,0.004487311580258001
3.8160000000000003,0.00446163628041382
3.8200000000000003,0.0044058141397413575
3.8240000000000003,0.004407184450688099
3.8280000000000003,0.00444889479266343
3.8320000000000003,0.0044313451963279874
3.8360000000000003,0.004384706543052976
3.84,0.004421031803413049
3.844,0.004456539685313664
3.848,0.004465074078052133
3.852,0.0044406248458971394
3.856,0.0044456252788255945
3.86,0.004510318379837479
3.864,0.0045031783385886745
3.868,0.004414324491936902
3.872,0.004430047007010023
3.876,0.00449086958061094
3.88,0.004517193975114104
3.884,0.004499644378778661
3.888,0.004451467130756433
3.892,0.0044889944182627695
3.896,0.004526016854367676
3.9,0.004502409041215067
3.904,0.00446670883497105
3.908,0.004501880149270711
3.912,0.004509765447350198
3.916,0.004517602664343834
3.92,0.004484162269134792
3.924,0.004498947203033828
3.928,0.004565803952908987
3.932,0.004524646543420936
3.936,0.004477094349514764
3.94,0.004530175868293747
3.944,0.0045754201700790925
3.948,0.004579795548891491
3.952,0.004558038857544127
3.956,0.004518948934747648
3.96,0.004591863901439973
3.964,0.00460660075425316
3.968,0.004539287234062422
3.972,0.004552990343529822
3.976,0.004611288660123586
3.98,0.0045702754938930865
3.984,0.004536426409454315
3.988,0.004523372394645897
3.992,0.004572054494069556
3.996,0.004607273889455067
4.0,0.0045376765176864285
4.0040000000000004,0.004481421647241312
4.008,0.004555899249223779
4.0120000000000005,0.004608355713886704
4.016,0.004582175562641092
4.0200000000000005,0.004561741101154618
4.024,0.004558351384602155
4.0280000000000005,0.004625256215563164
4.032,0.004632877067670472
4.0360000000000005,0.004571838129183228
4.04,0.004604917916248391
4.0440000000000005,0.004636002338250757
4.048,0.0046080672273716
4.0520000000000005,0.0045955661450504635
4.056,0.004596864334368427
4.0600000000000005,0.004646411893337396
4.064,0.0046710534498357915
4.0680000000000005,0.0045876327658851265
4.072,0.004593210171843787
4.0760000000000005,0.004658239840456626
4.08,0.004659586110860441
4.0840000000000005,0.004644055920130719
4.088,0.0046476379610265834
4.0920000000000005,0.004638117906028179
4.096,0.0046540808265305555
4.1,0.004649801609889858
4.104,0.00464496946076188
4.108,0.004684756559303191
4.112,0.004698459668770591
4.116,0.004694060249415268
4.12,0.004661869962438341
4.124,0.004687088491966942
4.128,0.004721634752150546
4.132,0.004727308320280908
4.136,0.004644248244474122
4.14,0.0046551866915051174
4.144,0.004715408251532903
4.148,0.004721081819663265
4.152,0.004690333965261853
4.156,0.004670620720063136
4.16,0.004691391749150564
4.164,0.004707883561597295
4.168,0.0046878097082547
4.172,0.004675789436792068
4.176,0.004747069646565474
4.18,0.004736010996819853
4.184,0.00469288226281193
4.188,0.004668577273914489
4.192,0.004702594642153737
4.196,0.004728558428513022
4.2,0.004707811439968519
4.204,0.004654201029245182
4.208,0.004717091089537671
4.212,0.004745026200416827
4.216,0.00471831715722686
4.22,0.004699757858088556
4.224,0.004741011429748308
4.228,0.004770821702975636
4.232,0.004757214755679936
4.236,0.004729808536745136
4.24,0.004766951175564668
4.244,0.0048344570200988075
4.248,0.0047713505949199915
4.252,0.004723606076670417
4.256,0.0047591379991139575
4.26,0.004804238057641751
4.264,0.004806257463247474
4.268,0.004788707866912031
4.272,0.004743800132727638
4.276,0.0048185181401393575
4.28,0.004838327547509774
4.284,0.004770629378632233
4.288,0.004780437920145741
4.292,0.004812459923322191
4.296,0.004815729437160027
4.3,0.004768706135198212
4.304,0.0047652683375599
4.308,0.0048299373980288576
4.312,0.004865902050245053
4.316,0.00478906847505591
4.32,0.00475892163422763
4.324,0.004807483530936662
4.328,0.0048514296434040444
4.332,0.004823927262297542
4.336,0.004765148134845273
4.34,0.004771086148947813
4.344,0.0048292161817410995
4.348,0.004821571289090866
4.352,0.004785774920675149
4.356,0.004827893951880211
4.36,0.004858786049539174
4.364,0.00485556461678719
4.368,0.004793347691696607
4.372,0.004799189543627446
4.376,0.004891192701402429
4.38,0.004898765472423888
4.384,0.004806017057818221
4.388,0.0047937804214692615
4.392,0.004849506399970022
4.396,0.004895375755871425
4.4,0.004885975903587647
4.404,0.004841260493746656
4.408,0.0048670559963054656
4.412,0.004893909282752984
4.416,0.004869243685711664
4.42,0.00484154898026176
4.424,0.004896337377588436
4.428,0.004899438607625796
4.432,0.0048862403495598256
4.436,0.004840587358544749
4.44,0.004882754470835662
4.444,0.004952472045318927
4.448,0.004951943153374571
4.452,0.004873570983438212
4.456,0.004897707688535176
4.46,0.004937518827619413
4.464,0.004932686678491435
4.468,0.004914872636183815
4.472,0.004882610227578111
4.476,0.004938552570965199
4.48,0.004939321868338808
4.484,0.004891841796061411
4.488,0.004918526798708455
4.492,0.004975863493585208
4.496,0.004944129976923861
4.5,0.004916868001246612
4.5040000000000004,0.004903405297208464
4.508,0.004935980232872196
4.5120000000000005,0.004957736924219559
4.516,0.00489722687767667
4.5200000000000005,0.004865469320472398
4.524,0.004914343744239459
4.5280000000000005,0.004941918246974736
4.532,0.0049179498256782484
4.5360000000000005,0.004933864665094773
4.54,0.004946534031216387
4.5440000000000005,0.004987547197446885
4.548,0.004980984129228289
4.5520000000000005,0.004936965895132132
4.556,0.004963482613978697
4.5600000000000005,0.00503305594520441
4.564,0.0049998559554246215
4.5680000000000005,0.004952327802061375
4.572,0.004958073491820513
4.5760000000000005,0.005002067685373745
4.58,0.005018920105964355
4.5840000000000005,0.004973964290694112
4.588,0.004951702747945318
4.5920000000000005,0.005035724445469114
4.596,0.005040532554054167
4.6000000000000005,0.00499341308992065
4.604,0.004986224967585997
4.6080000000000005,0.004998677968821284
4.612,0.005025411052554177
4.616,0.0049908888329134975
4.62,0.0049732911554922045
4.624,0.005010457834854662
4.628,0.0050400517431956615
4.632,0.0049789166425367164
4.636,0.004971968925631315
4.64,0.005029161377250517
4.644,0.005067433921587538
4.648,0.005053394244519184
4.652,0.004994230468380109
4.656,0.005016900700358633
4.66,0.005063274907661467
4.664,0.005057312853016002
4.668,0.005016371808414278
4.672,0.0050256995390692795
4.676,0.005053995258092315
4.68,0.005089431018364153
4.684,0.005045460865353846
4.688,0.005044643486894387
4.692,0.005116692994041402
4.696,0.005125083143522319
4.7,0.005034041607464346
4.704,0.005021540525143209
4.708,0.005081185112140788
4.712,0.005101307046569233
4.716,0.005065486637610591
4.72,0.005017718078818092
4.724,0.005070487070539046
4.728,0.005114000453233772
4.732,0.005090488802252865
4.736,0.005068900394705978
4.74,0.0050980134921884725
4.744,0.005115490966895139
4.748,0.0051017397763418884
4.752,0.005066352097155901
4.756,0.005094503572921384
4.76,0.0051614564849682435
4.764,0.005123183940631223
4.768,0.005077002057671792
4.772,0.005107341222843474
4.776,0.0051642211474046485
4.78,0.005161143957910215
4.784,0.005120587561995294
4.788,0.005097893289473846
4.792,0.005166673282783025
4.796,0.0051617690120262716
4.8,0.005111235790797367
4.804,0.005121861710770333
4.808,0.005166312674639147
4.812,0.00512832861681723
4.816,0.0051151303587512595
4.82,0.005098662586847455
4.824,0.00515340290308828
4.828,0.005185665311693983
4.832,0.005126934265327564
4.836,0.005102725438601824
4.84,0.0051567685790978165
4.844,0.005195642137007969
4.848,0.005177419405470618
4.852,0.005143233753430893
4.856,0.005143426077774294
4.86,0.005201291664595406
4.864,0.005185857636037385
4.868,0.0051424884966002095
4.872,0.00517669818918286
4.876,0.005228409397015102
4.88,0.005195425772121641
4.884,0.005175664445837074
4.888,0.0051835737844594856
4.892,0.005222495423455487
4.896,0.005229346978189188
4.9,0.0051481380241876476
4.904,0.005130011454821998
4.908,0.005193574650316395
4.912,0.005220115409705886
4.916,0.005181145689624034
4.92,0.005177395364927693
4.924,0.005207277759783796
4.928,0.0052285295997297285
4.932,0.005198094272386346
4.936,0.005162898917543759
4.94,0.005232448208226547
4.944,0.005256681075495212
4.948,0.005185593190065207
4.952,0.005163235485144713
4.956,0.005219947125905409
4.96,0.005281707280680411
4.964,0.005271874698623978
4.968,0.0051995126644189356
4.972,0.005239371884589022
4.976,0.005293967957572297
4.98,0.005280625456248775
4.984,0.0052486755747011
4.988,0.005249348709903007
4.992,0.0053056757019768995
4.996,0.005291371578936367
5.0,0.0052180719635572395
5.0040000000000004,0.005209249084303667
5.008,0.0052660328466931396
5.0120000000000005,0.00526014291367645
5.016,0.00522319259920032
5.0200000000000005,0.005196122947866474
5.024,0.0052516806425667575
5.0280000000000005,0.005289664700388673
5.032,0.005242593317341008
5.0360000000000005,0.005205498759607327
5.04,0.0052730767257702415
5.0440000000000005,0.005300194458189939
5.048,0.005257282089068343
5.0520000000000005,0.005247064858325106
5.056,0.005295746957748766
5.0600000000000005,0.005300771431220146
5.064,0.005303007201712196
5.0680000000000005,0.005274278752916505
5.072,0.005301540728593754
5.0760000000000005,0.005370633248960962
5.08,0.005321590541393424
5.0840000000000005,0.0052796638345317635
5.088,0.005289183889530168
5.0920000000000005,0.005339548826958596
5.096,0.005341736516364794
5.1000000000000005,0.005288895403015065
5.104,0.005264181724887894
5.1080000000000005,0.005337865988953827
5.112,0.005354934774430765
5.1160000000000005,0.005319114365472122
5.12,0.0053125753377964505
5.124,0.005334788799459394
5.128,0.0053614257210205865
5.132,0.005328538258298825
5.136,0.0053080557157265005
5.14,0.005355848315061925
5.144,0.005380802398618348
5.148,0.0053299326097884904
5.152,0.005323970555143025
5.156,0.005365440491689105
5.16,0.005398712603097669
5.164,0.0053820284663075365
5.168,0.005335678299547628
5.172,0.005330581704447473
5.176,0.005400804130332167
5.18,0.005386187480233607
5.184,0.005335341731946675
5.188,0.005370825573304364
5.192,0.005391668724020567
5.196,0.005386259601862383
5.2,0.005359141869442686
5.204,0.0053580119639251985
5.208,0.005429099849355202
5.212,0.005414146631655689
5.216,0.005335389813032525
5.22,0.00534536663834651
5.224,0.005410276104244721
5.228,0.005424772551628655
5.232,0.00538140341219148
5.236,0.005321085689991993
5.24,0.005367363735123126
5.244,0.00540926640144186
5.248,0.005394120859398944
5.252,0.005361786329164465
5.256,0.00543073460627412
5.26,0.0054447983238854
5.264,0.005420132726844079
5.268,0.005397077846178751
5.272,0.005416334321061887
5.276,0.005489561814812241
5.28,0.005470449583186656
5.284,0.005403496671139797
5.288,0.005408857712212131
5.292,0.005478310840723217
5.296,0.005467083907177119
5.3,0.005452323013821007
5.304,0.005438283336752653
5.308,0.005474127786254221
5.312,0.005482181368134185
5.316,0.005428859443925949
5.32,0.005422536781136605
5.324,0.005477108813576954
5.328,0.005457948500865519
5.332,0.0054197721187002
5.336,0.005421286672904492
5.34,0.0054825660168209885
5.344,0.005523579183051489
5.348,0.005484825827855963
5.352,0.005439605566613542
5.356,0.005478262759637366
5.36,0.005535166724741466
5.364,0.005491917788018917
5.368,0.005468478258666785
5.372,0.005456097379060274
5.376,0.005518530669037184
5.38,0.005506101708344822
5.384,0.005452226851649307
5.388,0.005489153125582511
5.392,0.005557548470204886
5.396,0.0055021590593050795
5.4,0.005463718231167583
5.404,0.005458645676610352
5.408,0.005526199602230343
5.412,0.005547259117832873
5.416,0.005465016420485546
5.42,0.00547261323204993
5.424,0.005516968033747041
5.428,0.005517160358090444
5.432,0.005491989909647693
5.436,0.005490210909471224
5.44,0.005490691720329729
5.444,0.005532738629906014
5.448,0.0055054045325999895
5.452,0.005485667246858348
5.456,0.005565746295342401
5.46,0.0055943785819663906
5.464,0.005540936455043529
5.468,0.005517040155375817
5.472,0.00555427895636705
5.476,0.005567813782033974
5.48,0.005571612187816165
5.484,0.005518843196095212
5.488,0.005545167590598375
5.492,0.00559985982575335
5.496,0.005567933984748599
5.5,0.005525262021056257
5.5040000000000004,0.005540672009071351
5.508,0.005570145714697724
5.5120000000000005,0.0055639192140800806
5.516,0.005516968033747041
5.5200000000000005,0.005515766006600778
5.524,0.00560899523206495
5.5280000000000005,0.005589858959896441
5.532,0.005514107209138935
5.5360000000000005,0.005525526467028435
5.54,0.005613611016306601
5.5440000000000005,0.00563498305896716
5.548,0.005593296757534753
5.5520000000000005,0.0055524999561905805
5.556,0.00559798466340518
5.5600000000000005,0.005620029841267646
5.564,0.00559529212259755
5.5680000000000005,0.0055613709165300024
5.572,0.005579713850781979
5.5760000000000005,0.005610990597127747
5.58,0.00560488429922473
5.5840000000000005,0.0055714439040156875
5.588,0.005593489081878155
5.5920000000000005,0.005649263141464767
5.596,0.005603321663934588
5.6000000000000005,0.0055680301469203
5.604,0.00558255063484716
5.6080000000000005,0.0056368582213153304
5.612,0.005628155544776385
5.6160000000000005,0.005570506322841603
5.62,0.00553925361703876
5.6240000000000006,0.005615942948970352
5.628,0.005625030274196101
5.632,0.005587334702889287
5.636,0.005612769597304217
5.64,0.005672967116789077
5.644,0.0056806360499822356
5.648,0.005635800437426619
5.652,0.005606470975057797
5.656,0.00566092280478352
5.66,0.0057017196061276915
5.664,0.005639983491895616
5.668,0.005617409422088792
5.672,0.005664024034820879
5.676,0.005701911930471094
5.68,0.0056840498070776235
5.684,0.005655369439367784
5.688,0.00566361534559115
5.692,0.005715951607539447
5.696,0.005671164076069682
5.7,0.0056458253438264544
5.704,0.00568513163150926
5.708,0.005691502375384455
5.712,0.005685973050511644
5.716,0.0056331319371619145
5.72,0.005640800870355074
5.724,0.005698089484145977
5.728,0.0056937141053335786
5.732,0.005610485745726317
5.736,0.005635175383310562
5.74,0.005707297012086353
5.744,0.005723764783990158
5.748,0.0057033784035895345
5.752,0.005684963347708783
5.756,0.005713763918133248
5.76,0.005757806192772332
5.764,0.0057248706489647205
5.768,0.005689939740094313
5.772,0.005736337987940072
5.776,0.005750834435324006
5.78,0.005727587230315275
5.784,0.005699531916721493
5.788,0.005722707000101446
5.792,0.005777543478513973
5.796,0.005756219516939265
5.8,0.005688857915662676
5.804,0.005721913662184913
5.808,0.005781462087010791
5.812,0.0057592967064336986
5.816,0.005705926701139613
5.82,0.00568969933466506
5.824,0.005749728570349443
5.828,0.005739968109921787
5.832,0.0056846027395649045
5.836,0.005727731473572827
5.84,0.005786991411883603
5.844,0.00573491959590748
5.848,0.0057196298106070124
5.852,0.005726601568055339
5.856,0.005784010384560868
5.86,0.005796198939823978
5.864,0.005753767381560888
5.868,0.005695901794739778
5.872,0.005775764478337503
5.876,0.0058071854679408235
5.88,0.0057662684638820245
5.884,0.005755137692507627
5.888,0.005781750573525894
5.892,0.005808026886943208
5.896,0.005791342750153075
5.9,0.0057408095289241705
5.904,0.005771557383325582
5.908,0.005835048457191204
5.912,0.005785981709080741
5.916,0.005767230085599035
5.92,0.005797328845341465
5.924,0.005822282928897889
5.928,0.005839351714374826
5.932,0.00577821661371588
5.936,0.0057661001800815475
5.94,0.0058258168887079026
5.944,0.005832187632583097
5.948,0.005796775912854184
5.952,0.0057823275465561
5.956,0.005790140723006812
5.96,0.005836370687052094
5.964,0.005817787347370864
5.968,0.005801776345782639
5.972,0.00585115562095113
5.976,0.00586389710870152
5.98,0.005793338115215872
5.984,0.005804276562246867
5.988,0.0058365149303096445
5.992,0.005850506526292148
5.996,0.005836346646509168
6.0,0.005793241953044171
6.0040000000000004,0.005818965333974202
6.008,0.0058681522847992915
6.0120000000000005,0.0058469004448533585
6.016,0.00581187337381125
6.0200000000000005,0.005854593418589443
6.024,0.005868032082084665
6.0280000000000005,0.005868032082084665
6.032,0.0058288219565735605
6.0360000000000005,0.005811536806210296
6.04,0.0058851970297333035
6.0440000000000005,0.005889452205831075
6.048,0.005834086835474193
6.0520000000000005,0.0058577667702555776
6.056,0.00590084742317765
6.0600000000000005,0.005895005571246811
6.064,0.005868440771314394
6.0680000000000005,0.005827523767255596
6.072,0.005897337503910562
6.0760000000000005,0.005915367911104509
6.08,0.005882384286211047
6.0840000000000005,0.005872407460897063
6.088,0.005888899273343794
6.0920000000000005,0.0059075547346537985
6.096,0.005894933449618035
6.1000000000000005,0.005871902609495632
6.104,0.0058837786377007135
6.1080000000000005,0.005936162980734863
6.112,0.005913877397443143
6.1160000000000005,0.005865748230506765
6.12,0.005897121139024235
6.1240000000000006,0.005948423657626747
6.128,0.005932003966808792
6.132000000000001,0.005920416425118815
6.136,0.005883273786299281
6.140000000000001,0.005950875793005124
6.144,0.0059532317662117995
6.148,0.005895654665905793
6.152,0.0059027225855258205
6.156,0.005963665361841364
6.16,0.005942149075923254
6.164,0.005906593112936788
6.168,0.005882384286211047
6.172,0.005928181520483675
6.176,0.00598342668812593
6.18,0.005918805708742822
6.184,0.0058922649493533315
6.188,0.005942197157009104
6.192,0.00599301886475311
6.196,0.005941908670494001
6.2,0.005899332868973359
6.204,0.005903972693757934
6.208,0.005972632484352487
6.212,0.005956837847650589
6.216,0.0059236378578708
6.22,0.005978858984970131
6.224,0.006003620744183152
6.228,0.005972632484352487
6.232,0.005943831913928022
6.236,0.0059555156177897
6.24,0.0060216511513770995
6.244,0.006045595532130662
6.248,0.005946187887134698
6.252,0.005947726481881915
6.256,0.006020256799887434
6.26,0.006027444922222088
6.264,0.0059804216202602725
6.268,0.0059724882410949354
6.272,0.005990638851003509
6.276,0.006012684028865976
6.28,0.0059571984557944685
6.284,0.00592774879071102
6.288,0.006003909230698255
6.292,0.00601621798867599
6.296,0.0059785224173691765
6.3,0.005963016267182382
6.304,0.005996456662391424
6.308,0.006030906760403325
6.312,0.006045427248330185
6.316,0.005977200187508288
6.32,0.00601352544786836
6.324,0.006083723833210131
6.328,0.006061414209375486
6.332,0.006017275772564701
6.336,0.006030666354974073
6.34,0.006058889952368333
6.344,0.006056197411560703
6.348,0.0060428308696942575
6.352,0.006048816964882648
6.356,0.006108149024822198
6.36,0.006071992048262601
6.364,0.006013285042439108
6.368,0.005992249567379503
6.372,0.006040667220830983
6.376,0.0060527355733794655
6.38,0.00602855078719665
6.384,0.005955707942133102
6.388,0.0060024667981227395
6.392,0.006037421747536073
6.396,0.006017444056365178
6.4,0.006019920232286481
6.404,0.006048720802710947
6.408,0.006078531075938273
6.412,0.006049874748771359
6.416,0.0060141985830702675
6.42,0.0060314837334335325
6.424,0.006108846200567031
6.428,0.006053192343695045
6.432,0.006005856514675201
6.436,0.0060409316668031615
6.44,0.006088868509396137
6.444,0.006103004348636192
6.448,0.006067207980220474
6.452,0.006042566423722079
6.456,0.006096537442589296
6.46,0.006101201307916798
6.464,0.006061294006660859
6.468,0.006070213048086132
6.472,0.006113029255036027
6.476,0.006103388997322996
6.48,0.006044273302269773
6.484,0.006039849842371525
6.488,0.006096946131819026
6.492,0.006147359150333303
6.496,0.006082040995205363
6.5,0.0060655011016727805
6.5040000000000004,0.00613524271669897
6.508,0.006166783909016916
6.5120000000000005,0.006160100638083693
6.516,0.006100624334886591
6.5200000000000005,0.006102836064835715
6.524,0.006137550608819795
6.5280000000000005,0.006126035188758594
6.532,0.006079877346342088
6.5360000000000005,0.0060965855236751465
6.54,0.006111298335945408
6.5440000000000005,0.006125987107672743
6.548,0.0060822333195487644
6.5520000000000005,0.006086584657818237
6.556,0.006151397961544747
6.5600000000000005,0.00615031613711311
6.564,0.006066582926104417
6.5680000000000005,0.0060666069666473425
6.572,0.006118438377194211
6.5760000000000005,0.006135963932986728
6.58,0.006092378428663225
6.5840000000000005,0.006053240424780896
6.588,0.006124232148039199
6.5920000000000005,0.006153802015837273
6.596,0.006139834460397695
6.6000000000000005,0.006124063864238723
6.604,0.006181328437486701
6.6080000000000005,0.006184862397296715
6.612,0.006147551474676705
6.6160000000000005,0.006131348148745078
6.62,0.006147839961191808
6.6240000000000006,0.006206619088644078
6.628,0.006201570574629773
6.632000000000001,0.00611925575565367
6.636,0.006152648069776861
6.640000000000001,0.00621645167070051
6.644,0.006193901641436614
6.648000000000001,0.006181328437486701
6.652,0.006177890639848387
6.656000000000001,0.006235059050924665
6.66,0.006231597212743427
6.664,0.006163249949206901
6.668,0.006152744231948562
6.672,0.006221764630686993
6.676,0.006194670938810222
6.68,0.0061295691485686084
6.684,0.006122260823519328
6.688,0.006206619088644078
6.692,0.00623686209164406
6.696,0.006175991436957291
6.7,0.006147142785446975
6.704,0.006228279617819741
6.708,0.006232534793917513
6.712,0.006193060222434229
6.716,0.006179260950795128
6.72,0.006187723221904821
6.724,0.006242415457059796
6.728,0.006202003304402427
6.732,0.006158778408222803
6.736,0.006191161019543133
6.74,0.006266624283785536
6.744,0.006221043414399236
6.748,0.006184213302637733
6.752,0.00619178607365919
6.756,0.0062577052423602635
6.76,0.006261239202170277
6.764,0.006168322503764132
6.768,0.006160821854371451
6.772,0.0062216925090582175
6.776,0.006231092361341997
6.78,0.006192699614290351
6.784,0.006228856590849948
6.788,0.0062592919181933306
6.792,0.006267802270388874
6.796,0.006221283819828488
6.8,0.006198517425678264
6.804,0.006279942744566132
6.808,0.006294150705434962
6.812,0.0062294816449660045
6.816,0.006194118006322941
6.82,0.006247992863018457
6.824,0.006300257003337979
6.828,0.0062633547699477
6.832,0.006221067454942161
6.836,0.0062486659982203645
6.84,0.00631085888276802
6.844,0.006285616312696494
6.848,0.006254387647436577
6.852,0.006300377206052606
6.856,0.006282659325916686
6.86,0.006267802270388874
6.864,0.006231092361341997
6.868,0.006245276281667902
6.872,0.006326845843813321
6.876,0.006301915800799822
6.88,0.006246718714243418
6.884,0.006261335364341978
6.888,0.006297636584159125
6.892,0.006296771124613816
6.896,0.0062657828647831515
6.9,0.0062077489941615655
6.904,0.006258113931589993
6.908,0.006297540421987424
6.912,0.006272225730287123
6.916,0.006244723349180621
6.92,0.006305353598438135
6.924,0.006329730708964352
6.928,0.006334586898635255
6.932,0.006283188217861042
6.936,0.006330259600908708
6.94,0.006397693323814073
6.944,0.006348506372988983
6.948,0.006307300882415081
6.952,0.006319224991706012
6.956,0.006369445685876889
6.96,0.0063461023186964565
6.964,0.006307829774359437
6.968,0.0062565993773857015
6.972,0.006321292478397585
6.976,0.006334418614834778
6.98,0.006288789664362629
6.984,0.006304584301064527
6.988,0.00633319254714559
6.992,0.0063368226691273045
6.996,0.0062973480976440226
7.0,0.006269869757080446
7.0040000000000004,0.006344876251007268
7.008,0.006373268132202006
7.0120000000000005,0.006293237164803803
7.016,0.0062879001642743935
7.0200000000000005,0.006338938236904728
7.024,0.006358555319931744
7.0280000000000005,0.0063437944265756305
7.032,0.0063040073280343206
7.0360000000000005,0.0063395873315637095
7.04,0.0063941593640040595
7.0440000000000005,0.006374614402605821
7.048,0.006316412248183756
7.0520000000000005,0.006338000655730642
7.056,0.006378124321872909
7.0600000000000005,0.006357016725184528
7.064,0.006328240195302985
7.0680000000000005,0.006339346926134457
7.072,0.0064111319873092956
7.0760000000000005,0.0064238975156026105
7.08,0.006326100586982637
7.0840000000000005,0.006335668723066892
7.088,0.006395842202008828
7.0920000000000005,0.006396082607438081
7.096,0.0063790138219611435
7.1000000000000005,0.00635994967142141
7.104,0.006364252928605032
7.1080000000000005,0.006387283768727435
7.112,0.006353001954516009
7.1160000000000005,0.006349203548733815
7.12,0.00642384943451676
7.1240000000000006,0.006410482892650313
7.128,0.0063725228753713226
7.132000000000001,0.0063349955878649845
7.136,0.00638004756530693
7.140000000000001,0.006407598027499282
7.144,0.00638776457958594
7.148000000000001,0.006342351994000115
7.152,0.006404064067689268
7.156000000000001,0.006459934289447581
7.16,0.0064301480567631785
7.164000000000001,0.006417839298785444
7.168,0.00641654110946748
7.172,0.006452505761683674
7.176,0.006448827558616108
7.18,0.0063938468369460315
7.184,0.006399736769962721
7.188,0.0064941439820302305
7.192,0.0064493324100175385
7.196,0.0064011311214523855
7.2,0.006410122284506435
7.204,0.006471666074395109
7.208,0.006511044483706691
7.212,0.006454573248375247
7.216,0.006340284507308542
7.22,0.006416613231096256
7.224,0.006474550939546141
7.228,0.006449717058704343
7.232,0.006428032488985756
7.236,0.006424666812976218
7.24,0.006442408733655063
7.244,0.006434475354489726
7.248,0.006405145892120905
7.252,0.006427431475412624
7.256,0.006486402927208296
7.26,0.00642252720465587
7.264,0.006380143727478631
7.268,0.006410050162877659
7.272,0.006495105603747241
7.276,0.006478301264242482
7.28,0.006406612365239346
7.284,0.006384086376518374
7.288,0.0064380814359285155
7.292,0.006449140085674137
7.296,0.006420339515249672
7.3,0.006430268259477805
7.304,0.006453323140143134
7.308,0.006476498223523087
7.312,0.006441374990309277
7.316,0.006417454650098639
7.32,0.0064891435491017755
7.324,0.0065173671464960345
7.328,0.006452962531999254
7.332,0.006432696354313257
7.336,0.006465391492691616
7.34,0.0065165016869507255
7.344,0.006488205967927691
7.348,0.006434787881547754
7.352,0.006475224074748048
7.356,0.0065122945919388045
7.36,0.006482941089027058
7.364,0.006437624665612936
7.368,0.006475103872033422
7.372,0.006475897209949955
7.376,0.006480032183333101
7.38,0.006437432341269533
7.384,0.006445702288035824
7.388,0.006554581906944344
7.392,0.006534123404914943
7.396,0.00643709577366858
7.4,0.00647394992597301
7.404,0.006557130204494421
7.408,0.0065568657585222435
7.412,0.0065351331077178046
7.416,0.006488927184215449
7.42,0.006546816811579482
7.424,0.006564029840313972
7.428,0.006518136443869643
7.432,0.006476113574836283
7.436,0.006544412757286956
7.44,0.006539220000015099
7.444,0.006524074457972183
7.448,0.006480080264418951
7.452,0.006497173090438814
7.456,0.006556024339519859
7.46,0.006514818848945957
7.464,0.006423224380400703
7.468,0.00646993515530449
7.472,0.006549100663157384
7.476,0.006547706311667717
7.48,0.006532849256139905
7.484,0.006524146579600959
7.488,0.006565856921576292
7.492,0.006605163209259097
7.496,0.00654799479818282
7.5,0.006560279515617631
7.5040000000000004,0.0066080721149530544
7.508,0.006566097327005544
7.5120000000000005,0.006531839553337043
7.516,0.006534435931972972
7.5200000000000005,0.006570064016588213
7.524,0.006587204923693925
7.5280000000000005,0.006537368878209854
7.532,0.006512270551395879
7.5360000000000005,0.0065723959492519635
7.54,0.006611822439649395
7.5440000000000005,0.006578718612041307
7.548,0.006552586541881547
7.5520000000000005,0.006551769163422087
7.556,0.006599441560042885
7.5600000000000005,0.006584800869401399
7.564,0.006541768297565177
7.5680000000000005,0.006560375677789332
7.572,0.006606389276948285
7.5760000000000005,0.006563645191627168
7.58,0.006539580608158978
7.5840000000000005,0.006557130204494421
7.588,0.006601316722391055
7.5920000000000005,0.006620068345872761
7.596,0.006537801607982508
7.6000000000000005,0.006547129338637511
7.604,0.00663052598204525
7.6080000000000005,0.006636896725920445
7.612,0.006588455031926039
7.6160000000000005,0.006586459666863243
7.62,0.0065803293284173005
7.6240000000000006,0.006610163642187552
7.628,0.006599633884386287
7.632000000000001,0.006599633884386287
7.636,0.006642762618394209
7.640000000000001,0.006628771022411706
7.644,0.006588455031926039
7.648000000000001,0.006573405652054824
7.652,0.006586651991206644
7.656000000000001,0.006638074712523783
7.66,0.006618433588953842
7.664000000000001,0.006527728620496823
7.668,0.006582132369136695
7.672000000000001,0.006651633578733634
7.676,0.006626294846490403
7.68,0.006599345397871183
7.684,0.006633939739140638
7.688,0.0066543982411700385
7.692,0.006653869349225683
7.696,0.006616438223891046
7.7,0.0066366082394053415
7.704,0.006708152895150927
7.708,0.006673366229538071
7.712,0.006589272410385498
7.716,0.006597085586836209
7.72,0.0066756500811159716
7.724,0.006675361594600868
7.728,0.006661586363504692
7.732,0.006599345397871183
7.736,0.006647474564807562
7.74,0.006652402876107241
7.744,0.0065896810996152275
7.748,0.006592229397165306
7.752,0.006637257334064324
7.756,0.006666105985574641
7.76,0.006652402876107241
7.764,0.00660311976311045
7.768,0.00663189629299199
7.772,0.006710292503471276
7.776,0.006659518876813119
7.78,0.006622833008309166
7.784,0.006653893389768608
7.788,0.006706854705832963
7.792,0.006689232987868745
7.796,0.006662932633908507
7.8,0.006653196214023775
7.804,0.006709378962840115
7.808,0.006708104814065077
7.812,0.0066736547160531744
7.816,0.006693079474736787
7.82,0.006715893949972862
7.824,0.006720653977472064
7.828,0.006693392001794815
7.832,0.006677645446178768
7.836,0.0067280344241501195
7.84,0.0067536616429084515
7.844,0.006666634877518998
7.848,0.006665841539602464
7.852,0.006716254558116741
7.856,0.0067391411549815915
7.86,0.006707335516691468
7.864,0.006680289905900547
7.868,0.006694401704597676
7.872,0.006736015884401307
7.876,0.0067042583271970345
7.88,0.0066713949050182
7.884,0.006700027191642188
7.888,0.006714932328255851
7.892,0.00668742994714935
7.896,0.006649109321726481
7.9,0.006672957540308342
7.904,0.006732674248934696
7.908,0.0067278901808925685
7.912,0.006650768119188324
7.916,0.006679376365269387
7.92,0.0067284431133798495
7.924,0.006732337681333742
7.928,0.006694834434370332
7.932,0.006666105985574641
7.936,0.006702719732449818
7.94,0.006748372723464894
7.944,0.006716134355402114
7.948,0.006701806191818658
7.952,0.006779457145467259
7.956,0.006780418767184269
7.96,0.00675032000744184
7.964,0.006701277299874302
7.968,0.006729813424326589
7.972,0.0067654655494847555
7.976,0.006764119279080941
7.98,0.006681251527617557
7.984,0.006694834434370332
7.988,0.006748396764007819
7.992,0.006718466288065865
7.996,0.00670478721914139
8.0,0.006704090043396557
8.004,0.0067486612099799965
8.008000000000001,0.006775851064028469
8.012,0.006730967370387002
8.016,0.006724909153569836
8.02,0.006795155619997456
8.024000000000001,0.006751618196759804
8.028,0.006730462518985571
8.032,0.006716759409518171
8.036,0.006772918117791587
8.040000000000001,0.006789073362637364
8.044,0.006749478588439456
8.048,0.006702407205391789
8.052,0.006764191400709716
8.056000000000001,0.006799002106865498
8.06,0.006762893211391753
8.064,0.006752243250875861
8.068,0.0067354148708281755
8.072000000000001,0.006784289294595237
8.076,0.0067653213062272045
8.08,0.006724452383254255
8.084,0.006743925223023719
8.088000000000001,0.006799218471751825
8.092,0.006753132750964096
8.096,0.006712384030705773
8.1,0.0067470024125181535
8.104000000000001,0.006820566473869459
8.108,0.006800420498898088
8.112,0.006726015018544398
8.116,0.006732962735449799
8.120000000000001,0.006792871768419556
8.124,0.006783736362107956
8.128,0.006747459182833733
8.132,0.006739405600953769
8.136000000000001,0.006757243683804316
8.14,0.006800228174554686
8.144,0.006768037887577759
8.148,0.006751858602189057
8.152000000000001,0.006802656269390138
8.156,0.006812993702848001
8.16,0.006767244549661225
8.164,0.006759479454296365
8.168000000000001,0.006807897107747846
8.172,0.006832634826417942
8.176,0.006836072624056254
8.18,0.006773807617879822
8.184000000000001,0.006787679011147699
8.188,0.006832658866960867
8.192,0.006823691744449743
8.196,0.006796165322800317
8.2,0.006831553001986304
8.204,0.0068356398942835996
8.208,0.006820518392783609
8.212,0.006768518698436264
8.216,0.00678686163268824
8.22,0.006868214829947332
8.224,0.006832105934473585
8.228,0.006746377358402097
8.232,0.006779409064381408
8.236,0.006835808178084076
8.24,0.006841650030014915
8.244,0.006820638595498235
8.248,0.006785250916312247
8.252,0.006833788772478354
8.256,0.006835111002339243
8.26,0.006799963728582509
8.264,0.006770177495898107
8.268,0.0068334522048774
8.272,0.006838741124320958
8.276,0.0068081134726341724
8.28,0.006793448741449762
8.284,0.006840928813727157
8.288,0.0069077855636023155
8.292,0.006860353572410771
8.296,0.0068125609730753465
8.3,0.006825110136482334
8.304,0.00689405841359199
8.308,0.006884394115336034
8.312,0.006850136341667534
8.316,0.006812248446017318
8.32,0.006873551830476741
8.324,0.006874273046764498
8.328,0.006822754163275658
8.332,0.006817369081660399
8.336,0.006892279413415521
8.34,0.00686939281655067
8.344,0.0068311683532995
8.348,0.006827442069146084
8.352,0.006899347333035548
8.356,0.006930864484810568
8.36,0.006854944450252587
8.364,0.006844294489736695
8.368,0.006885956750626176
8.372,0.006890812940297079
8.376,0.006874657695451303
8.38,0.006844486814080097
8.384,0.006849968057867057
8.388,0.006899876224979904
8.392,0.006877181952458455
8.396,0.006834509988766111
8.4,0.006882470871902013
8.404,0.006929518214406754
8.408,0.006898794400548267
8.412,0.006856434963913953
8.416,0.006876100128026818
8.42,0.0069357687555673215
8.424,0.0069379083638876704
8.428,0.006849415125379776
8.432,0.006848669868549093
8.436,0.006921536754155566
8.44,0.0069250707139655795
8.444,0.0068952604407382535
8.448,0.006890644656496602
8.452,0.0068995877384648
8.456,0.006916512280684186
8.46,0.006872205560072926
8.464,0.006855497382739868
8.468,0.0069350475392795635
8.472,0.006917041172628541
8.476,0.006877374276801857
8.48,0.006842491449017299
8.484,0.006917161375343168
8.488,0.006962934569072871
8.492,0.006941466364240609
8.496,0.006869921708495026
8.5,0.0069097568881221864
8.504,0.0069568042306269295
8.508000000000001,0.006911343563955254
8.512,0.0068822545070156855
8.516,0.006898962684348743
8.52,0.0069521163247565024
8.524000000000001,0.0069343503635347315
8.528,0.006890163845638097
8.532,0.00689268810264525
8.536,0.006988465625659501
8.540000000000001,0.006953174108645215
8.544,0.00690730475274381
8.548,0.00691877209171916
8.552,0.006988802193260454
8.556000000000001,0.006999091545632467
8.56,0.0069407691884957766
8.564,0.006881869858328882
8.568,0.006973873016103866
8.572000000000001,0.007014164966046607
8.576,0.006955626244023592
8.58,0.006920527051352705
8.584,0.006939158472119784
8.588000000000001,0.0069615642581261315
8.592,0.006941370202068908
8.596,0.006905742117453668
8.6,0.0069406009046952995
8.604000000000001,0.0069827199359003625
8.608,0.006915598740053026
8.612,0.006904540090307405
8.616,0.006950529648923435
8.620000000000001,0.007010606965693668
8.624,0.0069978654779432785
8.628,0.006947620743229479
8.632,0.006949976716436154
8.636000000000001,0.007016857506854237
8.64,0.006994644045191294
8.644,0.0069432453644170805
8.648,0.006960193947179391
8.652000000000001,0.006983080544044242
8.656,0.006980724570837566
8.66,0.006951587432812147
8.664,0.006939374837006111
8.668000000000001,0.0070271228186833245
8.672,0.007042292401269167
8.676,0.006947500540514852
8.68,0.006950625811095137
8.684000000000001,0.007015342952649945
8.688,0.007023228250729431
8.692,0.007022699358785076
8.696,0.006947188013456824
8.700000000000001,0.006968896623718336
8.704,0.007017698925856621
8.708,0.006971084313124536
8.712,0.0069296624576643045
8.716,0.00699156685569686
8.72,0.00700481319484868
8.724,0.006970459259008479
8.728,0.006941129796639655
8.732,0.0069749548405355025
8.736,0.007022939764214329
8.74,0.007035993779022746
8.744,0.006950337324580033
8.748,0.0069423799048717715
8.752,0.007013732236273953
8.756,0.0070475091990839485
8.76,0.007007529776199234
8.764,0.006997697194142802
8.768,0.007042941495928148
8.772,0.007070323674320023
8.776,0.007036763076396355
8.78,0.007008226951944067
8.784,0.007060611294978217
8.788,0.007032171332697629
8.792,0.007014453452561711
8.796,0.006990220585293045
8.8,0.007027723832256456
8.804,0.007085180729847836
8.808,0.007054072267302545
8.812,0.007002793789242958
8.816,0.007049312239803343
8.82,0.007096383622851009
8.824,0.007033950332874099
8.828,0.0069919995854695145
8.832,0.00699106200429543
8.836,0.007060707457149918
8.84,0.0070590005786022245
8.844,0.007006207546338345
8.848,0.007018612466487781
8.852,0.007108115407798537
8.856,0.0071005426367770795
8.86,0.007035488927621316
8.864,0.007025031291448826
8.868,0.007071165093322408
8.872,0.007100350312433677
8.876,0.007051692253552944
8.88,0.0070282286836578865
8.884,0.0070718382285243145
8.888,0.00709013308169044
8.892,0.0070629672681848926
8.896,0.007044696455561693
8.9,0.007054529037618125
8.904,0.007107057623909826
8.908,0.007075131782905076
8.912,0.007024838967105424
8.916,0.007072679647526699
8.92,0.007111288759464672
8.924,0.007102033150438445
8.928,0.007063087470899519
8.932,0.007063424038500472
8.936,0.007117851827683269
8.94,0.007120929017177703
8.944,0.00704212411746869
8.948,0.007047941928856603
8.952,0.007116505557279454
8.956,0.0071076826780258825
8.96,0.0070539280240449935
8.964,0.0070760453235362356
8.968,0.007100230109719051
8.972,0.007116289192393126
8.976,0.007078593621086314
8.98,0.007055923389107791
8.984,0.007127876734083103
8.988,0.007127948855711879
8.992,0.0070800120131189045
8.996,0.007067222444282664
9.0,0.007121409828036208
9.004,0.007164105832271476
9.008000000000001,0.007121265584778656
9.012,0.00708099767537884
9.016,0.007097657771626047
9.02,0.007092585217068817
9.024000000000001,0.007078689783258015
9.028,0.007025920791537061
9.032,0.007070540039206351
9.036,0.007112370583896309
9.040000000000001,0.0071139332191864505
9.044,0.007077151188510798
9.048,0.007072198836668194
9.052,0.007156653263964644
9.056000000000001,0.0071432867220981985
9.06,0.007062558578955163
9.064,0.007083401729671366
9.068,0.007159514088572751
9.072000000000001,0.007174419225186414
9.076,0.007120183760347019
9.08,0.00707191035015309
9.084,0.0071325646399535295
9.088000000000001,0.007150571006604553
9.092,0.007109221272773099
9.096,0.007090613892548945
9.1,0.007120856895548927
9.104000000000001,0.007139175789257979
9.108,0.00711479867873176
9.112,0.007075324107248478
9.116,0.007124631260788193
9.120000000000001,0.007186343334477345
9.124,0.007112298462267533
9.128,0.007062294132982985
9.132,0.007103619826271513
9.136000000000001,0.007167711913710266
9.14,0.0071580235749113845
9.144,0.007120063557632393
9.148,0.00709196016295276
9.152000000000001,0.007168240805654621
9.156,0.007175837617219005
9.16,0.007133213734612512
9.164,0.007159225602057648
9.168000000000001,0.00716033146703221
9.172,0.007141099032691999
9.176,0.007141026911063223
9.18,0.00714297419504017
9.184000000000001,0.007201488876520261
9.188,0.007226779527677638
9.192,0.007127828652997253
9.196,0.007122155084866891
9.200000000000001,0.007196728849021059
9.204,0.007211177215319142
9.208,0.007190550429489266
9.212,0.007141676005722205
9.216000000000001,0.007136074559220619
9.22,0.007198123200510723
9.224,0.007167832116424892
9.228,0.007161341169835071
9.232,0.007210768526089412
9.236,0.007205022836330274
9.24,0.00717809742825398
9.244,0.00715124414180646
9.248,0.007168793738141902
9.252,0.007233222393181608
9.256,0.007212138837036152
9.26,0.007126362179878812
9.264,0.0071263862204217375
9.268,0.007214350566985276
9.272,0.0072164661347627
9.276,0.007146868762994063
9.28,0.007157206196451926
9.284,0.007168216765111696
9.288,0.00718732899673728
9.292,0.0071528788987253785
9.296,0.007151676871579115
9.3,0.007198387646482902
9.304,0.007192209226951109
9.308,0.0071489122091427095
9.312,0.007137516991796134
9.316,0.007181895834036171
9.32,0.007235145636615629
9.324,0.007221057878461425
9.328,0.0071452580466180695
9.332,0.007185814442532989
9.336,0.0072205770676029195
9.34,0.00721103297206159
9.344,0.007185189388416932
9.348,0.007182617050323929
9.352,0.007238270907195915
9.356,0.007214590972414529
9.36,0.007173048914239674
9.364,0.007202546660408972
9.368,0.007269523612998758
9.372,0.007225938108675253
9.376,0.007165596345932843
9.38,0.007178025306625204
9.384,0.00724916127314106
9.388,0.007256589800904966
9.392,0.0072029072685528515
9.396,0.0071582639803406374
9.4,0.007214518850785753
9.404,0.007212836012780985
9.408,0.007211417620748394
9.412,0.007214134202098949
9.416,0.007223293648953475
9.42,0.007245699434959822
9.424,0.007218966351226927
9.428,0.007168072521854144
9.432,0.0072266833655059365
9.436,0.007290006155571082
9.44,0.007231299149747587
9.444,0.007196656727392283
9.448,0.007209734782743626
9.452,0.007259234260626745
9.456,0.007290775452944691
9.46,0.007218245134939169
9.464,0.00720144079543441
9.468,0.007272817167379519
9.472,0.007275942437959803
9.476,0.007237693934165709
9.48,0.007235458163673657
9.484,0.007262047004149001
9.488,0.007269956342771412
9.492,0.0072197116080576105
9.496,0.007195406619160169
9.5,0.007265244396358061
9.504,0.0073030601703795
9.508000000000001,0.0072106723639177115
9.512,0.007201056146747606
9.516,0.007262575896093357
9.52,0.00728428450635487
9.524000000000001,0.007273105653894622
9.528,0.007213412985811191
9.532,0.007246853381020235
9.536,0.0072730816133516965
9.540000000000001,0.007244232961841381
9.544,0.007205936376961434
9.548,0.007271230491546451
9.552,0.00730443048132624
9.556000000000001,0.007303540981238006
9.56,0.007251733611234063
9.564,0.007258513044338987
9.568,0.007306401805846112
9.572000000000001,0.0072928188990933375
9.576,0.007236011096160938
9.58,0.00725012289485807
9.584,0.007315489131071861
9.588000000000001,0.007314479428269
9.592,0.007272240194349313
9.596,0.007224663959900214
9.6,0.007280413978943902
9.604000000000001,0.007317412374505882
9.608,0.007260893058088588
9.612,0.007254762719642646
9.616,0.007322268564176785
9.620000000000001,0.007279476397769817
9.624,0.007263393274552815
9.628,0.00722605831138988
9.632,0.007272408478149789
9.636000000000001,0.007315873779758665
9.64,0.0072490651109693586
9.644,0.007225481338359673
9.648,0.007282313181834998
9.652000000000001,0.007339409471282499
9.656,0.007321403104631476
9.66,0.007313686090352467
9.664,0.007308733738509862
9.668000000000001,0.0073409480660297155
9.672,0.007328543145880279
9.676,0.007264018328668872
9.68,0.007285101884814328
9.684000000000001,0.007331572254288862
9.688,0.007320561685629091
9.692,0.007291737074661701
9.696,0.007285895222730862
9.700000000000001,0.007334649443783296
9.704,0.007365565581985186
9.708,0.007280918830345332
9.712,0.007274812532442315
9.716000000000001,0.00734493879615531
9.72,0.007381961232260215
9.724,0.007340659579514613
9.728,0.00730529594087155
9.732,0.007288828168967744
9.736,0.007350516202113971
9.74,0.0073403230119136595
9.744,0.007310753144115585
9.748,0.007345251323213338
9.752,0.007352920256406497
9.756,0.007311955171261848
9.76,0.007272696964664893
9.764,0.007300463791743572
9.768,0.007342919390549587
9.772,0.007329432645968513
9.776,0.007235938974532163
9.78,0.007265989653188744
9.784,0.007334793687040848
9.788,0.0073231821048079454
9.792,0.007286472195761068
9.796,0.007306065238245158
9.8,0.007336740971017794
9.804,0.007367080136189477
9.808,0.007308156765479656
9.812,0.007300728237715749
9.816,0.007399655071853209
9.82,0.007388812786993915
9.824,0.007317268131248331
9.828,0.00729945408894071
9.832,0.007356550378388212
9.836,0.007396625963444626
9.84,0.007377225245303938
9.844,0.007318494198937519
9.848,0.007347895782935117
9.852,0.007378956164394557
9.856,0.007347895782935117
9.86,0.007325297672585368
9.864,0.007344698390726057
9.868,0.007339193106396171
9.872,0.0073244562535829845
9.876,0.007298901156453429
9.88,0.007323302307522572
9.884,0.007390736030427936
9.888,0.007351405702202205
9.892,0.007318325915137042
9.896,0.0073308750785440295
9.9,0.007374989474811889
9.904,0.007373018150292017
9.908,0.007331524173203012
9.912,0.00729899731862513
9.916,0.007362320108690275
9.92,0.0073656857846998115
9.924,0.007338399768479638
9.928,0.007341068268744342
9.932,0.007368979339080573
9.936,0.007402059126145735
9.94,0.007368570649850844
9.944,0.0073247687806410125
9.948,0.0073867693408452674
9.952,0.007446606252186249
9.956,0.00735772836499155
9.96,0.007327990213392998
9.964,0.007362175865432723
9.968,0.007399414666423956
9.972,0.007381913151174364
9.976,0.007352872175320647
9.98,0.007316787320389825
9.984,0.007382754570176749
9.988,0.0073758308938142725
9.992,0.007322845537206991
9.996,0.007358281297478831
10.0,0.007375878974900123
10.004,0.007379581218510614
10.008000000000001,0.007351141256230028
10.012,0.007345131120498712
10.016,0.007417204668188651
10.02,0.007454515590808661
10.024000000000001,0.007366527203702196
10.028,0.00737107086631507
10.032,0.007432590615660819
10.036,0.007449707482223608
10.040000000000001,0.007422974398490714
10.044,0.00738700974627452
10.048,0.007412612924489925
10.052,0.007448842022678298
10.056000000000001,0.007403910247950981
10.06,0.007363522135836538
10.064,0.007405520964326973
10.068,0.007424128344551127
10.072000000000001,0.007411098370285634
10.076,0.00737284986649154
10.08,0.007384245083838115
10.084,0.0074526644690034154
10.088000000000001,0.007456534996414382
10.092,0.007352896215863572
10.096,0.007368017717363562
10.1,0.0074524240635741625
10.104000000000001,0.007466559902814218
10.108,0.007408357748392154
10.112,0.00737559048838502
10.116,0.007444707049295153
10.120000000000001,0.007478171485047119
10.124,0.0074295855477951615
10.128,0.0074180941682768856
10.132,0.007485768296611503
10.136000000000001,0.0074505248606830665
10.14,0.007435667805155254
10.144,0.007421988736230779
10.148,0.007443288657262562
10.152000000000001,0.0074638433214636625
10.156,0.007417757600675932
10.16,0.007374532704496309
10.164,0.0074229263174048635
10.168000000000001,0.007480142809566991
10.172,0.007442615522060656
10.176,0.007420642465826964
10.18,0.0074034294370924755
10.184000000000001,0.007442327035545552
10.188,0.007427253615131411
10.192,0.00739107259802889
10.196,0.007415882438327762
10.200000000000001,0.007483676769377005
10.204,0.007443360778891338
10.208,0.0073991502204517785
10.212,0.007403116910034447
10.216000000000001,0.0074774021876735115
10.22,0.007519617381050273
10.224,0.007465454037839656
10.228,0.007386264489443837
10.232000000000001,0.0074552127665534935
10.236,0.007481489079970806
10.24,0.0074456205899263135
10.244,0.007416675776244295
10.248,0.007415185262582929
10.252,0.007453073158233145
10.256,0.007441701981429495
10.26,0.007429753831595639
10.264,0.007489855188908798
10.268,0.007515987259068558
10.272,0.00744670241435795
10.276,0.007425763101470044
10.28,0.007448673738877821
10.284,0.0074816092826854325
10.288,0.007489807107822947
10.292,0.007427397858388963
10.296,0.00743848054867751
10.3,0.007493605513605139
10.304,0.007486777999414364
10.308,0.007457039847815814
10.312,0.007479445633822158
10.316,0.0075072124609008375
10.32,0.0075218771920852485
10.324,0.007458915010163983
10.328,0.007435211034839674
10.332,0.007508174082617848
10.336,0.007502740919916738
10.34,0.007439922981253026
10.344,0.007432806980547147
10.348,0.0074784359310192975
10.352,0.00751384765074821
10.356,0.0075080057988173715
10.36,0.007444610887123452
10.364,0.007462617253774474
10.368,0.007507092258186211
10.372,0.007500697473768091
10.376,0.00748233049897319
10.38,0.00750420739303518
10.384,0.0075014667711417
10.388,0.007491706310714043
10.392,0.007457881266818197
10.396,0.007489206094249815
10.4,0.007564452993605891
10.404,0.007546230262068542
10.408,0.007469300524707697
10.412,0.007475671268582893
10.416,0.007542816504973154
10.42,0.007544234897005745
10.424,0.007500360906167137
10.428,0.007457592780303095
10.432,0.00754101346425376
10.436,0.007546687032384122
10.44,0.007499759892594006
10.444,0.007498149176218013
10.448,0.0075525048437720356
10.452,0.007537936274759326
10.456,0.007515386245495427
10.46,0.007486273148012933
10.464,0.007521588705570145
10.468,0.0075608228716241765
10.472,0.00749100913496921
10.476,0.0074721613493158034
10.48,0.007513366839889705
10.484,0.007541181748054237
10.488,0.007534450396035163
10.492,0.007484518188379389
10.496,0.007495023905637729
10.5,0.0075613758041114575
10.504,0.00752800753053119
10.508000000000001,0.0074784359310192975
10.512,0.007494831581294327
10.516,0.0075586832633038285
10.52,0.007522237800229127
10.524000000000001,0.0074888214455630115
10.528,0.007494302689349972
10.532,0.0075470235999850754
10.536,0.00757019868336503
10.540000000000001,0.007486609715613887
10.544,0.007483364242318977
10.548,0.007550846046310193
10.552,0.007563299047545479
10.556000000000001,0.007535267774494622
10.56,0.007511371474826908
10.564,0.0075232955841178385
10.568,0.007576401143439747
10.572000000000001,0.007540484572309404
10.576,0.007502115865800682
10.58,0.007565054007179023
10.584,0.007598229956415886
10.588000000000001,0.007552072113999381
10.592,0.007528031571074115
10.596,0.007554331925034356
10.6,0.00760409584888965
10.604000000000001,0.007581569860168679
10.608,0.007505241136380966
10.612,0.007528151773788742
10.616,0.0075882531311019024
10.620000000000001,0.007578612873388872
10.624,0.007527166111528806
10.628,0.007520026070280003
10.632,0.007558514979503351
10.636000000000001,0.007573155670144837
10.64,0.007530964517310998
10.644,0.007513775529119434
10.648,0.0076015715918824975
10.652000000000001,0.0075846951307489635
10.656,0.0075288729900765
10.66,0.007501851419828504
10.664,0.007553947276347552
10.668000000000001,0.007606692227525579
10.672,0.007561039236510504
10.676,0.007468891835477968
10.68,0.007520579002767284
10.684000000000001,0.007565414615322902
10.688,0.007553033735716391
10.692,0.0075434655996321365
10.696,0.007577675292214786
10.700000000000001,0.007596234591353089
10.704,0.007597508740128128
10.708,0.0075453648025232325
10.712,0.007559115993076483
10.716000000000001,0.007630492365021589
10.72,0.0075802476303077895
10.724,0.007517694137616253
10.728,0.007524137003120223
10.732000000000001,0.007584094117175832
10.736,0.00760628353829585
10.74,0.0075628903583157495
10.744,0.007516900799699719
10.748000000000001,0.007581930468312558
10.752,0.007603903524546249
10.756,0.0075626499528864966
10.76,0.007567001291155969
10.764,0.007592388104485048
10.768,0.007610490633307771
10.772,0.007570318886079655
10.776,0.007525026503208457
10.78,0.007578396508502544
10.784,0.007646551447695667
10.788,0.007582194914284736
10.792,0.007548273708217189
10.796,0.007586209684953255
10.8,0.007629771148733832
10.804,0.007614986214834795
10.808,0.0075791417653332275
10.812,0.0075594044795915865
10.816,0.007599480064648
10.82,0.007568660088617812
10.824,0.007534209990605911
10.828,0.007570631413137684
10.832,0.007603639078574071
10.836,0.007594407510090769
10.84,0.007552240397799858
10.844,0.0075402922479660016
10.848,0.00760080229450889
10.852,0.007628112351271988
10.856,0.007555005060236263
10.86,0.007530892395682222
10.864,0.007586185644410329
10.868,0.0076087116331313015
10.872,0.007579718738363434
10.876,0.007542239531942948
10.88,0.007576809832669477
10.884,0.007637944933328422
10.888,0.0076033265515160426
10.892,0.007563347128631329
10.896,0.007609456889961984
10.9,0.007617582593470723
10.904,0.007576112656924644
10.908,0.0075242572058348495
10.912,0.007541758721084443
10.916,0.007600153199849908
10.92,0.007600249362021609
10.924,0.007531613611969979
10.928,0.0075606545878237
10.932,0.007649147826331595
10.936,0.007659581421961159
10.94,0.007629458621675803
10.944,0.007600658051251338
10.948,0.00762825659452954
10.952,0.007662033557339536
10.956,0.007633906122116978
10.96,0.007607076876212383
10.964,0.007667082071353842
10.968,0.0076482823667862855
10.972,0.007625011121234629
10.976,0.007604360294861829
10.98,0.0076485227722155385
10.984,0.007673020085456382
10.988,0.0076040477678038
10.992,0.007544379140263297
10.996,0.007590272536707624
11.0,0.007619674120705221
11.004,0.0075970519698125485
11.008000000000001,0.0075602699391368955
11.012,0.007583685427946102
11.016,0.007636021689894401
11.02,0.007607052835669458
11.024000000000001,0.00757024676445088
11.028,0.007607629808699664
11.032,0.007656408070295024
11.036,0.007613351457915877
11.040000000000001,0.007588661820331632
11.044,0.0075973644968705765
11.048,0.007649989245333979
11.052,0.007660951732907899
11.056000000000001,0.007573468197202865
11.06,0.007555077181865039
11.064,0.007650277731849083
11.068,0.0076735730179436626
11.072000000000001,0.007630011554163084
11.076,0.00760491322734911
11.08,0.007602797659571686
11.084,0.007649893083162278
11.088000000000001,0.007626814161954024
11.092,0.0076029178622863125
11.096,0.007664990544119343
11.1,0.007688934924872905
11.104000000000001,0.00762227049934115
11.108,0.007606932632954832
11.112,0.00763318490582922
11.116,0.007687011681438884
11.120000000000001,0.007702469750539829
11.124,0.007627679621499334
11.128,0.007655855137807743
11.132,0.007707349980753658
11.136000000000001,0.007685016316376088
11.14,0.007640469190335575
11.144,0.007646671650410293
11.148,0.007656215745951623
11.152000000000001,0.007650446015649559
11.156,0.007607221119469935
11.16,0.007608735673674227
11.164,0.007674077869345093
11.168000000000001,0.007676289599294217
11.172,0.007600273402564534
11.176,0.007611019525252127
11.18,0.0076477294342990046
11.184000000000001,0.0076793187077028
11.188,0.00766830813904303
11.192,0.007589334955533539
11.196,0.007633497432887249
11.200000000000001,0.0076743663558601965
11.204,0.007653378961886441
11.208,0.00764775347484193
11.212,0.007681626599823625
11.216000000000001,0.007704224710173373
11.22,0.007701219642307715
11.224,0.007664942463033493
11.228,0.00767556838300646
11.232000000000001,0.007735525497062067
11.236,0.007709345345816454
11.24,0.007641358690423809
11.244,0.007647897718099482
11.248000000000001,0.007706580683380049
11.252,0.00769439212811694
11.256,0.007671385328537464
11.26,0.0076438348663451115
11.264,0.0077040083452870455
11.268,0.007729948091103406
11.272,0.007665831963121728
11.276,0.007643017487885653
11.28,0.00769210827653904
11.284,0.007700642669277509
11.288,0.007685905816464322
11.292,0.007667346517326019
11.296,0.0076959307228641576
11.3,0.007761104634734547
11.304,0.007701219642307715
11.308,0.007650109448048606
11.312,0.0077189134819007086
11.316,0.007745213835860948
11.32,0.007721437738907861
11.324,0.007692372722511219
11.328,0.00768201124851043
11.332,0.007730308699247285
11.336,0.007726750698894344
11.34,0.007671313206908688
11.344,0.007677179099382452
11.348,0.0077362226728069
11.352,0.007733025280597839
11.356,0.007688574316729027
11.36,0.007694199803773539
11.364,0.007753868431314042
11.368,0.007770432365389549
11.372,0.007703647737143167
11.376,0.007680376491591512
11.38,0.0077486516334992605
11.384,0.007756705215379224
11.388,0.007695834560692456
11.392,0.007666168530722681
11.396,0.007682612262083562
11.4,0.007725837158263185
11.404,0.007709633832331557
11.408,0.007689295533016785
11.412,0.007732664672453961
11.416,0.007742473213967468
11.42,0.007705859467092291
11.424,0.007665279030634447
11.428,0.007694007479430136
11.432,0.007748315065898307
11.436,0.007735261051089889
11.44,0.007650974907593915
11.444,0.007688333911299774
11.448,0.00775819572904059
11.452,0.007752281755480975
11.456,0.0077149467923180405
11.46,0.007706821088809302
11.464,0.007753507823170164
11.468,0.0077446128222878165
11.472,0.0076893436141026355
11.476,0.007694728695717894
11.48,0.007782236271965853
11.484,0.007745670606176528
11.488,0.007723673509399911
11.492,0.00769525758766225
11.496,0.007746103335949182
11.5,0.007812166747907806
11.504,0.007761152715820397
11.508000000000001,0.007681530437651925
11.512,0.007740237443475418
11.516,0.007777548366095427
11.52,0.00774718516038082
11.524000000000001,0.007717038319552539
11.528,0.007713864967886404
11.532,0.007728289293641562
11.536,0.007733145483312466
11.540000000000001,0.007696123047207559
11.544,0.007730693347934089
11.548,0.0077857461912329414
11.552,0.007725212104147128
11.556000000000001,0.007692685249569247
11.56,0.0077141534544015065
11.564,0.007766465675806881
11.568,0.007789809042987312
11.572000000000001,0.0077400210785890915
11.576,0.007704176629087523
11.58,0.007766537797435656
11.584,0.007793992097456307
11.588000000000001,0.0077645905134587105
11.592,0.007768172554354575
11.596,0.007774663500944396
11.6,0.0077857461912329414
11.604000000000001,0.0077568734991797
11.608,0.0077213656172790855
11.612,0.007774014406285413
11.616,0.00782022032978777
11.620000000000001,0.007736463078236152
11.624,0.007699007912358591
11.628,0.0077337464968855974
11.632,0.0077917803675071826
11.636000000000001,0.007798583841155032
11.64,0.0077227118876829004
11.644,0.007708768372786248
11.648,0.007800410922417352
11.652000000000001,0.007803391949740085
11.656,0.0077547579314022775
11.66,0.007778341704011961
11.664,0.007790001367330713
11.668000000000001,0.007786395285891924
11.672,0.007748699714585111
11.676,0.0077469928360374175
11.68,0.007793992097456307
11.684000000000001,0.007808127936696362
11.688,0.0077568975397226255
11.692,0.007746295660292585
11.696,0.0077939199758275315
11.700000000000001,0.007817431626808438
11.704,0.007820701140646275
11.708,0.007758532296641544
11.712,0.00779930505744279
11.716000000000001,0.007841977021135135
11.72,0.007792766029767119
11.724,0.007756296526149494
11.728,0.007784375880286202
11.732000000000001,0.007785866393947568
11.736,0.007782909407167761
11.74,0.007745838889977005
11.744,0.007770432365389549
11.748000000000001,0.007849213224555639
11.752,0.00782118195150478
11.756,0.0077526904447107045
11.76,0.007789376313214656
11.764000000000001,0.007829283614470595
11.768,0.007814065950798902
11.772,0.007801733152278242
11.776,0.007762907675453941
11.78,0.007806036409461864
11.784,0.007819643356757564
11.788,0.0077925737054237165
11.792,0.0077857461912329414
11.796,0.0078570744820922
11.8,0.007827312289950723
11.804,0.007783871028884772
11.808,0.007755358944975409
11.812,0.007809185720585073
11.816,0.007852074049163745
11.82,0.007801781233364093
11.824,0.007760912310391145
11.828,0.007805074787744853
11.832,0.007849597873242443
11.836,0.007817744153866468
11.84,0.007801516787391914
11.844,0.007801468706306064
11.848,0.007838010331552465
11.852,0.007828874925240866
11.856,0.007782236271965853
11.86,0.007816734451063605
11.864,0.007859117928240848
11.868,0.007835269709658987
11.872,0.007785794272318792
11.876,0.007782572839566807
11.88,0.007860247833758334
11.884,0.007877292578692347
11.888,0.007785842353404643
11.892,0.007783558501826743
11.896,0.007853612643910962
11.9,0.007838491142410971
11.904,0.007795386448945972
11.908,0.007788991664527852
11.912,0.007807599044752006
11.916,0.007845871589089027
11.92,0.007817407586265514
11.924,0.0077933670433402505
11.928,0.00783606304757552
11.932,0.007869575564413337
11.936,0.00781204654519318
11.94,0.00780610853109064
11.944,0.007846544724290935
11.948,0.007885538484915711
11.952,0.007876931970548468
11.956,0.0077707689329905025
11.96,0.007807502882580305
11.964,0.007897606837464193
11.968,0.007893423782995198
11.972,0.007833178182424488
11.976,0.007829067249584269
11.98,0.007863204820538141
11.984,0.007856401346890293
11.988,0.0078013725441343626
11.992,0.00780889723406997
11.996,0.007879263903212218
12.0,0.007875898227202681
12.004,0.007813753423740874
12.008000000000001,0.007786755894035803
12.012,0.007852530819479325
12.016,0.00788767809323606
12.02,0.007860993090589017
12.024000000000001,0.007820148208158994
12.028,0.007876354997518261
12.032,0.007901357162160534
12.036,0.007859694901271053
12.040000000000001,0.007845126332258345
12.044,0.00786616180731795
12.048,0.007893015093765469
12.052,0.007880562092530182
12.056000000000001,0.00783962104792846
12.06,0.00785245869785055
12.064,0.0079163584609459
12.068,0.007867315753378363
12.072000000000001,0.007812719680395087
12.076,0.007835990925946744
12.08,0.007889216687983277
12.084,0.007886476066089797
12.088000000000001,0.007847963116323525
12.092,0.007824715911314794
12.096,0.007874407713541315
12.1,0.007875826105573904
12.104000000000001,0.007826086222261533
12.108,0.007840366304759141
12.112,0.007892486201821113
12.116,0.00789402479656833
12.120000000000001,0.00786027187430126
12.124,0.007817792234952319
12.128,0.007880682295244808
12.132,0.007921310812788504
12.136000000000001,0.007831278979533392
12.14,0.0078117580586780765
12.144,0.007860392077015886
12.148,0.007895539350772621
12.152000000000001,0.007896476931946707
12.156,0.007843058845566771
12.16,0.007844861886286166
12.164,0.007918810596324277
12.168000000000001,0.007910035798156556
12.172,0.007872508510650219
12.176,0.007895972080545276
12.18,0.007913786122852895
12.184000000000001,0.00788452878211285
12.188,0.007835798601603342
12.192,0.007846472602662158
12.196,0.007901597567589787
12.200000000000001,0.00790736729789185
12.204,0.0078032717470254585
12.208,0.007804569936343423
12.212,0.007889721539384708
12.216000000000001,0.00790763174386403
12.22,0.007890130228614437
12.224,0.00783190403364945
12.228,0.007861521982533374
12.232000000000001,0.007904626675998372
12.236,0.007868421618352925
12.24,0.007833803236540544
12.244,0.007893015093765469
12.248000000000001,0.007908304879065936
12.252,0.007873229726937978
12.256,0.007845847548546102
12.26,0.007871426686218583
12.264000000000001,0.007914074609367999
12.268,0.00791056469010091
12.272,0.007846304318861682
12.276,0.007859286212041324
12.280000000000001,0.007915252595971338
12.284,0.007920950204644624
12.288,0.007885418282201085
12.292,0.007853035670880755
12.296,0.007917127758319507
12.3,0.007930398138014254
12.304,0.007879600470813172
12.308,0.007880634214158957
12.312,0.007960905586986413
12.316,0.007925397705085798
12.32,0.007888279106809191
12.324,0.007869623645499188
12.328,0.007911574392903771
12.332,0.007945495598971319
12.336,0.00789356802625275
12.34,0.007832432925593805
12.344,0.00788082653850236
12.348,0.00792508517802777
12.352,0.007903592932652585
12.356,0.007881115025017463
12.36,0.007862531685336235
12.364,0.00791736816374876
12.368,0.007916646947461003
12.372,0.007858204387609688
12.376,0.007882797863022232
12.38,0.007950880680586579
12.384,0.007918425947637472
12.388,0.007862844212394263
12.392,0.007865680996459444
12.396,0.00793924505781075
12.4,0.007967084006518205
12.404,0.007896044202174051
12.408,0.00787361437562478
12.412,0.007943596396080223
12.416,0.007963526006165266
12.42,0.007911574392903771
12.424,0.007912560055163708
12.428,0.007925349623999947
12.432,0.007930229854213777
12.436,0.007906934568119197
12.44,0.007867363834464213
12.444,0.007925349623999947
12.448,0.007960857505900563
12.452,0.007885129795685982
12.456,0.007862892293480113
12.46,0.007897895323979297
12.464,0.007943740639337775
12.468,0.007940423044414089
12.472,0.00787844652475276
12.476,0.007884168173968972
12.48,0.007919099082839378
12.484,0.007926335286259883
12.488,0.007903785256995987
12.492,0.007937297773833804
12.496,0.007963886614309145
12.5,0.007943235787936345
12.504,0.007898784824067532
12.508000000000001,0.007872388307935593
12.512,0.00793417250325352
12.516,0.007927152664719344
12.52,0.00788726940400633
12.524000000000001,0.007877124294891869
12.528,0.007936480395374345
12.532,0.007966290668601671
12.536,0.007925037096941919
12.540000000000001,0.007856761955034172
12.544,0.007911382068560369
12.548,0.007947899653263845
12.552,0.00790955498729805
12.556000000000001,0.007887918498665313
12.56,0.007927753678292475
12.564,0.007925469826714574
12.568,0.007927224786348119
12.572000000000001,0.007887870417579462
12.576,0.007907511541149402
12.58,0.007970858371757473
12.584,0.007942947301421241
12.588000000000001,0.007892462161278188
12.592,0.007899698364698692
12.596,0.007961482560016619
12.6,0.007963574087251117
12.604000000000001,0.007942057801333006
12.608,0.007887485768892658
12.612,0.007954126153881488
12.616,0.007955784951343333
12.620000000000001,0.007888255066266267
12.624,0.007884120092883121
12.628,0.007936119787230467
12.632,0.007912175406476903
12.636000000000001,0.007892317918020636
12.64,0.007890899525988045
12.644,0.007937490098177206
12.648,0.007997855901462543
12.652000000000001,0.007928042164807579
12.656,0.00789727026986324
12.66,0.007944726301597711
12.664,0.007966747438917251
12.668000000000001,0.007939485463240003
12.672,0.0079096030683839
12.676,0.007908473162866412
12.68,0.007992783346905312
12.684000000000001,0.007966867641631879
12.688,0.007929436516297243
12.692,0.007962323979019003
12.696,0.007996437509429952
12.700000000000001,0.0079756424397996
12.704,0.00794458205834016
12.708,0.0079368169629753
12.712,0.007980522670013427
12.716000000000001,0.008011030118985588
12.72,0.007918137461122368
12.724,0.007917993217864816
12.728,0.007972685453019792
12.732000000000001,0.007981051561957784
12.736,0.007932393503077052
12.74,0.007922777285906945
12.744,0.007932321381448275
12.748000000000001,0.007961434478930768
12.752,0.007946288936887853
12.756,0.007930085610956225
12.76,0.007994105576766202
12.764000000000001,0.007982638237790851
12.768,0.007942658814906137
12.772,0.007914339055340176
12.776,0.00793270603013508
12.780000000000001,0.007990018684468907
12.784,0.007990379292612785
12.788,0.007900587864786927
12.792,0.007934340787053996
12.796000000000001,0.007994249820023754
12.8,0.007991100508900544
12.804,0.007962949033135061
12.808,0.007951746140131888
12.812,0.007978166696806751
12.816,0.007980113980783698
12.82,0.007926407407888659
12.824,0.007912487933534931
12.828,0.007988407968092914
12.832,0.007975474155999123
12.836,0.00793280219230678
12.84,0.007936913125147
12.844,0.007966170465887046
12.848,0.007995019117397362
12.852,0.007990066765554757
12.856,0.007910636811729687
12.86,0.007972829696277344
12.864,0.00802401201216523
12.868,0.007954390599853667
12.872,0.007938764246952246
12.876,0.007970473723070668
12.88,0.00800528442922645
12.884,0.008001486023444257
12.888,0.007946673585574658
12.892,0.007982614197247925
12.896,0.008037931486518957
12.9,0.007990114846640608
12.904,0.007945784085486423
12.908,0.007953789586280536
12.912,0.007999009847522956
12.916,0.007995235482283689
12.92,0.007973070101706597
12.924,0.007960328613956206
12.928,0.008018843295436298
12.932,0.00802812294500545
12.936,0.007977709926491171
12.94,0.007986316440858416
12.944,0.008008289497092107
12.948,0.008020670376698617
12.952,0.007999923388154116
12.956,0.007961194073501517
12.96,0.007995980739114372
12.964,0.00804497536559606
12.968,0.007963526006165266
12.972,0.007940302841699462
12.976,0.007986027954343312
12.98,0.00802319463370577
12.984,0.00801862693054997
12.988,0.007938547882065917
12.992,0.007927561353949073
12.996,0.007993384360478443
13.0,0.0079781186157209
13.004,0.00792782579992125
13.008000000000001,0.007957155262290072
13.012,0.007998312671778123
13.016,0.008013193767848861
13.02,0.007944870544855263
13.024000000000001,0.007948620869551604
13.028,0.008007976970034079
13.032,0.008005645037370328
13.036,0.007965473290142213
13.040000000000001,0.007973190304421222
13.044,0.008016679646573023
13.048,0.008032882972504653
13.052,0.008008049091662854
13.056000000000001,0.007957323546090548
13.06,0.00799386517133695
13.064,0.008029373053237563
13.068,0.00799295163070579
13.072000000000001,0.007950760477871952
13.076,0.00800071672607065
13.08,0.008012184065046
13.084,0.008004250685880662
13.088000000000001,0.0079666993578314
13.092,0.007975714561428374
13.096,0.008031031850699408
13.1,0.007995980739114372
13.104000000000001,0.007908833771010293
13.108,0.007986773211173996
13.112,0.008070314097839287
13.116,0.008050480649925945
13.120000000000001,0.008015669943770162
13.124,0.007982566116162075
13.128,0.008033459945534858
13.132,0.008052259650102414
13.136000000000001,0.008002279361360791
13.14,0.00798893686003727
13.144,0.008060890205012584
13.148,0.008019276025208952
13.152000000000001,0.007953597261937133
13.156,0.007958092843464158
13.16,0.008015862268113565
13.164,0.008053533798877454
13.168000000000001,0.007996028820200222
13.172,0.007959968005812328
13.176,0.008019011579236774
13.18,0.008065313664910832
13.184000000000001,0.00802771425577572
13.188,0.008007231713203396
13.192,0.007996149022914848
13.196,0.008035359148425954
13.200000000000001,0.00801086183518511
13.204,0.007961554681645396
13.208,0.007989946562840132
13.212,0.008078055152661221
13.216000000000001,0.00802305039044822
13.22,0.007971267060987202
13.224,0.007995355684998316
13.228,0.008066539732600022
13.232000000000001,0.008082262247673142
13.236,0.008002062996474464
13.24,0.00799715872571771
13.244,0.008062549002474427
13.248000000000001,0.008064376083736747
13.252,0.008015261254540433
13.256,0.00800456321293869
13.26,0.008018146119691465
13.264000000000001,0.008041946257187476
13.268,0.008011655173101644
13.272,0.00799898580698003
13.276,0.008052307731188264
13.280000000000001,0.008074689476651685
13.284,0.008014612159881451
13.288,0.007980690953813905
13.292,0.007981820859331391
13.296000000000001,0.008037041986430724
13.3,0.008063414462019736
13.304,0.007998240550149346
13.308,0.00802283402556189
13.312000000000001,0.008085892369654858
13.316,0.008059063123750263
13.32,0.008023002309362369
13.324,0.008052764501503844
13.328,0.008062573043017352
13.332,0.008076011706512575
13.336,0.00801095799735681
13.34,0.008013506294906889
13.344,0.008089546532179498
13.348,0.008083416193733555
13.352,0.008030671242555527
13.356,0.008006318172572236
13.36,0.008054327136793988
13.364,0.008073271084619095
13.368,0.008048773771378252
13.372,0.007976772345317087
13.376,0.008046201433285247
13.38,0.008103634290333702
13.384,0.008041032716556316
13.388,0.008008770307950611
13.392,0.008062669205189053
13.396,0.008089618653808273
13.4,0.008071732489871877
13.404,0.00801634307897207
13.408,0.00804081635166999
13.412,0.008105653695939423
13.416,0.008061611421300342
13.42,0.008018194200777316
13.424,0.0080464418387145
13.428,0.008094907573251832
13.432,0.008090988964755014
13.436,0.0080577649344323
13.44,0.008035022580825
13.444,0.008104932479651666
13.448,0.008100436898124641
13.452,0.00804858144703485
13.456,0.008037570878375078
13.46,0.008090508153896508
13.464,0.008061130610441837
13.468,0.008045576379169191
13.472,0.008019540471181131
13.476,0.008085099031738324
13.48,0.008117794170116682
13.484,0.00804543213591164
13.488,0.008015453578883835
13.492,0.00806202011053007
13.496,0.008090436032267733
13.5,0.008076756963343259
13.504,0.008028435472063479
13.508000000000001,0.008036224607971263
13.512,0.008093633424476792
13.516,0.008087599248202551
13.52,0.008041489486871896
13.524000000000001,0.008052932785304322
13.528,0.008099066587177902
13.532,0.008080723652925927
13.536,0.00803579187819861
13.540000000000001,0.008050985501327376
13.544,0.008110077155837673
13.548,0.008121592575898874
13.552,0.008042643432932308
13.556000000000001,0.008037330472945825
13.56,0.008111591710041964
13.564,0.00811755376468743
13.568,0.008079882233923542
13.572000000000001,0.008052668339332145
13.576,0.008075050084795563
13.58,0.00814755636225816
13.584,0.008113659196733536
13.588000000000001,0.008085676004768531
13.592,0.008137170847714446
13.596,0.008125751589824946
13.6,0.008100965790068998
13.604000000000001,0.008079834152837691
13.608,0.008106374912227182
13.612,0.008157773593001396
13.616,0.008130078887551493
13.620000000000001,0.00801528529508336
13.624,0.0080647126513377
13.628,0.008129501914521288
13.632,0.008118299021518113
13.636000000000001,0.008082815180160423
13.64,0.008065794475769338
13.644,0.008110702209953729
13.648,0.008103225601103973
13.652000000000001,0.00805096146078445
13.656,0.008068102367890163
13.66,0.008141498145440993
13.664,0.008101134073869474
13.668000000000001,0.0080623326375881
13.672,0.008069881368066632
13.676,0.008116784467313821
13.68,0.00815998532295052
13.684000000000001,0.008144527253849577
13.688,0.008053894407021332
13.692,0.00811075029103958
13.696,0.008162148971813795
13.700000000000001,0.008125054414080114
13.704,0.008097672235688236
13.708,0.008103826614677104
13.712,0.0081329397121596
13.716000000000001,0.008116592142970419
13.72,0.00808603661291241
13.724,0.0081057258175682
13.728,0.00817409712164765
13.732000000000001,0.008109548263893316
13.736,0.008069088030150098
13.74,0.008090988964755014
13.744,0.008161788363669915
13.748000000000001,0.008158831376890108
13.752,0.0080920227081008
13.756,0.00808192568007219
13.76,0.008156066714453703
13.764000000000001,0.008167005161484699
13.768,0.008120029940608732
13.772,0.008134862955593621
13.776,0.008164384742305844
13.780000000000001,0.008169697702292327
13.784,0.008139719145264524
13.788,0.008111952318185843
13.792,0.008152676997901242
13.796000000000001,0.00817541935150854
13.8,0.00809942719532178
13.804,0.008090436032267733
13.808,0.008136473671969614
13.812000000000001,0.008178039770687394
13.816,0.008158158241688201
13.82,0.008105245006709694
13.824,0.008111808074928291
13.828,0.008162076850185019
13.832,0.008136714077398867
13.836,0.008102961155131795
13.84,0.008129501914521288
13.844,0.008134189820391713
13.848,0.008142820375301884
13.852,0.008091229370184265
13.856,0.008092551600045156
13.86,0.008193762285760516
13.864,0.008211744611868613
13.868,0.008131833847185037
13.872,0.008113779399448164
13.876,0.00818770406894335
13.88,0.008215951706880534
13.884,0.00819359400196004
13.888,0.008152316389757362
13.892,0.008208282773687375
13.896,0.008230977046208825
13.9,0.008171813270069751
13.904,0.008155032971107918
13.908,0.008202056273069731
13.912,0.008200926367552245
13.916,0.00818957923129152
13.92,0.008137651658572952
13.924,0.008159456431006165
13.928,0.008209821368434593
13.932,0.008182895960358297
13.936,0.008092239072987128
13.94,0.008123395616618269
13.944,0.008177967649058619
13.948,0.00817587612182412
13.952,0.00815491276839329
13.956,0.008144070483533997
13.96,0.00821054258472235
13.964,0.008229366329832831
13.968,0.008176861784084055
13.972,0.008172005594413152
13.976,0.008230472194807393
13.98,0.008208475098030778
13.984,0.008168279310259737
13.988,0.008151402849126202
13.992,0.008193762285760516
13.996,0.0082287653162597
14.0,0.008165466566737481
14.004,0.008146426456740673
14.008000000000001,0.008210686827979902
14.012,0.008239102749717564
14.016,0.008214316949961616
14.02,0.008173015297216014
14.024000000000001,0.008157941876801874
14.028,0.008232155032812162
14.032,0.008204099719218379
14.036,0.008143156942902836
14.040000000000001,0.00816436070176292
14.044,0.008212586030870998
14.048,0.008168207188630962
14.052,0.00816400009361904
14.056000000000001,0.008187680028400424
14.06,0.008244511871875748
14.064,0.008240569222836005
14.068,0.008156739849655611
14.072000000000001,0.00815491276839329
14.076,0.008213980382360663
14.08,0.008232707965299443
14.084,0.008208907827803431
14.088000000000001,0.00816678879659837
14.092,0.008162701904301076
14.096,0.008209605003548264
14.1,0.008171284378125395
14.104000000000001,0.008150897997724772
14.108,0.008228212383772419
14.112,0.008222659018356683
14.116,0.00818364121718898
14.120000000000001,0.008169120729262121
14.124,0.008187944474372603
14.128,0.008244752277305001
14.132,0.00823049623535032
14.136000000000001,0.008134502347449743
14.14,0.008154984890022067
14.144,0.00821652867991074
14.148,0.008215350693307403
14.152000000000001,0.008178184013944946
14.156,0.00819328147490201
14.16,0.008239006587545863
14.164,0.008238044965828853
14.168000000000001,0.008177727243629366
14.172,0.008165081918050677
14.176,0.008244463790789898
14.18,0.008216192112309787
14.184000000000001,0.008177967649058619
14.188,0.008180588068237472
14.192,0.008224678423962406
14.196,0.008255498399992593
14.200000000000001,0.008237323749541094
14.204,0.008154624281878187
14.208,0.008201214854067348
14.212,0.008227947937800241
14.216000000000001,0.008171693067355124
14.22,0.008168159107545111
14.224,0.008199940705292308
14.228,0.008201912029812181
14.232000000000001,0.008187151136456069
14.236,0.008178352297745422
14.24,0.008219822234291501
14.244,0.00828175067286698
14.248000000000001,0.008220158801892455
14.252,0.00819008408269295
14.256,0.008204580530076885
14.26,0.008252685656470337
14.264000000000001,0.00825210868344013
14.268,0.00819739240774223
14.272,0.008189843677263699
14.276,0.008272398901669054
14.280000000000001,0.008267927360684954
14.284,0.008218451923344762
14.288,0.008224221653646826
14.292,0.00825333475112932
14.296000000000001,0.008233501303215977
14.3,0.008195276839964807
14.304,0.008176765621912356
14.308,0.008215807463622982
14.312000000000001,0.008265451184763652
14.316,0.008201286975696123
14.32,0.008171356499754171
14.324,0.008215591098736656
14.328000000000001,0.008272591226012455
14.332,0.00826626856322311
14.336,0.008211600368611061
14.34,0.008232948370728696
14.344,0.008289299403345513
14.348,0.008238069006371777
14.352,0.008185901028223955
14.356,0.008230183708292291
14.36,0.0082628307655848
14.364,0.00824383873667384
14.368,0.008184843244335244
14.372,0.008176020365081672
14.376,0.008252180805068907
14.38,0.008265956036165083
14.384,0.008185997190395656
14.388,0.008183016163072923
14.392,0.008235785154793878
14.396,0.00823602556022313
14.4,0.008223957207674647
14.404,0.008226649748482277
14.408,0.008242949236585606
14.412,0.008272302739497353
14.416,0.008236001519680205
14.42,0.008224269734732677
14.424,0.008280115915948063
14.428,0.00827982742943296
14.432,0.008256700427138856
14.436,0.008223981248217573
14.44,0.008260426711292273
14.444,0.008315239149161872
14.448,0.008284347051502909
14.452,0.008206864381654784
14.456,0.008241771249982268
14.46,0.008292544876640424
14.464,0.008247613101913107
14.468,0.008213956341817737
14.472,0.00819181500178357
14.476,0.008243117520386083
14.48,0.008250786453579241
14.484,0.008206143165367026
14.488,0.008206551854596756
14.492,0.008298627134000515
14.496,0.008268360090457609
14.5,0.008220014558634903
14.504,0.008199219489004551
14.508000000000001,0.008246411074766844
14.512,0.008252733737556188
14.516,0.00820419588139008
14.52,0.008164312620677069
14.524000000000001,0.008246699561281946
14.528,0.00828759252479782
14.532,0.008248694926344743
14.536,0.00823054431643617
14.540000000000001,0.008231866546297059
14.544,0.008269441914889247
14.548,0.008255786886507696
14.552,0.008215230490592777
14.556000000000001,0.00824607450716589
14.56,0.00831874906842896
14.564,0.008278577321200846
14.568,0.00825475314316191
14.572000000000001,0.008267061901139645
14.576,0.008318556744085558
14.58,0.008336394826936105
14.584,0.008274971239762056
14.588000000000001,0.008255786886507696
14.592,0.008311705189351858
14.596,0.008316104608707181
14.6,0.008258383265143625
14.604000000000001,0.008245136925991804
14.608,0.008279659145632483
14.612,0.008320504028062505
14.616,0.008267807157970328
14.620000000000001,0.00823246755987019
14.624,0.008318460581913857
14.628,0.008335529367390796
14.632,0.008265523306392427
14.636000000000001,0.008238213249629329
14.64,0.008271629604295444
14.644,0.008311200337950428
14.648,0.008319782811774748
14.652000000000001,0.008243045398757308
14.656,0.0082424684257271
14.66,0.008314902581560918
14.664,0.008311921554238186
14.668000000000001,0.008280909253864596
14.672,0.00830408433724455
14.676,0.008327211339538655
14.68,0.008338390191998902
14.684000000000001,0.008283361389242972
14.688,0.008284347051502909
14.692,0.008349593085002074
14.696,0.008327668109854235
14.700000000000001,0.008246098547708814
14.704,0.008251171102266046
14.708,0.008296391363508467
14.712,0.008303098674984615
14.716000000000001,0.008280308240291464
14.72,0.008232058870640461
14.724,0.008293290133471107
14.728,0.008327980636912263
14.732000000000001,0.008286294335479855
14.736,0.00824785350734236
14.74,0.008292376592839946
14.744,0.008318821190057736
14.748000000000001,0.008307546175425787
14.752,0.00828631837602278
14.756,0.008330120245232612
14.76,0.008397746292481377
14.764000000000001,0.008360387288775518
14.768,0.00827809651034234
14.772,0.008327860434197637
14.776,0.008374619290187273
14.780000000000001,0.008354713720645156
14.784,0.008313460148985402
14.788,0.008290765876463954
14.792,0.008353872301642772
14.796000000000001,0.008342332841038646
14.8,0.008293193971299406
14.804,0.0082880492951134
14.808,0.00833555340793372
14.812000000000001,0.008315118946447247
14.816,0.008277808023827238
14.82,0.00826840817154346
14.824,0.008313965000386832
14.828000000000001,0.008352333706895554
14.832,0.008273408604471915
14.836,0.008246723601824872
14.84,0.008291919822524366
14.844000000000001,0.008325167893390007
14.848,0.008310527202748521
14.852,0.008298771377258067
14.856,0.008306584553708777
14.86,0.008373345141412235
14.864,0.008356035950506045
14.868,0.008317643203454399
14.872,0.00835154036897902
14.876,0.008362887505239745
14.88,0.008342933854611777
14.884,0.008293819025415462
14.888,0.008292592957726275
14.892,0.008365339640618122
14.896,0.008359401626515581
14.9,0.00825795053537097
14.904,0.008266052198336784
14.908,0.008335865934991749
14.912,0.008351179760835142
14.916,0.008304396864302578
14.92,0.008295261457990978
14.924,0.008312113878581589
14.928,0.00833555340793372
14.932,0.008293963268673014
14.936,0.00826297500884235
14.94,0.008351059558120516
14.944,0.00835134804463562
14.948,0.008318220176484604
14.952,0.008314734297760442
14.956,0.008358440004798571
14.96,0.008404958455358956
14.964,0.008397794373567228
14.968,0.00832124928489319
14.972,0.008346107206277912
14.976,0.008399645495372473
14.98,0.008377696479681708
14.984,0.00834641973333594
14.988,0.008341611624750887
14.992,0.008368320667940854
14.996,0.008396400022077562
15.0,0.008339856665117343
15.004,0.008333509961785073
15.008000000000001,0.00840666533390665
15.012,0.008351299963549769
15.016,0.00829028506560545
15.02,0.008301896647838352
15.024000000000001,0.008372575844038626
15.028,0.008371325735806512
15.032,0.008328221042341516
15.036,0.008288313741085577
15.040000000000001,0.008363488518812877
15.044,0.00839433253538599
15.048,0.008353704017842295
15.052,0.008335649570105422
15.056000000000001,0.008357478383081561
15.06,0.008393130508239727
15.064,0.008368464911198406
15.068,0.0083040362561587
15.072000000000001,0.008348679544370914
15.076,0.008405463306760386
15.08,0.008360243045517966
15.084,0.008341635665293813
15.088000000000001,0.008358440004798571
15.092,0.008409838685572784
15.096,0.008403419860611739
15.1,0.008348463179484587
15.104000000000001,0.008320455946976654
15.108,0.008404044914727796
15.112,0.008408612617883596
15.116,0.00834692458473737
15.120000000000001,0.008345410030533079
15.124,0.008365940654191254
15.128,0.008367575411110172
15.132,0.008334062894272354
15.136000000000001,0.008332788745497316
15.14,0.008406376847391546
15.144,0.008443399283496454
15.148,0.008350867233777114
15.152000000000001,0.008318027852141203
15.156,0.008366661870479011
15.16,0.00840310733355371
15.164,0.00839168807566421
15.168000000000001,0.008329783677631658
15.172,0.008366229140706357
15.176,0.008435009134015537
15.18,0.008421378146176913
15.184000000000001,0.00837510010104578
15.188,0.008386327034591877
15.192,0.008385076926359763
15.196,0.008412314861494087
15.200000000000001,0.008382384385552133
15.204,0.008366806113736563
15.208,0.008423205227439232
15.212,0.008407843320509988
15.216000000000001,0.008343534868184909
15.22,0.00837651849307837
15.224,0.008418661564826357
15.228,0.008427748890052107
15.232000000000001,0.008416570037591858
15.236,0.008359281423800956
15.24,0.008414742956329537
15.244,0.008462896163808842
15.248000000000001,0.008405727752732564
15.252,0.008380389020489336
15.256,0.00845356843315384
15.26,0.008417339334965466
15.264000000000001,0.008392505454123669
15.268,0.008374018276614142
15.272,0.008397698211395526
15.276,0.00842657090344877
15.280000000000001,0.008412411023665788
15.284,0.008361300829406677
15.288,0.008382985399125265
15.292,0.008422027240835895
15.296000000000001,0.008403443901154665
15.3,0.008379114871714298
15.304,0.008358367883169796
15.308,0.008428181619824763
15.312000000000001,0.008435826512474995
15.316,0.008373705749556114
15.32,0.008375749195704761
15.324,0.008453111662838261
15.328000000000001,0.008443351202410604
15.332,0.008397890535738929
15.336,0.008395678805789805
15.34,0.00843205214723573
15.344000000000001,0.008472800867494051
15.348,0.008405439266217462
15.352,0.008356324437021148
15.356,0.00841625751053383
15.36,0.008438999864141131
15.364,0.008409237671999652
15.368,0.008387168453594262
15.372,0.00836519539736057
15.376,0.008392024643265165
15.38,0.00838214398012288
15.384,0.008328677812657096
15.388,0.008373393222498086
15.392,0.008415632456417773
15.396,0.00837418656041462
15.4,0.008342453043753272
15.404,0.008352381787981405
15.408,0.00840839625299727
15.412,0.008422748457123652
15.416,0.008349977733688878
15.42,0.008356492720821625
15.424,0.008399308927771519
15.428,0.008386399156220652
15.432,0.008333365718527521
15.436,0.00835596382887727
15.44,0.008377383952623678
15.444,0.008397265481622871
15.448,0.008339856665117343
15.452,0.008332115610295409
15.456,0.008410848388375646
15.46,0.008412483145294563
15.464,0.008370051587031474
15.468,0.008370051587031474
15.472,0.008409021307113325
15.476,0.008438663296540177
15.48,0.00844123563463318
15.484,0.00834956904445915
15.488,0.008380437101575187
15.492,0.008413036077781844
15.496,0.0083884426023693
15.5,0.008347357314510025
15.504,0.008399597414286622
15.508000000000001,0.008420344402831126
15.512,0.008440610580517123
15.516,0.008414214064385183
15.52,0.00838748098065229
15.524000000000001,0.008446067783761158
15.528,0.00843570630976037
15.532,0.008379331236600625
15.536,0.0083931064676968
15.540000000000001,0.008445851418874831
15.544,0.008425825646618087
15.548,0.00838661552110698
15.552,0.008358247680455169
15.556000000000001,0.008411761929006806
15.56,0.008452847216866082
15.564,0.008404117036356571
15.568,0.00836464246487329
15.572000000000001,0.008402939049753234
15.576,0.008413444767011573
15.58,0.008380076493431308
15.584,0.008327451744967906
15.588000000000001,0.008376133844391564
15.592,0.008416233469990904
15.596,0.008377191628280278
15.6,0.00836057961311892
15.604000000000001,0.008377504155338306
15.608,0.008437725715366091
15.612,0.008431859822892327
15.616,0.008401905306407447
15.620000000000001,0.008369522695087117
15.624,0.008439336431742085
15.628,0.008454097325098196
15.632,0.008406232604133994
15.636000000000001,0.008421257943462287
15.64,0.008448111229909806
15.644,0.008465829110045724
15.648,0.00844037017508787
15.652000000000001,0.00842342159232556
15.656,0.008457511082193583
15.66,0.008476238665132363
15.664,0.008429167282084697
15.668000000000001,0.008432028106692805
15.672,0.008470949745688806
15.676,0.008488883990711052
15.68,0.008463761623354151
15.684000000000001,0.00841031949643129
15.688,0.008405511387846237
15.692,0.008458280379567192
15.696,0.008435513985416967
15.700000000000001,0.00840579987436134
15.704,0.008445346567473401
15.708,0.008445490810730951
15.712,0.008432364674293757
15.716000000000001,0.008385413493960717
15.72,0.00838392298029935
15.724,0.008444457067385166
15.728,0.00847357016486766
15.732000000000001,0.008378922547370896
15.736,0.008383249845097442
15.74,0.00844666879733429
15.744,0.008456333095590246
15.748000000000001,0.008423710078840664
15.752,0.008400102265688053
15.756,0.00843433599881363
15.76,0.008465372339730144
15.764000000000001,0.008440971188661002
15.768,0.008401833184778672
15.772,0.008469314988769888
15.776,0.008441379877890731
15.780000000000001,0.00839630385990586
15.784,0.00837875426357042
15.788,0.008424551497843047
15.792,0.008471334394375609
15.796000000000001,0.008460684433859719
15.8,0.00837707142556565
15.804,0.008403756428212693
15.808,0.008434215796099003
15.812000000000001,0.008439047945226982
15.816,0.008420440565002827
15.82,0.008412819712895517
15.824,0.008462607677293739
15.828000000000001,0.008459145839112501
15.832,0.008408516455711895
15.836,0.008426787268335097
15.84,0.00850280346506478
15.844000000000001,0.008479844746571152
15.848,0.008432364674293757
15.852,0.008438326728939223
15.856,0.00850544792478656
15.860000000000001,0.008507996222336636
15.864,0.008488090652794518
15.868,0.008401712982064045
15.872,0.008453039541209484
15.876,0.008488307017680845
15.88,0.008443230999695977
15.884,0.008423541795040186
15.888,0.00844900072999804
15.892,0.008485061544385934
15.896,0.008445971621589457
15.9,0.008415752659132398
15.904,0.008459169879655427
15.908,0.00849874061331041
15.912,0.00843520145835894
15.916,0.008418853889169757
15.92,0.008421017538033034
15.924,0.008442269377978966
15.928,0.008466646488505184
15.932,0.008407771198881211
15.936,0.008410632023489318
15.94,0.008477056043591823
15.944,0.008497682829421697
15.948,0.00846041998788754
15.952,0.008460996960917747
15.956,0.008480541922315985
15.96,0.008482176679234904
15.964,0.008446596675705513
15.968,0.008425897768246862
15.972,0.0084886435852818
15.976,0.008526435318760314
15.98,0.008436283282790577
15.984,0.008431811741806476
15.988,0.008485325990358113
15.992,0.008491288045003579
15.996,0.0084659012316745
16.0,0.008414694875243687
16.004,0.008438134404595822
16.008,0.008492273707263513
16.012,0.008466454164161781
16.016000000000002,0.008410535861317616
16.02,0.008427412322451153
16.024,0.008477753219336656
16.028,0.008499678194484495
16.032,0.008434576404242881
16.036,0.008437292985593437
16.04,0.008506289343788942
16.044,0.008499726275570345
16.048000000000002,0.00841808459179615
16.052,0.00844133179680488
16.056,0.008507611573649832
16.06,0.008498355964623606
16.064,0.008459386244541754
16.068,0.008412579307466264
16.072,0.008453279946638737
16.076,0.008482200719777828
16.080000000000002,0.00845900159585495
16.084,0.008446115864847009
16.088,0.008498115559194353
16.092,0.008483691233439195
16.096,0.008471983489034591
16.1,0.008430032741630008
16.104,0.008453688635868466
16.108,0.008519271236968586
16.112000000000002,0.008462727880008366
16.116,0.008409069388199176
16.12,0.008444553229556867
16.124,0.008474603908213446
16.128,0.008453688635868466
16.132,0.008425152511416178
16.136,0.008423036943638756
16.14,0.008492514112692766
16.144000000000002,0.008489292679940781
16.148,0.008438663296540177
16.152,0.008458616947168145
16.156,0.00849640868064666
16.16,0.008484604774070354
16.164,0.0084659012316745
16.168,0.008463256771952721
16.172,0.008507779857450309
16.176000000000002,0.008558625605737242
16.18,0.008462343231321562
16.184,0.008430970322804092
16.188,0.00849275451812202
16.192,0.00850249093800675
16.196,0.008460251704087063
16.2,0.008431715579634775
16.204,0.008409694442315232
16.208000000000002,0.008468882258997232
16.212,0.008473353799981332
16.216,0.00842839798471109
16.22,0.008482681530636334
16.224,0.008538022860450292
16.228,0.00847042085374445
16.232,0.008429744255114904
16.236,0.008446236067561634
16.240000000000002,0.008509438654912152
16.244,0.008515472831186394
16.248,0.008429071119912998
16.252,0.008408492415168969
16.256,0.008482152638691978
16.26,0.008490542788172895
16.264,0.00845087589234621
16.268,0.008454361771070375
16.272000000000002,0.008494196950697535
16.276,0.008514102520239653
16.28,0.008458328460653043
16.284,0.008432388714836684
16.288,0.008515665155529796
16.292,0.00851193887137638
16.296,0.008446356270276262
16.3,0.008424936146529852
16.304000000000002,0.008485806801216618
16.308,0.008515352628471766
16.312,0.0085115782632325
16.316,0.008442870391552098
16.32,0.008473810570296912
16.324,0.008509390573826301
16.328,0.008492321788349364
16.332,0.008456837946991676
16.336000000000002,0.008459362203998828
16.34,0.008493475734409776
16.344,0.008491816936947933
16.348,0.008430850120089466
16.352,0.00843991340477229
16.356,0.008510231992828686
16.36,0.008484003760497223
16.364,0.008440682702145898
16.368000000000002,0.008432292552664982
16.372,0.008478402313995638
16.376,0.008523526413066357
16.38,0.008512828371464614
16.384,0.008440418256173721
16.388,0.008482104557606127
16.392,0.008493884423639507
16.396,0.008472296016092621
16.4,0.008457559163279433
16.404,0.008477320489564
16.408,0.00849458159938434
16.412,0.008474435624412968
16.416,0.008417507618765942
16.42,0.008447870824480553
16.424,0.008505255600443157
16.428,0.008438687337083103
16.432,0.008403732387669767
16.436,0.00842606605204734
16.44,0.008469242867141112
16.444,0.008489773490799287
16.448,0.00846265575837959
16.452,0.0084293596064281
16.456,0.00851818941253695
16.46,0.008521362764203084
16.464,0.008469314988769888
16.468,0.008499918599913748
16.472,0.008536340022445523
16.476,0.008527517143191951
16.48,0.008481719908919324
16.484,0.008462319190778635
16.488,0.008512780290378764
16.492,0.008553937699866815
16.496,0.008464314555841432
16.5,0.00845169327080567
16.504,0.008510784925315967
16.508,0.008543768550209429
16.512,0.008516795061047282
16.516000000000002,0.008473906732468613
16.52,0.008501048505431236
16.524,0.00854340794206555
16.528,0.008500591735115656
16.532,0.008458256339024266
