0.0,0.0043745854744814405
0.004,0.004370330298383669
0.008,0.00440468423422387
0.012,0.004400933909527529
0.016,0.004369080190151555
0.02,0.004379225299266016
0.024,0.004393120733076818
0.028,0.004387134637888428
0.032,0.004388024137976663
0.036000000000000004,0.004403650490878084
0.04,0.00440600646408476
0.044,0.004403770693592711
0.048,0.004396582571258057
0.052000000000000005,0.0043964623685434304
0.056,0.004395476706283494
0.06,0.004391726381587154
0.064,0.004398409652520377
0.068,0.004411103059184916
0.07200000000000001,0.004419685533009235
0.076,0.004413867721621321
0.08,0.004396438328000505
0.084,0.004377999231576828
0.088,0.004367589676490189
0.092,0.004372806474304971
0.096,0.004384850786310528
0.1,0.004399347233694462
0.10400000000000001,0.004406270910056937
0.108,0.004399852085095892
0.112,0.00439509205759669
0.116,0.0043991549093510595
0.12,0.004395452665740569
0.124,0.004393337097963146
0.128,0.0044246859659376895
0.132,0.0044279314392326
0.136,0.004417041073287456
0.14,0.004395789233341523
0.14400000000000002,0.004371219798471904
0.148,0.004369200392866182
0.152,0.004373070920277149
0.156,0.004378744488407511
0.16,0.004379994596639625
0.164,0.004379826312839148
0.168,0.00439372174664995
0.17200000000000001,0.004401967652873316
0.176,0.004385908570199239
0.18,0.004400837747355828
0.184,0.004402905234047401
0.188,0.004394947814339138
0.192,0.004394491044023559
0.196,0.004397159544288263
0.2,0.004414011964878873
0.20400000000000001,0.004417017032744531
0.20800000000000002,0.004442884656932114
0.212,0.004433268439762009
0.216,0.004405405450511628
0.22,0.004362637324647585
0.224,0.004349991999068895
0.228,0.00436996969023979
0.232,0.004383961286222294
0.23600000000000002,0.004383432394277937
0.24,0.0043945631656523345
0.244,0.004398145206548199
0.248,0.004382326529303375
0.252,0.004380042677725475
0.256,0.004379802272296222
0.26,0.004382687137447255
0.264,0.004394298719680156
0.268,0.004396822976687309
0.272,0.0043940102331650535
0.276,0.004387399083860606
0.28,0.004395476706283494
0.28400000000000003,0.004426080317427355
0.28800000000000003,0.004394995895424989
0.292,0.004383264110477461
0.296,0.004400741585184127
0.3,0.004403001396219102
0.304,0.004408025869690482
0.308,0.004392712043847089
0.312,0.0043766529611730135
0.316,0.004378816610036287
0.32,0.004387134637888428
0.324,0.004372830514847896
0.328,0.004362781567905137
0.332,0.004381364907586365
0.336,0.004409179815750895
0.34,0.004416416019171399
0.34400000000000003,0.004423435857705576
0.34800000000000003,0.004415887127227043
0.352,0.00441646410025725
0.356,0.004421031803413049
0.36,0.004412449329588731
0.364,0.004424157073993334
0.368,0.004435576331882834
0.372,0.004414084086507649
0.376,0.004404876558567273
0.38,0.004399900166181743
0.384,0.004408554761634838
0.388,0.004392928408733417
0.392,0.004386749989201624
0.396,0.004406895964172995
0.4,0.00441280993773261
0.404,0.004407448896660276
0.40800000000000003,0.004390957084213545
0.41200000000000003,0.0043863172594289694
0.41600000000000004,0.004399515517494939
0.42,0.0044210798844989
0.424,0.0044406248458971394
0.428,0.004440745048611766
0.432,0.004455121293281073
0.436,0.004450096819809693
0.44,0.004435143602110179
0.444,0.004409973153667429
0.448,0.0044002607743256214
0.452,0.004438677561920193
0.456,0.004423724344220679
0.46,0.0044147812622524815
0.464,0.004400885828441678
0.468,0.004380643691298607
0.47200000000000003,0.004384826745767603
0.47600000000000003,0.00439463528728111
0.48,0.004414468735194453
0.484,0.0044062949505998626
0.488,0.004404612112595094
0.492,0.004414805302795407
0.496,0.004407424856117351
0.5,0.004397544192975067
0.504,0.004395693071169822
0.508,0.004405453531597479
0.512,0.004423435857705576
0.516,0.0044418989946721785
0.52,0.004452020063243714
0.524,0.004402977355676177
0.528,0.004393793868278726
0.532,0.004406823842544219
0.536,0.0043988423822930315
0.54,0.004397231665917038
0.544,0.004399130868808134
0.548,0.004398650057949629
0.552,0.004402135936673792
0.556,0.0044059824235418345
0.56,0.00440148684201481
0.5640000000000001,0.004393601543935324
0.5680000000000001,0.004379441664152344
0.5720000000000001,0.00435316535073503
0.5760000000000001,0.004358838918865393
0.58,0.004413579235106218
0.584,0.0044544241175362405
0.588,0.004451106522612554
0.592,0.004406439193857414
0.596,0.004368022406262844
0.6,0.004389755057067282
0.604,0.0044115357889575706
0.608,0.004415069748767584
0.612,0.004405357369425778
0.616,0.00440600646408476
0.62,0.004405116963996525
0.624,0.004405044842367749
0.628,0.00440687192363007
0.632,0.004389706975981431
0.636,0.004383384313192087
0.64,0.004404251504451216
0.644,0.004405573734312105
0.648,0.0043990106660935085
0.652,0.004402760990789849
0.656,0.004409780829324026
0.66,0.004428724777149134
0.664,0.004442427886616534
0.668,0.004409540423894774
0.672,0.004385403718797809
0.676,0.004402063815045016
0.68,0.004407472937203201
0.684,0.0044052612072540765
0.6880000000000001,0.004406583437114967
0.6920000000000001,0.0044055016126833295
0.6960000000000001,0.004411704072758048
0.7000000000000001,0.004413603275649144
0.704,0.00441148770787172
0.708,0.004403674531421009
0.712,0.0043921831519027335
0.716,0.004385139272825632
0.72,0.004394418922394783
0.724,0.0044188200734639254
0.728,0.00442057503309747
0.732,0.004418771992378075
0.736,0.004428965182578386
0.74,0.0044270659796872905
0.744,0.004392519719503687
0.748,0.004405573734312105
0.752,0.0044152620731109865
0.756,0.004409804869866952
0.76,0.004395693071169822
0.764,0.004390211827382862
0.768,0.004394467003480633
0.772,0.004393144773619744
0.776,0.004398626017406704
0.78,0.0043858364485704635
0.784,0.004389298286751702
0.788,0.0044062228289710875
0.792,0.004405092923453599
0.796,0.004406174747885237
0.8,0.004410646288869336
0.804,0.004410550126697635
0.808,0.004433605007362963
0.812,0.004436177345455965
0.8160000000000001,0.004414011964878873
0.8200000000000001,0.0043937698277358005
0.8240000000000001,0.004400717544641202
0.8280000000000001,0.004408386477834362
0.8320000000000001,0.004403963017936112
0.836,0.004400092490525145
0.84,0.004389346367837553
0.844,0.0043996357202095646
0.848,0.0044033620043629805
0.852,0.004418796032921
0.856,0.004411463667328795
0.86,0.004403770693592711
0.864,0.004406487274943265
0.868,0.004419517249208758
0.872,0.004431681763928942
0.876,0.004413555194563293
0.88,0.004398866422835957
0.884,0.004398529855235003
0.888,0.004387952016347887
0.892,0.004392038908645182
0.896,0.0043923514357032106
0.9,0.004370258176754893
0.904,0.004362276716503706
0.908,0.004382110164417048
0.912,0.004394995895424989
0.916,0.004377999231576828
0.92,0.004397423990260441
0.924,0.004412136802530702
0.928,0.0044077373831753796
0.932,0.004411006897013215
0.936,0.004414420654108602
0.9400000000000001,0.004407424856117351
0.9440000000000001,0.0044101895185537565
0.9480000000000001,0.004414108127050574
0.9520000000000001,0.004407857585890005
0.9560000000000001,0.004415622681254865
0.96,0.004427017898601441
0.964,0.00440372261250686
0.968,0.004392784165475865
0.972,0.004381965921159497
0.976,0.0043809321778137105
0.98,0.0043860768539997165
0.984,0.004403097558390803
0.988,0.004394154476422605
0.992,0.004411583870043421
0.996,0.004421512614271555
1.0,0.004417569965231812
1.004,0.00442016634386774
1.008,0.004423868587478231
1.012,0.004426152439056131
1.016,0.004443269305618918
1.02,0.004433773291163439
1.024,0.004414516816280303
1.028,0.004410790532126888
1.032,0.004403025436762027
1.036,0.004407136369602248
1.04,0.004410790532126888
1.044,0.004389634854352655
1.048,0.004381364907586365
1.052,0.004396342165828804
1.056,0.004403337963820055
1.06,0.004405285247797002
1.064,0.004427210222944842
1.068,0.004430287412439276
1.072,0.00442788335814675
1.076,0.0044338934938780656
1.08,0.0044361052238271895
1.084,0.0044275467905457964
1.088,0.004422185749473463
1.092,0.00441829118151957
1.096,0.004408987491407493
1.1,0.0044274746689170206
1.104,0.00445437603645039
1.108,0.004441682629785851
1.112,0.004418940276178552
1.116,0.00441139154570002
1.12,0.0044077373831753796
1.124,0.00436540198708399
1.1280000000000001,0.004370763028156324
1.1320000000000001,0.004408410518377286
1.1360000000000001,0.004422690600874893
1.1400000000000001,0.004445360832853416
1.1440000000000001,0.00444026423775326
1.1480000000000001,0.004438821805177745
1.1520000000000001,0.004430768223297781
1.156,0.004434181980393169
1.16,0.00444341354887647
1.164,0.004438942007892371
1.168,0.004432451061302549
1.172,0.004429494074522742
1.176,0.004429421952893967
1.18,0.0044312009530704365
1.184,0.004422570398160267
1.188,0.0044173295598025596
1.192,0.0044315134801284645
1.196,0.004439783426894755
1.2,0.004429205588007639
1.204,0.004409732748238176
1.208,0.004398361571434526
1.212,0.00439276012493294
1.216,0.004416343897542623
1.22,0.004418579668034673
1.224,0.004413410951305741
1.228,0.004392928408733417
1.232,0.0043875914082040085
1.236,0.004429157506921789
1.24,0.004447163873572811
1.244,0.004426897695886814
1.248,0.004423748384763605
1.252,0.004429494074522742
1.256,0.004441947075758029
1.26,0.004463607604933691
1.264,0.004474209484363733
1.268,0.00443290783161813
1.272,0.00442062311418332
1.276,0.0044179546139186164
1.28,0.004420430789839918
1.284,0.004425623547111775
1.288,0.004412593572846283
1.292,0.0043963902469146545
1.296,0.004396991260487786
1.3,0.004409852950952802
1.304,0.004415742883969492
1.308,0.004396342165828804
1.312,0.004405934342455984
1.316,0.004433220358676158
1.32,0.0044345185479941224
1.324,0.004421969384587135
1.328,0.004423964749649932
1.332,0.00442473404702354
1.336,0.004414661059537855
1.34,0.004422882925218295
1.344,0.004430191250267575
1.348,0.004398409652520377
1.352,0.004401318558214334
1.356,0.00440874708597824
1.36,0.004400957950070454
1.364,0.004401703206901138
1.368,0.004404131301736589
1.372,0.004394274679137231
1.3760000000000001,0.004395717111712747
1.3800000000000001,0.004425479303854223
1.3840000000000001,0.004435744615683311
1.3880000000000001,0.0044302152908105
1.3920000000000001,0.004428147804118928
1.3960000000000001,0.004424493641594288
1.4000000000000001,0.004423171411733398
1.4040000000000001,0.004423507979334352
1.408,0.004419757654638011
1.412,0.004419589370837534
1.416,0.0044273063851165435
1.42,0.004434590669622898
1.424,0.004434013696592692
1.428,0.004410694369955187
1.432,0.004391606178872527
1.436,0.004377494380175397
1.44,0.00437727801528907
1.444,0.004413002262076012
1.448,0.004411247302442468
1.452,0.004426729412086337
1.456,0.004424036871278707
1.46,0.004420526952011619
1.464,0.004433244399219083
1.468,0.004427378506745319
1.472,0.004422329992731014
1.476,0.004419084519436104
1.48,0.004411319424071244
1.484,0.004403842815221486
1.488,0.004405068882910674
1.492,0.004417906532832766
1.496,0.004427979520318451
1.5,0.00444939964406486
1.504,0.004438917967349446
1.508,0.004389538692180954
1.512,0.004387375043317681
1.516,0.004412954180990161
1.52,0.004417497843603036
1.524,0.004414973586595884
1.528,0.0044002607743256214
1.532,0.004395140138682541
1.536,0.004409468302265998
1.54,0.004412473370131656
1.544,0.004410670329412262
1.548,0.0044102616401825315
1.552,0.004411559829500496
1.556,0.004412978221533087
1.56,0.004413699437820845
1.564,0.004429614277237369
1.568,0.004413410951305741
1.572,0.004405621815397956
1.576,0.004428676696063284
1.58,0.0044464907383709035
1.584,0.00444889479266343
1.588,0.004448462062890775
1.592,0.004444904062537836
1.596,0.00444889479266343
1.6,0.004452404711930518
1.604,0.004426440925571234
1.608,0.004411752153843898
1.612,0.0044184354247771215
1.616,0.004404131301736589
1.62,0.004390211827382862
1.624,0.004410862653755663
1.6280000000000001,0.004414492775737378
1.6320000000000001,0.004407761423718305
1.6360000000000001,0.004414444694651527
1.6400000000000001,0.004425214857882046
1.6440000000000001,0.004430047007010023
1.6480000000000001,0.004429085385293013
1.6520000000000001,0.0044279314392326
1.6560000000000001,0.004424205155079184
1.6600000000000001,0.004413603275649144
1.6640000000000001,0.004415911167769969
1.668,0.004422642519789043
1.672,0.004429397912351042
1.676,0.0044174738030601105
1.68,0.004423411817162651
1.684,0.004439422818750876
1.688,0.004423748384763605
1.692,0.00440778546426123
1.696,0.004413579235106218
1.7,0.004428965182578386
1.704,0.00443153752067139
1.708,0.004419324924865356
1.712,0.0043937698277358005
1.716,0.004397688436232619
1.72,0.004403987058479037
1.724,0.004409732748238176
1.728,0.004411992559273151
1.732,0.00439504397651084
1.736,0.004382206326588749
1.74,0.004417642086860588
1.744,0.004440144035038634
1.748,0.00442788335814675
1.752,0.0044238205063923805
1.756,0.004419493208665833
1.76,0.004423075249561697
1.764,0.004415718843426566
1.768,0.004410766491583963
1.772,0.0044054294910545536
1.776,0.0043996357202095646
1.78,0.0044107424510410375
1.784,0.004415454397454389
1.788,0.004410862653755663
1.792,0.004416175613742147
1.796,0.004413627316192069
1.8,0.004396991260487786
1.804,0.0043953565035688685
1.808,0.00442473404702354
1.812,0.004420430789839918
1.816,0.004408458599463137
1.82,0.0044023282610171945
1.824,0.004401679166358212
1.828,0.004423556060420202
1.832,0.0044195412897516835
1.836,0.004414060045964723
1.84,0.0044198538168097115
1.844,0.004420286546582367
1.848,0.004411583870043421
1.852,0.004406102626256461
1.856,0.004408410518377286
1.86,0.004408987491407493
1.864,0.004405165045082375
1.868,0.004406895964172995
1.872,0.004413747518906695
1.8760000000000001,0.004427017898601441
1.8800000000000001,0.004420839479069648
1.8840000000000001,0.004382879461790656
1.8880000000000001,0.00438641342160067
1.8920000000000001,0.004416391978628474
1.8960000000000001,0.004440192116124485
1.9000000000000001,0.004436297548170592
1.9040000000000001,0.0044097087076952505
1.9080000000000001,0.004409852950952802
1.9120000000000001,0.004404924639653123
1.9160000000000001,0.004400092490525145
1.92,0.004413867721621321
1.924,0.004421272208842302
1.928,0.004425383141682522
1.932,0.004422834844132444
1.936,0.0044212000872135265
1.94,0.004422041506215911
1.944,0.004429470033979817
1.948,0.0044284122500911054
1.952,0.004423844546935306
1.956,0.004422354033273939
1.96,0.004420046141153114
1.964,0.004426464966114159
1.968,0.004424397479422587
1.972,0.004418627749120523
1.976,0.004403963017936112
1.98,0.004405453531597479
1.984,0.004410670329412262
1.988,0.004407136369602248
1.992,0.0044324991423884
1.996,0.004447404279002064
2.0,0.004428869020406685
2.004,0.0044249263713669424
2.008,0.004409973153667429
2.012,0.004404612112595094
2.016,0.004413170545876489
2.02,0.004412016599816076
2.024,0.004411752153843898
2.028,0.004420142303324815
2.032,0.004419517249208758
2.036,0.004413891762164246
2.04,0.004413386910762816
2.044,0.004426320722856608
2.048,0.00443199429098697
2.052,0.004426416885028309
2.056,0.004410093356382055
2.06,0.004408650923806539
2.064,0.0044015349231006605
2.068,0.004395164179225466
2.072,0.004399443395866163
2.076,0.0044025686664464474
2.08,0.004413747518906695
2.084,0.004421969384587135
2.088,0.00442514273625327
2.092,0.00442656112828586
2.096,0.004427691033803347
2.1,0.00442240211435979
2.104,0.004425479303854223
2.108,0.004426537087742935
2.112,0.0044232675739050995
2.116,0.004429397912351042
2.12,0.004452428752473443
2.124,0.004444711738194434
2.128,0.004401006031156305
2.132,0.00439276012493294
2.136,0.004414084086507649
2.14,0.004415310154196837
2.144,0.004415598640711941
2.148,0.004426489006657084
2.152,0.004419397046494132
2.156,0.004427642952717497
2.16,0.004430143169181724
2.164,0.00443382137224929
2.168,0.004426801533715113
2.172,0.00442245019544564
2.176,0.004426464966114159
2.18,0.004430599939497305
2.184,0.004425912033626878
2.188,0.004421512614271555
2.192,0.0044214404926427794
2.196,0.004435624412968684
2.2,0.004441322021641972
2.204,0.004440985454041018
2.208,0.004449375603521935
2.212,0.004431561561214315
2.216,0.004419637451923385
2.22,0.004431176912527511
2.224,0.004443774157020349
2.228,0.004430119128638799
2.232,0.004426537087742935
2.236,0.004418459465320047
2.24,0.004433028034332757
2.244,0.0044368985617437235
2.248,0.004433244399219083
2.2520000000000002,0.004436489872513994
2.2560000000000002,0.004435985021112564
2.2600000000000002,0.004432811669446429
2.2640000000000002,0.004430455696239753
2.2680000000000002,0.0044230271684758465
2.2720000000000002,0.004425335060596672
2.2760000000000002,0.004433220358676158
2.2800000000000002,0.0044374514942310045
2.2840000000000003,0.004436778359029097
2.2880000000000003,0.004434085818221468
2.2920000000000003,0.004432691466731802
2.2960000000000003,0.004419324924865356
2.3000000000000003,0.004404732315309721
2.3040000000000003,0.004433460764105411
2.308,0.004451899860529088
2.312,0.004436297548170592
2.316,0.004426801533715113
2.32,0.004416319856999698
2.324,0.0044171612760020825
2.328,0.004432691466731802
2.332,0.004442307683901908
2.336,0.004431826007186493
2.34,0.004425479303854223
2.344,0.00442696981751559
2.348,0.004432715507274728
2.352,0.004434903196680926
2.356,0.004436537953599845
2.36,0.00443158560175724
2.364,0.004415983289398745
2.368,0.0044110549780990655
2.372,0.004433220358676158
2.376,0.004455866550111757
2.38,0.0044288930609496105
2.384,0.00440235230156012
2.388,0.00441103093755614
2.392,0.004407617180460753
2.396,0.004402736950246924
2.4,0.004428436290634031
2.404,0.004439735345808904
2.408,0.004434013696592692
2.412,0.004433220358676158
2.416,0.004435119561567254
2.42,0.0044313451963279874
2.424,0.004429518115065667
2.428,0.0044299268042953975
2.432,0.004430335493525127
2.436,0.004431465399042614
2.44,0.004420791397983797
2.444,0.0044149495460529585
2.448,0.004426368803942459
2.452,0.004434350264193645
2.456,0.004438268872690464
2.46,0.004431224993613362
2.464,0.004417185316545008
2.468,0.0044070161668876215
2.472,0.0044142283297652005
2.476,0.004416848748944054
2.48,0.004416656424600652
2.484,0.004413963883793022
2.488,0.004422089587301762
2.492,0.004426897695886814
2.496,0.0044262005201419815
2.5,0.004425863952541027
2.504,0.004420310587125292
2.508,0.004419757654638011
2.512,0.004404852518024347
2.516,0.004379802272296222
2.52,0.004410045275296205
2.524,0.004435071480481403
2.528,0.00443062398004023
2.532,0.0044472119546586615
2.536,0.00444574548154022
2.54,0.004433388642476635
2.544,0.004417209357087933
2.548,0.004430431655696828
2.552,0.00444204323792973
2.556,0.004425936074169803
2.56,0.004413627316192069
2.564,0.004413579235106218
2.568,0.004421176046670601
2.572,0.0044238205063923805
2.576,0.004416848748944054
2.58,0.0044150216676817336
2.584,0.0044155024785402395
2.588,0.004415189951482211
2.592,0.004409420221180148
2.596,0.004406174747885237
2.6,0.004401318558214334
2.604,0.004405790099198432
2.608,0.004422642519789043
2.612,0.004449904495466291
2.616,0.004455409779796176
2.62,0.004436634115771546
2.624,0.004412136802530702
2.628,0.004423556060420202
2.632,0.004431801966643568
2.636,0.00443386945333514
2.64,0.004424806168652316
2.644,0.004416776627315279
2.648,0.004411631951129272
2.652,0.004415189951482211
2.656,0.004414156208136425
2.66,0.004409540423894774
2.664,0.004406246869514012
2.668,0.004415911167769969
2.672,0.004413218626962339
2.676,0.004418074816633242
2.68,0.004421849181872509
2.684,0.004414036005421798
2.688,0.004411199221356617
2.692,0.004433148237047382
2.696,0.004437667859117332
2.7,0.004436465831971069
2.704,0.004425479303854223
2.708,0.004428724777149134
2.712,0.004429325790722266
2.716,0.004424397479422587
2.72,0.00442975852049492
2.724,0.004439711305265979
2.728,0.004433436723562486
2.732,0.004428292047376479
2.736,0.004423051209018772
2.74,0.004418940276178552
2.744,0.004415069748767584
2.748,0.0044126416539321325
2.7520000000000002,0.004416343897542623
2.7560000000000002,0.0044221617089305375
2.7600000000000002,0.004426489006657084
2.7640000000000002,0.004420358668211143
2.7680000000000002,0.004419757654638011
2.7720000000000002,0.004460698699239735
2.7760000000000002,0.004479666687607768
2.7800000000000002,0.0044762288899694545
2.7840000000000003,0.004453823103963109
2.7880000000000003,0.0044438222381062
2.7920000000000003,0.004443677994848648
2.7960000000000003,0.0044587033341769375
2.8000000000000003,0.0044549770500235215
2.8040000000000003,0.004430383574610977
2.8080000000000003,0.004427691033803347
2.8120000000000003,0.004432763588360578
2.816,0.004430022966467099
2.82,0.004424806168652316
2.824,0.004420550992554544
2.828,0.004416824708401128
2.832,0.004421392411556929
2.836,0.004427715074346273
2.84,0.004435528250796983
2.844,0.004441874954129253
2.848,0.004444735778737359
2.852,0.0044475966033454654
2.856,0.004455049171652297
2.86,0.004445408913939267
2.864,0.004452981684960724
2.868,0.004452981684960724
2.872,0.004454592401336718
2.876,0.00444564931936852
2.88,0.004442427886616534
2.884,0.004443437589419395
2.888,0.004441057575669794
2.892,0.004441826873043403
2.896,0.004436297548170592
2.9,0.004433556926277112
2.904,0.0044334126830195605
2.908,0.004431369236870913
2.912,0.004425863952541027
2.916,0.004437595737488556
2.92,0.004450577630668198
2.924,0.004460049604580752
2.928,0.0044631508346181115
2.932,0.00443651391305692
2.936,0.004432186615330372
2.94,0.004448293779090298
2.944,0.004442235562273132
2.948,0.004441874954129253
2.952,0.004454496239165016
2.956,0.004447740846603017
2.96,0.0044384131159480155
2.964,0.004447548522259615
2.968,0.00444524063013879
2.972,0.004436754318486172
2.976,0.004437667859117332
2.98,0.0044335809668200376
2.984,0.004424084952364558
2.988,0.004433508845191262
2.992,0.004442019197386805
2.996,0.0044296863988661445
3.0,0.004441442224356599
3.004,0.00445793403680333
3.008,0.00445935242883592
3.012,0.004458294644947208
3.016,0.004438196751061688
3.02,0.00443834099431924
3.024,0.004431489439585539
3.028,0.004431970250444044
3.032,0.004451779657814461
3.036,0.004470170673152288
3.04,0.004451034400983779
3.044,0.0044432452650759935
3.048,0.0044407931296976165
3.052,0.004444807900366135
3.056,0.004452140265958341
3.06,0.004448413981804925
3.064,0.004442163440644356
3.068,0.00443834099431924
3.072,0.004441370102727823
3.076,0.004447692765517167
3.08,0.004443750116477424
3.084,0.00442610435797028
3.088,0.004418315222062495
3.092,0.004436297548170592
3.096,0.004435888858940863
3.1,0.004442596170417011
3.104,0.004447716806060092
3.108,0.004448149535832746
3.112,0.004445961846426548
3.116,0.004436874521200798
3.12,0.004431128831441661
3.124,0.004437643818574407
3.128,0.004438773724091894
3.132,0.0044414903054424484
3.136,0.00444067292698299
3.14,0.004430071047552948
3.144,0.00442925366909349
3.148,0.004438316953776314
3.152,0.004446851346514783
3.156,0.004451010360440853
3.16,0.004432186615330372
3.164,0.004421392411556929
3.168,0.004427450628374095
3.172,0.004439999791781083
3.176,0.004443341427247694
3.18,0.004450481468496497
3.184,0.004457188779972646
3.188,0.0044483178196332235
3.192,0.004438797764634819
3.196,0.0044411056567556445
3.2,0.004437860183460734
3.204,0.004434494507451197
3.208,0.004431321155785062
3.212,0.00443838907540509
3.216,0.0044422115217302065
3.22,0.004434374304736571
3.224,0.00442696981751559
3.228,0.004436129264370115
3.232,0.004432739547817653
3.236,0.0044581504016896565
3.24,0.004480484066067226
3.244,0.004464328821221449
3.248,0.004442235562273132
3.2520000000000002,0.004440408481010812
3.2560000000000002,0.004432186615330372
3.2600000000000002,0.004429806601580771
3.2640000000000002,0.004431826007186493
3.2680000000000002,0.004434181980393169
3.2720000000000002,0.004428556493348657
3.2760000000000002,0.004424589803765989
3.2800000000000002,0.004428869020406685
3.2840000000000003,0.0044361052238271895
3.2880000000000003,0.004426681331000487
3.2920000000000003,0.004410117396924981
3.2960000000000003,0.004413410951305741
3.3000000000000003,0.004420911600698424
3.3040000000000003,0.004440648886440065
3.3080000000000003,0.004447644684431316
3.3120000000000003,0.00444894287374928
3.3160000000000003,0.004458823536891564
3.3200000000000003,0.004449447725150711
3.3240000000000003,0.004428219925747704
3.3280000000000003,0.004428268006833554
3.332,0.004440312318839111
3.336,0.004441850913586328
3.34,0.004423291614448025
3.344,0.0044179546139186164
3.348,0.004436946642829574
3.352,0.004442836575846263
3.356,0.0044437260759344985
3.36,0.004445168508510014
3.364,0.004449856414380441
3.368,0.004448510143976626
3.372,0.004445168508510014
3.376,0.004449327522436084
3.38,0.004447957211489345
3.384,0.0044472119546586615
3.388,0.004444447292222257
3.392,0.004434975318309702
3.396,0.00443834099431924
3.4,0.004459953442409051
3.404,0.004457909996260404
3.408,0.004434302183107795
3.412,0.004435624412968684
3.416,0.004462742145388382
3.42,0.004460193847838304
3.424,0.004440913332412242
3.428,0.004424012830735783
3.432,0.00442245019544564
3.436,0.004428123763576003
3.44,0.004443942440820825
3.444,0.004445408913939267
3.448,0.004442572129874086
3.452,0.004434879156138001
3.456,0.004426777493172188
3.46,0.004446586900542605
3.464,0.004461612239870895
3.468,0.004435215723738955
3.472,0.004449231360264384
3.476,0.004471012092154673
3.48,0.004479306079463888
3.484,0.0044664684295417974
3.488,0.004451034400983779
3.492,0.0044395189809225775
3.496,0.004447692765517167
3.5,0.004460145766752454
3.504,0.004470290875866915
3.508,0.004447500441173764
3.512,0.004439110291692847
3.516,0.004441874954129253
3.52,0.004444519413851032
3.524,0.004449904495466291
3.528,0.004447885089860569
3.532,0.004455025131109372
3.536,0.004448125495289821
3.54,0.004433629047905888
3.544,0.004426657290457561
3.548,0.004424637884851839
3.552,0.004440360399924961
3.556,0.004463198915703962
3.56,0.00445168349564276
3.564,0.004440432521553737
3.568,0.004437595737488556
3.572,0.004443365467790619
3.576,0.004448101454746896
3.58,0.004454207752649913
3.584,0.0044494236846077855
3.588,0.004455818469025906
3.592,0.004466588632256424
3.596,0.004452332590301742
3.6,0.0044376197780314815
3.604,0.0044259601147127285
3.608,0.004433003993789831
3.612,0.004435840777855012
3.616,0.004448774589948803
3.62,0.004450962279355003
3.624,0.004439615143094279
3.628,0.004431104790898735
3.632,0.004434951277766777
3.636,0.00445569826631128
3.64,0.004470747646182494
3.644,0.0044625979021308305
3.648,0.004453198049847052
3.652,0.004456756050199992
3.656,0.00445254895518807
3.66,0.004451370968584732
3.664,0.004453582698533856
3.668,0.004444086684078377
3.672,0.004443581832676947
3.676,0.0044466590221713806
3.68,0.004436297548170592
3.684,0.004428051641947227
3.688,0.004425311020053746
3.692,0.004426320722856608
3.696,0.0044499766170950665
3.7,0.004451827738900312
3.704,0.004425719709283476
3.708,0.0044131224647906385
3.712,0.004418627749120523
3.716,0.00444295677856089
3.72,0.004459520712636397
3.724,0.004464713469908253
3.728,0.004469112889263577
3.732,0.004459833239694426
3.736,0.0044567320096570665
3.74,0.004457909996260404
3.744,0.004447476400630839
3.748,0.004434590669622898
3.7520000000000002,0.0044368985617437235
3.7560000000000002,0.004434061777678543
3.7600000000000002,0.004422931006304145
3.7640000000000002,0.00442925366909349
3.7680000000000002,0.004448606306148327
3.7720000000000002,0.00445569826631128
3.7760000000000002,0.004437042805001275
3.7800000000000002,0.004429662358323219
3.7840000000000003,0.004426320722856608
3.7880000000000003,0.004428917101492536
3.7920000000000003,0.004443365467790619
3.7960000000000003,0.004458823536891564
3.8000000000000003,0.004451659455099836
3.8040000000000003,0.004445264670681715
3.8080000000000003,0.004449255400807309
3.8120000000000003,0.004458967780149116
3.8160000000000003,0.004459136063949593
3.8200000000000003,0.00445209218487249
3.8240000000000003,0.004445072346338313
3.8280000000000003,0.004436778359029097
3.8320000000000003,0.004440528683725438
3.8360000000000003,0.004442403846073609
3.84,0.004435864818397937
3.844,0.004430912466555333
3.848,0.004433436723562486
3.852,0.004432523182931325
3.856,0.004432138534244521
3.86,0.004418916235635627
3.864,0.004421416452099854
3.868,0.004435576331882834
3.872,0.00444346162996232
3.876,0.004451539252385209
3.88,0.004459929401866126
3.884,0.004465314483481385
3.888,0.004480628309324778
3.892,0.0044778876874312975
3.896,0.004438196751061688
3.9,0.004418651789663448
3.904,0.004427090020230216
3.908,0.004437836142917809
3.912,0.0044435577921340215
3.916,0.004438100588889987
3.92,0.004439374737665026
3.924,0.004443677994848648
3.928,0.004420478870925768
3.932,0.004408771126521166
3.936,0.00442656112828586
3.94,0.004430503777325604
3.944,0.0044149495460529585
3.948,0.004426489006657084
3.952,0.004439014129521147
3.956,0.004450842076640376
3.96,0.00445026510361017
3.964,0.0044499766170950665
3.968,0.004450313184696021
3.972,0.004474137362734957
3.976,0.0044879606749169835
3.98,0.004463559523847841
3.984,0.0044384852375767905
3.988,0.004438869886263595
3.992,0.004454327955364539
3.996,0.004455385739253251
4.0,0.004452741279531472
4.0040000000000004,0.004448053373661046
4.008,0.004448798630491729
4.0120000000000005,0.0044596649558939485
4.016,0.004454327955364539
4.0200000000000005,0.004433003993789831
4.024,0.0044304797367826785
4.0280000000000005,0.004433508845191262
4.032,0.004440119994495709
4.0360000000000005,0.00444615417076995
4.04,0.004460121726209528
4.0440000000000005,0.00446670883497105
4.048,0.004471925632785832
4.0520000000000005,0.00446351144276199
4.056,0.004448774589948803
4.0600000000000005,0.004442475967702385
4.064,0.004449712171122889
4.0680000000000005,0.004451563292928134
4.072,0.004445481035568043
4.0760000000000005,0.004437836142917809
4.08,0.004450289144153095
4.0840000000000005,0.004471084213783449
4.088,0.004476685660285034
4.0920000000000005,0.004480604268781853
4.096,0.004474906660108565
4.1,0.004478969511862935
4.104,0.0044502170225243195
4.108,0.004424782128109391
4.112,0.004448053373661046
4.116,0.0044557703879400555
4.12,0.004453943306677735
4.124,0.00446351144276199
4.128,0.004464641348279478
4.132,0.004463030631903485
4.136,0.004457909996260404
4.14,0.004462766185931308
4.144,0.0044721900787580105
4.148,0.004470194713695213
4.152,0.004458318685490134
4.156,0.004459833239694426
4.16,0.004460698699239735
4.164,0.004458270604404283
4.168,0.004460145766752454
4.172,0.0044496640900370385
4.176,0.00443473491288045
4.18,0.0044448319409090605
4.184,0.00444843802234785
4.188,0.004447837008774718
4.192,0.004436778359029097
4.196,0.004438629480834342
4.2,0.004453029766046575
4.204,0.004455361698710325
4.208,0.00445610695554101
4.212,0.00445569826631128
4.216,0.004457308982687273
4.22,0.004458174442232582
4.224,0.004460939104668988
4.228,0.004461996888557699
4.232,0.004463102753532261
4.236,0.004453294212018753
4.24,0.004439591102551353
4.244,0.004444158805707153
4.248,0.004448462062890775
4.252,0.004445793562626071
4.256,0.004438893926806521
4.26,0.004442067278472655
4.264,0.0044373793726022286
4.268,0.004462333456158652
4.272,0.004466228024112545
4.276,0.004446586900542605
4.28,0.004448269738547373
4.284,0.004445553157196819
4.288,0.004444639616565658
4.292,0.004449688130579964
4.296,0.0044505295495823475
4.3,0.004453438455276305
4.304,0.004449039035920982
4.308,0.0044533903741904544
4.312,0.004464569226650702
4.316,0.004464016294163421
4.32,0.0044536307796197066
4.324,0.004463078712989336
4.328,0.004457140698886796
4.332,0.004412449329588731
4.336,0.0044147091406237056
4.34,0.004446058008598249
4.344,0.004441706670328776
4.348,0.004460698699239735
4.352,0.0044660837808549935
4.356,0.0044644971050219265
4.36,0.00446117951009824
4.364,0.004450986319897928
4.368,0.004443341427247694
4.372,0.004442668292045786
4.376,0.004449159238635608
4.38,0.004459063942320817
4.384,0.00445437603645039
4.388,0.004451298846955956
4.392,0.0044475244817166895
4.396,0.004448462062890775
4.4,0.004465146199680909
4.404,0.004468872483834324
4.408,0.004467886821574388
4.412,0.004457020496172169
4.416,0.004450890157726227
4.42,0.004447091751944035
4.424,0.004442740413674562
4.428,0.004455866550111757
4.432,0.004459544753179322
4.436,0.004463727807648318
4.44,0.004460434253267557
4.444,0.004459304347750069
4.448,0.004456467563684888
4.452,0.004443629913762797
4.456,0.004448798630491729
4.46,0.00445341441473338
4.464,0.004445048305795388
4.468,0.004455650185225429
4.472,0.0044537029012484824
4.476,0.0044502170225243195
4.48,0.004461540118242119
4.484,0.004462381537244503
4.488,0.0044510824820696284
4.492,0.004444567494936882
4.496,0.004453534617448005
4.5,0.0044660837808549935
4.5040000000000004,0.004466925199857378
4.508,0.004454544320250867
4.5120000000000005,0.004446274373484576
4.516,0.004450120860352618
4.5200000000000005,0.004435456129168207
4.524,0.00444204323792973
4.5280000000000005,0.0044591841450354434
4.532,0.004464953875337506
4.5360000000000005,0.004460915064126062
4.54,0.00445569826631128
4.5440000000000005,0.004443365467790619
4.548,0.0044366581563144705
4.5520000000000005,0.0044413460621848975
4.556,0.004453582698533856
4.5600000000000005,0.004453174009304127
4.564,0.00444295677856089
4.5680000000000005,0.004445769522083145
4.572,0.0044618766858430725
4.5760000000000005,0.004468800362205549
4.58,0.0044536307796197066
4.5840000000000005,0.004450601671211123
4.588,0.004436994723915425
4.5920000000000005,0.004435840777855012
4.596,0.004452500874102219
4.6000000000000005,0.004464953875337506
4.604,0.004462934469731784
4.6080000000000005,0.004452957644417799
4.612,0.0044610112262977635
4.616,0.004458991820692041
4.62,0.004453558657990931
4.624,0.004457188779972646
4.628,0.004463631645476617
4.632,0.0044631508346181115
4.636,0.004460314050552931
4.64,0.00446803106483194
4.644,0.004467694497230986
4.648,0.004464136496878047
4.652,0.00445985728023735
4.656,0.004460121726209528
4.66,0.004461780523671371
4.664,0.004447837008774718
4.668,0.004444928103080762
4.672,0.00446711752420078
4.676,0.004474377768164209
4.68,0.004463439321133215
4.684,0.00444939964406486
4.688,0.0044629104291888586
4.692,0.00446757429451636
4.696,0.004451419049670583
4.7,0.004454015428306511
4.704,0.0044553376581674
4.708,0.0044564916042278135
4.712,0.004462309415615727
4.716,0.004464160537420972
4.72,0.004467718537773911
4.724,0.004488802093919367
4.728,0.004492287972643531
4.732,0.004484210350220642
4.736,0.004470964011068822
4.74,0.004470459159667392
4.744,0.004468848443291399
4.748,0.004457645550288226
4.752,0.004483657417733361
4.756,0.004485628742253233
4.76,0.004469930267723036
4.764,0.0044744018087071345
4.768,0.004498298108374847
4.772,0.00449361020250442
4.776,0.004488946337176919
4.78,0.004494451621506804
4.784,0.004496182540597423
4.788,0.004471516943556103
4.792,0.004464232659049748
4.796,0.004490605134638762
4.8,0.004495052635079936
4.804,0.004490484931924136
4.808,0.004490220485951958
4.812,0.004490629175181687
4.816,0.004487479864058478
4.82,0.004475026862823191
4.824,0.0044754355520529214
4.828,0.004476853944085511
4.832,0.004488922296633994
4.836,0.00449776921643049
4.84,0.004505534311795352
4.844,0.004512722434130006
4.848,0.004518396002260367
4.852,0.004491350391469445
4.856,0.00447630101159823
4.86,0.004482840039273902
4.864,0.004490508972467061
4.868,0.004490244526494883
4.872,0.004489090580434471
4.876,0.0044799551741228705
4.88,0.004494427580963879
4.884,0.004491109986040192
4.888,0.0044820947824432186
4.892,0.004496687391998854
4.896,0.004501976311442411
4.9,0.004484114188048941
4.904,0.004464160537420972
4.908,0.0044820947824432186
4.912,0.00449817790566022
4.916,0.00448630187745514
4.92,0.004484450755649895
4.924,0.004476325052141156
4.928,0.004487191377543375
4.932,0.004505774717224604
4.936,0.004503058135874049
4.94,0.004493465959246869
4.944,0.0044954132432238145
4.948,0.004494307378249253
4.952,0.004489018458805695
4.956,0.0044895473507500505
4.96,0.004496134459511573
4.964,0.004506015122653857
4.968,0.004510775150153059
4.972,0.004508419176946383
4.976,0.004486518242341467
4.98,0.004487047134285823
4.984,0.004497144162314433
4.988,0.004489571391292976
4.992,0.0044731276599320954
4.996,0.0044656029699964885
5.0,0.004473680592419376
5.0040000000000004,0.004513275366617287
5.008,0.004515655380366888
5.0120000000000005,0.0045002453923517925
5.016,0.004506544014598213
5.0200000000000005,0.0045194537861490795
5.024,0.004508731704004411
5.0280000000000005,0.004498442351632398
5.032,0.0044993799328064835
5.0360000000000005,0.004497817297516341
5.04,0.004502841770987721
5.0440000000000005,0.004508563420203935
5.048,0.004513635974761165
5.0520000000000005,0.004507962406630804
5.056,0.004504620771164191
5.0600000000000005,0.004500990649182476
5.064,0.004496086378425722
5.0680000000000005,0.004489330985863723
5.072,0.004481902458099817
5.0760000000000005,0.0044847873232508485
5.08,0.004498514473261174
5.0840000000000005,0.004507120987628419
5.088,0.004498514473261174
5.0920000000000005,0.004477551119830344
5.096,0.004497456689372462
5.1000000000000005,0.004507818163373252
5.104,0.004499452054435259
5.1080000000000005,0.004505750676681679
5.112,0.00452274734052984
5.1160000000000005,0.004511448285354967
5.12,0.004504668852250041
5.124,0.004507625839029849
5.128,0.004506664217312839
5.132,0.00450228883850044
5.136,0.004505101582022697
5.14,0.004513587893675315
5.144,0.0044965191081983765
5.148,0.004481109120183283
5.152,0.004481902458099817
5.156,0.004485003688137176
5.16,0.004493225553817616
5.164,0.004489667553464677
5.168,0.004483224687960707
5.172,0.004477935768517148
5.176,0.004482311147329546
5.18,0.004496230621683274
5.184,0.004498394270546547
5.188,0.004512674353044155
5.192,0.004515967907424916
5.196,0.004503490865646703
5.2,0.004492456256444007
5.204,0.004490436850838286
5.208,0.004493754445761972
5.212,0.0044967595136276295
5.216,0.004500125189637166
5.22,0.004499211649006006
5.224,0.004501014689725401
5.228,0.00450457269007834
5.232,0.004497649013715865
5.236,0.004486157634197589
5.24,0.004505462190166576
5.244,0.004513251326074361
5.248,0.004497961540773893
5.252,0.004483969944791389
5.256,0.004482503471672949
5.26,0.0045051737036514725
5.264,0.004518371961717442
5.268,0.004510150096037002
5.272,0.0045125541503295286
5.276,0.0045085874607468605
5.28,0.004497336486657836
5.284,0.004496543148741302
5.288,0.004504164000848611
5.292,0.004508515339118085
5.296,0.004525295638079918
5.3,0.004533253057788181
5.304,0.004522362691843036
5.308,0.0044993799328064835
5.312,0.004519934597007585
5.316,0.004528012219430473
5.32,0.004498370230003622
5.324,0.0044754355520529214
5.328,0.004490148364323182
5.332,0.004495124756708712
5.336,0.004495124756708712
5.34,0.0044827198365592754
5.344,0.004470266835323989
5.348,0.004488970377719844
5.352,0.004515607299281037
5.356,0.0045293584898342875
5.36,0.004534935895792949
5.364,0.004520126921350986
5.368,0.004517794988687236
5.372,0.004525247556994068
5.376,0.004519838434835883
5.38,0.004526209178711078
5.384,0.004541282599125218
5.388,0.004523011786502018
5.392,0.004487191377543375
5.396,0.004481181241812059
5.4,0.004494884351279459
5.404,0.004481373566155461
5.408,0.004478224255032252
5.412,0.004499884784207914
5.416,0.0045051737036514725
5.42,0.004501928230356561
5.424,0.00451777094814431
5.428,0.0045242859352770575
5.432,0.004504476527906639
5.436,0.004502385000672141
5.44,0.00450406783867691
5.444,0.004508154730974205
5.448,0.004515583258738112
5.452,0.0045184921644320685
5.456,0.004514910123536204
5.46,0.0045120733394710235
5.464,0.004515030326250831
5.468,0.004516376596654646
5.472,0.004515775583081514
5.476,0.004523733002789776
5.48,0.004504668852250041
5.484,0.004475050903366117
5.488,0.004494042932277075
5.492,0.004513323447703137
5.496,0.004497096081228584
5.5,0.004487624107316029
5.5040000000000004,0.00449041281029536
5.508,0.0045012070140688035
5.5120000000000005,0.0045093807986633936
5.516,0.004507072906542568
5.5200000000000005,0.004502817730444796
5.524,0.004500606000495672
5.5280000000000005,0.004503779352161806
5.532,0.0044999328652937645
5.5360000000000005,0.004508707663461486
5.54,0.004508226852602981
5.5440000000000005,0.004503635108904255
5.548,0.004505918960482156
5.5520000000000005,0.004530127787207896
5.556,0.004541739369440798
5.5600000000000005,0.004528661314089455
5.564,0.00449411505390585
5.5680000000000005,0.004484979647594251
5.572,0.0045045246089924895
5.5760000000000005,0.004499211649006006
5.58,0.004492552418615708
5.5840000000000005,0.004491134026583118
5.588,0.004497048000142733
5.5920000000000005,0.004503827433247657
5.596,0.004504019757591059
5.6000000000000005,0.004497072040685658
5.604,0.004498778919233352
5.6080000000000005,0.004507914325544953
5.612,0.004507505636315223
5.6160000000000005,0.004505798757767529
5.62,0.004490196445409033
5.6240000000000006,0.004500581959952747
5.628,0.004505870879396305
5.632,0.004492864945673737
5.636,0.0045057266361387535
5.64,0.004535152260679276
5.644,0.0045354647877373045
5.648,0.004524622502878011
5.652,0.004504019757591059
5.656,0.004497504770458313
5.66,0.0045053900685378
5.664,0.004518323880631591
5.668,0.004513395569331913
5.672,0.0045090682716053656
5.676,0.004510510704180881
5.68,0.004510102014951152
5.684,0.00450813069043128
5.688,0.004502505203386768
5.692,0.004503274500760376
5.696,0.004507914325544953
5.7,0.004511712731327144
5.704,0.004506976744370867
5.708,0.004499163567920156
5.712,0.004495317081052113
5.716,0.004502529243929692
5.72,0.004507962406630804
5.724,0.004495870013539395
5.728,0.004521689556641129
5.732,0.004527098678799313
5.736,0.004527892016715847
5.74,0.004530103746664971
5.744,0.004507962406630804
5.748,0.004506015122653857
5.752,0.004513780218018717
5.756,0.004515631339823962
5.76,0.00451493416407913
5.764,0.004510462623095031
5.768,0.004506928663285017
5.772,0.004509717366264348
5.776,0.0045055823928812026
5.78,0.0045013512573263545
5.784,0.004501327216783429
5.788,0.0044956536486530675
5.792,0.00448538833682398
5.796,0.004488225120889161
5.8,0.004506015122653857
5.804,0.0045002453923517925
5.808,0.004490268567037809
5.812,0.004496278702769124
5.816,0.004525055232650665
5.82,0.004530175868293747
5.824,0.0045251513948223665
5.828,0.0045046928927929665
5.832,0.004508827866176113
5.836,0.004513876380190418
5.84,0.004512530109786603
5.844,0.004509332717577543
5.848,0.004507746041744476
5.852,0.004511544447526668
5.856,0.004506616136226989
5.86,0.004501327216783429
5.864,0.004501399338412205
5.868,0.004508827866176113
5.872,0.00450635169025481
5.876,0.004487840472202357
5.88,0.00448671056668487
5.884,0.004489643512921752
5.888,0.004487263499172151
5.892,0.00447666161974211
5.896,0.00448406610696309
5.9,0.004510703028524283
5.904,0.004519069137462275
5.908,0.004512001217842248
5.912,0.004512313744900276
5.916,0.00450178398709901
5.92,0.004492672621330335
5.924,0.004520631772752417
5.928,0.004525487962423321
5.932,0.004519501867234929
5.936,0.004507890285002028
5.94,0.004504620771164191
5.944,0.004503322581846226
5.948,0.004513010920645108
5.952,0.004531450017068786
5.956,0.004532411638785796
5.96,0.004519069137462275
5.964,0.004514285069420147
5.968,0.004503010054788198
5.972,0.004492336053729381
5.976,0.004499403973349409
5.98,0.0045096933257214224
5.984,0.004530079706122046
5.988,0.004528300705945576
5.992,0.00450635169025481
5.996,0.004497817297516341
6.0,0.00450406783867691
6.0040000000000004,0.004521304907954324
6.008,0.00451863640768962
6.0120000000000005,0.004499476094978185
6.016,0.004496014256796946
6.0200000000000005,0.004511400204269116
6.024,0.0045282526248597256
6.0280000000000005,0.004530945165667355
6.032,0.004524935029936039
6.0360000000000005,0.004523757043332701
6.04,0.004519718232121257
6.0440000000000005,0.004529070003319185
6.048,0.004537436112257176
6.0520000000000005,0.004520487529494866
6.056,0.0045090682716053656
6.0600000000000005,0.004525343719165769
6.064,0.004513299407160212
6.0680000000000005,0.00450817877151713
6.072,0.00451863640768962
6.0760000000000005,0.004532147192813618
6.08,0.004537243787913774
6.0840000000000005,0.004522843502701541
6.088,0.00450630360916896
6.0920000000000005,0.004493129391645915
6.096,0.004500149230180091
6.1000000000000005,0.0045098616095218995
6.104,0.004524021489304879
6.1080000000000005,0.004540080571978955
6.112,0.004531113449467832
6.1160000000000005,0.004509260595948768
6.12,0.004508707663461486
6.1240000000000006,0.004513996582905045
6.128,0.004513852339647493
6.132000000000001,0.004507914325544953
6.136,0.0045044524873637136
6.140000000000001,0.004499115486834305
6.144,0.004502264797957515
6.148,0.004509549082463871
6.152,0.004513010920645108
6.156,0.0045203192456943885
6.16,0.004528348787031427
6.164,0.004511304042097415
6.168,0.004510438582552106
6.172,0.00451767478597261
6.176,0.0045053900685378
6.18,0.004504284203563237
6.184,0.004522410772928887
6.188,0.004535272463393902
6.192,0.004496615270370078
6.196,0.004490124323780257
6.2,0.004499115486834305
6.204,0.004508755744547337
6.208,0.004524742705592637
6.212,0.004529021922233334
6.216,0.0045212808674114
6.22,0.004505197744194398
6.224,0.0044831285257890055
6.228,0.004489282904777873
6.232,0.004516424677740496
6.236,0.004532940530730152
6.24,0.004539551680034599
6.244,0.004539239152976571
6.248,0.004526641908483733
6.252,0.004500101149094242
6.256,0.0044948603107365336
6.26,0.00449630274331205
6.264,0.004500221351808867
6.268,0.00450671229839869
6.272,0.004515366893851784
6.276,0.0045187325698613215
6.28,0.004522723299986915
6.284,0.004518972975290574
6.288,0.004517169934571179
6.292,0.004511568488069593
6.296,0.004504308244106163
6.3,0.0045144533532206245
6.304,0.004508707663461486
6.308,0.0045221463269567086
6.312,0.004532940530730152
6.316,0.00449219181047183
6.32,0.004490917661696791
6.324,0.004501615703298533
6.328,0.004513443650417764
6.332,0.004510751109610134
6.336,0.0045046928927929665
6.34,0.0045044524873637136
6.344,0.004520800056552894
6.348,0.004532435679328721
6.352,0.004522338651300111
6.356,0.004523877246047327
6.36,0.00452589665165305
6.364,0.0045195980294066304
6.368,0.004507072906542568
6.372,0.004512482028700753
6.376,0.004529454652005989
6.38,0.004517506502172133
6.384,0.004491470594184072
6.388,0.004486157634197589
6.392,0.004479065674034636
6.396,0.00449223989155768
6.4,0.004503490865646703
6.404,0.004511352123183265
6.408,0.004519646110492481
6.412,0.004524646543420936
6.416,0.0045253196786228436
6.42,0.004529791219606942
6.424,0.004524165732562431
6.428,0.004518804691490097
6.432,0.004519694191578332
6.436,0.004520848137638744
6.44,0.004517746907601385
6.444,0.004532676084757974
6.448,0.004521328948497249
6.452,0.004495797891910619
6.456,0.004503274500760376
6.46,0.004499403973349409
6.464,0.004497336486657836
6.468,0.004488561688490115
6.472,0.004487311580258001
6.476,0.00448904249934862
6.48,0.0044969999190568825
6.484,0.004510799190695984
6.488,0.004513924461276269
6.492,0.004518035394116489
6.496,0.004523300273017121
6.5,0.0045257043273096475
6.5040000000000004,0.004512506069243678
6.508,0.004518035394116489
6.5120000000000005,0.004533180936159405
6.516,0.004537195706827923
6.5200000000000005,0.0045283247464885015
6.524,0.004509981812236525
6.5280000000000005,0.004509645244635572
6.532,0.004516929529141927
6.5360000000000005,0.004509116352691216
6.54,0.004507096947085494
6.5440000000000005,0.004516881448056076
6.548,0.0045045246089924895
6.5520000000000005,0.004489643512921752
6.556,0.004478897390234159
6.5600000000000005,0.00448259963384465
6.564,0.00448675864777072
6.5680000000000005,0.004487191377543375
6.572,0.004496398905483751
6.5760000000000005,0.004509717366264348
6.58,0.004503370662932077
6.5840000000000005,0.004504404406277863
6.588,0.004507746041744476
6.5920000000000005,0.004510390501466255
6.596,0.00451361193421824
6.6000000000000005,0.0045104145420091805
6.604,0.004513467690960689
6.6080000000000005,0.004531185571096608
6.612,0.004531185571096608
6.6160000000000005,0.004521016421439221
6.62,0.004499980946379615
6.6240000000000006,0.004502986014245273
6.628,0.004507722001201551
6.632000000000001,0.004502505203386768
6.636,0.0045020724736141125
6.640000000000001,0.004510198177122853
6.644,0.004509645244635572
6.648000000000001,0.004493946770105374
6.652,0.0045150062857079055
6.656000000000001,0.004522098245870858
6.66,0.004512145461099799
6.664,0.0045151745695083826
6.668,0.004512169501642725
6.672,0.004521954002613306
6.676,0.0045317385035838886
6.68,0.00453096920621028
6.684,0.004535344585022678
6.688,0.0045410181531530406
6.692,0.004541595126183247
6.696,0.004529863341235718
6.7,0.004518396002260367
6.704,0.004509332717577543
6.708,0.0045152466911371585
6.712,0.0045057266361387535
6.716,0.00449086958061094
6.72,0.004476877984628437
6.724,0.004484186309677717
6.728,0.004520800056552894
6.732,0.0045554424789081985
6.736,0.00455015355946464
6.74,0.004535152260679276
6.744,0.004520247124065613
6.748,0.004514357191048923
6.752,0.004521449151211876
6.756,0.004534142557876415
6.76,0.004523925327133178
6.764,0.004524766746135563
6.768,0.004529502733091839
6.772,0.004539263193519496
6.776,0.004546331113139524
6.78,0.004526617867940808
6.784,0.004507986447173729
6.788,0.004511015555582312
6.792,0.0045147658802786525
6.796,0.004520824097095819
6.8,0.004503298541303301
6.804,0.004505462190166576
6.808,0.004520054799722211
6.812,0.00452589665165305
6.816,0.004521809759355755
6.82,0.0045200067186363605
6.824,0.004531618300869262
6.828,0.004511592528612518
6.832,0.004504668852250041
6.836,0.0045157275019956635
6.84,0.004514886082993279
6.844,0.004511063636668163
6.848,0.0045153188127659335
6.852,0.0045131070828168095
6.856,0.004520367326780239
6.86,0.004524334016362907
6.864,0.004526689989569584
6.868,0.0045157275019956635
6.872,0.004496134459511573
6.876,0.004490244526494883
6.88,0.004496254662226199
6.884,0.004499452054435259
6.888,0.004529021922233334
6.892,0.004527170800428089
6.896,0.004527026557170537
6.9,0.00452229057021426
6.904,0.004527940097801697
6.908,0.004524237854191207
6.912,0.00451767478597261
6.916,0.004511640609698369
6.92,0.004509188474319992
6.924,0.004513756177475792
6.928,0.0045122416232715006
6.932,0.004508635541832711
6.936,0.004521761678269905
6.94,0.004521929962070381
6.944,0.0044958940540823205
6.948,0.0044993799328064835
6.952,0.0045147658802786525
6.956,0.004500990649182476
6.96,0.004504188041391536
6.964,0.004502769649358945
6.968,0.0045152466911371585
6.972,0.004517410340000432
6.976,0.004508875947261963
6.98,0.004510318379837479
6.984,0.004506592095684063
6.988,0.004509476960835095
6.992,0.004509597163549721
6.996,0.004508371095860533
7.0,0.004517242056199955
7.0040000000000004,0.004528925760061633
7.008,0.004516544880455122
7.0120000000000005,0.004503899554876433
7.016,0.004506736338941615
7.0200000000000005,0.004498081743488519
7.024,0.004496855675799331
7.0280000000000005,0.004496398905483751
7.032,0.004515030326250831
7.0360000000000005,0.004514958204622055
7.04,0.004512914758473407
7.0440000000000005,0.004514381231591849
7.048,0.00450534198745195
7.0520000000000005,0.004497624973172939
7.056,0.004508948068890739
7.0600000000000005,0.004511255961011564
7.064,0.004508395136403458
7.0680000000000005,0.0045083470553176075
7.072,0.004502457122300917
7.0760000000000005,0.00449000412106563
7.08,0.004499668419321586
7.0840000000000005,0.004507697960658625
7.088,0.004506231487540185
7.0920000000000005,0.0044913744320123706
7.096,0.004511063636668163
7.1000000000000005,0.004516617002083898
7.104,0.004514357191048923
7.1080000000000005,0.004512602231415379
7.112,0.0045133474882460625
7.1160000000000005,0.004515967907424916
7.12,0.004501255095154654
7.1240000000000006,0.004499403973349409
7.128,0.004509645244635572
7.132000000000001,0.004515823664167365
7.136,0.004507842203916177
7.140000000000001,0.004501615703298533
7.144,0.004514164866705521
7.148000000000001,0.004502649446644319
7.152,0.004488778053376442
7.156000000000001,0.004498225986746071
7.16,0.004507505636315223
7.164000000000001,0.004485196012480578
7.168,0.004474113322192032
7.172,0.004479282038920963
7.176,0.004508371095860533
7.18,0.0045418836126983496
7.184,0.004537628436600578
7.188,0.0045168333669702255
7.192,0.004520896218724595
7.196,0.004529382530377213
7.2,0.00451995863755051
7.204,0.004503322581846226
7.208,0.0044923120131864554
7.212,0.004492408175358157
7.216,0.004511905055670546
7.22,0.004510318379837479
7.224,0.004505366027994875
7.228,0.004518564286060844
7.232,0.004527339084228565
7.236,0.004521064502525072
7.24,0.004501615703298533
7.244,0.00450228883850044
7.248,0.004500846405924924
7.252,0.004503899554876433
7.256,0.004519790353750033
7.26,0.004539575720577524
7.264,0.004532147192813618
7.268,0.004497576892087089
7.272,0.004484739242164998
7.276,0.0044935861619614945
7.28,0.004496975878513957
7.284,0.004496903756885181
7.288,0.004494884351279459
7.292,0.0044852681341093536
7.296,0.004490965742782641
7.3,0.004497456689372462
7.304,0.004503370662932077
7.308,0.004502817730444796
7.312,0.0045062795686260345
7.316,0.004508274933688832
7.32,0.0045195980294066304
7.324,0.00452092025926752
7.328,0.004508226852602981
7.332,0.004511760812412995
7.336,0.004505702595595828
7.34,0.004494091013362926
7.344,0.004497168202857359
7.348,0.004506544014598213
7.352,0.004510198177122853
7.356,0.0045161121506824674
7.36,0.004524021489304879
7.364,0.004522122286413783
7.368,0.004503298541303301
7.372,0.004504380365734938
7.376,0.004517121853485328
7.38,0.004523636840618075
7.384,0.004535320544479753
7.388,0.004509789487893124
7.392,0.004496711432541779
7.396,0.004536907220312821
7.4,0.004538590058317589
7.404,0.004520271164608538
7.408,0.004514669718106952
7.412,0.004508515339118085
7.416,0.00450817877151713
7.42,0.004501158932982953
7.424,0.004501856108727786
7.428,0.004517290137285805
7.432,0.0045245984623350855
7.436,0.004517650745429685
7.44,0.004511977177299322
7.444,0.0045109674744964615
7.448,0.0045205596511236415
7.452,0.00453320497670233
7.456,0.004557149357455892
7.46,0.004562197871470198
7.464,0.004545201207622036
7.468,0.004539070869176094
7.472,0.004542340383013929
7.476,0.004540994112610115
7.48,0.004522170367499634
7.484,0.004503058135874049
7.488,0.004516544880455122
7.492,0.004512361825986126
7.496,0.0045173862994575065
7.5,0.004526786151741284
7.5040000000000004,0.004529863341235718
7.508,0.004520247124065613
7.5120000000000005,0.004517290137285805
7.516,0.004513756177475792
7.5200000000000005,0.004526449584140331
7.524,0.004521905921527456
7.5280000000000005,0.0045162804344829445
7.532,0.004529839300692793
7.5360000000000005,0.004537291868999625
7.54,0.004520223083522687
7.5440000000000005,0.004517506502172133
7.548,0.004524862908307264
7.5520000000000005,0.004519405705063229
7.556,0.0045129387990163325
7.5600000000000005,0.0045238051244185515
7.564,0.004533277098331106
7.5680000000000005,0.004510799190695984
7.572,0.00450041367615227
7.5760000000000005,0.004508010487716654
7.58,0.004515222650594233
7.5840000000000005,0.004521352989040175
7.588,0.0045165929615409725
7.5920000000000005,0.004506423811883586
7.596,0.004505558352338277
7.6000000000000005,0.004520968340353371
7.604,0.004524886948850189
7.6080000000000005,0.004525415840794545
7.612,0.004522074205327933
7.6160000000000005,0.004531762544126814
7.62,0.004529334449291362
7.6240000000000006,0.004505558352338277
7.628,0.004499620338235736
7.632000000000001,0.004499788622036213
7.636,0.0045091403932341415
7.640000000000001,0.004508419176946383
7.644,0.0045173862994575065
7.648000000000001,0.004517963272487713
7.652,0.004520848137638744
7.656000000000001,0.004515487096566411
7.66,0.004511207879925714
7.664000000000001,0.004515703461452738
7.668,0.004519718232121257
7.672000000000001,0.0045162804344829445
7.676,0.004512890717930482
7.68,0.004517650745429685
7.684,0.004526882313912985
7.688,0.0045168333669702255
7.692,0.004522651178358139
7.696,0.004522362691843036
7.7,0.004523660881161001
7.704,0.00453000758449327
7.708,0.004538710261032215
7.712,0.0045515479109543054
7.716,0.00451493416407913
7.72,0.004491951405042577
7.724,0.004503851473790582
7.728,0.0045212808674114
7.732,0.004511183839382788
7.736,0.004491398472555296
7.74,0.004470194713695213
7.744,0.00449817790566022
7.748,0.004532579922586273
7.752,0.004542845234415361
7.756,0.004532315476614095
7.76,0.00453137789544001
7.764,0.004532219314442394
7.768,0.004523228151388345
7.772,0.004523156029759569
7.776,0.004544479991334278
7.78,0.004536546612168941
7.784,0.00451767478597261
7.788,0.0045122416232715006
7.792,0.004513299407160212
7.796,0.004514357191048923
7.8,0.004517193975114104
7.804,0.004534022355161788
7.808,0.004527916057258771
7.812,0.004508875947261963
7.816,0.004500726203210298
7.82,0.004508515339118085
7.824,0.004536546612168941
7.828,0.004543013518215837
7.832,0.004489571391292976
7.836,0.004459616874808098
7.84,0.004492888986216663
7.844,0.004506976744370867
7.848,0.004516160231768318
7.852,0.0045344310443915185
7.856,0.004514621637021102
7.86,0.004509981812236525
7.864,0.004534551247106144
7.868,0.004530392233180074
7.872,0.004523131989216644
7.876,0.004521256826868474
7.88,0.004529214246576736
7.884,0.004526617867940808
7.888,0.004522122286413783
7.892,0.004518444083346218
7.896,0.00451995863755051
7.9,0.004511231920468639
7.904,0.004502144595242888
7.908,0.004493393837618093
7.912,0.004531305773811234
7.916,0.004551908519098185
7.92,0.004544600194048905
7.924,0.004509981812236525
7.928,0.0045327001253009
7.932,0.004532555882043348
7.936,0.004527339084228565
7.94,0.004519237421262752
7.944,0.004530296071008373
7.948,0.004530488395351775
7.952,0.004512722434130006
7.956,0.004513756177475792
7.96,0.00451411678561967
7.964,0.004520824097095819
7.968,0.004514838001907428
7.972,0.004522723299986915
7.976,0.004524165732562431
7.98,0.004524694624506787
7.984,0.004533132855073554
7.988,0.0045297431385210914
7.992,0.004527699692372445
7.996,0.004556259857367658
8.0,0.004561620898439991
8.004,0.004517290137285805
8.008000000000001,0.004490749377896314
8.012,0.004511063636668163
8.016,0.004540825828809638
8.02,0.004543350085816791
8.024000000000001,0.004517578623800909
8.028,0.004517963272487713
8.032,0.004518275799545742
8.036,0.004514621637021102
8.040000000000001,0.004511111717754012
8.044,0.004521088543067997
8.048,0.00453000758449327
8.052,0.0045179392319447875
8.056000000000001,0.004517987313030638
8.06,0.004512986880102183
8.064,0.004512986880102183
8.068,0.004534527206563219
8.072000000000001,0.004547100410513132
8.076,0.004543398166902642
8.08,0.00454325392364509
8.084,0.004530103746664971
8.088000000000001,0.004522482894557663
8.092,0.004547773545715039
8.096,0.00454056138283746
8.1,0.004514573555935251
8.104000000000001,0.004502649446644319
8.108,0.004515054366793756
8.112,0.004540248855779432
8.116,0.004535080139050501
8.120000000000001,0.004529286368205512
8.124,0.004528853638432857
8.128,0.004540801788266713
8.132,0.004552076802898661
8.136000000000001,0.004536787017598194
8.14,0.004539215112433646
8.144,0.0045493361810051815
8.148,0.004559433209033793
8.152000000000001,0.004571814088640303
8.156,0.004549456383719808
8.16,0.004538133288002008
8.164,0.0045277718140012205
8.168000000000001,0.004504091879219835
8.172,0.0044993799328064835
8.176,0.004502529243929692
8.18,0.004515775583081514
8.184000000000001,0.00452361280007515
8.188,0.004533108814530629
8.192,0.004545177167079111
8.196,0.004540417139579909
8.2,0.004548134153858918
8.204,0.004542460585728556
8.208,0.004551499829868455
8.212,0.0045464032347682995
8.216,0.004529574854720615
8.22,0.004531401935982935
8.224,0.004538878544832692
8.228,0.0045510671000958
8.232,0.00456787143960056
8.236,0.00455508187076432
8.24,0.004513852339647493
8.244,0.0045015916627556074
8.248,0.0045249109893931135
8.252,0.004545465653594214
8.256,0.004532676084757974
8.26,0.004532411638785796
8.264,0.004550033356750014
8.268,0.0045450569643644845
8.272,0.0045275314085719675
8.276,0.004535873476967034
8.28,0.004543350085816791
8.284,0.0045318106252126645
8.288,0.004525920692195975
8.292,0.004523228151388345
8.296,0.0045225309756435125
8.3,0.004519069137462275
8.304,0.00451863640768962
8.308,0.004530127787207896
8.312,0.004548975572861302
8.316,0.004546066667167345
8.32,0.004535344585022678
8.324,0.004540320977408208
8.328,0.004553471154388327
8.332,0.004548687086346199
8.336,0.004553399032759551
8.34,0.004554456816648263
8.344,0.004531185571096608
8.348,0.004523516637903449
8.352,0.004531353854897085
8.356,0.004533998314618863
8.36,0.00453366174701791
8.364,0.0045338781119042375
8.368,0.004533854071361312
8.372,0.004519477826692005
8.376,0.004538157328544934
8.38,0.004531474057611711
8.384,0.004521809759355755
8.388,0.004544648275134755
8.392,0.004569578318148254
8.396,0.004567294466570354
8.4,0.0045396478422063
8.404,0.004530296071008373
8.408,0.0045338781119042375
8.412,0.004530656679152252
8.416,0.004533036692901853
8.42,0.004541787450526648
8.424,0.004544311707533801
8.428,0.004544720396763531
8.432,0.0045391910718907205
8.436,0.004535897517509959
8.44,0.004532988611816002
8.444,0.004534671449820771
8.448,0.004527146759885164
8.452,0.0045184921644320685
8.456,0.0045454416130512884
8.46,0.004556019451938405
8.464,0.0045548895464209175
8.468,0.004531401935982935
8.472,0.004508298974231757
8.476,0.004509549082463871
8.48,0.004525584124595021
8.484,0.004545561815765915
8.488,0.004536642774340642
8.492,0.004524742705592637
8.496,0.0045282526248597256
8.5,0.004543422207445567
8.504,0.004551187302810427
8.508000000000001,0.004546210910424897
8.512,0.004543854937218221
8.516,0.004538205409630784
8.52,0.004525680286766722
8.524000000000001,0.004522843502701541
8.528,0.004535392666108529
8.532,0.004547316775399459
8.536,0.0045472686943136085
8.540000000000001,0.004545682018480541
8.544,0.004558543708945558
8.548,0.004535560949909006
8.552,0.004531954868470216
8.556000000000001,0.004528781516804081
8.56,0.004521328948497249
8.564,0.004535633071537782
8.568,0.004544720396763531
8.572000000000001,0.004537460152800102
8.576,0.004528661314089455
8.58,0.00452909404386211
8.584,0.004537099544656222
8.588000000000001,0.004533517503760358
8.592,0.004527411205857341
8.596,0.004514381231591849
8.6,0.004530103746664971
8.604000000000001,0.004531858706298515
8.608,0.004532916490187226
8.612,0.00453005566557912
8.616,0.004527026557170537
8.620000000000001,0.004526209178711078
8.624,0.004510222217665778
8.628,0.0045333973010457315
8.632,0.004559745736091821
8.636000000000001,0.004553206708416148
8.64,0.004540345017951133
8.644,0.004538109247459084
8.648,0.00453599367968166
8.652000000000001,0.004535512868823155
8.656,0.004531113449467832
8.66,0.004529574854720615
8.664,0.004532075071184843
8.668000000000001,0.00453320497670233
8.672,0.0045389506664614675
8.676,0.0045363302472826135
8.68,0.004520655813295343
8.684000000000001,0.004535969639138735
8.688,0.00453777267985813
8.692,0.0045341906389622655
8.696,0.004542316342471005
8.700000000000001,0.004556596424968611
8.704,0.004529382530377213
8.708,0.004509212514862917
8.712,0.0045249109893931135
8.716,0.00453503205796465
8.72,0.00453320497670233
8.724,0.004540801788266713
8.728,0.004533277098331106
8.732,0.004525776448938423
8.736,0.0045282526248597256
8.74,0.004533613665932059
8.744,0.004521449151211876
8.748,0.004515631339823962
8.752,0.0045232521919312705
8.756,0.004538157328544934
8.76,0.004523059867587869
8.764,0.004523877246047327
8.768,0.004521473191754801
8.772,0.004516641042626823
8.776,0.004528541111374828
8.78,0.004539912288178479
8.784,0.004531185571096608
8.788,0.004500846405924924
8.792,0.004518011353573563
8.796,0.004544407869705502
8.8,0.004553278830044924
8.804,0.004537965004201532
8.808,0.004528853638432857
8.812,0.004526569786854957
8.816,0.004519934597007585
8.82,0.004523684921703926
8.824,0.0045429173560441365
8.828,0.004525487962423321
8.832,0.0045304643548088495
8.836,0.004542893315501211
8.84,0.004526954435541761
8.844,0.00453366174701791
8.848,0.004548687086346199
8.852,0.004561620898439991
8.856,0.00455827926297338
8.86,0.004539623801663375
8.864,0.004532940530730152
8.868,0.00451087131232476
8.872,0.004524886948850189
8.876,0.004547965870058441
8.88,0.004545032923821559
8.884,0.004523420475731748
8.888,0.004500726203210298
8.892,0.004504981379308069
8.896,0.004520367326780239
8.9,0.004510462623095031
8.904,0.0045151745695083826
8.908,0.004536907220312821
8.912,0.004551668113668932
8.916,0.004545345450879587
8.92,0.004531666381955113
8.924,0.004536474490540165
8.928,0.004536787017598194
8.932,0.004544431910248428
8.936,0.004553230748959074
8.94,0.004553903884160981
8.944,0.004543566450703118
8.948,0.004548446680916946
8.952,0.004549288099919331
8.956,0.004532579922586273
8.96,0.004528396868117277
8.964,0.004530416273722999
8.968,0.0045383977339741866
8.972,0.004528300705945576
8.976,0.004517963272487713
8.98,0.004505943001025081
8.984,0.0044930332294742135
8.988,0.004508803825633187
8.992,0.004533108814530629
8.996,0.0045393353151482714
9.0,0.004541763409983723
9.004,0.004549816991863687
9.008000000000001,0.0045637605067603395
9.012,0.0045650346555353785
9.016,0.004568183966658588
9.02,0.004553855803075131
9.024000000000001,0.004551427708239679
9.028,0.004554793384249216
9.032,0.0045490957755759285
9.036,0.004539840166549703
9.040000000000001,0.004546932126712655
9.044,0.0045328443685584505
9.048,0.004522074205327933
9.052,0.004526593827397883
9.056000000000001,0.004516232353397094
9.06,0.004511905055670546
9.064,0.004523636840618075
9.068,0.004530921125124429
9.072000000000001,0.004529214246576736
9.076,0.004535200341765126
9.08,0.004545706059023467
9.084,0.004554649140991665
9.088000000000001,0.00456005826314985
9.092,0.004558183100801679
9.096,0.004541979774870051
9.1,0.00454051330175161
9.104000000000001,0.004552533573214242
9.108,0.004569361953261926
9.112,0.004556307938453508
9.116,0.004546114748253196
9.120000000000001,0.0045426769506148835
9.124,0.004521569353926502
9.128,0.004511400204269116
9.132,0.004526449584140331
9.136000000000001,0.004526449584140331
9.14,0.004523757043332701
9.144,0.004524550381249235
9.148,0.004523276232474196
9.152000000000001,0.004522651178358139
9.156,0.004537388031171326
9.16,0.004554504897734114
9.164,0.004550225681093416
9.168000000000001,0.004535633071537782
9.172,0.004541258558582293
9.176,0.004544407869705502
9.18,0.004549264059376406
9.184000000000001,0.004561308371381963
9.188,0.004562173830927272
9.192,0.004536618733797717
9.196,0.00454375877504652
9.200000000000001,0.004534479125477369
9.204,0.004495677689195993
9.208,0.004510703028524283
9.212,0.004513131123359735
9.216000000000001,0.004515583258738112
9.22,0.004517794988687236
9.224,0.004506856541656242
9.228,0.004522891583787392
9.232,0.004536522571626016
9.236,0.004551307505525053
9.24,0.0045506103297802206
9.244,0.004541210477496442
9.248,0.004541186436953517
9.252,0.004540801788266713
9.256,0.004541354720753994
9.26,0.004540008450350179
9.264,0.004546595559111701
9.268,0.004539094909719019
9.272,0.004532916490187226
9.276,0.004531041327839056
9.28,0.004546667680740477
9.284,0.004539888247635553
9.288,0.004529478692548914
9.292,0.004523781083875626
9.296,0.004501110851897102
9.3,0.004493802526847822
9.304,0.004510102014951152
9.308,0.004512337785443201
9.312,0.004525175435365292
9.316,0.004530127787207896
9.32,0.004537003382484521
9.324,0.004554793384249216
9.328,0.004552677816471793
9.332,0.004534142557876415
9.336,0.004528108381602174
9.34,0.004525608165137946
9.344,0.004536065801310436
9.348,0.004538878544832692
9.352,0.00453462336873492
9.356,0.004538902585375617
9.36,0.004524478259620459
9.364,0.004506471892969437
9.368,0.004516088110139542
9.372,0.0045223867323859615
9.376,0.004511472325897892
9.38,0.0045387823826609905
9.384,0.004532075071184843
9.388,0.004521809759355755
9.392,0.0045327001253009
9.396,0.0045213770295831
9.4,0.004531714463040963
9.404,0.004537989044744457
9.408,0.004534575287649069
9.412,0.004535897517509959
9.416,0.004534334882219817
9.42,0.004532171233356543
9.424,0.004553591357102953
9.428,0.004555851168137929
9.432,0.004526209178711078
9.436,0.004521449151211876
9.44,0.004522555016186438
9.444,0.004510053933865301
9.448,0.004502336919586291
9.452,0.004505991082110932
9.456,0.004510102014951152
9.46,0.004527988178887547
9.464,0.004530175868293747
9.468,0.00452224248912841
9.472,0.004521016421439221
9.476,0.004528276665402651
9.48,0.0045352243823080516
9.484,0.004522891583787392
9.488,0.004526449584140331
9.492,0.004526016854367676
9.496,0.004524141692019506
9.5,0.004526497665226181
9.504,0.00452041540786609
9.508000000000001,0.0045123858665290515
9.512,0.004518948934747648
9.516,0.004535344585022678
9.52,0.004534262760591041
9.524000000000001,0.004519886515921734
9.528,0.0045307047602381025
9.532,0.0045153188127659335
9.536,0.0045098616095218995
9.540000000000001,0.0045314259765258606
9.544,0.004544167464276249
9.548,0.004527843935629996
9.552,0.004537291868999625
9.556000000000001,0.0045402969368652825
9.56,0.004528661314089455
9.564,0.004520848137638744
9.568,0.0045232521919312705
9.572000000000001,0.004537003382484521
9.576,0.004539479558405823
9.58,0.004543133720930463
9.584,0.004544912721106933
9.588000000000001,0.004542532707357332
9.592,0.004549792951320761
9.596,0.0045467157618263275
9.6,0.004515198610051308
9.604000000000001,0.004488946337176919
9.608,0.004494235256620477
9.612,0.004504813095507593
9.616,0.004514261028877222
9.620000000000001,0.004530656679152252
9.624,0.004529574854720615
9.628,0.004533036692901853
9.632,0.0045301518277508215
9.636000000000001,0.004530031625036195
9.64,0.004535657112080707
9.644,0.004548302437659395
9.648,0.004543085639844613
9.652000000000001,0.0045408498693525635
9.656,0.004541595126183247
9.66,0.00454654747802585
9.664,0.004551668113668932
9.668000000000001,0.004546186869881972
9.672,0.004539768044920927
9.676,0.004530897084581505
9.68,0.0045314259765258606
9.684000000000001,0.004527867976172922
9.688,0.004517794988687236
9.692,0.0045044524873637136
9.696,0.004510558785266731
9.700000000000001,0.004521521272840652
9.704,0.004532820328015525
9.708,0.004540897950438414
9.712,0.004524694624506787
9.716000000000001,0.004515342853308859
9.72,0.004524646543420936
9.724,0.004540633504466236
9.728,0.004525415840794545
9.732,0.0045171458940282535
9.736,0.004528420908660203
9.74,0.004537748639315204
9.744,0.004530344152094223
9.748,0.004526954435541761
9.752,0.004536979341941596
9.756,0.004527988178887547
9.76,0.004526088975996452
9.764,0.0045458503022810185
9.768,0.0045395035989487485
9.772,0.004534959936335874
9.776,0.004526473624683256
9.78,0.004539046828633169
9.784,0.004511977177299322
9.788,0.00448122932289791
9.792,0.004520367326780239
9.796,0.004534839733621248
9.8,0.004530416273722999
9.804,0.004537868842029831
9.808,0.004535897517509959
9.812,0.004529382530377213
9.816,0.004527242922056865
9.82,0.004523757043332701
9.824,0.004524237854191207
9.828,0.0045293584898342875
9.832,0.004555827127595003
9.836,0.004562678682328703
9.84,0.004543614531788968
9.844,0.004519646110492481
9.848,0.004503803392704731
9.852,0.004526449584140331
9.856,0.004531233652182458
9.86,0.004495533445938441
9.864,0.004491735040156249
9.868,0.004498971243576753
9.872,0.0045112800015544895
9.876,0.004522603097272288
9.88,0.004516713164255599
9.884,0.004513924461276269
9.888,0.0045152466911371585
9.892,0.004529310408748437
9.896,0.004538301571802485
9.9,0.004537460152800102
9.904,0.004531714463040963
9.908,0.004548302437659395
9.912,0.004523420475731748
9.916,0.004516160231768318
9.92,0.0045275314085719675
9.924,0.004534503166020294
9.928,0.004509645244635572
9.932,0.004495557486481366
9.936,0.004508154730974205
9.94,0.004511159798839863
9.944,0.004532916490187226
9.948,0.004532075071184843
9.952,0.00450630360916896
9.956,0.004510318379837479
9.96,0.004512866677387557
9.964,0.004515919826339065
9.968,0.004522506935100587
9.972,0.004539167031347795
9.976,0.004541691288354948
9.98,0.004539215112433646
9.984,0.004531474057611711
9.988,0.004534022355161788
9.992,0.004547797586257964
9.996,0.004530632638609327
10.0,0.004497192243400284
10.004,0.0045077941228303265
10.008000000000001,0.004514549515392326
10.012,0.004486133593654663
10.016,0.004499620338235736
10.02,0.004531450017068786
10.024000000000001,0.004539070869176094
10.028,0.0045327001253009
10.032,0.004534863774164173
10.036,0.004518852772575948
10.040000000000001,0.004514164866705521
10.044,0.0045318106252126645
10.048,0.004559072600889913
10.052,0.004549408302633957
10.056000000000001,0.0045317385035838886
10.06,0.004538878544832692
10.064,0.004539407436777047
10.068,0.0045192855023486024
10.072000000000001,0.004506616136226989
10.076,0.0045152466911371585
10.08,0.004524382097448758
10.084,0.004527940097801697
10.088000000000001,0.004527339084228565
10.092,0.004519069137462275
10.096,0.004500293473437643
10.1,0.004486830769399496
10.104000000000001,0.004490965742782641
10.108,0.004502000351985337
10.112,0.004527170800428089
10.116,0.004541811491069574
10.120000000000001,0.004535873476967034
10.124,0.0045386381394034395
10.128,0.004536234085110913
10.132,0.004549288099919331
10.136000000000001,0.004564529804133948
10.14,0.004518347921174517
10.144,0.004494163134991701
10.148,0.004509428879749244
10.152000000000001,0.004510582825809657
10.156,0.004509284636491692
10.16,0.004502577325015543
10.164,0.004509741406807273
10.168000000000001,0.004511592528612518
10.172,0.004507866244459102
10.176,0.004505943001025081
10.18,0.004497697094801715
10.184000000000001,0.004513828299104568
10.188,0.004520896218724595
10.192,0.004510582825809657
10.196,0.004532219314442394
10.200000000000001,0.004547653343000413
10.204,0.004519333583434453
10.208,0.004526810192284209
10.212,0.004517506502172133
10.216000000000001,0.004510510704180881
10.22,0.004510799190695984
10.224,0.004518516204974994
10.228,0.004522915624330317
10.232000000000001,0.004528709395175305
10.236,0.004536738936512344
10.24,0.004544864640021082
10.244,0.004541811491069574
10.248,0.004519405705063229
10.252,0.004500702162667373
10.256,0.004508972109433664
10.26,0.004521160664696773
10.264,0.0045520287218128105
10.268,0.0045445761535059795
10.272,0.004509116352691216
10.276,0.004511400204269116
10.28,0.004522002083699157
10.284,0.004520776016009968
10.288,0.0045200067186363605
10.292,0.004514549515392326
10.296,0.004510390501466255
10.3,0.0045091403932341415
10.304,0.004511760812412995
10.308,0.004527291003142715
10.312,0.004546595559111701
10.316,0.004585661441365255
10.32,0.004600350213092591
10.324,0.00454056138283746
10.328,0.004541811491069574
10.332,0.004543975139932848
10.336,0.004513708096389941
10.34,0.00451726609674288
10.344,0.004522506935100587
10.348,0.004517602664343834
10.352,0.004532916490187226
10.356,0.004518804691490097
10.36,0.0045090682716053656
10.364,0.004513227285531436
10.368,0.004510198177122853
10.372,0.004515535177652261
10.376,0.004519429745606154
10.38,0.004523372394645897
10.384,0.004526545746312032
10.388,0.0045327001253009
10.392,0.004532603963129198
10.396,0.004530247989922523
10.4,0.00453731590954255
10.404,0.004530584557523476
10.408,0.0045349118552500236
10.412,0.004549215978290555
10.416,0.004542628869529033
10.42,0.0045314980981546365
10.424,0.004499812662579138
10.428,0.004496326783854975
10.432,0.0044914465536411464
10.436,0.004503154298045749
10.44,0.0045080345282595795
10.444,0.004522891583787392
10.448,0.00451813155628819
10.452,0.004517025691313628
10.456,0.004514285069420147
10.46,0.004521136624153848
10.464,0.004527050597713462
10.468,0.004519165299633976
10.472,0.00452224248912841
10.476,0.004525343719165769
10.48,0.004524454219077534
10.484,0.0045259447327389
10.488,0.004519814394292958
10.492,0.004535272463393902
10.496,0.004535584990451931
10.5,0.004536234085110913
10.504,0.004520439448409015
10.508000000000001,0.004506183406454334
10.512,0.004510606866352582
10.516,0.0045044524873637136
10.52,0.0044932736349034665
10.524000000000001,0.004504596730621265
10.528,0.004514958204622055
10.532,0.004522603097272288
10.536,0.004523372394645897
10.540000000000001,0.004515078407336681
10.544,0.004516689123712674
10.548,0.004512001217842248
10.552,0.004505702595595828
10.556000000000001,0.004518396002260367
10.56,0.004521929962070381
10.564,0.004513828299104568
10.568,0.004502697527730169
10.572000000000001,0.004521521272840652
10.576,0.004541042193695966
10.58,0.004538590058317589
10.584,0.004527940097801697
10.588000000000001,0.004521256826868474
10.592,0.004514429312677699
10.596,0.004513443650417764
10.6,0.004528973841147484
10.604000000000001,0.004526545746312032
10.608,0.004500341554523494
10.612,0.004510775150153059
10.616,0.0045153188127659335
10.620000000000001,0.004505149663108547
10.624,0.004510270298751629
10.628,0.004508563420203935
10.632,0.004499403973349409
10.636000000000001,0.004509428879749244
10.64,0.004516544880455122
10.644,0.004514501434306475
10.648,0.004503226419674525
10.652000000000001,0.00450457269007834
10.656,0.004514236988334297
10.66,0.004517554583257984
10.664,0.004519501867234929
10.668000000000001,0.004529214246576736
10.672,0.0045402969368652825
10.676,0.004546667680740477
10.68,0.004533902152447163
10.684000000000001,0.0045165929615409725
10.688,0.00450904423106244
10.692,0.004509669285178497
10.696,0.00451589578579614
10.700000000000001,0.004502937933159422
10.704,0.00449365828359027
10.708,0.004501062770811252
10.712,0.004504260163020312
10.716000000000001,0.00450046175723812
10.72,0.004513515772046539
10.724,0.0045080345282595795
10.728,0.004498947203033828
10.732000000000001,0.004506784420027466
10.736,0.004501952270899486
10.74,0.004501663784384383
10.744,0.004523372394645897
10.748000000000001,0.0045368110581411195
10.752,0.004520439448409015
10.756,0.004537388031171326
10.76,0.004555466519451124
10.764,0.004549672748606135
10.768,0.004520030759179286
10.772,0.004506544014598213
10.776,0.004519309542891528
10.78,0.004517193975114104
10.784,0.004500389635609344
10.788,0.004498201946203146
10.792,0.0045077941228303265
10.796,0.00450183206818486
10.8,0.004501471460040981
10.804,0.004505221784737323
10.808,0.004519021056376424
10.812,0.004528853638432857
10.816,0.00450411591976276
10.82,0.004485292174652279
10.824,0.004490052202151481
10.828,0.004506856541656242
10.832,0.004526497665226181
10.836,0.004533757909189611
10.84,0.004533926192990087
10.844,0.004543854937218221
10.848,0.004547581221371637
10.852,0.004537075504113297
10.856,0.004528468989746053
10.86,0.004518997015833499
10.864,0.0045056545145099785
10.868,0.004506015122653857
10.872,0.004515222650594233
10.876,0.004524935029936039
10.88,0.004522795421615691
10.884,0.004518059434659414
10.888,0.004518612367146695
10.892,0.00453087304403858
10.896,0.004532171233356543
10.9,0.004533132855073554
10.904,0.004525247556994068
10.908,0.004514741839735727
10.912,0.004524093610933655
10.916,0.004524478259620459
10.92,0.004526016854367676
10.924,0.004530392233180074
10.928,0.004541138355867666
10.932,0.0045297431385210914
10.936,0.00452553604350917
10.94,0.004523180070302495
10.944,0.004524478259620459
10.948,0.004519838434835883
10.952,0.004523468556817598
10.956,0.004528661314089455
10.96,0.004494259297163402
10.964,0.004493634243047345
10.968,0.004501182973525878
10.972,0.0045243580569058325
10.976,0.0045533509516737
10.98,0.004550706491951922
10.984,0.00454741293757116
10.988,0.004543830896675296
10.992,0.004557990776458277
10.996,0.004554048127418533
11.0,0.0045190450969193495
11.004,0.004517843069773086
11.008000000000001,0.004523564718989299
11.012,0.0045168093264273
11.016,0.004524694624506787
11.02,0.0045336377064749845
11.024000000000001,0.004542220180299304
11.028,0.004533469422674507
11.032,0.004520607732209492
11.036,0.004527435246400266
11.040000000000001,0.00452361280007515
11.044,0.004528901719518708
11.048,0.00453594559859581
11.052,0.0045317385035838886
11.056000000000001,0.0045147658802786525
11.06,0.004510294339294554
11.064,0.004518155596831115
11.068,0.004523829164961477
11.072000000000001,0.0045358494364241084
11.076,0.004537195706827923
11.08,0.004531786584669739
11.084,0.004525199475908217
11.088000000000001,0.004520030759179286
11.092,0.004531161530553682
11.096,0.004526641908483733
11.1,0.004513010920645108
11.104000000000001,0.0045126262719583045
11.108,0.0045076739201157
11.112,0.004515487096566411
11.116,0.004527988178887547
11.120000000000001,0.004523733002789776
11.124,0.0045145254748494
11.128,0.004515967907424916
11.132,0.004514405272134774
11.136000000000001,0.004520343286237314
11.14,0.004524141692019506
11.144,0.004518155596831115
11.148,0.004517554583257984
11.152000000000001,0.004521088543067997
11.156,0.004530344152094223
11.16,0.004543326045273866
11.164,0.0045293584898342875
11.168000000000001,0.004534599328191995
11.172,0.0045406094639233105
11.176,0.004532988611816002
11.18,0.004516977610227777
11.184000000000001,0.004526497665226181
11.188,0.004529815260149867
11.192,0.004518420042803293
11.196,0.004513587893675315
11.200000000000001,0.004517746907601385
11.204,0.004522410772928887
11.208,0.0045221463269567086
11.212,0.004518804691490097
11.216000000000001,0.004513876380190418
11.22,0.004512962839559258
11.224,0.004511760812412995
11.228,0.004510558785266731
11.232000000000001,0.004513034961188034
11.236,0.004520439448409015
11.24,0.004536234085110913
11.244,0.004530776881866878
11.248000000000001,0.004522362691843036
11.252,0.004524790786678488
11.256,0.00453503205796465
11.26,0.0045266659490266585
11.264,0.004522579056729363
11.268,0.004516929529141927
11.272,0.004526137057082302
11.276,0.0045330847739877035
11.28,0.0045319789090131415
11.284,0.004529719097978166
11.288,0.004536354287825539
11.292,0.004534863774164173
11.296,0.0045248388677643385
11.3,0.004525343719165769
11.304,0.004527603530200743
11.308,0.004532195273899468
11.312,0.004537796720401055
11.316,0.004536498531083091
11.32,0.004530392233180074
11.324,0.004527146759885164
11.328,0.004508154730974205
11.332,0.0045085874607468605
11.336,0.004528733435718231
11.34,0.004531065368381981
11.344,0.004518780650947172
11.348,0.004511159798839863
11.352,0.004520727934924118
11.356,0.004537412071714251
11.36,0.0045321231522706925
11.364,0.0045282526248597256
11.368,0.004533277098331106
11.372,0.004531353854897085
11.376,0.004518804691490097
11.38,0.0045186604482325456
11.384,0.0045327962874726
11.388,0.004541835531612499
11.392,0.004537748639315204
11.396,0.004526810192284209
11.4,0.004513635974761165
11.404,0.004513780218018717
11.408,0.004540200774693581
11.412,0.0045547212626204404
11.416,0.0045479899106013666
11.42,0.0045368110581411195
11.424,0.004530031625036195
11.428,0.004532868409101376
11.432,0.004532988611816002
11.436,0.004545225248164962
11.44,0.004542364423556855
11.444,0.004534262760591041
11.448,0.004529671016892316
11.452,0.004528276665402651
11.456,0.0045266659490266585
11.46,0.0045266659490266585
11.464,0.004527050597713462
11.468,0.004528132422145099
11.472,0.00453233951715702
11.476,0.004527411205857341
11.48,0.004513780218018717
11.484,0.004501495500583906
11.488,0.00451772286705846
11.492,0.00452685827337006
11.496,0.004536065801310436
11.5,0.004543181802016314
11.504,0.0045314980981546365
11.508000000000001,0.004499259730091857
11.512,0.004518083475202339
11.516,0.004543326045273866
11.52,0.004564433641962247
11.524000000000001,0.00454969678914906
11.528,0.0045419316937842
11.532,0.00454741293757116
11.536,0.004533156895616479
11.540000000000001,0.004522963705416168
11.544,0.00452909404386211
11.548,0.004532868409101376
11.552,0.004534455084934444
11.556000000000001,0.004528589192460679
11.56,0.004526377462511555
11.564,0.004536186004025063
11.568,0.0045411623964105915
11.572000000000001,0.00453462336873492
11.576,0.004529478692548914
11.58,0.0045282526248597256
11.584,0.004524790786678488
11.588000000000001,0.004538806423203916
11.592,0.004549528505348584
11.596,0.004542845234415361
11.6,0.0045475090997428615
11.604000000000001,0.004555466519451124
11.608,0.00454604262662442
11.612,0.004544600194048905
11.616,0.004546186869881972
11.620000000000001,0.004541258558582293
11.624,0.004533854071361312
11.628,0.004524406137991683
11.632,0.004523348354102972
11.636000000000001,0.004541811491069574
11.64,0.004555346316736497
11.644,0.00453959976112045
11.648,0.004521064502525072
11.652000000000001,0.004547845667343815
11.656,0.0045478216268008895
11.66,0.004521401070126025
11.664,0.0045277718140012205
11.668000000000001,0.004543326045273866
11.672,0.004549167897204704
11.676,0.004549768910777836
11.68,0.004552172965070362
11.684000000000001,0.004537844801486906
11.688,0.004538373693431261
11.692,0.004543374126359716
11.696,0.004545754140109317
11.700000000000001,0.004543518369617268
11.704,0.004538998747547318
11.708,0.00453137789544001
11.712,0.0045373639906284005
11.716000000000001,0.004537868842029831
11.72,0.004538421774517112
11.724,0.004536474490540165
11.728,0.004532147192813618
11.732000000000001,0.004526329381425704
11.736,0.004545730099566392
11.74,0.004557750371029024
11.744,0.004553879843618056
11.748000000000001,0.004538590058317589
11.752,0.0045363302472826135
11.756,0.00455284610027227
11.76,0.0045380852069161585
11.764000000000001,0.004525487962423321
11.768,0.004527579489657818
11.772,0.004530103746664971
11.776,0.004542893315501211
11.78,0.004551211343353352
11.784,0.004548927491775452
11.788,0.004545706059023467
11.792,0.004542003815412976
11.796,0.00453320497670233
11.8,0.004538493896145888
11.804,0.00454010461252188
11.808,0.0045386381394034395
11.812,0.0045441193831904
11.816,0.004560466952379579
11.82,0.004553831762532205
11.824,0.00453731590954255
11.828,0.004545273329250812
11.832,0.004544407869705502
11.836,0.004524165732562431
11.84,0.004509236555405843
11.844,0.004522963705416168
11.848,0.004540320977408208
11.852,0.004534310841676892
11.856,0.0045301518277508215
11.86,0.004536835098684045
11.864,0.004545249288707887
11.868,0.00454654747802585
11.872,0.004542532707357332
11.876,0.004544479991334278
11.88,0.004551740235297708
11.884,0.004545489694137139
11.888,0.004544455950791353
11.892,0.004550898816295323
11.896,0.004563544141874013
11.9,0.0045570291547412664
11.904,0.004525175435365292
11.908,0.0045145254748494
11.912,0.004519237421262752
11.916,0.004520511570037791
11.92,0.004528997881690409
11.924,0.004533060733444778
11.928,0.004535921558052884
11.932,0.00454827839711647
11.936,0.00455421641121901
11.94,0.004554384695019487
11.944,0.004549768910777836
11.948,0.004538758342118065
11.952,0.004541114315324742
11.956,0.004548110113315993
11.96,0.004553639438188804
11.964,0.004559024519804063
11.968,0.0045570291547412664
11.972,0.004541811491069574
11.976,0.00453827753125956
11.98,0.00453096920621028
11.984,0.004537652477143503
11.988,0.004537436112257176
11.992,0.004522627137815214
11.996,0.004518299840088666
12.0,0.004531065368381981
12.004,0.00453005566557912
12.008000000000001,0.004534575287649069
12.012,0.0045453694914225126
12.016,0.004544960802192783
12.02,0.00454553777522299
12.024000000000001,0.0045487832485179005
12.028,0.004555779046509153
12.032,0.004556139654653031
12.036,0.00456513081770708
12.040000000000001,0.004573088237415342
12.044,0.00456604435833824
12.048,0.004565707790737286
12.052,0.004561428574096589
12.056000000000001,0.0045514757893255296
12.06,0.0045319789090131415
12.064,0.00451726609674288
12.068,0.004527675651829519
12.072000000000001,0.004529070003319185
12.076,0.004552677816471793
12.08,0.004557197438541743
12.084,0.004555730965423302
12.088000000000001,0.004552798019186419
12.092,0.004554288532847786
12.096,0.004554601059905815
12.1,0.004554480857191188
12.104000000000001,0.004554745303163366
12.108,0.004549167897204704
12.112,0.004546739802369253
12.116,0.004551740235297708
12.120000000000001,0.004559385127947942
12.124,0.004562678682328703
12.128,0.004562630601242852
12.132,0.004528468989746053
12.136000000000001,0.004511135758296938
12.14,0.004529983543950344
12.144,0.004535176301222201
12.148,0.004545105045450335
12.152000000000001,0.004525223516451142
12.156,0.0045288776789757824
12.16,0.0045396478422063
12.164,0.004539383396234122
12.168000000000001,0.004544696356220606
12.172,0.004541354720753994
12.176,0.0045506103297802206
12.18,0.004564890412277828
12.184000000000001,0.004560635236180056
12.188,0.004562197871470198
12.192,0.0045580628980870525
12.196,0.004559024519804063
12.200000000000001,0.004557750371029024
12.204,0.00456056311455128
12.208,0.004551187302810427
12.212,0.004533998314618863
12.216000000000001,0.00451863640768962
12.22,0.0045264255435974055
12.224,0.004535392666108529
12.228,0.004538854504289766
12.232000000000001,0.004564313439247621
12.236,0.00454969678914906
12.24,0.004541859572155424
12.244,0.0045429173560441365
12.248000000000001,0.004549360221548107
12.252,0.004557582087228547
12.256,0.00457198237244078
12.26,0.004563496060788162
12.264000000000001,0.00456928983163315
12.268,0.004559577452291344
12.272,0.004546691721283402
12.276,0.004548254356573545
12.280000000000001,0.0045485428430886475
12.284,0.004540946031524265
12.288,0.004525920692195975
12.292,0.004506375730797736
12.296,0.004526882313912985
12.3,0.004561428574096589
12.304,0.004571213075067171
12.308,0.004569914885749207
12.312,0.004554697222077516
12.316,0.004567679115257158
12.32,0.004572703588728538
12.324,0.004577631900028216
12.328,0.004574819156505961
12.332,0.004555226114021872
12.336,0.004549312140462256
12.34,0.004547485059199936
12.344,0.004550922856838249
12.348,0.004569337912719001
12.352,0.00457883392717448
12.356,0.0045617891822404685
12.36,0.0045267380706554335
12.364,0.0045243580569058325
12.368,0.0045410902747818165
12.372,0.00456101988486686
12.376,0.004551692154211857
12.38,0.004547052329427282
12.384,0.004543878977761147
12.388,0.00454375877504652
12.392,0.004535152260679276
12.396,0.004546186869881972
12.4,0.004557461884513921
12.404,0.0045520287218128105
12.408,0.004555803087052078
12.412,0.004568135885572738
12.416,0.004578617562288153
12.42,0.004589892576920101
12.424,0.0045589283576323615
12.428,0.004543037558758762
12.432,0.004541282599125218
12.436,0.004523300273017121
12.44,0.004520175002436837
12.444,0.004522819462158616
12.448,0.004517362258914581
12.452,0.004529021922233334
12.456,0.0045416432072690974
12.46,0.0045441193831904
12.464,0.004544047261561624
12.468,0.004549816991863687
12.472,0.004560226546950326
12.476,0.004535560949909006
12.48,0.004546331113139524
12.484,0.004567727196343008
12.488,0.004589243482261119
12.492,0.004576261589081477
12.496,0.004532219314442394
12.5,0.004528132422145099
12.504,0.00453411851733349
12.508000000000001,0.0045327962874726
12.512,0.004530945165667355
12.516,0.004536402368911389
12.52,0.004548013951144292
12.524000000000001,0.004535584990451931
12.528,0.004533156895616479
12.532,0.004528973841147484
12.536,0.0045249109893931135
12.540000000000001,0.004540248855779432
12.544,0.004554144289590234
12.548,0.004559361087405017
12.552,0.004563880709474966
12.556000000000001,0.00456198150658387
12.56,0.004556836830397864
12.564,0.004546763842912178
12.568,0.0045360177202245855
12.572000000000001,0.0045305124358947
12.576,0.004538301571802485
12.58,0.00454147492346862
12.584,0.004548350518745245
12.588000000000001,0.004535969639138735
12.592,0.004527964138344622
12.596,0.004525247556994068
12.6,0.004537195706827923
12.604000000000001,0.004550418005436818
12.608,0.004548663045803274
12.612,0.004538325612345411
12.616,0.0045419316937842
12.620000000000001,0.0045559954113954795
12.624,0.004564121114904219
12.628,0.004557606127771473
12.632,0.004562053628212646
12.636000000000001,0.004565755871823137
12.64,0.00455238932995669
12.644,0.0045583754251450805
12.648,0.0045559954113954795
12.652000000000001,0.004540032490893104
12.656,0.004522338651300111
12.66,0.0045213770295831
12.664,0.0045450569643644845
12.668000000000001,0.004553134586787373
12.672,0.004560971803781009
12.676,0.004557149357455892
12.68,0.004550730532494847
12.684000000000001,0.004543734734503595
12.688,0.004543422207445567
12.692,0.00453188274684144
12.696,0.00452229057021426
12.700000000000001,0.004535609030994856
12.704,0.004544528072420129
12.708,0.004553976005789757
12.712,0.004559216844147465
12.716000000000001,0.004557798452114874
12.72,0.004554480857191188
12.724,0.0045543366139336365
12.728,0.004564962533906603
12.732000000000001,0.004547100410513132
12.736,0.004539431477319973
12.74,0.004527988178887547
12.744,0.004516232353397094
12.748000000000001,0.00454508100490741
12.752,0.004562822925586255
12.756,0.004553447113845401
12.76,0.004547076369970207
12.764000000000001,0.004534503166020294
12.768,0.0045429173560441365
12.772,0.004537556314971802
12.776,0.004536714895969418
12.780000000000001,0.004539431477319973
12.784,0.004537436112257176
12.788,0.004534238720048116
12.792,0.004534551247106144
12.796000000000001,0.004534551247106144
12.8,0.004540921990981339
12.804,0.004546210910424897
12.808,0.004534887814707098
12.812,0.004515967907424916
12.816,0.004508154730974205
12.82,0.004523059867587869
12.824,0.004536474490540165
12.828,0.004558880276546512
12.832,0.004573785413160175
12.836,0.004569025385660973
12.84,0.00456782335851471
12.844,0.004555755005966227
12.848,0.004547244653770683
12.852,0.004554264492304861
12.856,0.0045578224926577995
12.86,0.004548494762002797
12.864,0.004540825828809638
12.868,0.004543927058846997
12.872,0.004547749505172114
12.876,0.004554528938277039
12.88,0.004549167897204704
12.884,0.004532820328015525
12.888,0.004529382530377213
12.892,0.004528204543773875
12.896,0.004539816126006777
12.9,0.004547461018657011
12.904,0.004554264492304861
12.908,0.004547701424086264
12.912,0.0045562358168247325
12.916,0.004551860438012334
12.92,0.00454553777522299
12.924,0.00454553777522299
12.928,0.0045486149647174234
12.932,0.004545994545538569
12.936,0.004535681152623632
12.94,0.00453873430157514
12.944,0.004556764708769088
12.948,0.004568688818060019
12.952,0.004570443777693563
12.956,0.0045588562360035865
12.96,0.004540801788266713
12.964,0.00453914299080487
12.968,0.0045429173560441365
12.972,0.004532507800957497
12.976,0.004539792085463852
12.98,0.00454736485648531
12.984,0.004542508666814406
12.988,0.004547461018657011
12.992,0.00455964957392012
12.996,0.004555033789678469
13.0,0.004559457249576718
13.004,0.004562774844500404
13.008000000000001,0.004560250587493251
13.012,0.004550658410866071
13.016,0.004552725897557643
13.02,0.004572318940041733
13.024000000000001,0.004577319372970188
13.028,0.0045634479797023115
13.032,0.0045536153976458785
13.036,0.004537291868999625
13.040000000000001,0.004537291868999625
13.044,0.004534070436247639
13.048,0.004525175435365292
13.052,0.004524718665049712
13.056000000000001,0.004545802221195168
13.06,0.0045445040318772036
13.064,0.004542556747900257
13.068,0.0045389506664614675
13.072000000000001,0.004541066234238891
13.076,0.004543662612874819
13.08,0.004557149357455892
13.084,0.004562366155270675
13.088000000000001,0.0045530624651585975
13.092,0.004554769343706291
13.096,0.004557197438541743
13.1,0.004557678249400249
13.104000000000001,0.004559144722518689
13.108,0.004559385127947942
13.112,0.004541691288354948
13.116,0.004523973408219029
13.120000000000001,0.004515150528965457
13.124,0.004524862908307264
13.128,0.0045520287218128105
13.132,0.004558976438718212
13.136000000000001,0.004564457682505172
13.14,0.004557918654829501
13.144,0.00454736485648531
13.148,0.004538590058317589
13.152000000000001,0.0045336377064749845
13.156,0.004544239585905025
13.16,0.004545225248164962
13.164,0.004540489261208685
13.168000000000001,0.004552749938100569
13.172,0.00455101901900995
13.176,0.004539407436777047
13.18,0.004536234085110913
13.184000000000001,0.004533036692901853
13.188,0.004526161097625227
13.192,0.004530632638609327
13.196,0.004551403667696754
13.200000000000001,0.004562798885043329
13.204,0.004548807289060826
13.208,0.004529863341235718
13.212,0.004544263626447951
13.216000000000001,0.004566332844853343
13.22,0.004558832195460661
13.224,0.004548182234944769
13.228,0.00454919193774763
13.232000000000001,0.00454690808616973
13.236,0.004545922423909794
13.24,0.004557582087228547
13.244,0.0045441193831904
13.248000000000001,0.004546307072596598
13.252,0.0045393353151482714
13.256,0.0045365706527118665
13.26,0.00454371069396067
13.264000000000001,0.004549552545891508
13.268,0.004546066667167345
13.272,0.004553591357102953
13.276,0.0045580628980870525
13.280000000000001,0.004564409601419322
13.284,0.004558038857544127
13.288,0.004547340815942384
13.292,0.004539118950261945
13.296000000000001,0.0045347435714495465
13.3,0.0045419316937842
13.304,0.004554360654476562
13.308,0.004577704021656992
13.312000000000001,0.004567438709827905
13.316,0.00452726696259979
13.32,0.004521929962070381
13.324,0.004525487962423321
13.328,0.004543830896675296
13.332,0.0045510671000958
13.336,0.004568520534259542
13.34,0.004573088237415342
13.344,0.004522002083699157
13.348,0.004522506935100587
13.352,0.004548110113315993
13.356,0.004547749505172114
13.36,0.004556307938453508
13.364,0.004552798019186419
13.368,0.004550177600007565
13.372,0.004552172965070362
13.376,0.004557125316912967
13.38,0.004558135019715828
13.384,0.004565154858250005
13.388,0.004561644938982917
13.392,0.004551692154211857
13.396,0.004540897950438414
13.4,0.004537796720401055
13.404,0.004536306206739689
13.408,0.004541186436953517
13.412,0.004554817424792142
13.416,0.0045352965039368275
13.42,0.004497961540773893
13.424,0.0045098616095218995
13.428,0.004532820328015525
13.432,0.004529574854720615
13.436,0.004521881880984531
13.44,0.004521352989040175
13.444,0.004528613233003604
13.448,0.004529622935806466
13.452,0.004527627570743669
13.456,0.004539527639491674
13.46,0.0045373639906284005
13.464,0.0045395035989487485
13.468,0.004543662612874819
13.472,0.0045452973697937375
13.476,0.0045314259765258606
13.48,0.004525608165137946
13.484,0.0045098616095218995
13.488,0.004506423811883586
13.492,0.004506471892969437
13.496,0.004506111284825558
13.5,0.004528709395175305
13.504,0.004552245086699138
13.508000000000001,0.004562486357985301
13.512,0.004548182234944769
13.516,0.004541066234238891
13.52,0.004541378761296919
13.524000000000001,0.0045395035989487485
13.528,0.004540946031524265
13.532,0.004542172099213453
13.536,0.004547220613227758
13.540000000000001,0.004547340815942384
13.544,0.004543951099389923
13.548,0.004547436978114086
13.552,0.00456188534441217
13.556000000000001,0.0045569570331124905
13.56,0.004548086072773068
13.564,0.004512746474672931
13.568,0.004496398905483751
13.572000000000001,0.004496014256796946
13.576,0.00449411505390585
13.58,0.004507938366087878
13.584,0.004536161963482137
13.588000000000001,0.0045387823826609905
13.592,0.0045299114223215685
13.596,0.004541258558582293
13.6,0.004565683750194361
13.604000000000001,0.004568280128830289
13.608,0.004563423939159386
13.612,0.004563327776987685
13.616,0.004565876074537763
13.620000000000001,0.00456284696612918
13.624,0.0045521008434415864
13.628,0.004548013951144292
13.632,0.004548687086346199
13.636000000000001,0.004566645371911372
13.64,0.004563736466217414
13.644,0.0045426769506148835
13.648,0.0045485428430886475
13.652000000000001,0.004539070869176094
13.656,0.004511760812412995
13.66,0.004520535610580716
13.664,0.004524406137991683
13.668000000000001,0.004532099111727768
13.672,0.004530921125124429
13.676,0.0045305124358947
13.68,0.004537628436600578
13.684000000000001,0.0045483745592881705
13.688,0.004546258991510748
13.692,0.004549312140462256
13.696,0.004556115614110106
13.700000000000001,0.00454690808616973
13.704,0.004544047261561624
13.708,0.004550369924350968
13.712,0.004556596424968611
13.716000000000001,0.0045607554388946816
13.72,0.0045606833172659065
13.724,0.004559481290119643
13.728,0.004543277964188015
13.732000000000001,0.004527339084228565
13.736,0.004528156462688024
13.74,0.004542965437129986
13.744,0.004555394397822348
13.748000000000001,0.004540369058494058
13.752,0.004536666814883568
13.756,0.004534238720048116
13.76,0.0045310172872961305
13.764000000000001,0.004533301138874031
13.768,0.004540152693607731
13.772,0.004537436112257176
13.776,0.004537965004201532
13.780000000000001,0.00454508100490741
13.784,0.004547893748429665
13.788,0.004542965437129986
13.792,0.0045352243823080516
13.796000000000001,0.0045384698556029624
13.8,0.004557077235827117
13.804,0.0045536153976458785
13.808,0.004529166165490885
13.812000000000001,0.004535200341765126
13.816,0.004554937627506768
13.82,0.00454508100490741
13.824,0.004528108381602174
13.828,0.004526810192284209
13.832,0.004537388031171326
13.836,0.0045382294501737095
13.84,0.004545970504995644
13.844,0.004544359788619652
13.848,0.004550033356750014
13.852,0.004546860005083879
13.856,0.004545417572508363
13.86,0.00454741293757116
13.864,0.004545898383366869
13.868,0.0045410181531530406
13.872,0.004541282599125218
13.876,0.00455101901900995
13.88,0.004555827127595003
13.884,0.004551908519098185
13.888,0.00454010461252188
13.892,0.004538061166373233
13.896,0.00453416659841934
13.9,0.00453914299080487
13.904,0.004546980207798506
13.908,0.0045411623964105915
13.912,0.0045380852069161585
13.916,0.00455371155981758
13.92,0.0045556828843374515
13.924,0.004559986141521074
13.928,0.004552052762355736
13.932,0.0045512353838962774
13.936,0.004554120249047309
13.94,0.004562318074184824
13.944,0.0045621017092984965
13.948,0.004557798452114874
13.952,0.004551692154211857
13.956,0.004537412071714251
13.96,0.004528060300516323
13.964,0.004535320544479753
13.968,0.0045305124358947
13.972,0.00453005566557912
13.976,0.004548206275487694
13.98,0.004556259857367658
13.984,0.004550345883808042
13.988,0.0045373639906284005
13.992,0.004550225681093416
13.996,0.004560322709122027
14.0,0.0045632075742730585
14.004,0.004561572817354141
14.008000000000001,0.00455558672216575
14.012,0.004550586289237295
14.016,0.004555322276193572
14.02,0.004561356452467813
14.024000000000001,0.004555418438365273
14.028,0.004547244653770683
14.032,0.004528709395175305
14.036,0.0045133474882460625
14.040000000000001,0.004550345883808042
14.044,0.004556836830397864
14.048,0.004546884045626805
14.052,0.004532579922586273
14.056000000000001,0.0045290459627762595
14.06,0.0045396478422063
14.064,0.004552172965070362
14.068,0.004555057830221395
14.072000000000001,0.004552197005613288
14.076,0.004549167897204704
14.08,0.004544095342647474
14.084,0.0045397440043780015
14.088000000000001,0.004546884045626805
14.092,0.0045543366139336365
14.096,0.00454097007206719
14.1,0.0045371235851991475
14.104000000000001,0.004526064935453527
14.108,0.0045234925973605235
14.112,0.004533517503760358
14.116,0.004537436112257176
14.120000000000001,0.004532772246929675
14.124,0.004523372394645897
14.128,0.004527339084228565
14.132,0.0045261851381681525
14.136000000000001,0.004526906354455911
14.14,0.004544936761649858
14.144,0.004550466086522669
14.148,0.00454654747802585
14.152000000000001,0.004542821193872435
14.156,0.00455101901900995
14.16,0.004544071302104549
14.164,0.0045487832485179005
14.168000000000001,0.004554697222077516
14.172,0.004557678249400249
14.176,0.004559264925233316
14.18,0.0045678954801434855
14.184000000000001,0.004560803519980532
14.188,0.0045327962874726
14.192,0.004539912288178479
14.196,0.004568953264032197
14.200000000000001,0.004546571518568776
14.204,0.004527026557170537
14.208,0.004527940097801697
14.212,0.004530103746664971
14.216000000000001,0.004549985275664164
14.22,0.004550970937924099
14.224,0.004555706924880377
14.228,0.0045646740473915
14.232000000000001,0.004560298668579102
14.236,0.00455015355946464
14.24,0.004535344585022678
14.244,0.004531209611639533
14.248000000000001,0.0045408498693525635
14.252,0.004552629735385942
14.256,0.004571766007554452
14.26,0.004581358184181632
14.264000000000001,0.0045863586171100874
14.268,0.004580997576037754
14.272,0.0045678954801434855
14.276,0.004560779479437607
14.280000000000001,0.004558423506230931
14.284,0.0045746268321625585
14.288,0.004568472453173692
14.292,0.004541330680211069
14.296000000000001,0.004531281733268309
14.3,0.004540200774693581
14.304,0.0045569570331124905
14.308,0.004561428574096589
14.312000000000001,0.004558255222430455
14.316,0.004565395263679258
14.32,0.004564193236532995
14.324,0.004558567749488483
14.328000000000001,0.0045609958443239345
14.332,0.004562798885043329
14.336,0.004555755005966227
14.34,0.004554048127418533
14.344,0.004562197871470198
14.348,0.004569073466746823
14.352,0.0045738094537031
14.356,0.004570011047920908
14.36,0.004568159926115663
14.364,0.004580035954320743
14.368,0.004586214373852536
14.372,0.00457746361622774
14.376,0.0045540962085043836
14.38,0.004554264492304861
14.384,0.004561717060611693
14.388,0.004565563547479734
14.392,0.004560394830750803
14.396,0.004560947763238084
14.4,0.004562414236356525
14.404,0.004563568182416938
14.408,0.004568400331544916
14.412,0.004560202506407401
14.416,0.004566092439424091
14.42,0.004576189467452701
14.424,0.004578064629800872
14.428,0.0045669578989694
14.432,0.0045555386410799
14.436,0.00456147665518244
14.44,0.004576333710710253
14.444,0.004578521400116452
14.448,0.0045737613726172495
14.452,0.00456599627725239
14.456,0.0045693138721760755
14.46,0.004584074765532188
14.464,0.0045722468184129575
14.468,0.004566404966482119
14.472,0.0045833535492444295
14.476,0.004577151089169711
14.48,0.004567991642315186
14.484,0.0045647221284773505
14.488,0.004573737332074324
14.492,0.004563231614815984
14.496,0.004567799317971784
14.5,0.004578112710886722
14.504,0.004573569048273847
14.508000000000001,0.004559216844147465
14.512,0.004553855803075131
14.516,0.004557702289943174
14.52,0.0045601063442357
14.524000000000001,0.004557149357455892
14.528,0.004564433641962247
14.532,0.004575997143109299
14.536,0.004577439575684815
14.540000000000001,0.004576982805369234
14.544,0.004578737765002779
14.548,0.004573617129359698
14.552,0.004561668979525842
14.556000000000001,0.004562678682328703
14.56,0.004557437843970996
14.564,0.004570323574978937
14.568,0.004580228278664145
14.572000000000001,0.004574650872705484
14.576,0.004574891278134737
14.58,0.004575828859308822
14.584,0.004565563547479734
14.588000000000001,0.004551331546067979
14.592,0.004556932992569565
14.596,0.004558808154917736
14.6,0.004552918221901046
14.604000000000001,0.004536282166196764
14.608,0.00454097007206719
14.612,0.0045650346555353785
14.616,0.0045775597783994405
14.620000000000001,0.004577704021656992
14.624,0.004573569048273847
14.628,0.004567751236885934
14.632,0.004565010614992453
14.636000000000001,0.0045655875880226595
14.64,0.004570491858779413
14.644,0.004574530669990858
14.648,0.004580276359749996
14.652000000000001,0.00459066187429371
14.656,0.004581670711239661
14.66,0.0045530624651585975
14.664,0.004541354720753994
14.668000000000001,0.004555298235650648
14.672,0.0045694821559765526
14.676,0.004568640736974168
14.68,0.004560947763238084
14.684000000000001,0.004552052762355736
14.688,0.004549937194578313
14.692,0.004557798452114874
14.696,0.004558399465688006
14.700000000000001,0.004551788316383558
14.704,0.004553110546244448
14.708,0.004547461018657011
14.712,0.004553831762532205
14.716000000000001,0.0045687609396887945
14.72,0.004580084035406593
14.724,0.00460167244295348
14.728,0.004597657672284961
14.732000000000001,0.004577535737856516
14.736,0.004574146021304053
14.74,0.004560418871293728
14.744,0.004546523437482926
14.748000000000001,0.00455330287058785
14.752,0.004558784114374811
14.756,0.004559553411748418
14.76,0.0045522691272420635
14.764000000000001,0.004550850735209473
14.768,0.004563640304045714
14.772,0.004558086938629978
14.776,0.004543734734503595
14.780000000000001,0.0045429894776729115
14.784,0.004552605694843017
14.788,0.004561668979525842
14.792,0.004569842764120431
14.796000000000001,0.004579194535318359
14.8,0.004593931388131545
14.804,0.004590132982349354
14.808,0.004583257387072728
14.812000000000001,0.004574170061846979
14.816,0.004569361953261926
14.82,0.00458340163033028
14.824,0.004573184399587043
14.828000000000001,0.004556596424968611
14.832,0.004558447546773856
14.836,0.004562366155270675
14.84,0.004570491858779413
14.844000000000001,0.004577391494598964
14.848,0.00456832820991614
14.852,0.004553591357102953
14.856,0.004548663045803274
14.86,0.004565371223136333
14.864,0.004586094171137909
14.868,0.004610014511348547
14.872,0.004617394958026603
14.876,0.0045735930888167724
14.88,0.0045464032347682995
14.884,0.004555202073478946
14.888,0.004546763842912178
14.892,0.004543854937218221
14.896,0.004565611628565585
14.9,0.004578088670343797
14.904,0.004583569914130756
14.908,0.0045948449287627055
14.912,0.004603162956614846
14.916,0.004603114875528996
14.92,0.0045892915633469695
14.924,0.004579915751606117
14.928,0.004576646237768281
14.932,0.004579795548891491
14.936,0.004580540805722174
14.94,0.004592801482614058
14.944,0.004591767739268272
14.948,0.004564818290649052
14.952,0.0045487832485179005
14.956,0.004546932126712655
14.96,0.004555971370852554
14.964,0.0045764539134248786
14.968,0.004569337912719001
14.972,0.004574939359220587
14.976,0.004580636967893874
14.98,0.004577631900028216
14.984,0.0045740738996752775
14.988,0.004569578318148254
14.992,0.004573689250988474
14.996,0.004597465347941559
15.0,0.004581262022009931
15.004,0.0045608275605234574
15.008000000000001,0.004560899682152233
15.012,0.004579170494775434
15.016,0.004583545873587832
15.02,0.004572174696784182
15.024000000000001,0.004560899682152233
15.028,0.0045623901958136
15.032,0.004573256521215819
15.036,0.004562606560699927
15.040000000000001,0.004564097074361294
15.044,0.00456746275037083
15.048,0.004568280128830289
15.052,0.0045583033035163055
15.056000000000001,0.004567030020598176
15.06,0.004576021183652224
15.064,0.004571501561582275
15.068,0.004568496493716617
15.072000000000001,0.0045687609396887945
15.076,0.004569987007377983
15.08,0.004572367021127584
15.084,0.004572367021127584
15.088000000000001,0.00457198237244078
15.092,0.004578136751429648
15.096,0.004567799317971784
15.1,0.004559745736091821
15.104000000000001,0.004561957466040945
15.108,0.004552317208327914
15.112,0.004545657977937616
15.116,0.0045564762222539855
15.120000000000001,0.004583930522274636
15.124,0.004597056658711829
15.128,0.004576670278311206
15.132,0.004564361520333471
15.136000000000001,0.004558591790031408
15.14,0.004557558046685622
15.144,0.004567606993628382
15.148,0.00458111777875238
15.152000000000001,0.004578689683916929
15.156,0.004576381791796103
15.16,0.004578160791972572
15.164,0.0045762135079956264
15.168000000000001,0.004577824224371619
15.172,0.0045807331300655755
15.176,0.004577271291884338
15.18,0.004575372088993242
15.184000000000001,0.0045621017092984965
15.188,0.004567727196343008
15.192,0.004560466952379579
15.196,0.004558447546773856
15.200000000000001,0.004557678249400249
15.204,0.004574170061846979
15.208,0.0045754201700790925
15.212,0.004565082736621229
15.216000000000001,0.004576670278311206
15.22,0.0045897964147484
15.224,0.004588329941629959
15.228,0.004584579616933618
15.232000000000001,0.00458568548190818
15.236,0.004576838562111683
15.24,0.0045715256021252
15.244,0.004568232047744439
15.248000000000001,0.004572030453526631
15.252,0.004577944427086245
15.256,0.004568953264032197
15.26,0.004570203372264311
15.264000000000001,0.004574891278134737
15.268,0.004565731831280211
15.272,0.004568881142403421
15.276,0.0045775597783994405
15.280000000000001,0.004585156589963824
15.284,0.0045687609396887945
15.288,0.004555947330309629
15.292,0.004567126182769877
15.296000000000001,0.004563736466217414
15.3,0.004555610762708676
15.304,0.004538878544832692
15.308,0.004546066667167345
15.312000000000001,0.004573545007730922
15.316,0.004591335009495617
15.32,0.004584026684446337
15.324,0.004578857967717405
15.328000000000001,0.004573112277958267
15.332,0.004593859266502769
15.336,0.00459938859137558
15.34,0.004594652604419303
15.344000000000001,0.0045948449287627055
15.348,0.004583642035759532
15.352,0.004559673614463045
15.356,0.004564265358161771
15.36,0.004591599455467795
15.364,0.004588450144344585
15.368,0.004570227412807236
15.372,0.004574290264561605
15.376,0.004573256521215819
15.38,0.0045641691959900695
15.384,0.004568568615345392
15.388,0.004569145588375598
15.392,0.004555899249223779
15.396,0.004561428574096589
15.4,0.0045684484126307665
15.404,0.004554000046332682
15.408,0.004552870140815195
15.412,0.0045533509516737
15.416,0.004560875641609308
15.42,0.004565251020421706
15.424,0.004575444210622018
15.428,0.004597176861426456
15.432,0.004598186564229317
15.436,0.0045735209671879965
15.44,0.004588522265973361
15.444,0.004595758469393865
15.448,0.0045922245095838515
15.452,0.0045897964147484
15.456,0.00458619033330961
15.46,0.004572126615698332
15.464,0.004570780345294517
15.468,0.0045726555076426876
15.472,0.004582127481555241
15.476,0.004590132982349354
15.48,0.004575468251164943
15.484,0.004576429872881953
15.488,0.004581863035583063
15.492,0.004581189900381155
15.496,0.004590517631036158
15.5,0.004595301699078285
15.504,0.0045927774420711324
15.508000000000001,0.00459025318506398
15.512,0.004589556009319148
15.516,0.004584122846618038
15.52,0.004594724726048079
15.524000000000001,0.00460075890232232
15.528,0.004604220740503559
15.532,0.004599172226489253
15.536,0.00458111777875238
15.540000000000001,0.004567126182769877
15.544,0.004564962533906603
15.548,0.0045730401563294915
15.552,0.004579963832691967
15.556000000000001,0.004600734861779395
15.56,0.004595998874823118
15.564,0.00459989344277701
15.568,0.004596696050567951
15.572000000000001,0.004596623928939175
15.576,0.004601383956438377
15.58,0.004590517631036158
15.584,0.004590445509407382
15.588000000000001,0.004590806117551261
15.592,0.004588209738915333
15.596,0.004587320238827098
15.6,0.00459345057727304
15.604000000000001,0.004594917050391481
15.608,0.004582367886984493
15.612,0.0045860460900520586
15.616,0.0046046053891903626
15.620000000000001,0.004616505457938368
15.624,0.004632155851382714
15.628,0.004621890539553627
15.632,0.004600686780693544
15.636000000000001,0.00458070908952265
15.64,0.0045759731025663735
15.644,0.004591767739268272
15.648,0.004602754267385117
15.652000000000001,0.00459395542867447
15.656,0.004586310536024237
15.66,0.004586959630683219
15.664,0.004587752968599753
15.668000000000001,0.0045897964147484
15.672,0.0045829448600147
15.676,0.0045876327658851265
15.68,0.004591046522980514
15.684000000000001,0.00459395542867447
15.688,0.004586262454938386
15.692,0.004594580482790527
15.696,0.004609461578861266
15.700000000000001,0.004607706619227722
15.704,0.004605831456879551
15.708,0.0046046053891903626
15.712,0.004604533267561587
15.716000000000001,0.004600662740150619
15.72,0.00459527765853536
15.724,0.004598162523686391
15.728,0.0045918398608970476
15.732000000000001,0.004595061293649032
15.736,0.004599532834633132
15.74,0.0045804206030075475
15.744,0.004568881142403421
15.748000000000001,0.004570684183122816
15.752,0.004569193669461449
15.756,0.0045687609396887945
15.76,0.0045829448600147
15.764000000000001,0.004594147753017873
15.768,0.004604340943218185
15.772,0.004604749632447914
15.776,0.004601407996981302
15.780000000000001,0.00459760959119911
15.784,0.004603307199872398
15.788,0.004628718053744402
15.792,0.004615519795678432
15.796000000000001,0.004596864334368427
15.8,0.004596335442424071
15.804,0.004596167158623595
15.808,0.004587031752311995
15.812000000000001,0.004579338778575911
15.816,0.00459573442885094
15.82,0.004594893009848556
15.824,0.004587680846970977
15.828000000000001,0.004587873171314379
15.832,0.004599725158976534
15.836,0.004600782942865245
15.84,0.004599989604948711
15.844000000000001,0.004593859266502769
15.848,0.004602826389013892
15.852,0.004610879970893857
15.856,0.004613284025186383
15.860000000000001,0.0045943641179042
15.864,0.004577631900028216
15.868,0.004588209738915333
15.872,0.004591238847323916
15.876,0.004584098806075113
15.88,0.004586430738738863
15.884,0.004600903145579872
15.888,0.00460984622754807
15.892,0.004592296631212627
15.896,0.004581814954497212
15.9,0.004581911116668913
15.904,0.0045892915633469695
15.908,0.004597801915542513
15.912,0.004600831023951096
15.916,0.004622323269326282
15.92,0.004605014078420092
15.924,0.004591094604066364
15.928,0.004606552673167309
15.932,0.00461756324182708
15.936,0.004608283592257928
15.94,0.0045879452929431545
15.944,0.0045831852654439524
15.948,0.0045897723742054745
15.952,0.004594340077361275
15.956,0.004589099239003567
15.96,0.004580805251694351
15.964,0.004577631900028216
15.968,0.004559288965776241
15.972,0.004570780345294517
15.976,0.004585637400822329
15.98,0.004622347309869207
15.984,0.004628790175373178
15.988,0.004617731525627556
15.992,0.004600326172549666
15.996,0.004599821321148234
16.0,0.004602610024127565
16.004,0.004606720956967786
16.008,0.00460614398393758
16.012,0.00459030126614983
16.016000000000002,0.004587608725342201
16.02,0.0045903253066927555
16.024,0.0045863586171100874
16.028,0.004592681279899431
16.032,0.004594989172020256
16.036,0.0045920802663263
16.04,0.004582920819471775
16.044,0.004575708656594196
16.048000000000002,0.004567799317971784
16.052,0.004572847831986089
16.056,0.004595494023421688
16.06,0.004605687213621999
16.064,0.004619173958203072
16.068,0.004610110673520248
16.072,0.0046046775108191385
16.076,0.0046059516595941775
16.080000000000002,0.004595974834280193
16.084,0.004576862602654609
16.088,0.004581021616580679
16.092,0.004587873171314379
16.096,0.004593234212386712
16.1,0.0046004704158072165
16.104,0.0045892915633469695
16.108,0.004586791346882742
16.112000000000002,0.004593570779987666
16.116,0.0045914311716673175
16.12,0.004581262022009931
16.124,0.004594893009848556
16.128,0.004610351078949501
16.132,0.004604749632447914
16.136,0.004599989604948711
16.14,0.004609245213974938
16.144000000000002,0.004634704148932792
16.148,0.0046367956761672905
16.152,0.004615712120021835
16.156,0.004602634064670491
16.16,0.004596527766767474
16.164,0.004587488522627575
16.168,0.004586070130594984
16.172,0.004592681279899431
16.176000000000002,0.004587680846970977
16.18,0.004581262022009931
16.184,0.0045687609396887945
16.188,0.0045746268321625585
16.192,0.004589724293119624
16.196,0.0045986433345448965
16.2,0.004589003076831866
16.204,0.0045839064817317105
16.208000000000002,0.004596335442424071
16.212,0.004597705753370812
16.216,0.0046109520925226325
16.22,0.00462314064778574
16.224,0.004616144849794489
16.228,0.004610206835691949
16.232,0.004597825956085438
16.236,0.004616289093052041
16.240000000000002,0.00461532747133503
16.244,0.004597128780340605
16.248,0.0045933303745584134
16.252,0.00459070995537956
16.256,0.00457883392717448
16.26,0.004568520534259542
16.264,0.004571814088640303
16.268,0.004585036387249198
16.272000000000002,0.0045953257396212106
16.276,0.0046004704158072165
16.28,0.004595902712651417
16.284,0.004598715456173672
16.288,0.004605831456879551
16.292,0.004602441740327088
16.296,0.004607802781399423
16.3,0.004633430000157753
16.304000000000002,0.004619967296119606
16.308,0.004604100537788932
16.312,0.004590084901263503
16.316,0.00458847418488751
16.32,0.004586262454938386
16.324,0.004592104306869225
16.328,0.0045937390637881435
16.332,0.004585589319736479
16.336000000000002,0.004579122413689583
16.34,0.004584844062905795
16.344,0.004588570347059211
16.348,0.004596623928939175
16.352,0.004599100104860477
16.356,0.004597080699254755
16.36,0.004614173525274617
16.364,0.004633333837986052
16.368000000000002,0.004637276487025796
16.372,0.004622659836927235
16.376,0.0046046053891903626
16.38,0.004593690982702293
16.384,0.004583305468158579
16.388,0.004586743265796891
16.392,0.004597898077714214
16.396,0.0045975374695703345
16.4,0.004582608292413746
16.404,0.004570804385837442
16.408,0.004573785413160175
16.412,0.0045783531163159745
16.416,0.0045946045233334525
16.42,0.004615135146991628
16.424,0.004622347309869207
16.428,0.004623837823530573
16.432,0.00461624101196619
16.436,0.004613067660300055
16.44,0.004615976565994012
16.444,0.004600662740150619
16.448,0.004586430738738863
16.452,0.004591767739268272
16.456,0.004598258685858093
16.46,0.004605038118963017
16.464,0.004608956727459835
16.468,0.004607634497598946
16.472,0.004603691848559203
16.476,0.004593065928586236
16.48,0.004583762238474159
16.484,0.0045866711441681154
16.488,0.0045911186446092895
16.492,0.004593690982702293
16.496,0.004595974834280193
16.5,0.004607249848912142
16.504,0.004620784674579065
16.508,0.004617491120198304
16.512,0.004596912415454278
16.516000000000002,0.004600494456350142
16.52,0.004591262887866841
16.524,0.004582440008613269
16.528,0.004592416833927254
16.532,0.004583834360102935
16.536,0.004586815387425667
16.54,0.00459614311808067
16.544,0.0046025379024987895
16.548000000000002,0.0045946045233334525
16.552,0.0045920802663263
16.556,0.004584555576390693
16.56,0.004569385993804851
16.564,0.004585757603536956
16.568,0.0046018166862110315
