0.0,-0.012142469542320912
0.004,-0.012141531961146826
0.008,-0.012138574974367019
0.012,-0.012134848690213603
0.016,-0.012134343838812173
0.02,-0.012136315163332044
0.024,-0.01213816628513729
0.028,-0.012140426096172264
0.032,-0.012140882866487844
0.036000000000000004,-0.012138430731109467
0.04,-0.012133237973837611
0.044,-0.012131651298004543
0.048,-0.012134728487498976
0.052000000000000005,-0.01213410343338292
0.056,-0.01213552182541551
0.06,-0.01214013760965716
0.064,-0.012142926312636491
0.068,-0.012142902272093565
0.07200000000000001,-0.012142157015262884
0.076,-0.012142541663949687
0.08,-0.012138142244594363
0.084,-0.012137685474278783
0.088,-0.012142806109921866
0.092,-0.012144488947926633
0.096,-0.012142806109921866
0.1,-0.012141580042232676
0.10400000000000001,-0.012141604082775603
0.108,-0.012142421461235061
0.112,-0.012141652163861453
0.116,-0.012140666501601517
0.12,-0.012139801042056208
0.124,-0.012139464474455254
0.128,-0.012137901839165112
0.132,-0.012139248109568927
0.136,-0.012144537029012484
0.14,-0.01214785462393617
0.14400000000000002,-0.012147421894163516
0.148,-0.012146868961676235
0.152,-0.012145739056158747
0.156,-0.012144320664126157
0.16,-0.012145859258873374
0.164,-0.01214831139425175
0.168,-0.01214958554302679
0.17200000000000001,-0.012149465340312164
0.176,-0.012149898070084817
0.18,-0.012148912407824881
0.184,-0.012146412191360655
0.188,-0.012148119069908349
0.192,-0.012149898070084817
0.196,-0.012149417259226313
0.2,-0.012150499083657949
0.20400000000000001,-0.012153504151523607
0.20800000000000002,-0.01215475425975572
0.212,-0.012155523557129328
0.216,-0.012154369611068916
0.22,-0.012152999300122177
0.224,-0.012154225367811366
0.228,-0.012155403354414703
0.232,-0.012156869827533143
0.23600000000000002,-0.01215836034119451
0.24,-0.012158841152053016
0.244,-0.012157278516762874
0.248,-0.012155860124730283
0.252,-0.012156076489616611
0.256,-0.012157494881649201
0.26,-0.01215922580073982
0.264,-0.012160211462999755
0.268,-0.012155836084187358
0.272,-0.012150426962029174
0.276,-0.01215013847551407
0.28,-0.012154994665184974
0.28400000000000003,-0.012160283584628532
0.28800000000000003,-0.012161509652317722
0.292,-0.012161990463176228
0.296,-0.012161557733403572
0.3,-0.012161533692860648
0.304,-0.012159033476396418
0.308,-0.012154826381384497
0.312,-0.012156268813960012
0.316,-0.012158288219565735
0.32,-0.012158672868252538
0.324,-0.0121597787332271
0.328,-0.012160427827886082
0.332,-0.012160163381913905
0.336,-0.01215932196291152
0.34,-0.012158913273681791
0.34400000000000003,-0.012158047814136482
0.34800000000000003,-0.012156004367987834
0.352,-0.012155812043644432
0.356,-0.012156533259932191
0.36,-0.012160956719830439
0.364,-0.012164538760726306
0.368,-0.01216223086860548
0.372,-0.012159370043997371
0.376,-0.012161653895575273
0.38,-0.012164658963440931
0.384,-0.012164490679640455
0.388,-0.012164322395839977
0.392,-0.012165428260814539
0.396,-0.012167351504248561
0.4,-0.012168697774652376
0.404,-0.012169346869311358
0.40800000000000003,-0.012169827680169863
0.41200000000000003,-0.012170188288313743
0.41600000000000004,-0.012170789301886874
0.42,-0.012171558599260482
0.424,-0.012171294153288305
0.428,-0.012170813342429799
0.432,-0.012170164247770817
0.436,-0.012169106463882105
0.44,-0.012168817977367002
0.444,-0.012169298788225508
0.448,-0.012170020004513265
0.452,-0.012167808274564141
0.456,-0.012165860990587194
0.46,-0.012165981193301822
0.464,-0.012164899368870184
0.468,-0.012158744989881315
0.47200000000000003,-0.01215333586772313
0.47600000000000003,-0.012157759327621379
0.48,-0.012163216530865415
0.484,-0.012164418558011678
0.488,-0.012163120368693714
0.492,-0.012161653895575273
0.496,-0.01215922580073982
0.5,-0.01216100480091629
0.504,-0.012166269679816924
0.508,-0.012168457369223123
0.512,-0.012167736152935366
0.516,-0.012167279382619784
0.52,-0.012166582206874953
0.524,-0.012165356139185764
0.528,-0.01216456280126923
0.532,-0.012164538760726306
0.536,-0.012165163814842362
0.54,-0.012165211895928212
0.544,-0.012165860990587194
0.548,-0.012166942815018832
0.552,-0.012166942815018832
0.556,-0.012163937747153174
0.56,-0.012163312693037116
0.5640000000000001,-0.012166582206874953
0.5680000000000001,-0.012164418558011678
0.5720000000000001,-0.01216004317919928
0.5760000000000001,-0.012162014503719152
0.58,-0.01216776019347829
0.584,-0.0121709095046015
0.588,-0.012172496180434568
0.592,-0.012173914572467158
0.596,-0.012173818410295457
0.6,-0.012171895166861436
0.604,-0.012170693139715173
0.608,-0.012171149910030753
0.612,-0.012170140207227892
0.616,-0.01216999596397034
0.62,-0.012171246072202454
0.624,-0.012169467072025984
0.628,-0.012166582206874953
0.632,-0.012166918774475906
0.636,-0.012169971923427414
0.64,-0.012172135572290688
0.644,-0.012172351937177016
0.648,-0.012166726450132503
0.652,-0.01216213470643378
0.656,-0.012167327463705635
0.66,-0.012170765261343948
0.664,-0.012171390315460006
0.668,-0.012173361639979877
0.672,-0.012175405086128525
0.676,-0.0121754772077573
0.68,-0.012174227099525186
0.684,-0.012173818410295457
0.6880000000000001,-0.012172111531747763
0.6920000000000001,-0.012170981626230275
0.6960000000000001,-0.012170548896457621
0.7000000000000001,-0.012170020004513265
0.704,-0.012169611315283536
0.708,-0.012168457369223123
0.712,-0.012168096761079245
0.716,-0.012167471706963187
0.72,-0.012167423625877336
0.724,-0.012167567869134888
0.728,-0.012166389882531551
0.732,-0.012164202193125351
0.736,-0.012163937747153174
0.74,-0.012165812909501344
0.744,-0.012168024639450468
0.748,-0.012169058382796255
0.752,-0.012168817977367002
0.756,-0.012167567869134888
0.76,-0.012167014936647607
0.764,-0.012169707477455237
0.768,-0.012173313558894026
0.772,-0.012174323261696887
0.776,-0.012174395383325664
0.78,-0.012173770329209606
0.784,-0.012173313558894026
0.788,-0.012172063450661913
0.792,-0.012171125869487827
0.796,-0.012171510518174632
0.8,-0.012172039410118986
0.804,-0.012172303856091166
0.808,-0.012172616383149194
0.812,-0.012173265477808176
0.8160000000000001,-0.012173746288666682
0.8200000000000001,-0.012173049112921849
0.8240000000000001,-0.012171510518174632
0.8280000000000001,-0.012172688504777969
0.8320000000000001,-0.012175405086128525
0.836,-0.012174755991469543
0.84,-0.01216410603095365
0.844,-0.01216949111256891
0.848,-0.012173433761608652
0.852,-0.01217237597771994
0.856,-0.012174755991469543
0.86,-0.012177616816077649
0.864,-0.012179924708198474
0.868,-0.012181078654258886
0.872,-0.012181174816430588
0.876,-0.012180669965029157
0.88,-0.012179491978425818
0.884,-0.01217771297824935
0.888,-0.012178987127024388
0.892,-0.012181631586746167
0.896,-0.012180621883943307
0.9,-0.01217720812684792
0.904,-0.01217872268105221
0.908,-0.012179443897339968
0.912,-0.012176991761961591
0.916,-0.0121776648971635
0.92,-0.012178362072908332
0.924,-0.012177352370105471
0.928,-0.012176967721418666
0.932,-0.012175958018615806
0.936,-0.012174587707669065
0.9400000000000001,-0.012176294586216758
0.9440000000000001,-0.012180718046115008
0.9480000000000001,-0.012182208559776374
0.9520000000000001,-0.012182232600319299
0.9560000000000001,-0.012181583505660317
0.96,-0.012180261275799428
0.964,-0.012179227532453641
0.968,-0.01218228068140515
0.972,-0.012186632019674622
0.976,-0.012186367573702445
0.98,-0.01218141522185984
0.984,-0.012181655627289092
0.988,-0.012184684735697676
0.992,-0.01218506938438448
0.996,-0.012182232600319299
1.0,-0.012181968154347122
1.004,-0.012186271411530744
1.008,-0.01218740131704823
1.012,-0.012185718479043463
1.016,-0.012185766560129313
1.02,-0.012185694438500537
1.024,-0.012184853019498152
1.028,-0.012184059681581618
1.032,-0.012183170181493385
1.036,-0.012180429559599904
1.04,-0.012177424491734246
1.044,-0.01217497235635587
1.048,-0.012175308923956824
1.052,-0.012177592775534722
1.056,-0.012178650559423434
1.06,-0.012178386113451256
1.064,-0.012177905302592752
1.068,-0.012177472572820097
1.072,-0.012177833180963975
1.076,-0.012177544694448872
1.08,-0.012181343100231064
1.084,-0.012178650559423434
1.088,-0.012176054180787507
1.092,-0.012177857221506902
1.096,-0.012178386113451256
1.1,-0.012177232167390844
1.104,-0.012177688937706424
1.108,-0.01217862651888051
1.112,-0.012179804505483848
1.116,-0.012180790167743783
1.12,-0.012181030573173036
1.124,-0.012179972789284324
1.1280000000000001,-0.012179107329739015
1.1320000000000001,-0.012179395816254117
1.1360000000000001,-0.012179732383855071
1.1400000000000001,-0.012179564100054595
1.1440000000000001,-0.012180766127200858
1.1480000000000001,-0.01218040551905698
1.1520000000000001,-0.01218086228937256
1.156,-0.01218401160049577
1.16,-0.012181198856973512
1.164,-0.012182857654435355
1.168,-0.01218963708754028
1.172,-0.01219232962834791
1.176,-0.012195286615127717
1.18,-0.012197546426162692
1.184,-0.012199181183081609
1.188,-0.012199060980366983
1.192,-0.012198556128965553
1.196,-0.01219922926416746
1.2,-0.012200070683169844
1.204,-0.012199085020909908
1.208,-0.012196729047703232
1.212,-0.012197690669420244
1.216,-0.012199036939824059
1.22,-0.012197738750506094
1.224,-0.012196825209874933
1.228,-0.012196176115215951
1.232,-0.012198459966793852
1.236,-0.01220242665637652
1.24,-0.012202138169861416
1.244,-0.012200263007513246
1.248,-0.012203412318636456
1.252,-0.01220612889998701
1.256,-0.012209494575996547
1.26,-0.012210792765314511
1.264,-0.012209903265226276
1.268,-0.012209133967852668
1.272,-0.012207379008219124
1.276,-0.012205551926956805
1.28,-0.012203075751035502
1.284,-0.012203604642979858
1.288,-0.012205720210757281
1.292,-0.01220567212967143
1.296,-0.012205527886413879
1.3,-0.01220516727827
1.304,-0.012204301818724691
1.308,-0.01220343635917938
1.312,-0.012203460399722307
1.316,-0.012203628683522783
1.32,-0.012201993926603866
1.324,-0.012198147439735824
1.328,-0.012196705007160307
1.332,-0.012200984223801004
1.336,-0.012203292115921829
1.34,-0.012203628683522783
1.344,-0.012203292115921829
1.348,-0.01220471050795442
1.352,-0.012206729913560142
1.356,-0.012208196386678583
1.36,-0.01220927821111022
1.364,-0.012208388711021985
1.368,-0.012205744251300206
1.372,-0.012205888494557757
1.3760000000000001,-0.01220831658939321
1.3800000000000001,-0.012208124265049808
1.3840000000000001,-0.012207114562246947
1.3880000000000001,-0.01220826850830736
1.3920000000000001,-0.01220877335970879
1.3960000000000001,-0.012208581035365387
1.4000000000000001,-0.012210576400428184
1.4040000000000001,-0.012213413184493366
1.408,-0.012214206522409898
1.412,-0.012214254603495749
1.416,-0.0122143026845816
1.42,-0.012216009563129293
1.424,-0.01221480753598303
1.428,-0.012207883859620555
1.432,-0.012208340629936134
1.436,-0.012212836211463159
1.44,-0.012214158441324048
1.444,-0.012218149171449642
1.448,-0.012221009996057748
1.452,-0.012219832009454411
1.456,-0.012214254603495749
1.46,-0.012213581468293842
1.464,-0.012219976252711963
1.468,-0.012220865752800196
1.472,-0.012216730779417052
1.476,-0.012215769157700042
1.48,-0.012217788563305763
1.484,-0.012220096455426589
1.488,-0.01222430355043851
1.492,-0.012225673861385249
1.496,-0.01222439971261021
1.5,-0.012223317888178573
1.504,-0.012222668793519591
1.508,-0.012220096455426589
1.512,-0.012217764522762837
1.516,-0.012217836644391614
1.52,-0.012221707171802581
1.524,-0.012224616077496538
1.528,-0.012223750617951229
1.532,-0.012220577266285094
1.536,-0.012215865319871743
1.54,-0.012213701671008468
1.544,-0.012213196819607038
1.548,-0.012212331360061729
1.552,-0.012211850549203223
1.556,-0.012213365103407516
1.56,-0.01221298045472071
1.564,-0.012213821873723095
1.568,-0.012214783495440105
1.572,-0.012215865319871743
1.576,-0.012217067347018006
1.58,-0.01221516814412691
1.584,-0.012212643887119757
1.588,-0.01221197075191785
1.592,-0.012212691968205607
1.596,-0.012216249968558546
1.6,-0.012220529185199244
1.604,-0.012221875455603059
1.608,-0.012223991023380482
1.612,-0.012225120928897968
1.616,-0.012221851415060133
1.62,-0.01221923099588128
1.624,-0.012221298482572852
1.6280000000000001,-0.01222206777994646
1.6320000000000001,-0.012222260104289862
1.6360000000000001,-0.012221755252888431
1.6400000000000001,-0.01221841361742182
1.6440000000000001,-0.01221754815787651
1.6480000000000001,-0.012219255036424204
1.6520000000000001,-0.012218149171449642
1.6560000000000001,-0.012218605941765222
1.6600000000000001,-0.01222074555008557
1.6640000000000001,-0.012223918901751705
1.668,-0.012223125563835171
1.672,-0.012220721509542645
1.676,-0.012225096888355044
1.68,-0.012228727010336757
1.684,-0.012229808834768395
1.688,-0.012230842578114182
1.692,-0.01223216480797507
1.696,-0.012232285010689696
1.7,-0.012231948443088744
1.704,-0.012231275307886836
1.708,-0.012229520348253291
1.712,-0.012229183780652337
1.716,-0.012228895294137235
1.72,-0.012226755685816887
1.724,-0.012226346996587157
1.728,-0.012227164375046616
1.732,-0.012228558726536281
1.736,-0.012227789429162673
1.74,-0.012220937874428973
1.744,-0.012220961914971898
1.748,-0.012227837510248524
1.752,-0.012232044605260445
1.756,-0.012235410281269982
1.76,-0.012236612308416245
1.764,-0.012234280375752494
1.768,-0.012231131064629284
1.772,-0.012229135699566487
1.776,-0.012231948443088744
1.78,-0.012233342794578408
1.784,-0.012232453294490174
1.788,-0.012231683997116565
1.792,-0.012230962780828808
1.796,-0.012229760753682544
1.8,-0.012229159740109413
1.804,-0.012230289645626901
1.808,-0.012228005794049
1.812,-0.012225962347900353
1.816,-0.012227284577761243
1.82,-0.012229015496851861
1.824,-0.012230770456485405
1.828,-0.012230914699742957
1.832,-0.012226467199301783
1.836,-0.012221514847459179
1.84,-0.01222627487495838
1.844,-0.012231756118745342
1.848,-0.012231948443088744
1.852,-0.012230770456485405
1.856,-0.012230289645626901
1.86,-0.01222891933468016
1.864,-0.012227356699390018
1.868,-0.012226154672243755
1.872,-0.012225986388443279
1.8760000000000001,-0.012225745983014026
1.8800000000000001,-0.012225337293784297
1.8840000000000001,-0.012224183347723884
1.8880000000000001,-0.012220360901398766
1.8920000000000001,-0.012214879657611807
1.8960000000000001,-0.01221923099588128
1.9000000000000001,-0.012227621145362196
1.9040000000000001,-0.012232813902634053
1.9080000000000001,-0.012233967848694466
1.9120000000000001,-0.012234376537924195
1.9160000000000001,-0.012232934105348679
1.92,-0.012228702969793833
1.924,-0.012229953078025947
1.928,-0.012235650686699235
1.932,-0.01223800665990591
1.936,-0.012238535551850265
1.94,-0.012238896159994144
1.944,-0.012238727876193668
1.948,-0.012237525849047404
1.952,-0.012234256335209569
1.956,-0.012230361767255676
1.96,-0.012231635916030714
1.964,-0.012235338159641205
1.968,-0.01223815090316346
1.972,-0.012235506443441683
1.976,-0.012229400145538666
1.98,-0.012231179145715134
1.984,-0.012237838376105432
1.988,-0.012240915565599867
1.992,-0.01224033859256966
1.996,-0.012239136565423397
2.0,-0.012239208687052174
2.004,-0.012239665457367753
2.008,-0.012238775957279518
2.012,-0.012235482402898757
2.016,-0.012234737146068073
2.02,-0.012234160173037868
2.024,-0.012231996524174595
2.028,-0.012233559159464736
2.032,-0.012236468065158693
2.036,-0.012236708470587946
2.04,-0.012234881389325625
2.044,-0.012232429253947248
2.048,-0.012235698767785085
2.052,-0.0122372373625323
2.056,-0.012238583632936116
2.06,-0.012241492538630072
2.064,-0.012241732944059325
2.068,-0.012241925268402728
2.072,-0.012240723241256465
2.076,-0.01223937697085265
2.08,-0.012236924835474273
2.084,-0.012232765821548202
2.088,-0.01223480926769685
2.092,-0.012237213321989376
2.096,-0.012236804632759647
2.1,-0.01223572280832801
2.104,-0.012237045038188898
2.108,-0.012238223024792237
2.112,-0.012237165240903526
2.116,-0.01223521795692658
2.12,-0.012234689064982223
2.124,-0.01223673251113087
2.128,-0.012238631714021966
2.132,-0.01223531411909828
2.136,-0.012230722375399555
2.14,-0.012235939173214336
2.144,-0.012240987687228642
2.148,-0.012240242430397959
2.152,-0.01223668443004502
2.156,-0.012235410281269982
2.16,-0.012235650686699235
2.164,-0.012236131497557739
2.168,-0.012232285010689696
2.172,-0.012230818537571256
2.176,-0.012232861983719904
2.18,-0.01223430441629542
2.184,-0.012234713105525149
2.188,-0.012232260970146772
2.192,-0.012231756118745342
2.196,-0.012233775524351063
2.2,-0.012233967848694466
2.204,-0.012232477335033099
2.208,-0.012231323388972686
2.212,-0.012234761186611
2.216,-0.012235578565070458
2.22,-0.012235482402898757
2.224,-0.012236996957103048
2.228,-0.012235362200184131
2.232,-0.012233126429692081
2.236,-0.012235939173214336
2.24,-0.0122393288897668
2.244,-0.012240194349312108
2.248,-0.012237982619362984
2.2520000000000002,-0.012235602605613384
2.2560000000000002,-0.01223577088941386
2.2600000000000002,-0.012236660389502095
2.2640000000000002,-0.012236371902986992
2.2680000000000002,-0.012236612308416245
2.2720000000000002,-0.012236395943529916
2.2760000000000002,-0.012236059375928964
2.2800000000000002,-0.012235674727242159
2.2840000000000003,-0.012234568862267597
2.2880000000000003,-0.012236251700272366
2.2920000000000003,-0.012234328456838344
2.2960000000000003,-0.012228991456308937
2.3000000000000003,-0.012228222158935327
2.3040000000000003,-0.012232549456661876
2.308,-0.012235963213757263
2.312,-0.012237405646332779
2.316,-0.012244185079437702
2.32,-0.012250724107113375
2.324,-0.012251829972087937
2.328,-0.012246877620245332
2.332,-0.012243824471293824
2.336,-0.012245891957985396
2.34,-0.012246324687758051
2.344,-0.012245819836356621
2.348,-0.012245146701154713
2.352,-0.012245531349841517
2.356,-0.012245915998528322
2.36,-0.012245843876899545
2.364,-0.012245387106583966
2.368,-0.012244882255182535
2.372,-0.012243271538806543
2.376,-0.012237429686875703
2.38,-0.012234905429868551
2.384,-0.012240458795284287
2.388,-0.012245699633641994
2.392,-0.012244834174096685
2.396,-0.012243439822607019
2.4,-0.012246589133730229
2.404,-0.012250507742227046
2.408,-0.012252094418060114
2.412,-0.01225175785045916
2.416,-0.012250724107113375
2.42,-0.012248464296078398
2.424,-0.012247358431103837
2.428,-0.01224937783670956
2.432,-0.012249642282681737
2.436,-0.012248848944765203
2.44,-0.012248945106936904
2.444,-0.01224719014730336
2.448,-0.012240482835827212
2.452,-0.012238583632936116
2.456,-0.012240627079084763
2.46,-0.012241588700801774
2.464,-0.01224521882278349
2.468,-0.01225079622874215
2.472,-0.012251373201772355
2.476,-0.01224932975562371
2.48,-0.012252839674890798
2.484,-0.012255844742756455
2.488,-0.012253921499322433
2.492,-0.012251445323401132
2.496,-0.012248440255535474
2.5,-0.012246396809386826
2.504,-0.012249762485396363
2.508,-0.012253416647921003
2.512,-0.012252647350547395
2.516,-0.01225221462077474
2.52,-0.012254570593981415
2.524,-0.012254570593981415
2.528,-0.012256013026556932
2.532,-0.012259619107995721
2.536,-0.01225901809442259
2.54,-0.012253777256064882
2.544,-0.012253633012807331
2.548,-0.012256397675243736
2.552,-0.012257022729359792
2.556,-0.012257287175331972
2.56,-0.012255772621127679
2.564,-0.012251517445029907
2.568,-0.012251926134259638
2.572,-0.012255652418413053
2.576,-0.01225764778347585
2.58,-0.012257239094246121
2.584,-0.012254835039953595
2.588,-0.012254810999410668
2.592,-0.0122576958645617
2.596,-0.012258368999763607
2.6,-0.012257359296960747
2.604,-0.012258441121392384
2.608,-0.012259090216051366
2.612,-0.012261325986543415
2.616,-0.012261374067629265
2.62,-0.012258320918677757
2.624,-0.012261927000116546
2.628,-0.012265941770785065
2.632,-0.012265749446441664
2.636,-0.012266542784358197
2.64,-0.012263970446265194
2.644,-0.012259138297137217
2.648,-0.01226048456754103
2.652,-0.01226272033803308
2.656,-0.012261013459485387
2.66,-0.012259330621480618
2.664,-0.01226043648645518
2.668,-0.012263345392149138
2.672,-0.012266037932956766
2.676,-0.012266302378928945
2.68,-0.012263778121921792
2.684,-0.012262095283917024
2.688,-0.012264475297666624
2.692,-0.012266494703272346
2.696,-0.012265509041012411
2.7,-0.012265388838297784
2.704,-0.01226687935195915
2.708,-0.01226728804118888
2.712,-0.012265220554497308
2.716,-0.012262888621833556
2.72,-0.012266182176214318
2.724,-0.012268634311592695
2.728,-0.012267432284446432
2.732,-0.012266182176214318
2.736,-0.012268225622362966
2.74,-0.012270629676655492
2.744,-0.012271591298372502
2.748,-0.012269764217110183
2.7520000000000002,-0.012270870082084745
2.7560000000000002,-0.01227418767700843
2.7600000000000002,-0.01227555798795517
2.7640000000000002,-0.0122735866634353
2.7680000000000002,-0.012271423014572026
2.7720000000000002,-0.012273442420177747
2.7760000000000002,-0.01227683213673021
2.7800000000000002,-0.012274283839180132
2.7840000000000003,-0.012272192311945634
2.7880000000000003,-0.01227272120388999
2.7920000000000003,-0.012274163636465506
2.7960000000000003,-0.012277385069217491
2.8000000000000003,-0.012279957407310494
2.8040000000000003,-0.012281303677714309
2.8080000000000003,-0.012282698029203974
2.8120000000000003,-0.012280967110113354
2.816,-0.012277168704331164
2.82,-0.01227728890704579
2.824,-0.012279692961338316
2.828,-0.012280414177626073
2.832,-0.012280101650568045
2.836,-0.012279957407310494
2.84,-0.012279140028851035
2.844,-0.012279596799166615
2.848,-0.01227916406939396
2.852,-0.012277721636818445
2.856,-0.012278923663964708
2.86,-0.012282481664317647
2.864,-0.012283851975264387
2.868,-0.012282241258888394
2.872,-0.012278226488219876
2.876,-0.012277721636818445
2.88,-0.012279236191022736
2.884,-0.012278034163876473
2.888,-0.01227464444732401
2.892,-0.012276567690758033
2.896,-0.012281928731830366
2.9,-0.012283876015807311
2.904,-0.012282962475176152
2.908,-0.012281520042600635
2.912,-0.012279500636994914
2.916,-0.01227921215047981
2.92,-0.012277673555732595
2.924,-0.012274908893296188
2.928,-0.012273057771490943
2.932,-0.012272096149773933
2.936,-0.012274259798637206
2.94,-0.01227601475827075
2.944,-0.012272336555203186
2.948,-0.012268994919736573
2.952,-0.012273105852576793
2.956,-0.012274620406781086
2.96,-0.012271206649685697
2.964,-0.012267528446618133
2.968,-0.012271519176743727
2.972,-0.012277072542159463
2.976,-0.012278370731477427
2.98,-0.012274788690581562
2.984,-0.01227322605529142
2.988,-0.012276303244785854
2.992,-0.012277072542159463
2.996,-0.012277962042247697
3.0,-0.012278779420707157
3.004,-0.012278563055820828
3.008,-0.012277048501616537
3.012,-0.012275461825783469
3.016,-0.012275221420354218
3.02,-0.01227591859609905
3.024,-0.012278611136906679
3.028,-0.01228231338051717
3.032,-0.012281135393913832
3.036,-0.01227998144785342
3.04,-0.01228236146160302
3.044,-0.012284693394266771
3.048,-0.012286905124215895
3.052,-0.012288179272990933
3.056,-0.012289140894707945
3.06,-0.012290150597510806
3.064,-0.01229099201651319
3.068,-0.012291064138141966
3.072,-0.012289910192081553
3.076,-0.012289285137965495
3.08,-0.012288419678420186
3.084,-0.012284813596981397
3.088,-0.012280173772196822
3.092,-0.01228337116440588
3.096,-0.012286568556614941
3.1,-0.01228866008384944
3.104,-0.012289597665023525
3.108,-0.012289020691993318
3.112,-0.0122872897729027
3.116,-0.012285342488925753
3.12,-0.01228240954268887
3.124,-0.012282457623774721
3.128,-0.01228606370521351
3.132,-0.01228875624602114
3.136,-0.012288587962220664
3.14,-0.012285943502498885
3.144,-0.01228769846213243
3.148,-0.012289261097422571
3.152,-0.012291160300313667
3.156,-0.012292746976146735
3.16,-0.01229231424637408
3.164,-0.01229277101668966
3.168,-0.01229089585434149
3.172,-0.012287866745932905
3.176,-0.012290150597510806
3.18,-0.01229524719261096
3.184,-0.012296905990072805
3.188,-0.012295271233153887
3.192,-0.012293468192434492
3.196,-0.012293059503204763
3.2,-0.012291593030086322
3.204,-0.012288972610907467
3.208,-0.012292554651803332
3.212,-0.012295607800754841
3.216,-0.012295223152068036
3.22,-0.012293852841121297
3.224,-0.01229281909777551
3.228,-0.01229231424637408
3.232,-0.012291641111172171
3.236,-0.012290799692169788
3.24,-0.012285414610554529
3.244,-0.012285847340327184
3.248,-0.012293588395149118
3.2520000000000002,-0.01229738680093131
3.2560000000000002,-0.012298684990249274
3.2600000000000002,-0.012299574490337509
3.2640000000000002,-0.012299406206537033
3.2680000000000002,-0.012296136692699196
3.2720000000000002,-0.012294261530351026
3.2760000000000002,-0.01229866094970635
3.2800000000000002,-0.012303036328518747
3.2840000000000003,-0.012303853706978205
3.2880000000000003,-0.012304046031321608
3.2920000000000003,-0.012304358558379636
3.2960000000000003,-0.012304118152950384
3.3000000000000003,-0.01230286804471827
3.3040000000000003,-0.012303469058291402
3.3080000000000003,-0.012302916125804121
3.3120000000000003,-0.012302122787887587
3.3160000000000003,-0.01229820417939077
3.3200000000000003,-0.012294718300666606
3.3240000000000003,-0.012293059503204763
3.3280000000000003,-0.012289309178508422
3.332,-0.012293420111348641
3.336,-0.012299646611966284
3.34,-0.012303853706978205
3.344,-0.012303805625892355
3.348,-0.012301762179743709
3.352,-0.012304815328695217
3.356,-0.012306810693758012
3.36,-0.01230469512598059
3.364,-0.012303276733948
3.368,-0.012301882382458334
3.372,-0.012299550449794583
3.376,-0.012298444584820021
3.38,-0.012297146395502057
3.384,-0.012294814462838307
3.388,-0.012294718300666606
3.392,-0.012297050233330355
3.396,-0.012299045598393153
3.4,-0.012299478328165808
3.404,-0.012299237922736555
3.408,-0.012301569855400306
3.412,-0.012304166234036235
3.416,-0.01230378158534943
3.42,-0.012302483396031466
3.424,-0.012303204612319223
3.428,-0.012305272099010797
3.432,-0.0123056567476976
3.436,-0.012305536544982974
3.44,-0.012307243423530668
3.444,-0.012307099180273116
3.448,-0.012307748274932098
3.452,-0.012305007653038618
3.456,-0.012301641977029081
3.46,-0.012299935098481388
3.464,-0.012299814895766762
3.468,-0.012300968841827175
3.472,-0.012301930463544185
3.476,-0.012302435314945615
3.48,-0.012303204612319223
3.484,-0.012305055734124468
3.488,-0.012304166234036235
3.492,-0.012301281368885203
3.496,-0.012302267031145139
3.5,-0.012304310477293785
3.504,-0.012304719166523516
3.508,-0.012307555950588696
3.512,-0.012310008085967073
3.516,-0.01230616159909903
3.52,-0.012304166234036235
3.524,-0.01230839736959108
3.528,-0.01230885413990666
3.532,-0.012307724234389174
3.536,-0.01231027253193925
3.54,-0.012311522640171364
3.544,-0.012311763045600617
3.548,-0.01231104182931286
3.552,-0.012310056167052923
3.556,-0.01231108991039871
3.56,-0.012311234153656262
3.564,-0.012309695558909045
3.568,-0.012309479194022718
3.572,-0.012308589693934483
3.576,-0.012307604031674546
3.58,-0.012309431112936867
3.584,-0.012310729302254832
3.588,-0.012311739005057692
3.592,-0.01230926282913639
3.596,-0.012308565653391557
3.6,-0.012310657180626055
3.604,-0.01230981576162367
3.608,-0.01231063314008313
3.612,-0.012311186072570411
3.616,-0.012308493531762782
3.62,-0.01230880605882081
3.624,-0.012311426477999664
3.628,-0.012311474559085513
3.632,-0.01230880605882081
3.636,-0.01230697897755849
3.64,-0.012307964639818425
3.644,-0.012308565653391557
3.648,-0.012309911923795372
3.652,-0.012310056167052923
3.656,-0.012306738572129237
3.66,-0.012305175936839096
3.664,-0.012305127855753245
3.668,-0.01230012742282479
3.672,-0.012295896287269943
3.676,-0.012295679922383616
3.68,-0.012298781152420975
3.684,-0.012300752476940846
3.688,-0.012305055734124468
3.692,-0.012309094545335913
3.696,-0.012308493531762782
3.7,-0.012306498166699984
3.704,-0.012306690491043387
3.708,-0.012307700193846248
3.712,-0.012307724234389174
3.716,-0.01230688281538679
3.72,-0.012305800990955152
3.724,-0.012304959571952767
3.728,-0.012303685423177729
3.732,-0.01230195450408711
3.736,-0.012300872679655473
3.74,-0.012299406206537033
3.744,-0.012296713665729403
3.748,-0.012293684557320819
3.7520000000000002,-0.012295896287269943
3.7560000000000002,-0.012299766814680911
3.7600000000000002,-0.012303445017748476
3.7640000000000002,-0.012306810693758012
3.7680000000000002,-0.012308565653391557
3.7720000000000002,-0.012304142193493309
3.7760000000000002,-0.012299310044365332
3.7800000000000002,-0.012302844004175344
3.7840000000000003,-0.012305536544982974
3.7880000000000003,-0.012305728869326377
3.7920000000000003,-0.012307820396560875
3.7960000000000003,-0.012311714964514766
3.8000000000000003,-0.012311811126686468
3.8040000000000003,-0.012306834734300939
3.8080000000000003,-0.0123056567476976
3.8120000000000003,-0.012308421410134007
3.8160000000000003,-0.012309743639994895
3.8200000000000003,-0.012310488896825579
3.8240000000000003,-0.012311137991484561
3.8280000000000003,-0.012310440815739728
3.8320000000000003,-0.012308565653391557
3.8360000000000003,-0.012307748274932098
3.84,-0.012307339585702369
3.844,-0.012306353923442433
3.848,-0.012302964206889972
3.852,-0.012299502368708732
3.856,-0.012301281368885203
3.86,-0.012305680788240526
3.864,-0.012307291504616518
3.868,-0.012304358558379636
3.872,-0.012301617936486157
3.876,-0.012304574923265964
3.88,-0.01230738766678822
3.884,-0.012309863842709521
3.888,-0.012311979410486945
3.892,-0.012311979410486945
3.896,-0.01231149859962844
3.9,-0.012310609099540204
3.904,-0.012310825464426533
3.908,-0.012311306275285037
3.912,-0.012309863842709521
3.916,-0.012307579991131622
3.92,-0.012307700193846248
3.924,-0.01230931091022224
3.928,-0.012309647477823194
3.932,-0.012309383031851017
3.936,-0.012307796356017949
3.94,-0.01230378158534943
3.944,-0.012304382598922562
3.948,-0.01230789251818965
3.952,-0.012309286869679316
3.956,-0.012309407072393941
3.96,-0.012312027491572796
3.964,-0.01231378245120634
3.968,-0.012313662248491713
3.972,-0.012311570721257215
3.976,-0.01231296507274688
3.98,-0.012315393167582333
3.984,-0.01231464791075165
3.988,-0.012311570721257215
3.992,-0.012311666883428916
3.996,-0.012315224883781855
4.0,-0.012318662681420168
4.0040000000000004,-0.01231931177607915
4.008,-0.012318542478705542
4.0120000000000005,-0.01231880692467772
4.016,-0.012317340451559279
4.0200000000000005,-0.012313253559261984
4.024,-0.012314551748579948
4.0280000000000005,-0.012317244289387578
4.032,-0.012317869343503634
4.0360000000000005,-0.01231784530296071
4.04,-0.01231419114043607
4.0440000000000005,-0.012315176802696004
4.048,-0.012318951167935271
4.0520000000000005,-0.01232032147888201
4.056,-0.012319335816622074
4.0600000000000005,-0.012319119451735748
4.064,-0.01231981662748058
4.0680000000000005,-0.01232022531671031
4.072,-0.012318181870561662
4.0760000000000005,-0.01231392669446389
4.08,-0.012314167099893143
4.0840000000000005,-0.012319504100422552
4.088,-0.012324504533351007
4.0920000000000005,-0.012326211411898701
4.096,-0.012326547979499653
4.1,-0.012327173033615711
4.104,-0.012327966371532245
4.108,-0.01232748556067374
4.112,-0.012326355655156253
4.116,-0.012327052830901086
4.12,-0.01232702879035816
4.124,-0.012328711628362929
4.128,-0.012330562750168174
4.132,-0.012330610831254024
4.136,-0.012329120317592658
4.14,-0.012329456885193612
4.144,-0.012329168398678508
4.148,-0.012328014452618096
4.152,-0.012325105546924139
4.156,-0.012324624736065633
4.16,-0.012326812425471833
4.164,-0.012328110614789797
4.168,-0.012323038060232565
4.172,-0.012320465722139563
4.176,-0.012327100911986934
4.18,-0.01233241387197342
4.184,-0.012335154493866898
4.188,-0.0123306829528828
4.192,-0.012325369992896316
4.196,-0.012326283533527476
4.2,-0.012328230817504423
4.204,-0.012327365357959114
4.208,-0.012326644141671355
4.212,-0.012329913655509192
4.216,-0.012332630236859746
4.22,-0.012332125385458316
4.224,-0.012329072236506807
4.228,-0.012329144358135582
4.232,-0.012331620534056885
4.236,-0.01233255811523097
4.24,-0.012333736101834308
4.244,-0.012335202574952749
4.248,-0.012335707426354179
4.252,-0.012334192872149888
4.256,-0.012335034291152272
4.26,-0.012336404602099012
4.264,-0.012337462385987723
4.268,-0.012337678750874052
4.272,-0.012338255723904257
4.276,-0.012337101777843845
4.28,-0.012336981575129219
4.284,-0.012342246454029851
4.288,-0.012342270494572776
4.292,-0.012340299170052905
4.296,-0.01234306383248931
4.3,-0.012344145656920947
4.304,-0.01234383312986292
4.308,-0.01234311191357516
4.312,-0.01234356868389074
4.316,-0.012346285265241296
4.32,-0.012345996778726193
4.324,-0.012345155359723808
4.328,-0.012345275562438434
4.332,-0.012344265859635573
4.336,-0.012344722629951153
4.34,-0.012345083238095033
4.344,-0.012343785048777069
4.348,-0.012342631102716656
4.352,-0.012343448481176114
4.356,-0.012343592724433666
4.36,-0.012345155359723808
4.364,-0.012346285265241296
4.368,-0.012341044426883588
4.372,-0.012340611697110933
4.376,-0.012347078603157828
4.38,-0.01235082892785417
4.384,-0.012353641671376425
4.388,-0.01235717563118644
4.392,-0.012359170996249239
4.396,-0.012359964334165773
4.4,-0.012360445145024277
4.404,-0.012359627766564818
4.408,-0.012358738266476583
4.412,-0.01235977200982237
4.416,-0.012361022118054484
4.42,-0.01235982009090822
4.424,-0.01235768048258787
4.428,-0.012357391996072766
4.432,-0.012355853401325551
4.436,-0.01235575723915385
4.44,-0.012356093806754802
4.444,-0.012351886711742881
4.448,-0.012350035589937636
4.452,-0.012352535806401863
4.456,-0.012358257455618079
4.46,-0.012360661509910605
4.464,-0.012358834428648284
4.468,-0.01235549279318167
4.472,-0.012354002279520306
4.476,-0.012352583887487714
4.48,-0.01235234348205846
4.484,-0.012355132185037792
4.488,-0.012356286131098205
4.492,-0.01235621400946943
4.496,-0.012356694820327934
4.5,-0.012357247752815215
4.5040000000000004,-0.012357416036615693
4.508,-0.01235835361778978
4.5120000000000005,-0.012359675847650669
4.516,-0.012359988374708697
4.5200000000000005,-0.0123579930096459
4.524,-0.012357776644759571
4.5280000000000005,-0.012359844131451145
4.532,-0.012357872806931272
4.5360000000000005,-0.012351478022513152
4.54,-0.012349146089849402
4.5440000000000005,-0.012356021685126027
4.548,-0.012361791415428092
4.5520000000000005,-0.012363354050718235
4.556,-0.01236292132094558
4.5600000000000005,-0.012361406766741289
4.564,-0.012361406766741289
4.5680000000000005,-0.012363594456147486
4.572,-0.01236607063206879
4.5760000000000005,-0.012367104375414575
4.58,-0.012365421537409807
4.5840000000000005,-0.01236342617234701
4.588,-0.01236566194283906
4.5920000000000005,-0.012367705388987706
4.596,-0.012369484389164177
4.6000000000000005,-0.012370566213595814
4.604,-0.012368570848533017
4.6080000000000005,-0.012364099307548917
4.612,-0.012366262956412192
4.616,-0.012370421970338262
4.62,-0.012371167227168946
4.624,-0.012374052092319976
4.628,-0.01237575897086767
4.632,-0.012374436741006781
4.636,-0.012372345213772283
4.64,-0.012371407632598197
4.644,-0.012373354916575144
4.648,-0.012374124213948753
4.652,-0.012372369254315209
4.656,-0.01237337895711807
4.66,-0.01237575897086767
4.664,-0.012376095538468624
4.668,-0.012374052092319976
4.672,-0.012371792281285002
4.676,-0.012369051659391521
4.68,-0.01236804195658866
4.684,-0.012369796916222205
4.688,-0.012369628632421728
4.692,-0.012366863969985323
4.696,-0.012365181131980554
4.7,-0.012360397063938426
4.704,-0.012356165928383579
4.708,-0.012357968969102974
4.712,-0.012358185333989302
4.716,-0.012359940293622846
4.72,-0.012363810821033815
4.724,-0.01236393102374844
4.728,-0.012360974036968633
4.732,-0.012359122915163388
4.736,-0.012361214442397886
4.74,-0.012362392429001223
4.744,-0.012357199671729364
4.748,-0.012351718427942405
4.752,-0.012351405900884377
4.756,-0.01235676694195671
4.76,-0.012360949996425709
4.764,-0.012361791415428092
4.768,-0.012358642104304882
4.772,-0.012357055428471814
4.776,-0.012359916253079922
4.78,-0.012360589388281829
4.784,-0.012359555644936043
4.788,-0.012358545942133183
4.792,-0.012357824725845422
4.796,-0.01235621400946943
4.8,-0.012354867739065615
4.804,-0.012358497861047332
4.808,-0.012355781279696774
4.812,-0.012351309738712676
4.816,-0.01235549279318167
4.82,-0.012361575050541765
4.824,-0.012363979104834291
4.828,-0.012362945361488504
4.832,-0.012363257888546534
4.836,-0.012365277294152256
4.84,-0.012365469618495658
4.844,-0.012363666577776263
4.848,-0.012362560712801701
4.852,-0.012362560712801701
4.856,-0.012365060929265929
4.86,-0.012367561145730156
4.864,-0.012367705388987706
4.868,-0.01236607063206879
4.872,-0.012366551442927294
4.876,-0.012366551442927294
4.88,-0.012365060929265929
4.884,-0.012362103942486121
4.888,-0.012362031820857345
4.892,-0.012368570848533017
4.896,-0.012370566213595814
4.9,-0.01236972479459343
4.904,-0.012369508429707101
4.908,-0.012368835294505194
4.912,-0.012369508429707101
4.916,-0.01236972479459343
4.92,-0.012369508429707101
4.924,-0.012368979537762746
4.928,-0.012368378524189615
4.932,-0.01236799387550281
4.936,-0.012368138118760362
4.94,-0.012367561145730156
4.944,-0.012366912051071174
4.948,-0.01236662356455607
4.952,-0.012363810821033815
4.956,-0.012361166361312036
4.96,-0.012361623131627615
4.964,-0.012364820523836676
4.968,-0.012366551442927294
4.972,-0.012370397929795336
4.976,-0.012372225011057657
4.98,-0.012370710456853364
4.984,-0.012372225011057657
4.988,-0.012371551875855749
4.992,-0.012368811253962268
4.996,-0.01236895549721982
5.0,-0.012369700754050503
5.0040000000000004,-0.012370590254138739
5.008,-0.012370806619025065
5.0120000000000005,-0.012368354483646688
5.016,-0.01236561386175321
5.0200000000000005,-0.012366719726727772
5.024,-0.012368426605275465
5.0280000000000005,-0.012369099740477372
5.032,-0.012368114078217437
5.0360000000000005,-0.012371263389340645
5.04,-0.012375470484352566
5.0440000000000005,-0.012376167660097399
5.048,-0.012375494524895492
5.0520000000000005,-0.012375278160009166
5.056,-0.012374004011234126
5.0600000000000005,-0.01237256157865861
5.064,-0.012370758537939215
5.0680000000000005,-0.012370998943368468
5.072,-0.012375398362723791
5.0760000000000005,-0.012376840795299307
5.08,-0.012379581417192788
5.0840000000000005,-0.012381528701169733
5.088,-0.012380086268594218
5.0920000000000005,-0.012377369687243662
5.096,-0.01237667251149883
5.1000000000000005,-0.012379437173935236
5.104,-0.012381264255197555
5.1080000000000005,-0.012380615160538573
5.112,-0.012379316971220609
5.1160000000000005,-0.012379341011763535
5.12,-0.012379533336106937
5.124,-0.01237849959276115
5.128,-0.012375374322180867
5.132,-0.012376384024983728
5.136,-0.012378379390046525
5.14,-0.012378066862988495
5.144,-0.012376504227698353
5.148,-0.012375614727610118
5.152,-0.012374965632951136
5.156,-0.012376287862812026
5.16,-0.01237946121447816
5.164,-0.012378379390046525
5.168,-0.012376287862812026
5.172,-0.012374917551865285
5.176,-0.012375855133039371
5.18,-0.01237479734915066
5.184,-0.012374076132862902
5.188,-0.012378090903531421
5.192,-0.012381624863341434
5.196,-0.012383211539174502
5.2,-0.012381264255197555
5.204,-0.012383644268947157
5.208,-0.012386144485411385
5.212,-0.012387346512557648
5.216,-0.012387418634186423
5.22,-0.012386336809754785
5.224,-0.01238799560721663
5.228,-0.012391313202140316
5.232,-0.012396097270182442
5.236,-0.012399727392164158
5.24,-0.012400088000308037
5.244,-0.01239814071633109
5.248,-0.012397058891899453
5.252,-0.012395928986381966
5.256,-0.012393164323945561
5.26,-0.012388933188390714
5.264,-0.012383259620260352
5.268,-0.012386745498984516
5.272,-0.012394823121407404
5.276,-0.012397611824386735
5.28,-0.012399150419133951
5.284,-0.012401602554512328
5.288,-0.012401722757226955
5.292,-0.012401602554512328
5.296,-0.012403453676317573
5.3,-0.012405328838665745
5.304,-0.01240641066309738
5.308,-0.012407660771329494
5.312,-0.012406939555041737
5.316,-0.012404823987264314
5.32,-0.012402035284284983
5.324,-0.012400929419310421
5.328,-0.01240266033840104
5.332,-0.012405497122466221
5.336,-0.01240768481187242
5.34,-0.012406747230698335
5.344,-0.012403621960118051
5.348,-0.012401578513969403
5.352,-0.01240266033840104
5.356,-0.012405785608981324
5.36,-0.012406723190155408
5.364,-0.012404920149436014
5.368,-0.012404078730433631
5.372,-0.012409031082276235
5.376,-0.012411266852768284
5.38,-0.012409175325533785
5.384,-0.012407083798299289
5.388,-0.012408021379473373
5.392,-0.012408333906531403
5.396,-0.01240809350110215
5.4,-0.012406338541468605
5.404,-0.012404920149436014
5.408,-0.012404006608804854
5.412,-0.012403886406090229
5.416,-0.012400953459853346
5.42,-0.012393548972632364
5.424,-0.012394270188920123
5.428,-0.01240270841948689
5.432,-0.012407780974044122
5.436,-0.012408406028160178
5.44,-0.012406434703640307
5.444,-0.01240590581169595
5.448,-0.012408117541645074
5.452,-0.012407997338930448
5.456,-0.01240544904138037
5.46,-0.012404222973691183
5.464,-0.012404054689890705
5.468,-0.012403117108716619
5.472,-0.012402612257315189
5.476,-0.012405617325180847
5.48,-0.012407949257844598
5.484,-0.012409199366076712
5.488,-0.012410136947250797
5.492,-0.012409896541821544
5.496,-0.012409031082276235
5.5,-0.012407612690243644
5.5040000000000004,-0.012405016311607715
5.508,-0.012407780974044122
5.5120000000000005,-0.012413478582717408
5.516,-0.012415714353209458
5.5200000000000005,-0.012409872501278618
5.524,-0.012405473081923295
5.5280000000000005,-0.012409271487705487
5.532,-0.012412685244800874
5.5360000000000005,-0.012409992703993246
5.54,-0.012407492487529018
5.5440000000000005,-0.012409247447162562
5.548,-0.012412156352856519
5.5520000000000005,-0.012411314933854134
5.556,-0.012410257149965423
5.5600000000000005,-0.012412949690773053
5.564,-0.012413863231404212
5.5680000000000005,-0.012410954325710256
5.572,-0.012411363014939985
5.5760000000000005,-0.012416099001896263
5.58,-0.012416964461441572
5.5840000000000005,-0.012416123042439187
5.588,-0.012417421231757151
5.5920000000000005,-0.012419416596819948
5.596,-0.012419584880620425
5.6000000000000005,-0.012420233975279407
5.604,-0.01242234954305683
5.6080000000000005,-0.012423455408031393
5.612,-0.012421628326769072
5.6160000000000005,-0.012415666272123607
5.62,-0.012415594150494832
5.6240000000000006,-0.012419801245506753
5.628,-0.012424537232463029
5.632,-0.012428912611275426
5.636,-0.012430451206022644
5.64,-0.012429489584305634
5.644,-0.012425162286579087
5.648,-0.012424777637892282
5.652,-0.012428263516616446
5.656,-0.012430619489823122
5.66,-0.012432735057600544
5.664,-0.012433023544115648
5.668,-0.01243001847624999
5.672,-0.012431508989911355
5.676,-0.012434297692890686
5.68,-0.012431869598055235
5.684,-0.012426580678611677
5.688,-0.01242737401652821
5.692,-0.0124332639495449
5.696,-0.012431821516969385
5.7,-0.012432061922398636
5.704,-0.012435812247094977
5.708,-0.01243504294972137
5.712,-0.012433937084746808
5.716,-0.012431172422310403
5.72,-0.012429802111363662
5.724,-0.012431749395340608
5.728,-0.012430667570908972
5.732,-0.012427614421957464
5.736,-0.012426893205669705
5.74,-0.012428095232815968
5.744,-0.012426460475897051
5.748,-0.012425643097437591
5.752,-0.012425522894722965
5.756,-0.012425018043321535
5.76,-0.012423647732374794
5.764,-0.012421051353738867
5.768,-0.012415642231580683
5.772,-0.012413983434118838
5.776,-0.01241444020443442
5.78,-0.012412637163715025
5.784,-0.012413190096202306
5.788,-0.012416651934383544
5.792,-0.012415425866694354
5.796,-0.012413863231404212
5.8,-0.01241677213709817
5.804,-0.012417926083158582
5.808,-0.01241463252877782
5.812,-0.012412420798828696
5.816,-0.012410665839195152
5.82,-0.012408261784902626
5.824,-0.012408574311960654
5.828,-0.01240737228481439
5.832,-0.012405497122466221
5.836,-0.012409487852591815
5.84,-0.012411387055482911
5.844,-0.012409944622907395
5.848,-0.012407997338930448
5.852,-0.012406506825269082
5.856,-0.012406891473955886
5.86,-0.012409295528248413
5.864,-0.012409920582364469
5.868,-0.012410112906707871
5.872,-0.01240855027141773
5.876,-0.012403814284461452
5.88,-0.012404607622377986
5.884,-0.01240758864970072
5.888,-0.012409584014763516
5.892,-0.012411891906884341
5.896,-0.012412997771858903
5.9,-0.01241174766362679
5.904,-0.012411435136568762
5.908,-0.012408694514675281
5.912,-0.012406627027983709
5.916,-0.012408862798475757
5.92,-0.01241124281222536
5.924,-0.012411411096025836
5.928,-0.012410257149965423
5.932,-0.012409680176935216
5.936,-0.012409944622907395
5.94,-0.012410713920281003
5.944,-0.01241133897439706
5.948,-0.012412060190684818
5.952,-0.012412565042086248
5.956,-0.012413069893487678
5.96,-0.012412949690773053
5.964,-0.012411555339283387
5.968,-0.012411988069056043
5.972,-0.012415209501808027
5.976,-0.01241275736642965
5.98,-0.012407420365900241
5.984,-0.01240448741966336
5.988,-0.0124059538927818
5.992,-0.012411819785255565
5.996,-0.012415834555924083
6.0,-0.012414560407149045
6.0040000000000004,-0.01241124281222536
6.008,-0.012409776339106917
6.0120000000000005,-0.012409776339106917
6.016,-0.01241179574471264
6.0200000000000005,-0.012412637163715025
6.024,-0.012417589515557628
6.0280000000000005,-0.012421916813284176
6.032,-0.012421988934912951
6.0360000000000005,-0.01242093115102424
6.04,-0.012420450340165735
6.0440000000000005,-0.012422301461970979
6.048,-0.012424248745947926
6.0520000000000005,-0.012425811381238069
6.056,-0.012423527529660168
6.0600000000000005,-0.01242138792133982
6.064,-0.012423840056718196
6.0680000000000005,-0.012427902908472566
6.072,-0.012432783138686395
6.0760000000000005,-0.012435018909178443
6.08,-0.012432494652171291
6.0840000000000005,-0.012429273219419307
6.088,-0.012430619489823122
6.0920000000000005,-0.012432254246742038
6.096,-0.012431773435883534
6.1000000000000005,-0.012431268584482104
6.104,-0.012431292625025028
6.1080000000000005,-0.012432590814342993
6.112,-0.01243376880094633
6.1160000000000005,-0.012433889003660957
6.12,-0.012432134044027413
6.1240000000000006,-0.01243047524656557
6.128,-0.01242778270575794
6.132000000000001,-0.012424729556806431
6.136,-0.012423912178346973
6.140000000000001,-0.012426845124583854
6.144,-0.012432711017057618
6.148,-0.012438144179758729
6.152,-0.012436870030983689
6.156,-0.01243290334140102
6.16,-0.012436749828269063
6.164,-0.012437206598584643
6.168,-0.012432542733257142
6.172,-0.012430859895252373
6.176,-0.01243285526031517
6.18,-0.012434441936148238
6.184,-0.01243504294972137
6.188,-0.012434754463206266
6.192,-0.012432590814342993
6.196,-0.012431965760226935
6.2,-0.012431653233168907
6.204,-0.012425186327122011
6.208,-0.012421724488940774
6.212,-0.012423816016175272
6.216,-0.012426652800240452
6.22,-0.012428143313901819
6.224,-0.012428527962588623
6.228,-0.012426965327298482
6.232,-0.012428503922045697
6.236,-0.012431220503396253
6.24,-0.012429177057247606
6.244,-0.012426340273182424
6.248,-0.012425570975808816
6.252,-0.012426965327298482
6.256,-0.012427446138156986
6.26,-0.012427686543586239
6.264,-0.012423840056718196
6.268,-0.012420185894193556
6.272,-0.012419152150847771
6.276,-0.01242138792133982
6.28,-0.012425210367664937
6.284,-0.012428768368017876
6.288,-0.012429850192449512
6.292,-0.012427446138156986
6.296,-0.012428047151730117
6.3,-0.012429104935618829
6.304,-0.012431172422310403
6.308,-0.012433913044203881
6.312,-0.012433215868459049
6.316,-0.012431533030454281
6.32,-0.012431797476426459
6.324,-0.012432494652171291
6.328,-0.012433576476602929
6.332,-0.012434105368547284
6.336,-0.012431605152083056
6.34,-0.012431965760226935
6.344,-0.012435211233521846
6.348,-0.012437086395870017
6.352,-0.012435836287637904
6.356,-0.012435884368723754
6.36,-0.012440764598937582
6.364,-0.012445452504808009
6.368,-0.012447279586070328
6.372,-0.012447664234757133
6.376,-0.01244833736995904
6.38,-0.012450092329592584
6.384,-0.012449082626789723
6.388,-0.01244965959981993
6.392,-0.012454708113834236
6.396,-0.012455261046321517
6.4,-0.012453385883973345
6.404,-0.012452712748771438
6.408,-0.012453217600172869
6.412,-0.012453842654288925
6.416,-0.012453602248859672
6.42,-0.012449515356562378
6.424,-0.012443793707346166
6.428,-0.012444611085805624
6.432,-0.012448241207787338
6.436,-0.012451606883796876
6.44,-0.012456054384238049
6.444,-0.012458314195273027
6.448,-0.0124561986274956
6.452,-0.012456174586952676
6.456,-0.012456703478897034
6.46,-0.012458025708757923
6.464,-0.01245869884395983
6.468,-0.012457881465500371
6.472,-0.012458819046674457
6.476,-0.012457857424957447
6.48,-0.012456967924869212
6.484,-0.012456967924869212
6.488,-0.01245687176269751
6.492,-0.012453506086687972
6.496,-0.012451751127054426
6.5,-0.012456390951839003
6.5040000000000004,-0.012458458438530579
6.508,-0.01245732853301309
6.5120000000000005,-0.012455309127407367
6.516,-0.012455501451750768
6.5200000000000005,-0.012458145911472549
6.524,-0.012457544897899417
6.5280000000000005,-0.012454131140804028
6.532,-0.012453097397458241
6.5360000000000005,-0.012453193559629943
6.54,-0.012454299424604505
6.5440000000000005,-0.012457016005955062
6.548,-0.012457064087040913
6.5520000000000005,-0.012454299424604505
6.556,-0.012455453370664917
6.5600000000000005,-0.01245468407329131
6.564,-0.012453794573203074
6.5680000000000005,-0.012456030343695124
6.572,-0.012457208330298465
6.5760000000000005,-0.012459275816990037
6.58,-0.012463963722860464
6.5840000000000005,-0.012466247574438363
6.588,-0.012465141709463801
6.5920000000000005,-0.012464684939148221
6.596,-0.012463314628201482
6.6000000000000005,-0.012460838452280179
6.604,-0.012460381681964599
6.6080000000000005,-0.012462473209199097
6.612,-0.012462040479426442
6.6160000000000005,-0.012459444100790513
6.62,-0.012459347938618812
6.6240000000000006,-0.012461800073997189
6.628,-0.012461703911825488
6.632000000000001,-0.01245569377609417
6.636,-0.012451318397281773
6.640000000000001,-0.012456895803240435
6.644,-0.012462833817342976
6.648000000000001,-0.012466031209552036
6.652,-0.01246600716900911
6.656000000000001,-0.012463266547115631
6.66,-0.01246098269553773
6.664,-0.012463290587658556
6.668,-0.012463603114716584
6.672,-0.012460670168479702
6.676,-0.012460165317078272
6.68,-0.012463386749830257
6.684,-0.012463987763403388
6.688,-0.012463050182229303
6.692,-0.012464204128289715
6.696,-0.01246357907417366
6.7,-0.012461247141509908
6.704,-0.012461150979338207
6.708,-0.012463723317431211
6.712,-0.012462881898428826
6.716,-0.012455765897722947
6.72,-0.012452784870400213
6.724,-0.012456607316725333
6.728,-0.012461631790196713
6.732,-0.012464805141862847
6.736,-0.012463026141686378
6.74,-0.012461415425310386
6.744,-0.012460117235992422
6.748,-0.012459155614275411
6.752,-0.012460670168479702
6.756,-0.012459420060247589
6.76,-0.012456078424780975
6.764,-0.012453097397458241
6.768,-0.012453145478544092
6.772,-0.012454371546233281
6.776,-0.012455381249036142
6.78,-0.012455453370664917
6.784,-0.012456895803240435
6.788,-0.012458626722331055
6.792,-0.012457064087040913
6.796,-0.012455285086864441
6.8,-0.012453073356915317
6.804,-0.012454539830033758
6.808,-0.012460117235992422
6.812,-0.01246194431725474
6.816,-0.012460549965765075
6.82,-0.012458819046674457
6.824,-0.012458169952015475
6.828,-0.012457761262785746
6.832,-0.012459660465676842
6.836,-0.012461872195625966
6.84,-0.012461271182052834
6.844,-0.01246002107382072
6.848,-0.012459299857532961
6.852,-0.012459540262962214
6.856,-0.012456054384238049
6.86,-0.01245249638388511
6.864,-0.012452424262256335
6.868,-0.012454996600349337
6.872,-0.012460694209022627
6.876,-0.012465406155435978
6.88,-0.012466247574438363
6.884,-0.01246550231760768
6.888,-0.012465983128466186
6.892,-0.01246559847977938
6.896,-0.012463458871459032
6.9,-0.012462425128113247
6.904,-0.012460598046850926
6.908,-0.012461078857709432
6.912,-0.012461054817166506
6.916,-0.012461583709110862
6.92,-0.012461583709110862
6.924,-0.012459660465676842
6.928,-0.012461824114540115
6.932,-0.012464011803946313
6.936,-0.012464204128289715
6.94,-0.012461751992911338
6.944,-0.01245946814133344
6.948,-0.012462208763226918
6.952,-0.012463386749830257
6.956,-0.0124604778441363
6.96,-0.01245783338441452
6.964,-0.012456126505866826
6.968,-0.01245244830279926
6.972,-0.012451294356738847
6.976,-0.012450957789137894
6.98,-0.012449178788961424
6.984,-0.012451871329769054
6.988,-0.012456463073467781
6.992,-0.012455862059894648
6.996,-0.01245158284325395
7.0,-0.01244792868072931
7.0040000000000004,-0.012452929113657765
7.008,-0.012458410357444728
7.0120000000000005,-0.01246042976305045
7.016,-0.012461150979338207
7.0200000000000005,-0.012460958654994806
7.024,-0.012460237438707047
7.0280000000000005,-0.012459660465676842
7.032,-0.012458867127760308
7.0360000000000005,-0.012457544897899417
7.04,-0.012457592978985268
7.0440000000000005,-0.012459780668391467
7.048,-0.01246139138476746
7.0520000000000005,-0.012461559668567938
7.056,-0.012461583709110862
7.0600000000000005,-0.01245951622241929
7.064,-0.01245778530332867
7.0680000000000005,-0.012453698411031373
7.072,-0.012444346639833447
7.0760000000000005,-0.012445332302093381
7.08,-0.012454010938089403
7.0840000000000005,-0.012456895803240435
7.088,-0.012457016005955062
7.0920000000000005,-0.012457448735727716
7.096,-0.012457208330298465
7.1000000000000005,-0.012455092762521039
7.104,-0.012453217600172869
7.1080000000000005,-0.012454587911119608
7.112,-0.012455573573379545
7.1160000000000005,-0.01245518892469274
7.12,-0.012454371546233281
7.1240000000000006,-0.012453506086687972
7.128,-0.012452063654112456
7.132000000000001,-0.012448770099731695
7.136,-0.012446678572497196
7.140000000000001,-0.012446125640009915
7.144,-0.012446366045439168
7.148000000000001,-0.012445668869694336
7.152,-0.012445933315666513
7.156000000000001,-0.012453217600172869
7.16,-0.012457857424957447
7.164000000000001,-0.0124581939925584
7.168,-0.01245855460070228
7.172,-0.012457929546586222
7.176,-0.012457641060071118
7.18,-0.012457905506043298
7.184,-0.012458434397987652
7.188,-0.012459299857532961
7.192,-0.012461559668567938
7.196,-0.012464684939148221
7.2,-0.012466752425839793
7.204,-0.012467593844842178
7.208,-0.012466608182582242
7.212,-0.01246458877697652
7.216,-0.012458843087217382
7.22,-0.0124581939925584
7.224,-0.012467641925928028
7.228,-0.012474349237404177
7.232,-0.012476344602466974
7.236,-0.012474565602290504
7.24,-0.01247281064265696
7.244,-0.012473219331886689
7.248,-0.012474517521204653
7.252,-0.012474902169891458
7.256,-0.012472930845371587
7.26,-0.012470815277594163
7.264,-0.012469348804475722
7.268,-0.012468723750359666
7.272,-0.012468531426016264
7.276,-0.01246920456121817
7.28,-0.012469300723389871
7.284,-0.012469084358503545
7.288,-0.012466271614981289
7.292,-0.012465790804122783
7.296,-0.012469853655877152
7.3,-0.012470358507278583
7.304,-0.012470550831621985
7.308,-0.012471632656053623
7.312,-0.012472474075056006
7.316,-0.012473147210257914
7.32,-0.012473219331886689
7.324,-0.01247377226437397
7.328,-0.012471656696596547
7.332,-0.012470815277594163
7.336,-0.012472041345283352
7.34,-0.012469901736963003
7.344,-0.01246641585823884
7.348,-0.012465069587835026
7.352,-0.012465670601408158
7.356,-0.012468723750359666
7.36,-0.012470743155965388
7.364,-0.012471055683023416
7.368,-0.012471031642480491
7.372,-0.012470045980220555
7.376,-0.012464396452633118
7.38,-0.012460670168479702
7.384,-0.012463915641774613
7.388,-0.012465526358150606
7.392,-0.012467762128642654
7.396,-0.012473027007543287
7.4,-0.012476657129525002
7.404,-0.012473603980573494
7.408,-0.012468940115245993
7.412,-0.012468146777329459
7.416,-0.012470574872164911
7.42,-0.01247504641314901
7.424,-0.012475815710522618
7.428,-0.012474084791432
7.432,-0.012473339534601316
7.436,-0.012472594277770633
7.44,-0.01247088739922294
7.444,-0.012470695074879537
7.448,-0.012473531858944719
7.452,-0.012476777332239628
7.456,-0.012478003399928817
7.46,-0.012479229467618005
7.464,-0.012480191089335017
7.468,-0.01247920542707508
7.472,-0.012476777332239628
7.476,-0.012476729251153777
7.48,-0.012478099562100518
7.484,-0.012478051481014668
7.488,-0.012479229467618005
7.492,-0.012480984427251549
7.496,-0.012478484210787321
7.5,-0.012478171683729293
7.5040000000000004,-0.012480527656935969
7.508,-0.012483292319372374
7.5120000000000005,-0.012479734319019435
7.516,-0.01247413287251785
7.5200000000000005,-0.01247336357514424
7.524,-0.012473868426545671
7.5280000000000005,-0.012476104197037721
7.532,-0.01247641672409575
7.5360000000000005,-0.012480215129877941
7.54,-0.012484374143804012
7.5440000000000005,-0.01248418181946061
7.548,-0.012481176751594951
7.5520000000000005,-0.012478027440471742
7.556,-0.012476368643009899
7.5600000000000005,-0.012474517521204653
7.564,-0.012473051048086213
7.5680000000000005,-0.012471320128995593
7.572,-0.012470406588364433
7.5760000000000005,-0.012469372845018648
7.58,-0.012470406588364433
7.5840000000000005,-0.012470695074879537
7.588,-0.01247088739922294
7.5920000000000005,-0.012470406588364433
7.596,-0.01246687262855442
7.6000000000000005,-0.012464348371547267
7.604,-0.012466271614981289
7.6080000000000005,-0.012469012236874768
7.612,-0.012469757493705451
7.6160000000000005,-0.012471199926280967
7.62,-0.012475238737492412
7.6240000000000006,-0.012478532291873172
7.628,-0.012480816143451073
7.632000000000001,-0.012480671900193521
7.636,-0.012478315926986845
7.640000000000001,-0.012475022372606084
7.644,-0.012470286385649808
7.648000000000001,-0.012469396885561573
7.652,-0.012470767196508312
7.656000000000001,-0.012472930845371587
7.66,-0.012476152278123572
7.664000000000001,-0.012476849453868405
7.668,-0.012475911872694319
7.672000000000001,-0.012473291453515466
7.676,-0.012467425561041702
7.68,-0.012462954020057601
7.684,-0.01246499746620625
7.688,-0.01246997385859178
7.692,-0.012471248007366818
7.696,-0.012469084358503545
7.7,-0.012463314628201482
7.704,-0.012464396452633118
7.708,-0.01246824293950116
7.712,-0.012468555466559188
7.716,-0.012468050615157758
7.72,-0.01246631969606714
7.724,-0.012466103331180811
7.728,-0.01246874779090259
7.732,-0.012469300723389871
7.736,-0.012469276682846947
7.74,-0.012471921142568725
7.744,-0.012473892467088597
7.748,-0.012473051048086213
7.752,-0.012471536493881922
7.756,-0.012470598912707836
7.76,-0.012472209629083828
7.764,-0.012473219331886689
7.768,-0.012469372845018648
7.772,-0.01246636777715299
7.776,-0.012467569804299253
7.78,-0.012474012669803223
7.784,-0.012477137940383508
7.788,-0.012477546629613237
7.792,-0.012477402386355686
7.796,-0.012472546196684782
7.8,-0.012468964155788917
7.804,-0.012469324763932798
7.808,-0.012471296088452669
7.812,-0.012473435696773017
7.816,-0.012473411656230091
7.82,-0.012475262778035337
7.824,-0.012478219764815144
7.828,-0.012478339967529771
7.832,-0.01247641672409575
7.836,-0.012474373277947102
7.84,-0.012475647426722141
7.844,-0.01247742642689861
7.848,-0.012478460170244397
7.852,-0.012478508251330248
7.856,-0.012477618751242012
7.86,-0.012477330264726909
7.864,-0.012478676535130724
7.868,-0.01247793127830004
7.872,-0.012478820778388276
7.876,-0.012482835549056794
7.88,-0.012484830914119591
7.884,-0.012484758792490816
7.888,-0.012486032941265855
7.892,-0.012487715779270624
7.896,-0.012487114765697492
7.9,-0.012483124035571898
7.904,-0.012483124035571898
7.908,-0.012484638589776189
7.912,-0.01248646567103851
7.916,-0.012485215562806396
7.92,-0.012484854954662518
7.924,-0.012487908103614026
7.928,-0.012488076387414502
7.932,-0.012484975157377143
7.936,-0.012480431494764268
7.94,-0.012477762994499564
7.944,-0.012476777332239628
7.948,-0.012475767629436767
7.952,-0.0124787486567595
7.956,-0.012482114332769037
7.96,-0.012484710711404966
7.964,-0.01248523960334932
7.968,-0.012484806873576667
7.972,-0.01248427798163231
7.976,-0.012481970089511485
7.98,-0.012481296954309579
7.984,-0.012481633521910531
7.988,-0.012480263210963792
7.992,-0.012477234102555208
7.996,-0.01247773895395664
8.0,-0.012477811075585415
8.004,-0.012476296521381124
8.008000000000001,-0.01247696965658303
8.012,-0.01247793127830004
8.016,-0.012477210062012283
8.02,-0.01247600803486602
8.024000000000001,-0.012476248440295273
8.028,-0.0124764648051816
8.032,-0.012475863791608468
8.036,-0.012472257710169679
8.040000000000001,-0.012470839318137089
8.044,-0.012473459737315942
8.048,-0.012475671467265066
8.052,-0.012474084791432
8.056000000000001,-0.01247047870999321
8.06,-0.012465478277064755
8.064,-0.012460069154906571
8.068,-0.012463843520145837
8.072000000000001,-0.012469036277417694
8.076,-0.012469757493705451
8.08,-0.012470045980220555
8.084,-0.012468819912531365
8.088000000000001,-0.012465454236521829
8.092,-0.012461463506396236
8.096,-0.012459179654818336
8.1,-0.01245855460070228
8.104000000000001,-0.012456655397811184
8.108,-0.012455958222066348
8.112,-0.01246052592522215
8.116,-0.01246463685806237
8.120000000000001,-0.012466487979867616
8.124,-0.012467209196155373
8.128,-0.012465742723036933
8.132,-0.012463146344401004
8.136000000000001,-0.0124628578578859
8.14,-0.012463963722860464
8.144,-0.01246312230385808
8.148,-0.012462232803769844
8.152000000000001,-0.012461968357797667
8.156,-0.012461776033454264
8.16,-0.012461727952368414
8.164,-0.012461487546939161
8.168000000000001,-0.012459708546762692
8.172,-0.012458097830386698
8.176,-0.012454804276005935
8.18,-0.012448481613216591
8.184000000000001,-0.012452400221713409
8.188,-0.012457977627672073
8.192,-0.012457857424957447
8.196,-0.012457256411384315
8.2,-0.01245910753318956
8.204,-0.012461054817166506
8.208,-0.012457857424957447
8.212,-0.012459323898075888
8.216,-0.01246216068214107
8.22,-0.012460574006308001
8.224,-0.012458338235815951
8.228,-0.012458266114187176
8.232,-0.012457857424957447
8.236,-0.012457160249212614
8.24,-0.012460501884679225
8.244,-0.012463434830916107
8.248,-0.012461872195625966
8.252,-0.012458218033101326
8.256,-0.012459035411560784
8.26,-0.01245946814133344
8.264,-0.012455862059894648
8.268,-0.012457136208669688
8.272,-0.01246271361462835
8.276,-0.01246682454746857
8.28,-0.012467954452986056
8.284,-0.012466632223125168
8.288,-0.012465069587835026
8.292,-0.012465766763579859
8.296,-0.012465911006837409
8.3,-0.012465478277064755
8.304,-0.012464228168832641
8.308,-0.012461703911825488
8.312,-0.012461223100966983
8.316,-0.012462040479426442
8.32,-0.01246194431725474
8.324,-0.012461415425310386
8.328,-0.012459636425133916
8.332,-0.012458266114187176
8.336,-0.012458434397987652
8.34,-0.012455934181523423
8.344,-0.012452424262256335
8.348,-0.012452376181170484
8.352,-0.012457376614098941
8.356,-0.012463266547115631
8.36,-0.012466103331180811
8.364,-0.012467690007013879
8.368,-0.012468603547645039
8.372,-0.012468531426016264
8.376,-0.012466560101496391
8.38,-0.012463987763403388
8.384,-0.012465766763579859
8.388,-0.012467882331357281
8.392,-0.01246636777715299
8.396,-0.012464252209375566
8.4,-0.01246357907417366
8.404,-0.012461631790196713
8.408,-0.012459997033277794
8.412,-0.012459155614275411
8.416,-0.012460862492823105
8.42,-0.012465021506749175
8.424,-0.012466487979867616
8.428,-0.01246651202041054
8.432,-0.012467353439412925
8.436,-0.012468146777329459
8.44,-0.012468892034160142
8.444,-0.012470454669450284
8.448,-0.012472017304740426
8.452,-0.01247235387234138
8.456,-0.012470863358680013
8.46,-0.012469324763932798
8.464,-0.012468964155788917
8.468,-0.012469805574791302
8.472,-0.01247098356139464
8.476,-0.012470646993793686
8.48,-0.012467353439412925
8.484,-0.012460958654994806
8.488,-0.012461295222595759
8.492,-0.012464348371547267
8.496,-0.01246458877697652
8.5,-0.012466247574438363
8.504,-0.012469733453162527
8.508000000000001,-0.012469589209904975
8.512,-0.012468843953074292
8.516,-0.012469757493705451
8.52,-0.012473099129172063
8.524000000000001,-0.012474854088805607
8.528,-0.012474806007719757
8.532,-0.012473892467088597
8.536,-0.012473099129172063
8.540000000000001,-0.012472546196684782
8.544,-0.012471800939854099
8.548,-0.012470815277594163
8.552,-0.012471127804652192
8.556000000000001,-0.01247184902093995
8.56,-0.012468771831445517
8.564,-0.012468916074703067
8.568,-0.012471416291167294
8.572000000000001,-0.01247062295325076
8.576,-0.012471969223654575
8.58,-0.012472978926457438
8.584,-0.012465526358150606
8.588000000000001,-0.012462232803769844
8.592,-0.012470646993793686
8.596,-0.012473916507631522
8.6,-0.012473964588717372
8.604000000000001,-0.012473531858944719
8.608,-0.012474733886090982
8.612,-0.012476128237580646
8.616,-0.01247692157549718
8.620000000000001,-0.012476176318666496
8.624,-0.012475238737492412
8.628,-0.012475479142921663
8.632,-0.01247559934563629
8.636000000000001,-0.012473988629260298
8.64,-0.012471320128995593
8.644,-0.01247098356139464
8.648,-0.0124718971020258
8.652000000000001,-0.012473892467088597
8.656,-0.01247134416953852
8.66,-0.01246829102058701
8.664,-0.012470190223478107
8.668000000000001,-0.01247098356139464
8.672,-0.012471248007366818
8.676,-0.012472978926457438
8.68,-0.012472209629083828
8.684000000000001,-0.012471969223654575
8.688,-0.012472546196684782
8.692,-0.012472522156141856
8.696,-0.012468122736786534
8.700000000000001,-0.012465165750006727
8.704,-0.012467930412443132
8.708,-0.012469517088276198
8.712,-0.01247047870999321
8.716,-0.01246925264230402
8.72,-0.012466127371723737
8.724,-0.012465021506749175
8.728,-0.01246098269553773
8.732,-0.012461463506396236
8.736,-0.012467305358327074
8.74,-0.012470767196508312
8.744,-0.01247052679107906
8.748,-0.012468315061129935
8.752,-0.012467209196155373
8.756,-0.012471776899311175
8.76,-0.012477498548527387
8.764,-0.01247692157549718
8.768,-0.012474325196861251
8.772,-0.0124741809536037
8.776,-0.01247336357514424
8.78,-0.012473603980573494
8.784,-0.012472738521028185
8.788,-0.01247052679107906
8.792,-0.012468531426016264
8.796,-0.012467113033983672
8.8,-0.012467810209728505
8.804,-0.012467209196155373
8.808,-0.012464757060776996
8.812,-0.012464324331004343
8.816,-0.012464781101319922
8.82,-0.012464276249918492
8.824,-0.012462545330827872
8.828,-0.012460742290108478
8.832,-0.01246088653336603
8.836,-0.012463915641774613
8.84,-0.012464228168832641
8.844,-0.012465261912178427
8.848,-0.012464805141862847
8.852,-0.012464228168832641
8.856,-0.012464949385120399
8.86,-0.012468964155788917
8.864,-0.012471800939854099
8.868,-0.012473652061659344
8.872,-0.012474613683376354
8.876,-0.012474950250977309
8.88,-0.01247357994003057
8.884,-0.01247281064265696
8.888,-0.012477522589070311
8.892,-0.012480191089335017
8.896,-0.012479782400105286
8.9,-0.012476248440295273
8.904,-0.012472041345283352
8.908,-0.012473243372429615
8.912,-0.012473387615687167
8.916,-0.012474373277947102
8.92,-0.012475262778035337
8.924,-0.012476320561924048
8.928,-0.012480143008249166
8.932,-0.0124810325083374
8.936,-0.012480551697478895
8.94,-0.012479830481191136
8.944,-0.012476200359209422
8.948,-0.012474613683376354
8.952,-0.012474878129348532
8.956,-0.012476609048439152
8.96,-0.0124764648051816
8.964,-0.012475214696949486
8.968,-0.012478796737845351
8.972,-0.012482018170597336
8.976,-0.012481200792137877
8.98,-0.01247651288626745
8.984,-0.012472498115598932
8.988,-0.012474349237404177
8.992,-0.012475887832151394
8.996,-0.01247819572427222
9.0,-0.012479229467618005
9.004,-0.012479445832504333
9.008000000000001,-0.012481272913766652
9.012,-0.012482066251683186
9.016,-0.01247843612970147
9.02,-0.012471680737139473
9.024000000000001,-0.01246550231760768
9.028,-0.01246728131778415
9.032,-0.012472089426369203
9.036,-0.012475455102378739
9.040000000000001,-0.012477450467441536
9.044,-0.012477258143098134
9.048,-0.01247555126455044
9.052,-0.012474685805005131
9.056000000000001,-0.01247641672409575
9.06,-0.012479445832504333
9.064,-0.012481272913766652
9.068,-0.012481729684082232
9.072000000000001,-0.012478219764815144
9.076,-0.01247737834581276
9.08,-0.012480311292049642
9.084,-0.012482114332769037
9.088000000000001,-0.012482258576026589
9.092,-0.012477137940383508
9.096,-0.012475863791608468
9.1,-0.012478940981102903
9.104000000000001,-0.012480671900193521
9.108,-0.012482739386885093
9.112,-0.012482667265256318
9.116,-0.012481705643539308
9.120000000000001,-0.012480503616393045
9.124,-0.01247870057567365
9.128,-0.012479902602819913
9.132,-0.01248158544082468
9.136000000000001,-0.012478027440471742
9.14,-0.012477618751242012
9.144,-0.012480744021822298
9.148,-0.01248230665711244
9.152000000000001,-0.012485311724978097
9.156,-0.012486730117010687
9.16,-0.012487042644068715
9.164,-0.012482979792314346
9.168000000000001,-0.012480864224536923
9.172,-0.012483003832857272
9.176,-0.012484253941089386
9.18,-0.012482907670685571
9.184000000000001,-0.01248062381910767
9.188,-0.01247971027847651
9.192,-0.0124786524945878
9.196,-0.01247641672409575
9.200000000000001,-0.012477137940383508
9.204,-0.01247915734598923
9.208,-0.012478868859474126
9.212,-0.012477089859297658
9.216000000000001,-0.01247509449423486
9.22,-0.012470815277594163
9.224,-0.012467521723213403
9.228,-0.012469420926104497
9.232,-0.012476032075408944
9.236,-0.012478267845900995
9.24,-0.012477306224183984
9.244,-0.01247701773766888
9.248,-0.01247696965658303
9.252,-0.01247382034545982
9.256,-0.012470334466735658
9.26,-0.012469444966647423
9.264,-0.012468002534071907
9.268,-0.012465766763579859
9.272,-0.012466608182582242
9.276,-0.01246454069589067
9.28,-0.012461343303681609
9.284,-0.012466391817695915
9.288,-0.01247098356139464
9.292,-0.012474012669803223
9.296,-0.012479109264903379
9.3,-0.01248007088662039
9.304,-0.012478003399928817
9.308,-0.012476873494411329
9.312,-0.012477811075585415
9.316,-0.012476993697125956
9.32,-0.012475455102378739
9.324,-0.012473219331886689
9.328,-0.01246824293950116
9.332,-0.012466752425839793
9.336,-0.01246819485841531
9.34,-0.012465478277064755
9.344,-0.012467113033983672
9.348,-0.012468266980044084
9.352,-0.012470815277594163
9.356,-0.01247184902093995
9.36,-0.012467810209728505
9.364,-0.012470743155965388
9.368,-0.01247737834581276
9.372,-0.012481994130054411
9.376,-0.012483124035571898
9.38,-0.012483845251859655
9.384,-0.01248326827882945
9.388,-0.012481152711052027
9.392,-0.012479013102731678
9.396,-0.012478099562100518
9.4,-0.01247829188644392
9.404,-0.012477234102555208
9.408,-0.012476681170067927
9.412,-0.012475479142921663
9.416,-0.012473099129172063
9.42,-0.012473844386002747
9.424,-0.012475358940207038
9.428,-0.01247377226437397
9.432,-0.012468988196331843
9.436,-0.01246701687181197
9.44,-0.012467762128642654
9.444,-0.01247047870999321
9.448,-0.012471488412796071
9.452,-0.012468603547645039
9.456,-0.01246865162873089
9.46,-0.012472786602114035
9.464,-0.012473916507631522
9.468,-0.012473435696773017
9.472,-0.01247336357514424
9.476,-0.012474445399575878
9.48,-0.012472786602114035
9.484,-0.012470334466735658
9.488,-0.012473147210257914
9.492,-0.012473603980573494
9.496,-0.012471800939854099
9.5,-0.01247093548030879
9.504,-0.012469324763932798
9.508000000000001,-0.012470262345106882
9.512,-0.012477618751242012
9.516,-0.012479566035218959
9.52,-0.012475479142921663
9.524000000000001,-0.012475214696949486
9.528,-0.012480744021822298
9.532,-0.01248235473819829
9.536,-0.012479854521734062
9.540000000000001,-0.0124786524945878
9.544,-0.012477258143098134
9.548,-0.012474613683376354
9.552,-0.012474685805005131
9.556000000000001,-0.012476344602466974
9.56,-0.01247641672409575
9.564,-0.012476392683552825
9.568,-0.012475262778035337
9.572000000000001,-0.012474613683376354
9.576,-0.012472041345283352
9.58,-0.012466199493352512
9.584,-0.012465430195978905
9.588000000000001,-0.012469036277417694
9.592,-0.012466656263668092
9.596,-0.012461054817166506
9.6,-0.012458891168303232
9.604000000000001,-0.012465285952721353
9.608,-0.0124696132504479
9.612,-0.012468603547645039
9.616,-0.012466752425839793
9.620000000000001,-0.012464035844489239
9.624,-0.012461703911825488
9.628,-0.01246271361462835
9.632,-0.012464564736433596
9.636000000000001,-0.01246631969606714
9.64,-0.01246773808809973
9.644,-0.01246824293950116
9.648,-0.01246915648013232
9.652000000000001,-0.0124696132504479
9.656,-0.012470839318137089
9.66,-0.01246992577750593
9.664,-0.012468892034160142
9.668000000000001,-0.01246819485841531
9.672,-0.012465886966294484
9.676,-0.012460309560335824
9.68,-0.012460189357621197
9.684000000000001,-0.012462473209199097
9.688,-0.01246646393932469
9.692,-0.01247144033171022
9.696,-0.012469396885561573
9.700000000000001,-0.012465911006837409
9.704,-0.01246819485841531
9.708,-0.012473075088629137
9.712,-0.012475022372606084
9.716000000000001,-0.012477498548527387
9.72,-0.01247550318346459
9.724,-0.012474325196861251
9.728,-0.012479469873047258
9.732,-0.012482547062541692
9.736,-0.012483869292402581
9.74,-0.012483196157200675
9.744,-0.012481513319195905
9.748,-0.012481873927339784
9.752,-0.012482787467970944
9.756,-0.012483436562629926
9.76,-0.012481176751594951
9.764,-0.012478580372959023
9.768,-0.01247870057567365
9.772,-0.012480046846077465
9.776,-0.012480335332592567
9.78,-0.012478820778388276
9.784,-0.012482643224713392
9.788,-0.012490336198449477
9.792,-0.012493677833916089
9.796,-0.012495072185405754
9.8,-0.012495216428663306
9.804,-0.012495336631377932
9.808,-0.012494903901605276
9.812,-0.012492331563512274
9.816,-0.012489927509219748
9.82,-0.012486946481897014
9.824,-0.01248478283303374
9.828,-0.012487811941442325
9.832,-0.012490312157906552
9.836,-0.012489831347048046
9.84,-0.012488268711757905
9.844,-0.012485792535836602
9.848,-0.012485383846606872
9.852,-0.012485672333121976
9.856,-0.012479277548703855
9.86,-0.012476176318666496
9.864,-0.012480936346165698
9.868,-0.012483797170773806
9.872,-0.01248911013076029
9.876,-0.012493437428486836
9.88,-0.012493557631201462
9.884,-0.012489086090217363
9.888,-0.012486826279182388
9.892,-0.012488941846959811
9.896,-0.01248971114433342
9.9,-0.012489879428133897
9.904,-0.01248985538759097
9.908,-0.012489735184876345
9.912,-0.012489446698361242
9.916,-0.012489013968588588
9.92,-0.012487403252212596
9.924,-0.012482378778741214
9.928,-0.012479590075761885
9.932,-0.01247966219739066
9.936,-0.012479181386532154
9.94,-0.012479854521734062
9.944,-0.012480695940736447
9.948,-0.012484013535660133
9.952,-0.012488076387414502
9.956,-0.012491778631024993
9.96,-0.012494375009660922
9.964,-0.012492668131113228
9.968,-0.012490889130936758
9.972,-0.012489038009131512
9.976,-0.01248747537384137
9.98,-0.012486826279182388
9.984,-0.012487066684611641
9.988,-0.012486994562982865
9.992,-0.012484518387061563
9.996,-0.012484205860003535
10.0,-0.012486201225066332
10.004,-0.012486657995381912
10.008000000000001,-0.012486826279182388
10.012,-0.012482138373311961
10.016,-0.012477498548527387
10.02,-0.012485359806063948
10.024000000000001,-0.0124900717524773
10.028,-0.012487523454927221
10.032,-0.012487018603525791
10.036,-0.012487715779270624
10.040000000000001,-0.012486633954838986
10.044,-0.01248600890072293
10.048,-0.012483556765344553
10.052,-0.012479277548703855
10.056000000000001,-0.012477306224183984
10.06,-0.012476729251153777
10.064,-0.012478027440471742
10.068,-0.012480143008249166
10.072000000000001,-0.012480744021822298
10.076,-0.012479421791961407
10.08,-0.0124764648051816
10.084,-0.012474301156318326
10.088000000000001,-0.012475623386179215
10.092,-0.01247692157549718
10.096,-0.012476344602466974
10.1,-0.012474733886090982
10.104000000000001,-0.012475022372606084
10.108,-0.012474565602290504
10.112,-0.012473892467088597
10.116,-0.012479854521734062
10.120000000000001,-0.012479974724448688
10.124,-0.012476248440295273
10.128,-0.012476272480838197
10.132,-0.012476392683552825
10.136000000000001,-0.012476176318666496
10.14,-0.012475527224007514
10.144,-0.012472570237227707
10.148,-0.012469084358503545
10.152000000000001,-0.012464276249918492
10.156,-0.01246098269553773
10.16,-0.012460766330651404
10.164,-0.01246605525009496
10.168000000000001,-0.01246915648013232
10.172,-0.01246413200666094
10.176,-0.012462232803769844
10.18,-0.012467137074526598
10.184000000000001,-0.012468074655700684
10.188,-0.012466223533895439
10.192,-0.012468050615157758
10.196,-0.01246829102058701
10.200000000000001,-0.012468074655700684
10.204,-0.012468266980044084
10.208,-0.012467954452986056
10.212,-0.01246829102058701
10.216000000000001,-0.012467209196155373
10.22,-0.012467449601584626
10.224,-0.012468315061129935
10.228,-0.012465382114893054
10.232000000000001,-0.01246098269553773
10.236,-0.012457544897899417
10.24,-0.012454347505690355
10.244,-0.012455429330121993
10.248,-0.012464348371547267
10.252,-0.012470238304563957
10.256,-0.012469637290990826
10.26,-0.0124697094126196
10.264,-0.012472618318313557
10.268,-0.01247235387234138
10.272,-0.0124741809536037
10.276,-0.012475911872694319
10.28,-0.012475118534777785
10.284,-0.01247509449423486
10.288,-0.012475166615863635
10.292,-0.012475815710522618
10.296,-0.012475911872694319
10.3,-0.012475334899664113
10.304,-0.012472065385826276
10.308,-0.012470045980220555
10.312,-0.01247011810184933
10.316,-0.012472642358856484
10.32,-0.012473628021116418
10.324,-0.012470815277594163
10.328,-0.012469228601761096
10.332,-0.012470863358680013
10.336,-0.01247499833206316
10.34,-0.012476200359209422
10.344,-0.012475767629436767
10.348,-0.012479133305446304
10.352,-0.012480215129877941
10.356,-0.012480695940736447
10.36,-0.012481513319195905
10.364,-0.012479421791961407
10.368,-0.012479013102731678
10.372,-0.012480311292049642
10.376,-0.012478412089158546
10.38,-0.012478460170244397
10.384,-0.012483460603172852
10.388,-0.0124833163599153
10.392,-0.012478796737845351
10.396,-0.012478508251330248
10.4,-0.012478412089158546
10.404,-0.01247357994003057
10.408,-0.012473243372429615
10.412,-0.012476344602466974
10.416,-0.012475887832151394
10.42,-0.012474156913060775
10.424,-0.012475887832151394
10.428,-0.012476873494411329
10.432,-0.012474733886090982
10.436,-0.01247422903468955
10.44,-0.012475527224007514
10.444,-0.01247742642689861
10.448,-0.012479469873047258
10.452,-0.01247961411630481
10.456,-0.012478916940559977
10.46,-0.012477089859297658
10.464,-0.012477354305269835
10.468,-0.012480239170420866
10.472,-0.012479301589246782
10.476,-0.012474757926633906
10.48,-0.012469685372076676
10.484,-0.012466680304211018
10.488,-0.012468002534071907
10.492,-0.01246920456121817
10.496,-0.012471800939854099
10.5,-0.012477762994499564
10.504,-0.012480431494764268
10.508000000000001,-0.012481248873223728
10.512,-0.012480479575850119
10.516,-0.012478628454044873
10.52,-0.012475407021292888
10.524000000000001,-0.012473171250800838
10.528,-0.012475455102378739
10.532,-0.012475887832151394
10.536,-0.012476104197037721
10.540000000000001,-0.012477907237757116
10.544,-0.012478460170244397
10.548,-0.01247778703504249
10.552,-0.012476801372782554
10.556000000000001,-0.01247413287251785
10.56,-0.012471103764109266
10.564,-0.012470791237051238
10.568,-0.012472329831798456
10.572000000000001,-0.012471320128995593
10.576,-0.01246915648013232
10.58,-0.012465165750006727
10.584,-0.01246321846602978
10.588000000000001,-0.012467497682670477
10.592,-0.012471776899311175
10.596,-0.012468218898958234
10.6,-0.012461487546939161
10.604000000000001,-0.012458266114187176
10.608,-0.012465189790549652
10.612,-0.012469685372076676
10.616,-0.012467930412443132
10.620000000000001,-0.012467593844842178
10.624,-0.012467930412443132
10.628,-0.012465862925751558
10.632,-0.012465694641951082
10.636000000000001,-0.012468771831445517
10.64,-0.01247240195342723
10.644,-0.01247357994003057
10.648,-0.012472666399399408
10.652000000000001,-0.012472161547997978
10.656,-0.01247281064265696
10.66,-0.01247285872374281
10.664,-0.01247336357514424
10.668000000000001,-0.012474253075232476
10.672,-0.012474517521204653
10.676,-0.012472281750712605
10.68,-0.012467858290814355
10.684000000000001,-0.012462929979514677
10.688,-0.01246555039869353
10.692,-0.012470574872164911
10.696,-0.012472978926457438
10.700000000000001,-0.012471512453338995
10.704,-0.012468050615157758
10.708,-0.012471007601937565
10.712,-0.012476200359209422
10.716000000000001,-0.01247793127830004
10.72,-0.01247696965658303
10.724,-0.012475479142921663
10.728,-0.012474060750889073
10.732000000000001,-0.01247336357514424
10.736,-0.012473243372429615
10.74,-0.01247240195342723
10.744,-0.012471969223654575
10.748000000000001,-0.012472017304740426
10.752,-0.012470286385649808
10.756,-0.012467449601584626
10.76,-0.012468723750359666
10.764,-0.01246966133153375
10.768,-0.01246819485841531
10.772,-0.012469324763932798
10.776,-0.012467930412443132
10.78,-0.012469781534248377
10.784,-0.012478508251330248
10.788,-0.012482643224713392
10.792,-0.012482787467970944
10.796,-0.01248158544082468
10.8,-0.012481224832680802
10.804,-0.01248007088662039
10.808,-0.012478532291873172
10.812,-0.01247737834581276
10.816,-0.012476128237580646
10.82,-0.012474830048262681
10.824,-0.012471800939854099
10.828,-0.012467088993440748
10.832,-0.01246966133153375
10.836,-0.012471296088452669
10.84,-0.012469396885561573
10.844,-0.012472425993970155
10.848,-0.012478027440471742
10.852,-0.012477041778211807
10.856,-0.012475695507807992
10.86,-0.012477330264726909
10.864,-0.012476873494411329
10.868,-0.012475142575320711
10.872,-0.012473603980573494
10.876,-0.012470334466735658
10.88,-0.012465334033807203
10.884,-0.012467113033983672
10.888,-0.012470454669450284
10.892,-0.01247093548030879
10.896,-0.01246915648013232
10.9,-0.012465574439236456
10.904,-0.012460141276535346
10.908,-0.012460814411737254
10.912,-0.012467353439412925
10.916,-0.012474902169891458
10.92,-0.01247692157549718
10.924,-0.012475623386179215
10.928,-0.012473435696773017
10.932,-0.01247326741297254
10.936,-0.012475767629436767
10.94,-0.012475407021292888
10.944,-0.012474950250977309
10.948,-0.01247372418328812
10.952,-0.012472137507455053
10.956,-0.01247285872374281
10.96,-0.012471560534424846
10.964,-0.012471536493881922
10.968,-0.012473964588717372
10.972,-0.012475887832151394
10.976,-0.012476392683552825
10.98,-0.012474301156318326
10.984,-0.012474493480661729
10.988,-0.012473844386002747
10.992,-0.012472257710169679
10.996,-0.012477065818754731
11.0,-0.012480792102908148
11.004,-0.012479854521734062
11.008000000000001,-0.012478532291873172
11.012,-0.012479373710875557
11.016,-0.01247550318346459
11.02,-0.012472041345283352
11.024000000000001,-0.012472786602114035
11.028,-0.012473075088629137
11.032,-0.012474950250977309
11.036,-0.012477570670156162
11.040000000000001,-0.012481465238110055
11.044,-0.012483604846430404
11.048,-0.012478556332416098
11.052,-0.012476993697125956
11.056000000000001,-0.012484109697831834
11.06,-0.012486946481897014
11.064,-0.01248692244135409
11.068,-0.012486585873753136
11.072000000000001,-0.012483172116657748
11.076,-0.012479349670332632
11.08,-0.012477210062012283
11.084,-0.012475407021292888
11.088000000000001,-0.012475839751065544
11.092,-0.01247372418328812
11.096,-0.01247062295325076
11.1,-0.012472786602114035
11.104000000000001,-0.012475358940207038
11.108,-0.012475575305093365
11.112,-0.012475815710522618
11.116,-0.012474878129348532
11.120000000000001,-0.012473603980573494
11.124,-0.012471031642480491
11.128,-0.012471656696596547
11.132,-0.012474301156318326
11.136000000000001,-0.012478892900017052
11.14,-0.012481248873223728
11.144,-0.012479229467618005
11.148,-0.012474950250977309
11.152000000000001,-0.012474036710346149
11.156,-0.01247372418328812
11.16,-0.012470094061306405
11.164,-0.01247139225062437
11.168000000000001,-0.012476128237580646
11.172,-0.012477859156671265
11.176,-0.01247692157549718
11.18,-0.012475431061835813
11.184000000000001,-0.01247504641314901
11.188,-0.012475334899664113
11.192,-0.012474493480661729
11.196,-0.012473123169714988
11.200000000000001,-0.01246992577750593
11.204,-0.012465430195978905
11.208,-0.012469372845018648
11.212,-0.012480744021822298
11.216000000000001,-0.012481296954309579
11.22,-0.012475647426722141
11.224,-0.012476801372782554
11.228,-0.012479373710875557
11.232000000000001,-0.01247971027847651
11.236,-0.012479397751418483
11.24,-0.012478508251330248
11.244,-0.012477113899840582
11.248000000000001,-0.012476897534954255
11.252,-0.012476585007896227
11.256,-0.012475334899664113
11.26,-0.012475382980749964
11.264,-0.012475022372606084
11.268,-0.012472041345283352
11.272,-0.012469348804475722
11.276,-0.012470238304563957
11.28,-0.012468459304387487
11.284,-0.012466175452809588
11.288,-0.012467930412443132
11.292,-0.012472281750712605
11.296,-0.012475286818578263
11.3,-0.012476488845724526
11.304,-0.012474661764462205
11.308,-0.01247134416953852
11.312,-0.012469276682846947
11.316,-0.012469853655877152
11.32,-0.012467040912354897
11.324,-0.012465526358150606
11.328,-0.012464492614804819
11.332,-0.012463843520145837
11.336,-0.012463819479602912
11.34,-0.012464949385120399
11.344,-0.012463458871459032
11.348,-0.012463987763403388
11.352,-0.012466800506925644
11.356,-0.012463963722860464
11.36,-0.012463074222772229
11.364,-0.012467545763756327
11.368,-0.012468363142215786
11.372,-0.012463963722860464
11.376,-0.012464757060776996
11.38,-0.012469997899134704
11.384,-0.012469637290990826
11.388,-0.01246865162873089
11.392,-0.012465766763579859
11.396,-0.012465358074350128
11.4,-0.012466992831269046
11.404,-0.012469444966647423
11.408,-0.012467088993440748
11.412,-0.012463290587658556
11.416,-0.01245946814133344
11.42,-0.01245855460070228
11.424,-0.01246367523634536
11.428,-0.012467617885385102
11.432,-0.012469853655877152
11.436,-0.012468050615157758
11.44,-0.012469324763932798
11.444,-0.012473628021116418
11.448,-0.01247641672409575
11.452,-0.012477234102555208
11.456,-0.012475887832151394
11.46,-0.012472882764285737
11.464,-0.012470190223478107
11.468,-0.012465911006837409
11.472,-0.012461343303681609
11.476,-0.012459876830563169
11.48,-0.012458410357444728
11.484,-0.012457665100614045
11.488,-0.0124581939925584
11.492,-0.012460549965765075
11.496,-0.012462112601055219
11.5,-0.012459275816990037
11.504,-0.012455092762521039
11.508000000000001,-0.01245905945210371
11.512,-0.012462184722683994
11.516,-0.012463699276888285
11.52,-0.012465670601408158
11.524000000000001,-0.012464949385120399
11.528,-0.01245850651961643
11.532,-0.0124581939925584
11.536,-0.012463290587658556
11.540000000000001,-0.012464324331004343
11.544,-0.012461487546939161
11.548,-0.012456414992381929
11.552,-0.012456054384238049
11.556000000000001,-0.012459155614275411
11.56,-0.012460958654994806
11.564,-0.012464444533718968
11.568,-0.012468387182758712
11.572000000000001,-0.012468843953074292
11.576,-0.01246408392557509
11.58,-0.012460453803593374
11.584,-0.012462737655171275
11.588000000000001,-0.012465622520322307
11.592,-0.01246509362837795
11.596,-0.012466199493352512
11.6,-0.012466992831269046
11.604000000000001,-0.012468483344930413
11.608,-0.0124672332366983
11.612,-0.012461054817166506
11.616,-0.012456631357268258
11.620000000000001,-0.012456030343695124
11.624,-0.012455212965235666
11.628,-0.012457809343871596
11.632,-0.012462425128113247
11.636000000000001,-0.012463242506572705
11.64,-0.0124626655335425
11.644,-0.012461030776623581
11.648,-0.012460141276535346
11.652000000000001,-0.012459323898075888
11.656,-0.01245869884395983
11.66,-0.01245874692504568
11.664,-0.012458867127760308
11.668000000000001,-0.012460670168479702
11.672,-0.012460574006308001
11.676,-0.012459155614275411
11.68,-0.01245865076287398
11.684000000000001,-0.012457400654641865
11.688,-0.012446798775211824
11.692,-0.012443409058659361
11.696,-0.012453554167773821
11.700000000000001,-0.012460453803593374
11.704,-0.012461006736080655
11.708,-0.01245865076287398
11.712,-0.012459371979161738
11.716000000000001,-0.012459804708934392
11.72,-0.012459876830563169
11.724,-0.012459035411560784
11.728,-0.012455862059894648
11.732000000000001,-0.01245518892469274
11.736,-0.012456535195096556
11.74,-0.01245615054640975
11.744,-0.012454756194920084
11.748000000000001,-0.012453746492117224
11.752,-0.012454179221889879
11.756,-0.012455261046321517
11.76,-0.012455261046321517
11.764000000000001,-0.012454083059718178
11.768,-0.012451727086511502
11.772,-0.012449683640362854
11.776,-0.012453193559629943
11.78,-0.0124561986274956
11.784,-0.012458218033101326
11.788,-0.012454996600349337
11.792,-0.012451198194567146
11.796,-0.01245514084360689
11.8,-0.012456463073467781
11.804,-0.01245249638388511
11.808,-0.01245304931637239
11.812,-0.012452135775741231
11.816,-0.012451703045968578
11.82,-0.012452328100084634
11.824,-0.012450765464794492
11.828,-0.0124537224515743
11.832,-0.01245874692504568
11.836,-0.01246088653336603
11.84,-0.012460501884679225
11.844,-0.012458819046674457
11.848,-0.012453530127230897
11.852,-0.012454179221889879
11.856,-0.012459588344048065
11.86,-0.012459780668391467
11.864,-0.012458915208846158
11.868,-0.012461030776623581
11.872,-0.01246143946585331
11.876,-0.012460141276535346
11.88,-0.01245869884395983
11.884,-0.012458458438530579
11.888,-0.012460694209022627
11.892,-0.012463002101143452
11.896,-0.012463482912001958
11.9,-0.012463242506572705
11.904,-0.012461776033454264
11.908,-0.012458145911472549
11.912,-0.012458338235815951
11.916,-0.01245249638388511
11.92,-0.012456535195096556
11.924,-0.012469805574791302
11.928,-0.012471752858768248
11.932,-0.01246829102058701
11.936,-0.0124650455472921
11.94,-0.012461223100966983
11.944,-0.01245564569500832
11.948,-0.012456631357268258
11.952,-0.012459299857532961
11.956,-0.012459227735904186
11.96,-0.012459708546762692
11.964,-0.012461463506396236
11.968,-0.012462232803769844
11.972,-0.012460357641421674
11.976,-0.012456607316725333
11.98,-0.012453986897546477
11.984,-0.012452520424428036
11.988,-0.01245254446497096
11.992,-0.012453554167773821
11.996,-0.012451654964882727
12.0,-0.012449972126877958
12.004,-0.01244884222136047
12.008000000000001,-0.012445212099378756
12.012,-0.012444635126348549
12.016,-0.012449130707875573
12.02,-0.012454251343518654
12.024000000000001,-0.012451703045968578
12.028,-0.012449948086335032
12.032,-0.012452929113657765
12.036,-0.012451775167597353
12.040000000000001,-0.012454371546233281
12.044,-0.012456270749124377
12.048,-0.012453746492117224
12.052,-0.01245300123528654
12.056000000000001,-0.0124515347621681
12.06,-0.012449924045792107
12.064,-0.012447640194214207
12.068,-0.012446486248153794
12.072000000000001,-0.0124469670590123
12.076,-0.012444490883090999
12.08,-0.012444611085805624
12.084,-0.012449683640362854
12.088000000000001,-0.0124515347621681
12.092,-0.012451005870223745
12.096,-0.012448577775388292
12.1,-0.012445115937207055
12.104000000000001,-0.012445644829151411
12.108,-0.012449082626789723
12.112,-0.012451895370311978
12.116,-0.012448553734845368
12.120000000000001,-0.012447952721272236
12.124,-0.012446822815754748
12.128,-0.012445332302093381
12.132,-0.012450957789137894
12.136000000000001,-0.012457568938442343
12.14,-0.01245783338441452
12.144,-0.012454010938089403
12.148,-0.012455813978808798
12.152000000000001,-0.012459227735904186
12.156,-0.012458915208846158
12.16,-0.012458338235815951
12.164,-0.01245874692504568
12.168000000000001,-0.01245901137101786
12.172,-0.012458386316901802
12.176,-0.012455838019351722
12.18,-0.012456991965412136
12.184000000000001,-0.012460381681964599
12.188,-0.01245850651961643
12.192,-0.012455429330121993
12.196,-0.012454443667862056
12.200000000000001,-0.012454539830033758
12.204,-0.01245518892469274
12.208,-0.012454155181346953
12.212,-0.01245514084360689
12.216000000000001,-0.012459540262962214
12.22,-0.01245905945210371
12.224,-0.012455044681435188
12.228,-0.012452832951486064
12.232000000000001,-0.012454587911119608
12.236,-0.01245249638388511
12.24,-0.012452424262256335
12.244,-0.012453337802887494
12.248000000000001,-0.012451366478367623
12.252,-0.012453073356915317
12.256,-0.012454708113834236
12.26,-0.012454371546233281
12.264000000000001,-0.012453866694831851
12.268,-0.012452736789314363
12.272,-0.012452712748771438
12.276,-0.01245062122153694
12.280000000000001,-0.012446678572497196
12.284,-0.012445524626436784
12.288,-0.012448169086158563
12.292,-0.012448361410501966
12.296,-0.01244595735620944
12.3,-0.012444394720919297
12.304,-0.012444538964176848
12.308,-0.012445789072408961
12.312,-0.012446173721095766
12.316,-0.012448048883443938
12.32,-0.01244600543729529
12.324,-0.012441774301740443
12.328,-0.012445476545350933
12.332,-0.012446606450868421
12.336,-0.012445428464265083
12.34,-0.012447495950956657
12.344,-0.01245230405954171
12.348,-0.012454491748947907
12.352,-0.012453530127230897
12.356,-0.012452207897370008
12.36,-0.012449130707875573
12.364,-0.012447640194214207
12.368,-0.01244833736995904
12.372,-0.01244843353213074
12.376,-0.012450693343165715
12.38,-0.01245518892469274
12.384,-0.012456487114010706
12.388,-0.012454371546233281
12.392,-0.012453626289402598
12.396,-0.012453409924516271
12.4,-0.012452881032571915
12.404,-0.01245249638388511
12.408,-0.012448241207787338
12.412,-0.012441365612510713
12.416,-0.012444370680376371
12.42,-0.012451919410854904
12.424,-0.01245574185718002
12.428,-0.012454996600349337
12.432,-0.012448938383532171
12.436,-0.012443793707346166
12.44,-0.012441197328710237
12.444,-0.012440476112422478
12.448,-0.012439778936677645
12.452,-0.01244062035568003
12.456,-0.012444635126348549
12.46,-0.012447039180641075
12.464,-0.01244691897792645
12.468,-0.01244788059964346
12.472,-0.0124492509105902
12.476,-0.012447760396928834
12.48,-0.012445476545350933
12.484,-0.012445524626436784
12.488,-0.012447640194214207
12.492,-0.01244833736995904
12.496,-0.012449563437648229
12.5,-0.012451102032395446
12.504,-0.012454371546233281
12.508000000000001,-0.012454371546233281
12.512,-0.012451510721625175
12.516,-0.012449803843077482
12.52,-0.012451342437824697
12.524000000000001,-0.01244797676181516
12.528,-0.012443649464088614
12.532,-0.012443433099202286
12.536,-0.012443601383002763
12.540000000000001,-0.012444827450691951
12.544,-0.012449106667332649
12.548,-0.012449731721448705
12.552,-0.012450645262079865
12.556000000000001,-0.012450933748594968
12.56,-0.012448529694302442
12.564,-0.012448914342989247
12.568,-0.012450909708052044
12.572000000000001,-0.012451510721625175
12.576,-0.012449972126877958
12.58,-0.01244797676181516
12.584,-0.012446390085982093
12.588000000000001,-0.012444034112775417
12.592,-0.012446125640009915
12.596,-0.01244737574824203
12.6,-0.012434706382120415
12.604000000000001,-0.012432230206199114
12.608,-0.012444755329063176
12.612,-0.012451294356738847
12.616,-0.012452832951486064
12.620000000000001,-0.01245249638388511
12.624,-0.012450765464794492
12.628,-0.012451246275652996
12.632,-0.012451318397281773
12.636000000000001,-0.0124515347621681
12.64,-0.012451679005425651
12.644,-0.012451703045968578
12.648,-0.012451727086511502
12.652000000000001,-0.012450813545880342
12.656,-0.012451005870223745
12.66,-0.012450741424251566
12.664,-0.01244747191041373
12.668000000000001,-0.012444250477661746
12.672,-0.012445380383179232
12.676,-0.012447640194214207
12.68,-0.012446582410325495
12.684000000000001,-0.012438865396046486
12.688,-0.012440476112422478
12.692,-0.012447495950956657
12.696,-0.012448145045615637
12.700000000000001,-0.01245290507311484
12.704,-0.0124604778441363
12.708,-0.012462545330827872
12.712,-0.012460405722507523
12.716000000000001,-0.012458674803416905
12.72,-0.012455549532836618
12.724,-0.012451823248683203
12.728,-0.01245112607293837
12.732000000000001,-0.012450813545880342
12.736,-0.012449323032218976
12.74,-0.012449948086335032
12.744,-0.012450212532307211
12.748000000000001,-0.012449779802534556
12.752,-0.012448577775388292
12.756,-0.012447303626613254
12.76,-0.012445476545350933
12.764000000000001,-0.012441918544997994
12.768,-0.012439466409619617
12.772,-0.012436797909354914
12.776,-0.012439562571791319
12.780000000000001,-0.012443000369429632
12.784,-0.012446197761638692
12.788,-0.01244843353213074
12.792,-0.012450525059365239
12.796000000000001,-0.012449323032218976
12.8,-0.012448409491587816
12.804,-0.012448938383532171
12.808,-0.012448241207787338
12.812,-0.012446197761638692
12.816,-0.01244432259929052
12.82,-0.012443721585717389
12.824,-0.012444154315490044
12.828,-0.012443865828974941
12.832,-0.012444154315490044
12.836,-0.012445644829151411
12.84,-0.012447519991499581
12.844,-0.012449635559277004
12.848,-0.0124469670590123
12.852,-0.012442519558571126
12.856,-0.012443168653230108
12.86,-0.012443601383002763
12.864,-0.012445909275123589
12.868,-0.012446678572497196
12.872,-0.012444875531777802
12.876,-0.012446173721095766
12.88,-0.012447495950956657
12.884,-0.012447616153671282
12.888,-0.012447159383355702
12.892,-0.012444995734492429
12.896,-0.012441005004366835
12.9,-0.01244189450445507
12.904,-0.012444875531777802
12.908,-0.012446846856297674
12.912,-0.012444563004719774
12.916,-0.01243701427424124
12.92,-0.012433985165832658
12.924,-0.012440283788079078
12.928,-0.012447664234757133
12.932,-0.012448553734845368
12.936,-0.012444899572320728
12.94,-0.012442759964000379
12.944,-0.012442086828798472
12.948,-0.012440932882738058
12.952,-0.012441870463912144
12.956,-0.01244376966680324
12.96,-0.0124423031936848
12.964,-0.012438865396046486
12.968,-0.012439057720389888
12.972,-0.012440019342106898
12.976,-0.01244427451820467
12.98,-0.012448217167244414
12.984,-0.012447736356385908
12.988,-0.012442207031513098
12.992,-0.012432134044027413
12.996,-0.012436797909354914
13.0,-0.012448601815931219
13.004,-0.012448457572673667
13.008000000000001,-0.012446894937383525
13.012,-0.01244970768090578
13.016,-0.012450885667509118
13.02,-0.012449178788961424
13.024000000000001,-0.012446654531954272
13.028,-0.012444010072232493
13.032,-0.012441269450339012
13.036,-0.01244107712599561
13.040000000000001,-0.012442880166715005
13.044,-0.012443385018116435
13.048,-0.012443793707346166
13.052,-0.01244381774788909
13.056000000000001,-0.012443168653230108
13.06,-0.01244280804508623
13.064,-0.012442134909884321
13.068,-0.012442447436942351
13.072000000000001,-0.012440428031336628
13.076,-0.012431581111540132
13.08,-0.012426027746124396
13.084,-0.012431725354797684
13.088000000000001,-0.012437615287814372
13.092,-0.012443048450515483
13.096,-0.012443601383002763
13.1,-0.0124446832074344
13.104000000000001,-0.012445019775035353
13.108,-0.012442086828798472
13.112,-0.012439009639304038
13.116,-0.01244016358536445
13.120000000000001,-0.01244102904490976
13.124,-0.012440596315137106
13.128,-0.01244112520708146
13.132,-0.0124423993558565
13.136000000000001,-0.012443433099202286
13.14,-0.012444923612863652
13.144,-0.0124446832074344
13.148,-0.012444178356032969
13.152000000000001,-0.012444034112775417
13.156,-0.012443096531601333
13.16,-0.012443192693773034
13.164,-0.01244290420725793
13.168000000000001,-0.012437879733786551
13.172,-0.012430619489823122
13.176,-0.012435860328180828
13.18,-0.012442639761285753
13.184000000000001,-0.012444587045262698
13.188,-0.01244523613992168
13.192,-0.012447255545527404
13.196,-0.012450452937736464
13.200000000000001,-0.012450380816107687
13.204,-0.012446630491411346
13.208,-0.012442759964000379
13.212,-0.012441606017939966
13.216000000000001,-0.012441413693596564
13.22,-0.012441702180111668
13.224,-0.012443048450515483
13.228,-0.012443793707346166
13.232000000000001,-0.012442447436942351
13.236,-0.012438865396046486
13.24,-0.012429850192449512
13.244,-0.012423888137804047
13.248000000000001,-0.012435211233521846
13.252,-0.012446366045439168
13.256,-0.01244701514009815
13.26,-0.012445404423722158
13.264000000000001,-0.012443240774858885
13.268,-0.012441221369253162
13.272,-0.012438937517675263
13.276,-0.012435812247094977
13.280000000000001,-0.012433095665744423
13.284,-0.012432037881855712
13.288,-0.012431989800769861
13.292,-0.012431725354797684
13.296000000000001,-0.01243290334140102
13.3,-0.01243381688203218
13.304,-0.012433913044203881
13.308,-0.012433792841489256
13.312000000000001,-0.012433287990087825
13.316,-0.012430691611451897
13.32,-0.012423816016175272
13.324,-0.012420233975279407
13.328,-0.012420738826680837
13.332,-0.012427422097614061
13.336,-0.012432783138686395
13.34,-0.012434105368547284
13.344,-0.012434033246918509
13.348,-0.012434153449633134
13.352,-0.012434225571261911
13.356,-0.012434658301034565
13.36,-0.012434874665920893
13.364,-0.012434153449633134
13.368,-0.012432831219772246
13.372,-0.012433696679317555
13.376,-0.012434249611804836
13.38,-0.012436437301211035
13.384,-0.012432975463029797
13.388,-0.012425066124407386
13.392,-0.012424224705405001
13.396,-0.01242220529979928
13.4,-0.01242732593544236
13.404,-0.012432975463029797
13.408,-0.012432374449456666
13.412,-0.012430571408737271
13.416,-0.012430787773623598
13.42,-0.01243285526031517
13.424,-0.012433696679317555
13.428,-0.012431653233168907
13.432,-0.012431412827739654
13.436,-0.01243432173343361
13.44,-0.012435692044380352
13.444,-0.012432182125113263
13.448,-0.012427061489470183
13.452,-0.012428648165303249
13.456,-0.01243285526031517
13.46,-0.01243184555751231
13.464,-0.01242189277274125
13.468,-0.01242189277274125
13.472,-0.012431268584482104
13.476,-0.01243417749017606
13.48,-0.01243559588220865
13.484,-0.012435259314607696
13.488,-0.012435475679494025
13.492,-0.012434730422663342
13.496,-0.012434033246918509
13.5,-0.012434754463206266
13.504,-0.012436196895781782
13.508000000000001,-0.01243646134175396
13.512,-0.0124355478011228
13.516,-0.012432711017057618
13.52,-0.012433744760403405
13.524000000000001,-0.012433696679317555
13.528,-0.012430547368194345
13.532,-0.012430667570908972
13.536,-0.012431701314254757
13.540000000000001,-0.012429754030277811
13.544,-0.01243021080059339
13.548,-0.012430811814166522
13.552,-0.012431460908825505
13.556000000000001,-0.012438841355503561
13.56,-0.012438504787902607
13.564,-0.012435259314607696
13.568,-0.012432422530542516
13.572000000000001,-0.012432061922398636
13.576,-0.012434057287461433
13.58,-0.01243376880094633
13.584,-0.012432711017057618
13.588000000000001,-0.012431629192625982
13.592,-0.012431340706110879
13.596,-0.01243047524656557
13.6,-0.012427926949015492
13.604000000000001,-0.012426123908296097
13.608,-0.012421339840253969
13.612,-0.012419801245506753
13.616,-0.012420354177994034
13.620000000000001,-0.012416603853297693
13.624,-0.012419488718448723
13.628,-0.012430619489823122
13.632,-0.012433143746830274
13.636000000000001,-0.012430691611451897
13.64,-0.01243093201688115
13.644,-0.012429128976161755
13.648,-0.012426484516439976
13.652000000000001,-0.012426268151553649
13.656,-0.012427710584129163
13.66,-0.012430739692537747
13.664,-0.012432686976514694
13.668000000000001,-0.012434273652347762
13.672,-0.01243331203063075
13.676,-0.01242965786810611
13.68,-0.012429898273535363
13.684000000000001,-0.01242554693526589
13.688,-0.012426724921869229
13.692,-0.012430739692537747
13.696,-0.012425570975808816
13.700000000000001,-0.012419632961706275
13.704,-0.012423455408031393
13.708,-0.01242504208386446
13.712,-0.012423695813460645
13.716000000000001,-0.012423575610746019
13.72,-0.01242585946232392
13.724,-0.01242585946232392
13.728,-0.012425162286579087
13.732000000000001,-0.012425066124407386
13.736,-0.01242244570522853
13.74,-0.012419031948133144
13.744,-0.012419993569850154
13.748000000000001,-0.01241864729944634
13.752,-0.012419320434648247
13.756,-0.012423695813460645
13.76,-0.012424296827033776
13.764000000000001,-0.012422613989029009
13.768,-0.01241996952930723
13.772,-0.012417517393928853
13.776,-0.012414031515204689
13.780000000000001,-0.012410329271594198
13.784,-0.012405545203552071
13.788,-0.012412180393399443
13.792,-0.012420402259079885
13.796000000000001,-0.01242316692151629
13.8,-0.01242549885418004
13.804,-0.01242220529979928
13.808,-0.012418887704875592
13.812000000000001,-0.012419152150847771
13.816,-0.012417637596643478
13.82,-0.01241595475863871
13.824,-0.012415642231580683
13.828,-0.01241631536678259
13.832,-0.01241494505583585
13.836,-0.012410882204081479
13.84,-0.012412589082629174
13.844,-0.012416724056012319
13.848,-0.012417998204787358
13.852,-0.012413238177288156
13.856,-0.012408574311960654
13.86,-0.012408309865988476
13.864,-0.012408983001190385
13.868,-0.012412997771858903
13.872,-0.012419584880620425
13.876,-0.012420233975279407
13.88,-0.012419488718448723
13.884,-0.01241864729944634
13.888,-0.012419488718448723
13.892,-0.012421363880796895
13.896,-0.0124195608400775
13.9,-0.012418430934560012
13.904,-0.012422686110657784
13.908,-0.012424753597349356
13.912,-0.012422589948486083
13.916,-0.012418310731845386
13.92,-0.012415209501808027
13.924,-0.01241407959629054
13.928,-0.012412733325886724
13.932,-0.012411435136568762
13.936,-0.01241220443394237
13.94,-0.012413142015116455
13.944,-0.012415714353209458
13.948,-0.012417565475014703
13.952,-0.012414320001719792
13.956,-0.012415546069408982
13.96,-0.012422686110657784
13.964,-0.012426700881326302
13.968,-0.012427902908472566
13.972,-0.012430595449280196
13.976,-0.012430547368194345
13.98,-0.012424921881149834
13.984,-0.012422638029571933
13.988,-0.012423695813460645
13.992,-0.012423816016175272
13.996,-0.012422782272829485
14.0,-0.012422493786314381
14.004,-0.012423599651288943
14.008000000000001,-0.012422012975455877
14.012,-0.01241960892116335
14.016,-0.012417252947956675
14.02,-0.012417228907413749
14.024000000000001,-0.012421195596996417
14.028,-0.012424368948662553
14.032,-0.012424609354091806
14.036,-0.012424705516263505
14.040000000000001,-0.012427710584129163
14.044,-0.012435932449809605
14.048,-0.012437086395870017
14.052,-0.012433528395517078
14.056000000000001,-0.01243042716547972
14.06,-0.012428455840959847
14.064,-0.012427590381414538
14.068,-0.012426700881326302
14.072000000000001,-0.012426484516439976
14.076,-0.012425162286579087
14.08,-0.012424537232463029
14.084,-0.012424537232463029
14.088000000000001,-0.012423864097261123
14.092,-0.012424032381061599
14.096,-0.012422926516087037
14.1,-0.012420161853650632
14.104000000000001,-0.012417469312843002
14.108,-0.012416964461441572
14.112,-0.012419849326592604
14.116,-0.012423575610746019
14.120000000000001,-0.012425258448750788
14.124,-0.012427037448927257
14.128,-0.012421508124054447
14.132,-0.01242047438070866
14.136000000000001,-0.012430403124936793
14.14,-0.012435403557865248
14.144,-0.012433937084746808
14.148,-0.012429585746477335
14.152000000000001,-0.012427686543586239
14.156,-0.012426724921869229
14.16,-0.012424392989205477
14.164,-0.012423359245859692
14.168000000000001,-0.012422830353915336
14.172,-0.012421147515910566
14.176,-0.01241778183990103
14.18,-0.012416147082982113
14.184000000000001,-0.012416243245153814
14.188,-0.012414320001719792
14.192,-0.012410185028336648
14.196,-0.012415522028866055
14.200000000000001,-0.012419392556277022
14.204,-0.012416507691125992
14.208,-0.012416627893840617
14.212,-0.012412156352856519
14.216000000000001,-0.012414800812578298
14.22,-0.012421796610569549
14.224,-0.012420330137451108
14.228,-0.01241900790759022
14.232000000000001,-0.01242042629962281
14.236,-0.01241996952930723
14.24,-0.01241782992098688
14.244,-0.012417661637186404
14.248000000000001,-0.012417950123701508
14.252,-0.012417349110128376
14.256,-0.012417445272300077
14.26,-0.012417084664156197
14.264000000000001,-0.012416219204610888
14.268,-0.012416195164067964
14.272,-0.012416555772211842
14.276,-0.012414392123348569
14.280000000000001,-0.01241463252877782
14.284,-0.012419128110304845
14.288,-0.012413190096202306
14.292,-0.012404463379120434
14.296000000000001,-0.012410401393222975
14.3,-0.012418382853474162
14.304,-0.012419488718448723
14.308,-0.012421339840253969
14.312000000000001,-0.012423695813460645
14.316,-0.012422830353915336
14.32,-0.012422133178170503
14.324,-0.012423503489117242
14.328000000000001,-0.012424609354091806
14.332,-0.012424344908119627
14.336,-0.012423407326945543
14.34,-0.01242220529979928
14.344,-0.012422469745771457
14.348,-0.012422373583599756
14.352,-0.012420570542880361
14.356,-0.012418671339989265
14.36,-0.01241859921836049
14.364,-0.012417036583070347
14.368,-0.01240960805530644
14.372,-0.012400232243565588
14.376,-0.012397756067644285
14.38,-0.012406001973867651
14.384,-0.01241047351485175
14.388,-0.012410593717566377
14.392,-0.012412973731315977
14.396,-0.012415041218007551
14.4,-0.012413190096202306
14.404,-0.01241316605565938
14.408,-0.012413093934030605
14.412,-0.012411435136568762
14.416,-0.01241083412299563
14.42,-0.012412012109598967
14.424,-0.012413646866517886
14.428,-0.012413598785432035
14.432,-0.0124127092853438
14.436,-0.01241102644733903
14.44,-0.012411194731139509
14.444,-0.012410209068879572
14.448,-0.01240722804155684
14.452,-0.012405112473779416
14.456,-0.012397756067644285
14.46,-0.012399655270535381
14.464,-0.012406218338753978
14.468,-0.012411218771682433
14.472,-0.012414560407149045
14.476,-0.012416964461441572
14.48,-0.012418022245330283
14.484,-0.012415546069408982
14.488,-0.012415930718095785
14.492,-0.012418070326416134
14.496,-0.012417613556100554
14.5,-0.01241682021818402
14.504,-0.012416171123525038
14.508000000000001,-0.012416483650583066
14.512,-0.01241590667755286
14.516,-0.012415594150494832
14.52,-0.012416002839724561
14.524000000000001,-0.012415377785608504
14.528,-0.01241444020443442
14.532,-0.01241367090706081
14.536,-0.012411891906884341
14.540000000000001,-0.012408213703816775
14.544,-0.012404679744006763
14.548,-0.012405737527895474
14.552,-0.012410353312137124
14.556000000000001,-0.012413358380002782
14.56,-0.012416796177641095
14.564,-0.012416507691125992
14.568,-0.012416195164067964
14.572000000000001,-0.012417036583070347
14.576,-0.01241585859646701
14.58,-0.012415065258550476
14.584,-0.012413382420545706
14.588000000000001,-0.012410353312137124
14.592,-0.012408502190331879
14.596,-0.012407901176758747
14.6,-0.012408766636304056
14.604000000000001,-0.012409704217478142
14.608,-0.012407805014587046
14.612,-0.012406026014410577
14.616,-0.012404415298034583
14.620000000000001,-0.012404102770976555
14.624,-0.012402924784373218
14.628,-0.01240037648682314
14.632,-0.012398405162303268
14.636000000000001,-0.012402588216772264
14.64,-0.01240403064934778
14.644,-0.012403862365547302
14.648,-0.012405016311607715
14.652000000000001,-0.012404054689890705
14.656,-0.012402636297858115
14.66,-0.012401097703110897
14.664,-0.012399775473250009
14.668000000000001,-0.012398525365017895
14.672,-0.012396337675611695
14.676,-0.012394390391634749
14.68,-0.012394198067291346
14.684000000000001,-0.012393452810460663
14.688,-0.012391217039968615
14.692,-0.0123876830801586
14.696,-0.012390543904766706
14.700000000000001,-0.01239407786457672
14.704,-0.012393380688831888
14.708,-0.012393332607746037
14.712,-0.012402588216772264
14.716000000000001,-0.012407732892958271
14.72,-0.012406218338753978
14.724,-0.01240489610889309
14.728,-0.012404920149436014
14.732000000000001,-0.01240266033840104
14.736,-0.01239941486510613
14.74,-0.012400448608451915
14.744,-0.01240229973025716
14.748000000000001,-0.012400568811166543
14.752,-0.012398885973161774
14.756,-0.012398910013704698
14.76,-0.012399294662391503
14.764000000000001,-0.012399150419133951
14.768,-0.012398958094790549
14.772,-0.012399535067820756
14.776,-0.012395880905296116
14.780000000000001,-0.01239184209408467
14.784,-0.012394967364664956
14.788,-0.012402035284284983
14.792,-0.012405208635951117
14.796000000000001,-0.012408983001190385
14.8,-0.012410185028336648
14.804,-0.0124105215959376
14.808,-0.012410497555394676
14.812000000000001,-0.012409271487705487
14.816,-0.012404583581835061
14.82,-0.012402179527542535
14.824,-0.012401314067997224
14.828000000000001,-0.012400304365194363
14.832,-0.01239936678402028
14.836,-0.012399078297505176
14.84,-0.012399462946191979
14.844000000000001,-0.012399174459676877
14.848,-0.012398429202846194
14.852,-0.012397924351444763
14.856,-0.012394847161950329
14.86,-0.012396602121583873
14.864,-0.012398453243389118
14.868,-0.012395231810637133
14.872,-0.012389798647936025
14.876,-0.012390856431824736
14.88,-0.012395111607922508
14.884,-0.012400977500396272
14.888,-0.012403333473602948
14.892,-0.012404583581835061
14.896,-0.01240494418997894
14.9,-0.012405136514322342
14.904,-0.012403862365547302
14.908,-0.0124012900274543
14.912,-0.012400400527366065
14.916,-0.012402492054600563
14.92,-0.012404823987264314
14.924,-0.01240042456790899
14.928,-0.012396121310725369
14.932,-0.01239540009443761
14.936,-0.012391649769741268
14.94,-0.012381721025513135
14.944,-0.012378114944074346
14.948,-0.012387538836901048
14.952,-0.012401530432883553
14.956,-0.012406050054953502
14.96,-0.012404271054777032
14.964,-0.012401602554512328
14.968,-0.012401434270711852
14.972,-0.012401698716684029
14.976,-0.01239905425696225
14.98,-0.0123991023380481
14.984,-0.01240133810854015
14.988,-0.012402275689714236
14.992,-0.012400640932795318
14.996,-0.012397852229815987
15.0,-0.012397082932442379
15.004,-0.012395352013351759
15.008000000000001,-0.012394847161950329
15.012,-0.012396121310725369
15.016,-0.01239936678402028
15.02,-0.0124035738790322
15.024000000000001,-0.012405833690067175
15.028,-0.012409343609334263
15.032,-0.012408574311960654
15.036,-0.01240763673078657
15.040000000000001,-0.01240686743341296
15.044,-0.012405785608981324
15.048,-0.012403838325004378
15.052,-0.012403862365547302
15.056000000000001,-0.012405809649524249
15.06,-0.012408862798475757
15.064,-0.012409343609334263
15.068,-0.01240737228481439
15.072000000000001,-0.012405136514322342
15.076,-0.012406170257668128
15.08,-0.012409079163362084
15.084,-0.012409584014763516
15.088000000000001,-0.012404126811519482
15.092,-0.012393428769917739
15.096,-0.012390039053365276
15.1,-0.012396289594525845
15.104000000000001,-0.012399775473250009
15.108,-0.012403910446633153
15.112,-0.012407348244271466
15.116,-0.012410617758109302
15.120000000000001,-0.012413238177288156
15.124,-0.01241362282597496
15.128,-0.012412348677199921
15.132,-0.012410377352680049
15.136000000000001,-0.012408886839018684
15.14,-0.012407732892958271
15.144,-0.01240717996047099
15.148,-0.012407901176758747
15.152000000000001,-0.01240900704173331
15.156,-0.01240900704173331
15.16,-0.012408021379473373
15.164,-0.01240732420372854
15.168000000000001,-0.01240641066309738
15.172,-0.01240352579794635
15.176,-0.012398958094790549
15.18,-0.012395568378238088
15.184000000000001,-0.012402492054600563
15.188,-0.012409223406619636
15.192,-0.01240544904138037
15.196,-0.012398958094790549
15.200000000000001,-0.012403862365547302
15.204,-0.012408213703816775
15.208,-0.012408357947074327
15.212,-0.012406915514498811
15.216000000000001,-0.012405280757579894
15.22,-0.012404271054777032
15.224,-0.01240398256826193
15.228,-0.012402443973514712
15.232000000000001,-0.012400689013881168
15.236,-0.012400448608451915
15.24,-0.012400857297681644
15.244,-0.012401097703110897
15.248000000000001,-0.012399390824563204
15.252,-0.012397756067644285
15.256,-0.012393669175346992
15.26,-0.012386745498984516
15.264000000000001,-0.012387322472014722
15.268,-0.012390471783137931
15.272,-0.012393645134804065
15.276,-0.012397515662215034
15.280000000000001,-0.012398693648818371
15.284,-0.012402924784373218
15.288,-0.012402083365370834
15.292,-0.012398910013704698
15.296000000000001,-0.01239595302692489
15.3,-0.012393645134804065
15.304,-0.012393861499690394
15.308,-0.012394270188920123
15.312000000000001,-0.012392034418428073
15.316,-0.012389750566850174
15.32,-0.012386529134098188
15.324,-0.012385952161067982
15.328000000000001,-0.0123831153770028
15.332,-0.012376960998013933
15.336,-0.01238525498532315
15.34,-0.012397563743300885
15.344000000000001,-0.01239667424321265
15.348,-0.012390760269653035
15.352,-0.012383788512204709
15.356,-0.012383692350033008
15.36,-0.012389966931736501
15.364,-0.012390135215536977
15.368,-0.012386841661156216
15.372,-0.012384509728492466
15.376,-0.012383740431118858
15.38,-0.01238265860668722
15.384,-0.012380999809225378
15.388,-0.01238087960651075
15.392,-0.012380615160538573
15.396,-0.012378571714389925
15.4,-0.01237849959276115
15.404,-0.012377610092672915
15.408,-0.01237287410571664
15.412,-0.012372080767800105
15.416,-0.012377682214301692
15.42,-0.012385735796181654
15.424,-0.012392515229286579
15.428,-0.012389654404678473
15.432,-0.012387370553100572
15.436,-0.01238717822875717
15.44,-0.012385783877267504
15.444,-0.012384221241977363
15.448,-0.012383259620260352
15.452,-0.012382225876914565
15.456,-0.012381937390399464
15.46,-0.012382177795828715
15.464,-0.012381023849768302
15.468,-0.01237991798479374
15.472,-0.012378884241447955
15.476,-0.012376287862812026
15.48,-0.012373595322004396
15.484,-0.012371623997484526
15.488,-0.01237292218680249
15.492,-0.012371527835312824
15.496,-0.012368835294505194
15.5,-0.012370902781196767
15.504,-0.012373282794946368
15.508000000000001,-0.012376696552041756
15.512,-0.01238037475510932
15.516,-0.01238434144469199
15.52,-0.012384317404149064
15.524000000000001,-0.012382850931030623
15.528,-0.012382225876914565
15.532,-0.012383379822974978
15.536,-0.01238580791781043
15.540000000000001,-0.012384942458265122
15.544,-0.012382297998543342
15.548,-0.012380543038909798
15.552,-0.012380134349680069
15.556000000000001,-0.012380518998366872
15.56,-0.012380567079452722
15.564,-0.012381047890311228
15.568,-0.012380398795652246
15.572000000000001,-0.01237753797104414
15.576,-0.012375061795122837
15.58,-0.012374004011234126
15.584,-0.012372729862459087
15.588000000000001,-0.012376936957471009
15.592,-0.012385182863694373
15.596,-0.012388788945133162
15.6,-0.012390760269653035
15.604000000000001,-0.012392707553629981
15.608,-0.012393236445574336
15.612,-0.01239256331037243
15.616,-0.012391649769741268
15.620000000000001,-0.01239210654005685
15.624,-0.012391986337342223
15.628,-0.012391313202140316
15.632,-0.012391505526483718
15.636000000000001,-0.012390688148024258
15.64,-0.012389029350562415
15.644,-0.012385976201610907
15.648,-0.012384822255550494
15.652000000000001,-0.012386697417898666
15.656,-0.012385783877267504
15.66,-0.012380855565967826
15.664,-0.01237698503855686
15.668000000000001,-0.012382081633657014
15.672,-0.012384269323063213
15.676,-0.012381456579540958
15.68,-0.012380615160538573
15.684000000000001,-0.01237840343058945
15.688,-0.01237434057883508
15.692,-0.012372032686714255
15.696,-0.012374220376120453
15.700000000000001,-0.012373907849062424
15.704,-0.012374773308607735
15.708,-0.012375422403266716
15.712,-0.01237292218680249
15.716000000000001,-0.012370061362194382
15.72,-0.012368114078217437
15.724,-0.012365950429354162
15.728,-0.012364988807637152
15.732000000000001,-0.012364700321122048
15.736,-0.012364459915692797
15.74,-0.012358425739418555
15.744,-0.012344866873208704
15.748000000000001,-0.012348400833018719
15.752,-0.012361983739771494
15.756,-0.012367392861929678
15.76,-0.012367705388987706
15.764000000000001,-0.012368354483646688
15.768,-0.012369219943192
15.772,-0.012368811253962268
15.776,-0.012364099307548917
15.780000000000001,-0.012360877874796932
15.784,-0.012362031820857345
15.788,-0.012362584753344626
15.792,-0.01236287323985973
15.796000000000001,-0.012363594456147486
15.8,-0.012363185766917757
15.804,-0.012362897280402654
15.808,-0.012360829793711081
15.812000000000001,-0.012359339280049715
15.816,-0.012359435442221416
15.82,-0.01235626209055528
15.824,-0.01235667077978501
15.828000000000001,-0.012361911618142719
15.832,-0.012364772442750825
15.836,-0.012364483956235722
15.84,-0.012368306402560838
15.844000000000001,-0.012372898146259564
15.848,-0.012371888443456703
15.852,-0.012373691484176098
15.856,-0.012375494524895492
15.860000000000001,-0.01237434057883508
15.864,-0.012372633700287386
15.868,-0.0123716961191133
15.872,-0.01237337895711807
15.876,-0.012369965200022683
15.88,-0.012366022550982939
15.884,-0.012364748402207899
15.888,-0.012362849199316803
15.892,-0.012360108577423324
15.896,-0.01235977200982237
15.9,-0.012361070199140334
15.904,-0.012366479321298519
15.908,-0.012370758537939215
15.912,-0.012370470051424113
15.916,-0.012368282362017913
15.92,-0.012366455280755593
15.924,-0.012367200537586276
15.928,-0.012366311037498042
15.932,-0.012365854267182461
15.936,-0.012366190834783415
15.94,-0.012367344780843828
15.944,-0.012365277294152256
15.948,-0.012362584753344626
15.952,-0.012359243117878014
15.956,-0.012360108577423324
15.96,-0.012363906983205516
15.964,-0.012363906983205516
15.968,-0.012362152023571972
15.972,-0.012362103942486121
15.976,-0.012362103942486121
15.98,-0.012359531604393117
15.984,-0.012358666144847808
15.988,-0.01235539663100997
15.992,-0.012353809955176903
15.996,-0.012361911618142719
16.0,-0.012367633267358931
16.004,-0.01236794579441696
16.008,-0.012368522767447166
16.012,-0.012369893078393906
16.016000000000002,-0.012363810821033815
16.02,-0.012359291198963864
16.024,-0.012361791415428092
16.028,-0.01236022878013795
16.032,-0.012355637036439222
16.036,-0.012357776644759571
16.04,-0.012361118280226185
16.044,-0.012362488591172924
16.048000000000002,-0.01236438779406402
16.052,-0.01236534941578103
16.056,-0.012362801118230952
16.06,-0.012358161293446378
16.064,-0.012357824725845422
16.068,-0.01236169525325639
16.072,-0.012365950429354162
16.076,-0.012367296699757977
16.080000000000002,-0.012367921753874035
16.084,-0.012367849632245258
16.088,-0.012367200537586276
16.092,-0.012364748402207899
16.096,-0.012362272226286598
16.1,-0.012362608793887552
16.104,-0.012360805753168157
16.108,-0.01235453117146466
16.112000000000002,-0.012350949130568797
16.116,-0.012355612995896298
16.12,-0.012357968969102974
16.124,-0.012356334212184055
16.128,-0.012355540874267521
16.132,-0.01235667077978501
