0.0,-0.008251219183351897
0.004,-0.008248526642544267
0.008,-0.008249368061546651
0.012,-0.008248526642544267
0.016,-0.008249464223718353
0.02,-0.00825013735892026
0.024,-0.00824287711495683
0.028,-0.008243069439300232
0.032,-0.008248983412859847
0.036000000000000004,-0.008249055534488623
0.04,-0.008249344021003725
0.044,-0.008248935331773996
0.048,-0.008246459155852695
0.052000000000000005,-0.008244848439476702
0.056,-0.00824850260200134
0.06,-0.008246795723453647
0.064,-0.00824511288544888
0.068,-0.008246098547708814
0.07200000000000001,-0.008251699994210401
0.076,-0.008250666250864616
0.08,-0.008252325048326459
0.084,-0.008255907089222322
0.088,-0.008253743440359049
0.092,-0.008252060602354281
0.096,-0.008253478994386871
0.1,-0.008255859008136471
0.10400000000000001,-0.008253575156558573
0.108,-0.008253575156558573
0.112,-0.008252613534841562
0.116,-0.008251844237467953
0.12,-0.008256628305510081
0.124,-0.008258142859714372
0.128,-0.008257373562340764
0.132,-0.008255931129765248
0.136,-0.008257012954196884
0.14,-0.008258936197630906
0.14400000000000002,-0.008258623670572878
0.148,-0.008260018022062542
0.152,-0.008260498832921048
0.156,-0.008259945900433767
0.16,-0.00825932084631771
0.164,-0.008255137791848714
0.168,-0.008255786886507696
0.17200000000000001,-0.008260114184234243
0.176,-0.008259176603060159
0.18,-0.008260426711292273
0.184,-0.00825840730568655
0.188,-0.008254993548591162
0.192,-0.008255546481078443
0.196,-0.008255979210851099
0.2,-0.00825525799456334
0.20400000000000001,-0.00825658022442423
0.20800000000000002,-0.008255931129765248
0.212,-0.008255378197277967
0.216,-0.00825520991347749
0.22,-0.00825749376505539
0.224,-0.008256868710939334
0.228,-0.008258190940800223
0.232,-0.008254993548591162
0.23600000000000002,-0.008252132723983056
0.24,-0.008252252926697682
0.244,-0.008257613967770016
0.248,-0.008257589927227091
0.252,-0.00825561860270722
0.256,-0.008255810927050621
0.26,-0.008256892751482258
0.264,-0.008255979210851099
0.268,-0.00825749376505539
0.272,-0.008260763278893225
0.276,-0.008262782684498949
0.28,-0.008260354589663496
0.28400000000000003,-0.008255522440535519
0.28800000000000003,-0.008258888116545056
0.292,-0.008263503900786706
0.296,-0.008264080873816913
0.3,-0.00825932084631771
0.304,-0.008257686089398792
0.308,-0.00826109984649418
0.312,-0.00826617240105141
0.316,-0.00826718210385427
0.32,-0.008265787752364607
0.324,-0.008265090576619774
0.328,-0.008262782684498949
0.332,-0.008262037427668265
0.336,-0.008261748941153162
0.34,-0.00826160469789561
0.34400000000000003,-0.008262782684498949
0.34800000000000003,-0.008267374428197673
0.352,-0.00826622048213726
0.356,-0.00826667725245284
0.36,-0.00826799948231373
0.364,-0.008265451184763652
0.368,-0.008269033225659516
0.372,-0.008265403103677802
0.376,-0.008264201076531539
0.38,-0.008266316644308961
0.384,-0.008264032792731062
0.388,-0.008261628738438536
0.392,-0.008261220049208805
0.396,-0.008261436414095134
0.4,-0.008261051765408329
0.404,-0.00826155661680976
0.40800000000000003,-0.00826165277898146
0.41200000000000003,-0.008263551981872556
0.41600000000000004,-0.008264705927932969
0.42,-0.008262710562870172
0.424,-0.008264705927932969
0.428,-0.008266797455167467
0.432,-0.008269297671631695
0.436,-0.008265355022591951
0.44,-0.008260739238350301
0.444,-0.008265427144220726
0.448,-0.008268239887742983
0.452,-0.008266340684851887
0.456,-0.008264946333362222
0.46,-0.008269153428374143
0.464,-0.008267662914712776
0.468,-0.008263239454814528
0.47200000000000003,-0.008262710562870172
0.47600000000000003,-0.008266436847023589
0.48,-0.008265547346935354
0.484,-0.008262229752011668
0.488,-0.008261580657352685
0.492,-0.00826338369807208
0.496,-0.008266653211909916
0.5,-0.008266100279422635
0.504,-0.00826307117101405
0.508,-0.008265282900963176
0.512,-0.008264994414448073
0.516,-0.008265931995622157
0.52,-0.008268528374258085
0.524,-0.008267278266025972
0.528,-0.008264393400874941
0.532,-0.008262950968299425
0.536,-0.008265499265849503
0.54,-0.008268528374258085
0.544,-0.008266605130824065
0.548,-0.008264008752188136
0.552,-0.008262398035812144
0.556,-0.00826525886042025
0.56,-0.008266412806480663
0.5640000000000001,-0.008265138657705624
0.5680000000000001,-0.008261700860067311
0.5720000000000001,-0.008261821062781937
0.5760000000000001,-0.008264898252276371
0.58,-0.008264946333362222
0.584,-0.008266052198336784
0.588,-0.008265234819877326
0.592,-0.008265547346935354
0.596,-0.00826845625262931
0.6,-0.0082674946309123
0.604,-0.008264537644132493
0.608,-0.008266845536253318
0.612,-0.008266845536253318
0.616,-0.00826566754964998
0.62,-0.008265355022591951
0.624,-0.008268888982401966
0.628,-0.008271773847552996
0.632,-0.00827078818529306
0.636,-0.008268768779687338
0.64,-0.008264489563046642
0.644,-0.00826672533353869
0.648,-0.00826718210385427
0.652,-0.008269177468917067
0.656,-0.008268672617515637
0.66,-0.008266557049738214
0.664,-0.008264104914359837
0.668,-0.008264369360332015
0.672,-0.008263768346758883
0.676,-0.00826525886042025
0.68,-0.008261989346582415
0.684,-0.008259753576090365
0.6880000000000001,-0.008262590360155546
0.6920000000000001,-0.008264321279246164
0.6960000000000001,-0.00826307117101405
0.7000000000000001,-0.008266460887566513
0.704,-0.00827059586094966
0.708,-0.008269610198689723
0.712,-0.008267206144397196
0.716,-0.0082653069415061
0.72,-0.0082653069415061
0.724,-0.008265499265849503
0.728,-0.008263479860243781
0.732,-0.008264465522503716
0.736,-0.008266508968652364
0.74,-0.008267518671455224
0.744,-0.008268312009371758
0.748,-0.008268119685028356
0.752,-0.008268336049914683
0.756,-0.00827110071235109
0.76,-0.008273096077413885
0.764,-0.00827155748266667
0.768,-0.008268600495886862
0.772,-0.008267254225483047
0.776,-0.00826896110403074
0.78,-0.008269778482490199
0.784,-0.008266917657882093
0.788,-0.00826662917136699
0.792,-0.008267230184940121
0.796,-0.008265595428021204
0.8,-0.008263864508930584
0.804,-0.008266028157793858
0.808,-0.008267975441770804
0.812,-0.008265475225306577
0.8160000000000001,-0.00826718210385427
0.8200000000000001,-0.00826566754964998
0.8240000000000001,-0.008265427144220726
0.8280000000000001,-0.008264225117074463
0.8320000000000001,-0.008264633806304194
0.836,-0.00826475400901882
0.84,-0.00826388854947351
0.844,-0.008260594995092749
0.848,-0.00825891215708798
0.852,-0.00825968145446159
0.856,-0.008258551548944101
0.86,-0.00825896023817383
0.864,-0.008257277400169063
0.868,-0.008258287102971924
0.872,-0.008257421643426615
0.876,-0.008259465089575261
0.88,-0.008265523306392427
0.884,-0.008268287968828834
0.888,-0.008269730401404348
0.892,-0.00826982656357605
0.896,-0.00826992272574775
0.9,-0.008268720698601488
0.904,-0.008268119685028356
0.908,-0.008271797888095922
0.912,-0.008270860306921837
0.916,-0.008269850604118976
0.92,-0.008268047563399581
0.924,-0.008270259293348705
0.928,-0.008270451617692107
0.932,-0.008264874211733445
0.936,-0.008261965306039488
0.9400000000000001,-0.00826379238730181
0.9440000000000001,-0.008267686955255702
0.9480000000000001,-0.008267590793084001
0.9520000000000001,-0.00826626856322311
0.9560000000000001,-0.008266412806480663
0.96,-0.008265282900963176
0.964,-0.008265956036165083
0.968,-0.008266965738967944
0.972,-0.00826626856322311
0.976,-0.008266244522680186
0.98,-0.008265619468564129
0.984,-0.008264705927932969
0.988,-0.008269970806833601
0.992,-0.00827083626637891
0.996,-0.008267398468740599
1.0,-0.008266508968652364
1.004,-0.008268432212086384
1.008,-0.008268167766114207
1.012,-0.00826626856322311
1.016,-0.008260715197807375
1.02,-0.008263984711645212
1.024,-0.008269249590545844
1.028,-0.008265066536076848
1.032,-0.008264273198160314
1.036,-0.008265066536076848
1.04,-0.008266028157793858
1.044,-0.008269345752717545
1.048,-0.00826703786059672
1.052,-0.008266893617339168
1.056,-0.008263143292642827
1.06,-0.008265234819877326
1.064,-0.008273096077413885
1.068,-0.008271413239409118
1.072,-0.008271677685381295
1.076,-0.00827064394203551
1.08,-0.00827160556375252
1.084,-0.008269489995975097
1.088,-0.008268792820230264
1.092,-0.008267278266025972
1.096,-0.008269946766290677
1.1,-0.008267326347111822
1.104,-0.008265114617162698
1.108,-0.00826357602241548
1.112,-0.008261989346582415
1.116,-0.008262229752011668
1.12,-0.00826475400901882
1.124,-0.008266244522680186
1.1280000000000001,-0.00827160556375252
1.1320000000000001,-0.008271845969181773
1.1360000000000001,-0.008269802523033125
1.1400000000000001,-0.008265475225306577
1.1440000000000001,-0.008263864508930584
1.1480000000000001,-0.008263143292642827
1.1520000000000001,-0.008266605130824065
1.156,-0.008265691590192905
1.16,-0.008264537644132493
1.164,-0.008268095644485432
1.168,-0.00826982656357605
1.172,-0.008266292603766037
1.176,-0.008264994414448073
1.18,-0.008264898252276371
1.184,-0.008265282900963176
1.188,-0.008268600495886862
1.192,-0.0082698746446619
1.196,-0.008270091009548229
1.2,-0.008267350387654748
1.204,-0.008268480293172235
1.208,-0.008268672617515637
1.212,-0.008266412806480663
1.216,-0.00826617240105141
1.22,-0.008264633806304194
1.224,-0.008262470157440919
1.228,-0.008264585725218343
1.232,-0.008266100279422635
1.236,-0.008264441481960792
1.24,-0.008264201076531539
1.244,-0.008263503900786706
1.248,-0.008265523306392427
1.252,-0.008268119685028356
1.256,-0.008267326347111822
1.26,-0.008268215847200057
1.264,-0.008268384131000533
1.268,-0.008268624536429786
1.272,-0.008266941698425019
1.276,-0.008270259293348705
1.28,-0.008272687388184156
1.284,-0.008269562117603872
1.288,-0.008266412806480663
1.292,-0.008264369360332015
1.296,-0.00826622048213726
1.3,-0.008263672184587182
1.304,-0.00826215763038289
1.308,-0.008265162698248549
1.312,-0.008265355022591951
1.316,-0.008266773414624541
1.32,-0.008270139090634078
1.324,-0.008267350387654748
1.328,-0.008265162698248549
1.332,-0.00826891302294489
1.336,-0.008270066969005303
1.34,-0.008271821928638847
1.344,-0.008271413239409118
1.348,-0.008269754441947275
1.352,-0.008270499698777958
1.356,-0.008267326347111822
1.36,-0.008264946333362222
1.364,-0.008265090576619774
1.368,-0.00826718210385427
1.372,-0.008264128954902762
1.3760000000000001,-0.008260474792378123
1.3800000000000001,-0.00826261440069847
1.3840000000000001,-0.008264080873816913
1.3880000000000001,-0.008265523306392427
1.3920000000000001,-0.008264681887390045
1.3960000000000001,-0.008266869576796242
1.4000000000000001,-0.008264994414448073
1.4040000000000001,-0.008261821062781937
1.408,-0.008262542279069696
1.412,-0.00826210954929704
1.416,-0.008259032359802607
1.42,-0.008261027724865404
1.424,-0.008261869143867787
1.428,-0.008262422076355068
1.432,-0.008264513603589567
1.436,-0.008264513603589567
1.44,-0.008266917657882093
1.444,-0.00826576371182168
1.448,-0.00826662917136699
1.452,-0.00826799948231373
1.456,-0.00826992272574775
1.46,-0.008271461320494968
1.464,-0.008271028590722313
1.468,-0.008270860306921837
1.472,-0.008271244955608641
1.476,-0.008269754441947275
1.48,-0.008269009185116591
1.484,-0.008267759076884477
1.488,-0.008268071603942505
1.492,-0.008265619468564129
1.496,-0.0082674946309123
1.5,-0.008272038293525174
1.504,-0.00827028333389163
1.508,-0.00826667725245284
1.512,-0.008266917657882093
1.516,-0.008269033225659516
1.52,-0.008268672617515637
1.524,-0.0082698746446619
1.528,-0.00827297587469926
1.532,-0.008273312442300213
1.536,-0.008271942131353472
1.54,-0.008271918090810548
1.544,-0.00827485103704743
1.548,-0.008272134455696875
1.552,-0.008268648576972713
1.556,-0.00827069202312136
1.56,-0.008270932428550612
1.564,-0.008270475658235032
1.568,-0.008271797888095922
1.572,-0.008272278698954427
1.576,-0.008271966171896399
1.58,-0.008273384563928989
1.584,-0.008273721131529943
1.588,-0.008277423375140433
1.592,-0.008276822361567302
1.596,-0.008275884780393216
1.6,-0.008274129820759672
1.604,-0.008272398901669054
1.608,-0.00827069202312136
1.612,-0.00826992272574775
1.616,-0.008268888982401966
1.62,-0.008270163131177004
1.624,-0.008273552847729466
1.6280000000000001,-0.00826936979326047
1.6320000000000001,-0.008268600495886862
1.6360000000000001,-0.008270259293348705
1.6400000000000001,-0.008274658712704028
1.6440000000000001,-0.008269682320318498
1.6480000000000001,-0.008263984711645212
1.6520000000000001,-0.008261869143867787
1.6560000000000001,-0.008263239454814528
1.6600000000000001,-0.00826109984649418
1.6640000000000001,-0.008266076238879708
1.668,-0.008265162698248549
1.672,-0.008260426711292273
1.676,-0.008261171968122955
1.68,-0.008265114617162698
1.684,-0.008265234819877326
1.688,-0.008265234819877326
1.692,-0.008269754441947275
1.696,-0.008274610631618178
1.7,-0.008268215847200057
1.704,-0.008267278266025972
1.708,-0.008268191806657133
1.712,-0.008266773414624541
1.716,-0.008269129387831217
1.72,-0.008267398468740599
1.724,-0.008270235252805779
1.728,-0.008269201509459994
1.732,-0.00826626856322311
1.736,-0.008264874211733445
1.74,-0.00826662917136699
1.744,-0.008269778482490199
1.748,-0.008269754441947275
1.752,-0.008269754441947275
1.756,-0.008271293036694492
1.76,-0.008269105347288292
1.764,-0.008268336049914683
1.768,-0.00827083626637891
1.772,-0.008268528374258085
1.776,-0.00826790332014203
1.78,-0.00827059586094966
1.784,-0.008269249590545844
1.788,-0.008269730401404348
1.792,-0.008267831198513253
1.796,-0.00826566754964998
1.8,-0.00826388854947351
1.804,-0.008267422509283523
1.808,-0.008264874211733445
1.812,-0.008263119252099901
1.816,-0.008269634239232647
1.82,-0.008265403103677802
1.824,-0.008261508535723909
1.828,-0.008265883914536308
1.832,-0.00826795140122788
1.836,-0.008268552414801011
1.84,-0.00826932171217462
1.844,-0.008267686955255702
1.848,-0.008268336049914683
1.852,-0.008269970806833601
1.856,-0.008269489995975097
1.86,-0.00827155748266667
1.864,-0.00827201425298225
1.868,-0.008272807590898783
1.872,-0.008272495063840753
1.8760000000000001,-0.008274177901845522
1.8800000000000001,-0.008274562550532327
1.8840000000000001,-0.00827814459142819
1.8880000000000001,-0.008275692456049814
1.8920000000000001,-0.00827114879343694
1.8960000000000001,-0.008272182536782725
1.9000000000000001,-0.008272086374611024
1.9040000000000001,-0.008277014685910704
1.9080000000000001,-0.008278817726630099
1.9120000000000001,-0.008275379928991786
1.9160000000000001,-0.008273913455873345
1.92,-0.00827302395578511
1.924,-0.00827302395578511
1.928,-0.008273288401757287
1.932,-0.008271581523209594
1.936,-0.00827398557750212
1.94,-0.008274009618045046
1.944,-0.008270403536606257
1.948,-0.008273432645014839
1.952,-0.008275932861479067
1.956,-0.008272134455696875
1.96,-0.008271749807010072
1.964,-0.008272374861126128
1.968,-0.008269514036518022
1.972,-0.008268888982401966
1.976,-0.008272831631441708
1.98,-0.008273961536959196
1.984,-0.00827352880718654
1.988,-0.008272687388184156
1.992,-0.008273673050444092
1.996,-0.008271918090810548
2.0,-0.008272086374611024
2.004,-0.008269345752717545
2.008,-0.008271437279952042
2.012,-0.008271461320494968
2.016,-0.008270884347464761
2.02,-0.00827393749641627
2.024,-0.008275355888448861
2.028,-0.008277110848082405
2.032,-0.008272735469270006
2.036,-0.00827251910438368
2.04,-0.008277735902198461
2.044,-0.00827489911813328
2.048,-0.008274322145103074
2.052,-0.0082742500234743
2.056,-0.00827348072610069
2.06,-0.008272783550355857
2.064,-0.008272350820583203
2.068,-0.008273336482843138
2.072,-0.008274658712704028
2.076,-0.008275788618221515
2.08,-0.008271317077237416
2.084,-0.008271172833979865
2.088,-0.008275740537135664
2.092,-0.008278000348170639
2.096,-0.008277399334597507
2.1,-0.008276605996680975
2.104,-0.008276918523739003
2.108,-0.008276245388537095
2.112,-0.008272086374611024
2.116,-0.008272206577325652
2.12,-0.008277062766996555
2.124,-0.0082791062131452
2.128,-0.008277904185998938
2.132,-0.008277856104913089
2.136,-0.00827982742943296
2.14,-0.008278697523915472
2.144,-0.00827886580771595
2.148,-0.008278024388713565
2.152,-0.00827475487487573
2.156,-0.008273697090987017
2.16,-0.008274153861302598
2.164,-0.008277038726453629
2.168,-0.008286246254394005
2.172,-0.008293915187587163
2.176,-0.00829170345763804
2.18,-0.008292448714468723
2.184,-0.008293458417271584
2.188,-0.008294203674102267
2.192,-0.008297473187940102
2.196,-0.00829586247156411
2.2,-0.008294275795731042
2.204,-0.008296800052738196
2.208,-0.008296727931109419
2.212,-0.008295694187763634
2.216,-0.008296920255452821
2.22,-0.008296150958079214
2.224,-0.008295117214733427
2.228,-0.008298819458343917
2.232,-0.008298891579972694
2.236,-0.008300069566576031
2.24,-0.00829773763391228
2.244,-0.008298843498886843
2.248,-0.008302834229012436
2.2520000000000002,-0.008299131985401945
2.2560000000000002,-0.008298747336715142
2.2600000000000002,-0.008301463918065697
2.2640000000000002,-0.008299540674631675
2.2680000000000002,-0.008298194404227861
2.2720000000000002,-0.008294660444417847
2.2760000000000002,-0.00829545378233438
2.2800000000000002,-0.00829809824205616
2.2840000000000003,-0.008297016417624523
2.2880000000000003,-0.008300045526033107
2.2920000000000003,-0.008298338647485411
2.2960000000000003,-0.008303266958785091
2.3000000000000003,-0.008306945161852656
2.3040000000000003,-0.008304372823759653
2.308,-0.008303435242585568
2.312,-0.008305959499592721
2.316,-0.008307594256511638
2.32,-0.008306897080766805
2.324,-0.0083085077971428
2.328,-0.008308627999857425
2.332,-0.008306608594251703
2.336,-0.008302906350641213
2.34,-0.008303940093986998
2.344,-0.008304733431903532
2.348,-0.00830129563426522
2.352,-0.008301656242409099
2.356,-0.008306488391537076
2.36,-0.008306560513165853
2.364,-0.008306897080766805
2.368,-0.008310142554061716
2.372,-0.008309373256688108
2.376,-0.00830723364836776
2.38,-0.008308147188998919
2.384,-0.008307666378140415
2.388,-0.008306464350994152
2.392,-0.008308531837685724
2.396,-0.008307474053797012
2.4,-0.008309253053973481
2.404,-0.008313724594957581
2.408,-0.008309541540488585
2.412,-0.008305887377963945
2.416,-0.008309613662117361
2.42,-0.008309637702660286
2.424,-0.008307425972711162
2.428,-0.008306296067193674
2.432,-0.008306055661764422
2.436,-0.008304420904845504
2.44,-0.008306223945564899
2.444,-0.008304204539959177
2.448,-0.008304444945388428
2.452,-0.008302858269555362
2.456,-0.00830586333742102
2.46,-0.008303988175072849
2.464,-0.008302689985754884
2.468,-0.008304108377787476
2.472,-0.008305021918418636
2.476,-0.008304781512989383
2.48,-0.008305839296878094
2.484,-0.008303699688557747
2.488,-0.008303098674984615
2.492,-0.008301271593722294
2.496,-0.008304228580502102
2.5,-0.008306680715880478
2.504,-0.008308435675514023
2.508,-0.008302689985754884
2.512,-0.008300646539606238
2.516,-0.00830266594521196
2.52,-0.008301103309921818
2.524,-0.008305118080590337
2.528,-0.008306079702307347
2.532,-0.008307858702483817
2.536,-0.008305310404933739
2.54,-0.008303867972358223
2.544,-0.00830454110756013
2.548,-0.008303699688557747
2.552,-0.008305214242762038
2.556,-0.00830581525633517
2.56,-0.008302569783040259
2.564,-0.008298891579972694
2.568,-0.008298482890742963
2.572,-0.008295694187763634
2.576,-0.008293145890213556
2.58,-0.008295021052561725
2.584,-0.008298819458343917
2.588,-0.008300502296348686
2.592,-0.008304661310274757
2.596,-0.008308075067370144
2.6,-0.008307065364567283
2.604,-0.008307353851082385
2.608,-0.008307546175425787
2.612,-0.008305935459049795
2.616,-0.008305598891448841
2.62,-0.00830540656710544
2.624,-0.008306969202395582
2.628,-0.00830636818882245
2.632,-0.008305334445476664
2.636,-0.008306536472622927
2.64,-0.008309084770173005
2.644,-0.008309349216145182
2.648,-0.008309950229718314
2.652,-0.008310911851435326
2.656,-0.00831285913541227
2.66,-0.00831408520310146
2.664,-0.00831271489215472
2.668,-0.0083109839730641
2.672,-0.008309733864831987
2.676,-0.00830535848601959
2.68,-0.008308026986284293
2.684,-0.008307257688910686
2.688,-0.008306464350994152
2.692,-0.008306945161852656
2.696,-0.008306055661764422
2.7,-0.008303290999328016
2.704,-0.008303531404757269
2.708,-0.008306392229365375
2.712,-0.008309781945917838
2.716,-0.008307353851082385
2.72,-0.008306752837509254
2.724,-0.008309421337773959
2.728,-0.008309781945917838
2.732,-0.008309878108089539
2.736,-0.00830874820257205
2.74,-0.008305262323847888
2.744,-0.008307425972711162
2.748,-0.008309277094516407
2.7520000000000002,-0.008311609027180157
2.7560000000000002,-0.008312955297583972
2.7600000000000002,-0.008312474486725467
2.7640000000000002,-0.008311609027180157
2.7680000000000002,-0.00830946941885981
2.7720000000000002,-0.008306512432080002
2.7760000000000002,-0.008305478688734215
2.7800000000000002,-0.008302954431727063
2.7840000000000003,-0.008301103309921818
2.7880000000000003,-0.008303363120956793
2.7920000000000003,-0.008305671013077618
2.7960000000000003,-0.008302954431727063
2.8000000000000003,-0.008303411202042643
2.8040000000000003,-0.00830362756692897
2.8080000000000003,-0.008302088972181753
2.8120000000000003,-0.008298891579972694
2.816,-0.008294275795731042
2.82,-0.008294588322789072
2.824,-0.008296559647308943
2.828,-0.008297449147397178
2.832,-0.008299660877346302
2.836,-0.008303795850729446
2.84,-0.008305478688734215
2.844,-0.008304324742673803
2.848,-0.00830321887769924
2.852,-0.00830129563426522
2.856,-0.008304444945388428
2.86,-0.008305142121133261
2.864,-0.008302978472269988
2.868,-0.008304877675161084
2.872,-0.008303002512812914
2.876,-0.008301487958608621
2.88,-0.00830458918864598
2.884,-0.008306536472622927
2.888,-0.008305286364390813
2.892,-0.008304348783216727
2.896,-0.008303699688557747
2.9,-0.008302449580325633
2.904,-0.008306704756423405
2.908,-0.008306151823936122
2.912,-0.00830773849976919
2.916,-0.008309397297231033
2.92,-0.008306608594251703
2.924,-0.008307474053797012
2.928,-0.008304468985931355
2.932,-0.008305334445476664
2.936,-0.008307906783569668
2.94,-0.008304709391360608
2.944,-0.008303916053444074
2.948,-0.008303266958785091
2.952,-0.008302281296525155
2.956,-0.008301487958608621
2.96,-0.008302040891095902
2.964,-0.00830490171570401
2.968,-0.00830458918864598
2.972,-0.00830266594521196
2.976,-0.0083041324183304
2.98,-0.008306392229365375
2.984,-0.008304925756246934
2.988,-0.008306512432080002
2.992,-0.008308796283657901
2.996,-0.008309685783746136
3.0,-0.008306296067193674
3.004,-0.008307425972711162
3.008,-0.008312787013783495
3.012,-0.008308219310627696
3.016,-0.008307450013254086
3.02,-0.008305454648191291
3.024,-0.0083087001214862
3.028,-0.008307353851082385
3.032,-0.00830504595896156
3.036,-0.00830454110756013
3.04,-0.008306656675337554
3.044,-0.00830627202665075
3.048,-0.00830723364836776
3.052,-0.008305214242762038
3.056,-0.008304733431903532
3.06,-0.008301776445123725
3.064,-0.008301776445123725
3.068,-0.008300334012548208
3.072,-0.008301776445123725
3.076,-0.008307570215968714
3.08,-0.008310815689263625
3.084,-0.00830951749994566
3.088,-0.008309998310804164
3.092,-0.008309637702660286
3.096,-0.008309421337773959
3.1,-0.008309781945917838
3.104,-0.00830906072963008
3.108,-0.008305743134706393
3.112,-0.008304781512989383
3.116,-0.008309661743203212
3.12,-0.008309781945917838
3.124,-0.008309229013430557
3.128,-0.008309805986460762
3.132,-0.00831235428401084
3.136,-0.008310262756776344
3.14,-0.008307714459226265
3.144,-0.008310142554061716
3.148,-0.008308892445829602
3.152,-0.008306103742850273
3.156,-0.008307882743026742
3.16,-0.008306464350994152
3.164,-0.008305646972534692
3.168,-0.008309661743203212
3.172,-0.008312113878581589
3.176,-0.008312378324553766
3.18,-0.008313484189528328
3.184,-0.008313027419212748
3.188,-0.00831261872998302
3.192,-0.008312017716409888
3.196,-0.00830915689180178
3.2,-0.008308844364743752
3.204,-0.008313940959843908
3.208,-0.008316369054679359
3.212,-0.008315936324906705
3.216,-0.008313315905727852
3.22,-0.008312738932697645
3.224,-0.008313724594957581
3.228,-0.008315792081649153
3.232,-0.00831403712201561
3.236,-0.00831189751369526
3.24,-0.00831271489215472
3.244,-0.008311705189351858
3.248,-0.008311801351523559
3.2520000000000002,-0.008314926622103844
3.2560000000000002,-0.008317258554767594
3.2600000000000002,-0.008317018149338341
3.2640000000000002,-0.008318676946800186
3.2680000000000002,-0.00831672966282324
3.2720000000000002,-0.008312594689440093
3.2760000000000002,-0.008309277094516407
3.2800000000000002,-0.008310358918948043
3.2840000000000003,-0.008311008013607025
3.2880000000000003,-0.008312835094869346
3.2920000000000003,-0.00831144074337968
3.2960000000000003,-0.008312570648897169
3.3000000000000003,-0.008310551243291445
3.3040000000000003,-0.008309084770173005
3.3080000000000003,-0.008309613662117361
3.3120000000000003,-0.00831184943260941
3.3160000000000003,-0.008310190635147567
3.3200000000000003,-0.008311248419036278
3.3240000000000003,-0.008310310837862194
3.3280000000000003,-0.008309373256688108
3.332,-0.008313820757129282
3.336,-0.008314469851788265
3.34,-0.008313965000386832
3.344,-0.008314397730159488
3.348,-0.008311777310980635
3.352,-0.008311080135235802
3.356,-0.008310695486548997
3.36,-0.008313652473328804
3.364,-0.00831403712201561
3.368,-0.008314566013959964
3.372,-0.008311993675866962
3.376,-0.008308315472799397
3.38,-0.008304468985931355
3.384,-0.008308627999857425
3.388,-0.008311224378493354
3.392,-0.008311609027180157
3.396,-0.008315383392419424
3.4,-0.008317450879110996
3.404,-0.008316032487078406
3.408,-0.008311296500122129
3.412,-0.008311296500122129
3.416,-0.008318075933227054
3.42,-0.008318436541370933
3.424,-0.008314950662646769
3.428,-0.008312738932697645
3.432,-0.008313099540841523
3.436,-0.00831184943260941
3.44,-0.00831266681106887
3.444,-0.008312955297583972
3.448,-0.00831403712201561
3.452,-0.008313003378669822
3.456,-0.008315118946447247
3.46,-0.008315022784275546
3.464,-0.008314950662646769
3.468,-0.008316873906080791
3.472,-0.008318436541370933
3.476,-0.008317114311510042
3.48,-0.008315142986990171
3.484,-0.00831362843278588
3.488,-0.008313436108442478
3.492,-0.008312258121839139
3.496,-0.008309589621574435
3.5,-0.008308988608001304
3.504,-0.008311488824465531
3.508,-0.008312137919124513
3.512,-0.008312234081296214
3.516,-0.008317883608883652
3.52,-0.00832216282552435
3.524,-0.00832216282552435
3.528,-0.008318628865714335
3.532,-0.008317571081825622
3.536,-0.00831915775765869
3.54,-0.008317619162911473
3.544,-0.00831723451422467
3.548,-0.008320768474034684
3.552,-0.008321730095751694
3.556,-0.008320768474034684
3.56,-0.0083155516762199
3.564,-0.008315287230247723
3.568,-0.008317595122368548
3.572,-0.00831632097359351
3.576,-0.008314181365273161
3.58,-0.008310959932521175
3.584,-0.008311536905551382
3.588,-0.008313844797672207
3.592,-0.008311368621750906
3.596,-0.008311801351523559
3.6,-0.00831261872998302
3.604,-0.00831321974355615
3.608,-0.00831261872998302
3.612,-0.008311993675866962
3.616,-0.008313195703013225
3.62,-0.008315936324906705
3.624,-0.008315984405992556
3.628,-0.008313724594957581
3.632,-0.008316152689793032
3.636,-0.008319302000916242
3.64,-0.00831600844653548
3.644,-0.008314061162558534
3.648,-0.008314950662646769
3.652,-0.00831824421702753
3.656,-0.008317426838568072
3.66,-0.008314758338303366
3.664,-0.008316753703366164
3.668,-0.008318484622456783
3.672,-0.008319638568517196
3.676,-0.008319374122545017
3.68,-0.00832062423077713
3.684,-0.008316849865537865
3.688,-0.008316393095222285
3.692,-0.008314205405816085
3.696,-0.008315239149161872
3.7,-0.008316537338479837
3.704,-0.008314710257217516
3.708,-0.008312258121839139
3.712,-0.008313460148985402
3.716,-0.008311609027180157
3.72,-0.00831230620292499
3.724,-0.00831093589197825
3.728,-0.008312450446182541
3.732,-0.008317498960196847
3.736,-0.008315840162735004
3.74,-0.008315623797848677
3.744,-0.00831723451422467
3.748,-0.008317859568340726
3.7520000000000002,-0.00831672966282324
3.7560000000000002,-0.00831463813558874
3.7600000000000002,-0.008315888243820855
3.7640000000000002,-0.008315744000563303
3.7680000000000002,-0.00831463813558874
3.7720000000000002,-0.00831463813558874
3.7760000000000002,-0.008312282162382065
3.7800000000000002,-0.008312835094869346
3.7840000000000003,-0.008315768041106227
3.7880000000000003,-0.008316248851964733
3.7920000000000003,-0.0083155516762199
3.7960000000000003,-0.008315215108618946
3.8000000000000003,-0.008312835094869346
3.8040000000000003,-0.00831312358138445
3.8080000000000003,-0.00831184943260941
3.8120000000000003,-0.008313436108442478
3.8160000000000003,-0.008313940959843908
3.8200000000000003,-0.00831454197341704
3.8240000000000003,-0.008314325608530713
3.8280000000000003,-0.008316753703366164
3.8320000000000003,-0.008314566013959964
3.8360000000000003,-0.00831651329793691
3.84,-0.00831596036544963
3.844,-0.008316489257393986
3.848,-0.008316897946623715
3.852,-0.008318676946800186
3.856,-0.008319758771231821
3.86,-0.00832124928489319
3.864,-0.008316633500651538
3.868,-0.008315912284363779
3.872,-0.008313844797672207
3.876,-0.00831408520310146
3.88,-0.008316224811421809
3.884,-0.00831672966282324
3.888,-0.008320600190234206
3.892,-0.008321994541723872
3.896,-0.00831865290625726
3.9,-0.008315888243820855
3.904,-0.008317186433138819
3.908,-0.008316657541194462
3.912,-0.008313436108442478
3.916,-0.008314926622103844
3.92,-0.008317955730512427
3.924,-0.008318220176484604
3.928,-0.008318773108971885
3.932,-0.008320696352405907
3.936,-0.008321321406521965
3.94,-0.008320552109148355
3.944,-0.008320239582090327
3.948,-0.008319758771231821
3.952,-0.00832216282552435
3.956,-0.008318676946800186
3.96,-0.008317907649426576
3.964,-0.008321153122721489
3.968,-0.008318412500828007
3.972,-0.008318220176484604
3.976,-0.008320840595663459
3.98,-0.008322835960726256
3.984,-0.008319277960373317
3.988,-0.008317595122368548
3.992,-0.0083199270550323
3.996,-0.00831966260906012
4.0,-0.008317931689969502
4.0040000000000004,-0.00832088867674931
4.008,-0.008320047257746925
4.0120000000000005,-0.008319013514401138
4.016,-0.008315744000563303
4.0200000000000005,-0.008317306635853445
4.024,-0.00831961452797427
4.0280000000000005,-0.00832139352815074
4.032,-0.008320840595663459
4.0360000000000005,-0.008319374122545017
4.04,-0.0083201193793757
4.0440000000000005,-0.008320648271320057
4.048,-0.00831819613594168
4.0520000000000005,-0.008317883608883652
4.056,-0.00832047998751958
4.0600000000000005,-0.008321874339009246
4.064,-0.008324566879816876
4.0680000000000005,-0.008322283028238975
4.072,-0.008319734730688897
4.0760000000000005,-0.008316994108795417
4.08,-0.008317186433138819
4.0840000000000005,-0.008317210473681743
4.088,-0.008318460581913857
4.0920000000000005,-0.008319085636029915
4.096,-0.008314950662646769
4.1,-0.008315792081649153
4.104,-0.00831769128454025
4.108,-0.008315287230247723
4.112,-0.00831697006825249
4.116,-0.008316441176308136
4.12,-0.008316248851964733
4.124,-0.008318220176484604
4.128,-0.008319566446888419
4.132,-0.008317931689969502
4.136,-0.00831733067639637
4.14,-0.008319302000916242
4.144,-0.008319253919830391
4.148,-0.008319350082002092
4.152,-0.008320335744262029
4.156,-0.008319253919830391
4.16,-0.008317859568340726
4.164,-0.00831733067639637
4.168,-0.008316441176308136
4.172,-0.008317595122368548
4.176,-0.008318676946800186
4.18,-0.008320648271320057
4.184,-0.008319854933403523
4.188,-0.008319446244173793
4.192,-0.008317595122368548
4.196,-0.00831312358138445
4.2,-0.008312089838038663
4.204,-0.008310407000033894
4.208,-0.008310839729806549
4.212,-0.008312955297583972
4.216,-0.00831189751369526
4.22,-0.00831266681106887
4.224,-0.008314926622103844
4.228,-0.008315383392419424
4.232,-0.008316609460108612
4.236,-0.008315407432962349
4.24,-0.008314469851788265
4.244,-0.008313604392242954
4.248,-0.008315792081649153
4.252,-0.008314830459932143
4.256,-0.008312955297583972
4.26,-0.008314566013959964
4.264,-0.008314614095045815
4.268,-0.008311560946094306
4.272,-0.008314517932874115
4.276,-0.008315840162735004
4.28,-0.008313147621927374
4.284,-0.00831454197341704
4.288,-0.008311633067723083
4.292,-0.008312474486725467
4.296,-0.008313075500298599
4.3,-0.008310262756776344
4.304,-0.008311993675866962
4.308,-0.008314397730159488
4.312,-0.00831367651387173
4.316,-0.008313243784099075
4.32,-0.008311128216321653
4.324,-0.008311657108266007
4.328,-0.008314325608530713
4.332,-0.008313436108442478
4.336,-0.008313339946270776
4.34,-0.008313844797672207
4.344,-0.008314157324730235
4.348,-0.008315888243820855
4.352,-0.008314878541017994
4.356,-0.008316176730335958
4.36,-0.008317018149338341
4.364,-0.008315527635676976
4.368,-0.008314397730159488
4.372,-0.008316609460108612
4.376,-0.00831600844653548
4.38,-0.008313484189528328
4.384,-0.008312594689440093
4.388,-0.008313748635500506
4.392,-0.008315359351876498
4.396,-0.008311825392066485
4.4,-0.008311536905551382
4.404,-0.008311248419036278
4.408,-0.008310503162205595
4.412,-0.008307882743026742
4.416,-0.008309132851258855
4.42,-0.008309757905374911
4.424,-0.008308940526915453
4.428,-0.008308171229541845
4.432,-0.008305983540135646
4.436,-0.008306296067193674
4.44,-0.008307618297054564
4.444,-0.00830773849976919
4.448,-0.008308026986284293
4.452,-0.00830723364836776
4.456,-0.008306199905021973
4.46,-0.008307666378140415
4.464,-0.008307450013254086
4.468,-0.008307425972711162
4.472,-0.008311512865008457
4.476,-0.008309421337773959
4.48,-0.008307978905198443
4.484,-0.008312113878581589
4.488,-0.008312979338126898
4.492,-0.00831600844653548
4.496,-0.008316753703366164
4.5,-0.008314926622103844
4.5040000000000004,-0.008311584986637232
4.508,-0.008310647405463147
4.5120000000000005,-0.008310214675690493
4.516,-0.008310767608177774
4.5200000000000005,-0.008312234081296214
4.524,-0.008314229446359012
4.5280000000000005,-0.008311681148808934
4.532,-0.008309180932344706
4.5360000000000005,-0.008308868405286678
4.54,-0.00830915689180178
4.5440000000000005,-0.00830906072963008
4.548,-0.008308459716056949
4.5520000000000005,-0.008307978905198443
4.556,-0.008309757905374911
4.5600000000000005,-0.008310070432432941
4.564,-0.008306175864479048
4.5680000000000005,-0.008308627999857425
4.572,-0.008307858702483817
4.5760000000000005,-0.008306921121309731
4.58,-0.008308916486372529
4.5840000000000005,-0.008307209607824835
4.588,-0.00830627202665075
4.5920000000000005,-0.00830509404004741
4.596,-0.00830139179643692
4.6000000000000005,-0.008302906350641213
4.604,-0.008307546175425787
4.6080000000000005,-0.008305334445476664
4.612,-0.008306584553708777
4.616,-0.008309685783746136
4.62,-0.008312378324553766
4.624,-0.00830992618917539
4.628,-0.008306031621221496
4.632,-0.008306223945564899
4.636,-0.008307161526738984
4.64,-0.008307065364567283
4.644,-0.008307305769996536
4.648,-0.008304781512989383
4.652,-0.008308339513342321
4.656,-0.008311104175778726
4.66,-0.008313363986813701
4.664,-0.008312642770525944
4.668,-0.008311080135235802
4.672,-0.008305214242762038
4.676,-0.008300766742320864
4.68,-0.008302401499239782
4.684,-0.008302401499239782
4.688,-0.00830225725598223
4.692,-0.008302137053267603
4.696,-0.00829901178268732
4.7,-0.008298170363684935
4.704,-0.008301560080237398
4.708,-0.00830535848601959
4.712,-0.008303940093986998
4.716,-0.008304108377787476
4.72,-0.008301824526209575
4.724,-0.008302088972181753
4.728,-0.008301680282952023
4.732,-0.008302978472269988
4.736,-0.008303050593898765
4.74,-0.008302281296525155
4.744,-0.008304444945388428
4.748,-0.008304565148103056
4.752,-0.008303026553355838
4.756,-0.00830317079661339
4.76,-0.00830540656710544
4.764,-0.0083040362561587
4.768,-0.00830321887769924
4.772,-0.008306560513165853
4.776,-0.008306007580678572
4.78,-0.008303507364214344
4.784,-0.008302834229012436
4.788,-0.008303435242585568
4.792,-0.008304108377787476
4.796,-0.008304661310274757
4.8,-0.00830454110756013
4.804,-0.008302377458696856
4.808,-0.008299708958432152
4.812,-0.008297184701424999
4.816,-0.008296896214909897
4.82,-0.008301151391007669
4.824,-0.008303819891272372
4.828,-0.008304973837332785
4.832,-0.008303483323671418
4.836,-0.008298843498886843
4.84,-0.00829809824205616
4.844,-0.008299732998975077
4.848,-0.008296054795907512
4.852,-0.008292809322612602
4.856,-0.008296102876993363
4.86,-0.00829449216061737
4.864,-0.008293915187587163
4.868,-0.00829444407953152
4.872,-0.008293891147044239
4.876,-0.00829413155247349
4.88,-0.008295838431021186
4.884,-0.008289852335832794
4.888,-0.00828992445746157
4.892,-0.008291511133294637
4.896,-0.008292352552297022
4.9,-0.008290573552120551
4.904,-0.0082881454572851
4.908,-0.008290044660176197
4.912,-0.008292376592839946
4.916,-0.008289804254746944
4.92,-0.008286919389595911
4.924,-0.008286654943623734
4.928,-0.008286991511224688
4.932,-0.008283649875758076
4.936,-0.008284419173131686
4.94,-0.008285933727335977
4.944,-0.008287856970769997
4.948,-0.008285020186704817
4.952,-0.0082858616057072
4.956,-0.008285476957020397
4.96,-0.008285284632676995
4.964,-0.00828403452444488
4.968,-0.00828494806507604
4.972,-0.008289491727688916
4.976,-0.00828982829528987
4.98,-0.00828718383556809
4.984,-0.00828667898416666
4.988,-0.008283553713586375
4.992,-0.008279971672690511
4.996,-0.008279947632147585
5.0,-0.008281414105266028
5.0040000000000004,-0.008279562983460782
5.008,-0.008280452483549016
5.0120000000000005,-0.008281462186351878
5.016,-0.008280692888978269
5.0200000000000005,-0.00828393836227318
5.024,-0.00828631837602278
5.0280000000000005,-0.008283673916301002
5.032,-0.008279538942917856
5.0360000000000005,-0.008281534307980653
5.04,-0.008282544010783514
5.0440000000000005,-0.008280308240291464
5.048,-0.008274201942388449
5.0520000000000005,-0.00827489911813328
5.056,-0.008279538942917856
5.0600000000000005,-0.008281510267437727
5.064,-0.008280692888978269
5.0680000000000005,-0.008281462186351878
5.072,-0.008284467254217536
5.0760000000000005,-0.008287520403169043
5.08,-0.008292040025238994
5.0840000000000005,-0.008289660011489392
5.088,-0.008287520403169043
5.0920000000000005,-0.00829124668732246
5.096,-0.008289443646603065
5.1000000000000005,-0.008285885646250126
5.104,-0.008289203241173812
5.1080000000000005,-0.008289948498004495
5.112,-0.008289419606060139
5.1160000000000005,-0.008289083038459186
5.12,-0.008289083038459186
5.124,-0.008287953132941698
5.128,-0.008288169497828025
5.132,-0.008286486659823258
5.136,-0.008285188470505293
5.14,-0.008285380794848696
5.144,-0.00828667898416666
5.148,-0.008287616565340744
5.152,-0.008286991511224688
5.156,-0.008284154727159506
5.16,-0.00828590968679305
5.164,-0.008289083038459186
5.168,-0.008289684052032318
5.172,-0.008293602660529135
5.176,-0.008292328511754096
5.18,-0.008292833363155528
5.184,-0.008291967903610217
5.188,-0.008288986876287485
5.192,-0.008288265659999726
5.196,-0.008288409903257278
5.2,-0.008288241619456802
5.204,-0.008285164429962367
5.208,-0.008288217578913876
5.212,-0.008291366890037085
5.216,-0.00829220830903947
5.22,-0.008291631336009265
5.224,-0.00829175153872389
5.228,-0.008290765876463954
5.232,-0.00828951576823184
5.236,-0.008290549511577627
5.24,-0.008288674349229457
5.244,-0.008286799186881286
5.248,-0.008287832930227073
5.252,-0.008289227281716738
5.256,-0.008286823227424212
5.26,-0.008284226848788283
5.264,-0.00828343351087175
5.268,-0.008289996579090346
5.272,-0.008292977606413078
5.276,-0.008291006281893207
5.28,-0.008293650741614986
5.284,-0.008294708525503697
5.288,-0.008289203241173812
5.292,-0.00829216022795362
5.296,-0.00829119860623661
5.3,-0.00828768868696952
5.304,-0.008286847267967136
5.308,-0.00828759252479782
5.312,-0.00828809737619925
5.316,-0.008287664646426595
5.32,-0.00828982829528987
5.324,-0.008288746470858232
5.328,-0.008289732133118169
5.332,-0.008287784849141222
5.336,-0.008286943430138837
5.34,-0.008285308673219919
5.344,-0.008288361822171427
5.348,-0.00828855414651483
5.352,-0.008287039592310539
5.356,-0.00828622221385108
5.36,-0.008287832930227073
5.364,-0.008289587889860617
5.368,-0.008286270294936931
5.372,-0.00828545291647747
5.376,-0.008284755740732638
5.38,-0.008283505632500524
5.384,-0.008286029889507678
5.388,-0.008286751105795435
5.392,-0.00828718383556809
5.396,-0.008288770511401157
5.4,-0.008288986876287485
5.404,-0.008291679417095115
5.408,-0.008287784849141222
5.412,-0.008285621200277949
5.416,-0.00828545291647747
5.42,-0.008287231916653941
5.424,-0.008289251322259663
5.428,-0.008290236984519599
5.432,-0.008287255957196865
5.436,-0.00828860222760068
5.44,-0.008288289700542652
5.444,-0.008289395565517214
5.448,-0.008289587889860617
5.452,-0.008287977173484624
5.456,-0.008290597592663478
5.46,-0.00829220830903947
5.464,-0.008294083471387641
5.468,-0.008292761241526751
5.472,-0.008294684484960773
5.476,-0.008296800052738196
5.48,-0.00829586247156411
5.484,-0.008293722863243761
5.488,-0.008291823660352665
5.492,-0.008290934160264432
5.496,-0.008292136187410695
5.5,-0.008289323443888438
5.5040000000000004,-0.008288433943800204
5.508,-0.00829129476840831
5.5120000000000005,-0.008289203241173812
5.516,-0.008286246254394005
5.5200000000000005,-0.008289587889860617
5.524,-0.008291559214380488
5.5280000000000005,-0.008289131119545037
5.532,-0.008288914754658708
5.5360000000000005,-0.00828860222760068
5.54,-0.008286919389595911
5.5440000000000005,-0.008287231916653941
5.548,-0.008288169497828025
5.5520000000000005,-0.008288890714115784
5.556,-0.008287881011312923
5.5600000000000005,-0.008288121416742174
5.564,-0.00828850606542898
5.5680000000000005,-0.008287352119368567
5.572,-0.00828489998399019
5.5760000000000005,-0.0082834815919576
5.58,-0.008283721997386853
5.5840000000000005,-0.008282832497298618
5.588,-0.00828617413276523
5.5920000000000005,-0.008285188470505293
5.596,-0.008283746037929777
5.6000000000000005,-0.008285549078649172
5.604,-0.00828667898416666
5.6080000000000005,-0.00828540483539162
5.612,-0.008282423808068888
5.6160000000000005,-0.008284298970417058
5.62,-0.008286150092222304
5.6240000000000006,-0.008286053930050602
5.628,-0.008285068267790668
5.632,-0.008283265227071273
5.636,-0.00827814459142819
5.64,-0.008278168631971117
5.644,-0.008282351686440112
5.648,-0.008279731267261259
5.652,-0.008279466821289081
5.656,-0.00827982742943296
5.66,-0.008279538942917856
5.664,-0.008282856537841542
5.668,-0.008281774713409906
5.672,-0.008281197740379699
5.676,-0.008280813091692896
5.68,-0.00827982742943296
5.684,-0.008277062766996555
5.688,-0.008277783983284312
5.692,-0.008276004983107843
5.696,-0.008277928226541864
5.7,-0.00827809651034234
5.704,-0.008279731267261259
5.708,-0.008276293469622945
5.712,-0.008278481159029145
5.716,-0.008279755307804183
5.72,-0.008276413672337573
5.724,-0.008276245388537095
5.728,-0.008275115483019608
5.732,-0.008276029023650768
5.736,-0.008280813091692896
5.74,-0.008278769645544248
5.744,-0.00827622134799417
5.748,-0.008276341550708796
5.752,-0.008277255091339957
5.756,-0.008276605996680975
5.76,-0.008282664213498141
5.764,-0.008285116348876517
5.768,-0.00828261613241229
5.772,-0.008281173699836775
5.776,-0.008278649442829621
5.78,-0.008280765010607045
5.784,-0.00828352967304345
5.788,-0.008285645240820873
5.792,-0.00828276037566984
5.796,-0.00828398644335903
5.8,-0.008284058564987805
5.804,-0.008283457551414674
5.808,-0.008281558348523578
5.812,-0.008280067834862213
5.816,-0.008277735902198461
5.82,-0.008278769645544248
5.824,-0.008278937929344725
5.828,-0.008280813091692896
5.832,-0.008282736335126916
5.836,-0.008282303605354261
5.84,-0.008281894916124532
5.844,-0.008279274496945679
5.848,-0.008278529240114995
5.852,-0.008279659145632483
5.856,-0.008280885213321671
5.86,-0.00827855328065792
5.864,-0.008272879712527558
5.868,-0.008277519537312135
5.872,-0.008279947632147585
5.876,-0.008276533875052198
5.88,-0.008276461753423423
5.884,-0.008276581956138049
5.888,-0.008276846402110226
5.892,-0.008279490861832006
5.896,-0.008280404402463165
5.9,-0.008282231483725486
5.904,-0.00828038036192024
5.908,-0.00827814459142819
5.912,-0.008278168631971117
5.916,-0.008279635105089557
5.92,-0.008281173699836775
5.924,-0.008281101578207998
5.928,-0.008280981375493372
5.932,-0.008280404402463165
5.936,-0.008282135321553785
5.94,-0.008280452483549016
5.944,-0.008279971672690511
5.948,-0.008281510267437727
5.952,-0.008279010050973501
5.956,-0.008284635538018012
5.96,-0.008283169064899572
5.964,-0.008283241186528347
5.968,-0.008282111281010859
5.972,-0.008278817726630099
5.976,-0.008278288834685742
5.98,-0.008277543577855059
5.984,-0.008277038726453629
5.988,-0.008275379928991786
5.992,-0.008277303172425806
5.996,-0.008274923158676206
6.0,-0.008275139523562533
6.0040000000000004,-0.008280668848435344
6.008,-0.008280188037576838
6.0120000000000005,-0.008275476091163487
6.016,-0.008273408604471915
6.0200000000000005,-0.008274177901845522
6.024,-0.008275932861479067
6.0280000000000005,-0.008273697090987017
6.032,-0.00827302395578511
6.0360000000000005,-0.008273120117956811
6.04,-0.008275476091163487
6.0440000000000005,-0.008276413672337573
6.048,-0.008276846402110226
6.0520000000000005,-0.0082767261993956
6.056,-0.00827261526655538
6.0600000000000005,-0.008272350820583203
6.064,-0.008274562550532327
6.0680000000000005,-0.008276846402110226
6.072,-0.008272158496239801
6.0760000000000005,-0.008273216280128512
6.08,-0.008271677685381295
6.0840000000000005,-0.00827069202312136
6.088,-0.008273408604471915
6.0920000000000005,-0.008277976307627714
6.096,-0.008277904185998938
6.1000000000000005,-0.008273216280128512
6.104,-0.008272831631441708
6.1080000000000005,-0.008273673050444092
6.112,-0.008274466388360626
6.1160000000000005,-0.00827521164519131
6.12,-0.008275956902021993
6.1240000000000006,-0.008272687388184156
6.128,-0.008270403536606257
6.132000000000001,-0.008271677685381295
6.136,-0.008275908820936142
6.140000000000001,-0.008275331847905935
6.144,-0.008275283766820084
6.148,-0.008274634672161102
6.152,-0.008272398901669054
6.156,-0.008272927793613409
6.16,-0.00827393749641627
6.164,-0.008270716063664285
6.168,-0.008273288401757287
6.172,-0.008277062766996555
6.176,-0.008277423375140433
6.18,-0.008275379928991786
6.184,-0.008275115483019608
6.188,-0.008273889415330419
6.192,-0.008274129820759672
6.196,-0.008276581956138049
6.2,-0.008276918523739003
6.204,-0.008278721564458398
6.208,-0.008279226415859828
6.212,-0.008282736335126916
6.216,-0.00828444321367461
6.22,-0.00828343351087175
6.224,-0.008284755740732638
6.228,-0.00828439513258876
6.232,-0.008284347051502909
6.236,-0.008286823227424212
6.24,-0.008288265659999726
6.244,-0.008286150092222304
6.248,-0.008288409903257278
6.252,-0.008292448714468723
6.256,-0.00829316993075648
6.26,-0.008290044660176197
6.264,-0.008288794551944083
6.268,-0.008290429308863001
6.272,-0.008292400633382872
6.276,-0.008291823660352665
6.28,-0.008290188903433748
6.284,-0.00828992445746157
6.288,-0.00828663090308081
6.292,-0.008287784849141222
6.296,-0.008290477389948852
6.3,-0.008290212943976673
6.304,-0.008290309106148374
6.308,-0.008289131119545037
6.312,-0.008290597592663478
6.316,-0.008290140822347898
6.32,-0.008288025254570475
6.324,-0.008287856970769997
6.328,-0.008287111713939314
6.332,-0.008286558781452033
6.336,-0.008286943430138837
6.34,-0.008291150525150759
6.344,-0.008294275795731042
6.348,-0.008295694187763634
6.352,-0.008292568917183349
6.356,-0.008286967470681762
6.36,-0.008289948498004495
6.364,-0.008291030322436133
6.368,-0.008290357187234225
6.372,-0.00829002061963327
6.376,-0.008294227714645191
6.38,-0.008291006281893207
6.384,-0.008290309106148374
6.388,-0.00828992445746157
6.392,-0.008292015984696068
6.396,-0.008296968336538672
6.4,-0.00829444407953152
6.404,-0.008292761241526751
6.408,-0.008293867106501313
6.412,-0.008296968336538672
6.416,-0.008299540674631675
6.42,-0.008296679850023568
6.424,-0.00829316993075648
6.428,-0.008294083471387641
6.432,-0.008294636403874922
6.436,-0.008295525903963156
6.44,-0.008294516201160295
6.444,-0.008294227714645191
6.448,-0.008292496795554574
6.452,-0.008288770511401157
6.456,-0.008286462619280332
6.46,-0.008287544443711969
6.464,-0.008288361822171427
6.468,-0.008286438578737407
6.472,-0.008287111713939314
6.476,-0.008286390497651556
6.48,-0.008286943430138837
6.484,-0.008288193538370951
6.488,-0.008291126484607832
6.492,-0.008289756173661093
6.496,-0.008290044660176197
6.5,-0.008291102444064908
6.5040000000000004,-0.00828759252479782
6.508,-0.008284106646073656
6.5120000000000005,-0.008285597159735023
6.516,-0.008287881011312923
6.5200000000000005,-0.008286102011136453
6.524,-0.008283673916301002
6.5280000000000005,-0.008280644807892418
6.532,-0.008285476957020397
6.5360000000000005,-0.008288121416742174
6.54,-0.008285476957020397
6.5440000000000005,-0.008282327645897187
6.548,-0.008281510267437727
6.5520000000000005,-0.008285525038106248
6.556,-0.008286414538194481
6.5600000000000005,-0.008284707659646787
6.564,-0.008283241186528347
6.5680000000000005,-0.008283337348700048
6.572,-0.008286823227424212
6.5760000000000005,-0.008287159795025164
6.58,-0.008286919389595911
6.5840000000000005,-0.008288385862714354
6.588,-0.008289948498004495
6.5920000000000005,-0.008286871308510062
6.596,-0.00828297674055617
6.6000000000000005,-0.008277976307627714
6.604,-0.008281317943094326
6.6080000000000005,-0.008281462186351878
6.612,-0.008278721564458398
6.6160000000000005,-0.008277038726453629
6.62,-0.0082789138888018
6.6240000000000006,-0.008277976307627714
6.628,-0.008279803388890034
6.632000000000001,-0.008277735902198461
6.636,-0.008275476091163487
6.640000000000001,-0.00827718296971118
6.644,-0.008279514902374932
6.648000000000001,-0.008279779348347109
6.652,-0.008277663780569686
6.656000000000001,-0.008277207010254107
6.66,-0.008277158929168256
6.664,-0.008275692456049814
6.668,-0.008275091442476682
6.672,-0.00827489911813328
6.676,-0.008276654077766826
6.68,-0.008277255091339957
6.684,-0.00827718296971118
6.688,-0.008276149226365393
6.692,-0.008271677685381295
6.696,-0.00827059586094966
6.7,-0.008271821928638847
6.704,-0.008272543144926604
6.708,-0.008274081739673821
6.712,-0.008272326780040277
6.716,-0.008271677685381295
6.72,-0.00827028333389163
6.724,-0.008268600495886862
6.728,-0.008268215847200057
6.732,-0.008272326780040277
6.736,-0.00827028333389163
6.74,-0.008267783117427402
6.744,-0.008269682320318498
6.748,-0.008270235252805779
6.752,-0.008268552414801011
6.756,-0.008267013820053794
6.76,-0.00826845625262931
6.764,-0.008269177468917067
6.768,-0.008269850604118976
6.772,-0.00826891302294489
6.776,-0.008264008752188136
6.78,-0.008265042495533923
6.784,-0.008265811792907531
6.788,-0.008268071603942505
6.792,-0.00827059586094966
6.796,-0.008274057699130897
6.8,-0.008275908820936142
6.804,-0.008277495496769208
6.808,-0.008275355888448861
6.812,-0.008275163564105459
6.816,-0.008275692456049814
6.82,-0.00827850519957207
6.824,-0.008282279564811337
6.828,-0.008283577754129301
6.832,-0.008285693321906724
6.836,-0.008286943430138837
6.84,-0.008287736768055371
6.844,-0.00828545291647747
6.848,-0.00828393836227318
6.852,-0.00828201511883916
6.856,-0.008283120983813721
6.86,-0.008283193105442496
6.864,-0.008284154727159506
6.868,-0.008285140389419443
6.872,-0.008288241619456802
6.876,-0.008289684052032318
6.88,-0.008288722430315306
6.884,-0.00828535675430577
6.888,-0.008287808889684146
6.892,-0.008286294335479855
6.896,-0.008283193105442496
6.9,-0.008282592091869365
6.904,-0.00828403452444488
6.908,-0.008285260592134068
6.912,-0.008285500997563321
6.916,-0.008286823227424212
6.92,-0.008288193538370951
6.924,-0.008285140389419443
6.928,-0.008285837565164276
6.932,-0.00828860222760068
6.936,-0.008290886079178581
6.94,-0.008288482024886055
6.944,-0.008288842633029933
6.948,-0.008287905051855848
6.952,-0.008284635538018012
6.956,-0.008285236551591144
6.96,-0.008289804254746944
6.964,-0.008286654943623734
6.968,-0.008282736335126916
6.972,-0.008281870875581607
6.976,-0.008281077537665073
6.98,-0.008279899551061735
6.984,-0.008279611064546633
6.988,-0.008280019753776362
6.992,-0.008280933294407522
6.996,-0.008280716929521195
7.0,-0.00827840903740037
7.0040000000000004,-0.008276413672337573
7.008,-0.008276509834509274
7.0120000000000005,-0.008280861172778747
7.016,-0.008280909253864596
7.0200000000000005,-0.008277014685910704
7.024,-0.00827403365858797
7.0280000000000005,-0.008273600928815317
7.032,-0.008275644374963963
7.0360000000000005,-0.008275091442476682
7.04,-0.008276581956138049
7.0440000000000005,-0.008272735469270006
7.048,-0.00827403365858797
7.0520000000000005,-0.008274610631618178
7.056,-0.008270956469093538
7.0600000000000005,-0.00827201425298225
7.064,-0.008270451617692107
7.0680000000000005,-0.008268528374258085
7.072,-0.008267710995798627
7.0760000000000005,-0.008265523306392427
7.08,-0.008263672184587182
7.0840000000000005,-0.00826713402276842
7.088,-0.008265835833450457
7.0920000000000005,-0.008264657846847118
7.096,-0.008262205711468741
7.1000000000000005,-0.008261075805951255
7.104,-0.008262325914183367
7.1080000000000005,-0.00826297500884235
7.112,-0.00826475400901882
7.1160000000000005,-0.008264585725218343
7.12,-0.008263912590016435
7.1240000000000006,-0.008263551981872556
7.128,-0.008262013387125339
7.132000000000001,-0.008261580657352685
7.136,-0.00826333561698623
7.140000000000001,-0.008263600062958407
7.144,-0.008263720265673033
7.148000000000001,-0.008263119252099901
7.152,-0.008263455819700855
7.156000000000001,-0.008263936630559361
7.16,-0.008262133589839966
7.164000000000001,-0.008264032792731062
7.168,-0.008263191373728678
7.172,-0.008261364292466357
7.176,-0.008261388333009283
7.18,-0.008264465522503716
7.184,-0.008266076238879708
7.188,-0.008268576455343936
7.192,-0.008271509401580819
7.196,-0.00826982656357605
7.2,-0.00826896110403074
7.204,-0.00826744654982645
7.208,-0.008267831198513253
7.212,-0.008265907955079232
7.216,-0.008265186738791475
7.22,-0.008267518671455224
7.224,-0.008268287968828834
7.228,-0.008265451184763652
7.232,-0.008266797455167467
7.236,-0.008265403103677802
7.24,-0.008264826130647595
7.244,-0.008262446116897994
7.248,-0.00826215763038289
7.252,-0.008263648144044258
7.256,-0.008260354589663496
7.26,-0.008263696225130108
7.264,-0.008270091009548229
7.268,-0.00826795140122788
7.272,-0.008267254225483047
7.276,-0.00826379238730181
7.28,-0.008266316644308961
7.284,-0.008265739671278756
7.288,-0.008263912590016435
7.292,-0.008265883914536308
7.296,-0.008266605130824065
7.3,-0.008263263495357453
7.304,-0.008264321279246164
7.308,-0.008265547346935354
7.312,-0.008265042495533923
7.316,-0.008266773414624541
7.32,-0.008266581090281139
7.324,-0.00826357602241548
7.328,-0.008263263495357453
7.332,-0.008267662914712776
7.336,-0.008269105347288292
7.34,-0.00826662917136699
7.344,-0.008269273631088769
7.348,-0.008270355455520406
7.352,-0.008268480293172235
7.356,-0.008267614833626926
7.36,-0.008268312009371758
7.364,-0.008271293036694492
7.368,-0.008268119685028356
7.372,-0.008265595428021204
7.376,-0.00826343177915793
7.38,-0.008259537211204038
7.384,-0.008260811359979076
7.388,-0.008262037427668265
7.392,-0.008262638441241397
7.396,-0.008262902887213574
7.4,-0.008267398468740599
7.404,-0.008268047563399581
7.408,-0.008266941698425019
7.412,-0.008266605130824065
7.416,-0.008262902887213574
7.42,-0.008265162698248549
7.424,-0.008264874211733445
7.428,-0.00826343177915793
7.432,-0.00826307117101405
7.436,-0.008260787319436151
7.44,-0.008261292170837582
7.444,-0.008259633373375739
7.448,-0.008264729968475893
7.452,-0.008266100279422635
7.456,-0.008264922292819296
7.46,-0.008262422076355068
7.464,-0.008258936197630906
7.468,-0.008260402670749347
7.472,-0.008264441481960792
7.476,-0.008267590793084001
7.48,-0.008266052198336784
7.484,-0.0082653069415061
7.488,-0.008265956036165083
7.492,-0.008264946333362222
7.496,-0.008260859441064927
7.5,-0.008259465089575261
7.5040000000000004,-0.008258479427315326
7.508,-0.008261436414095134
7.5120000000000005,-0.008260114184234243
7.516,-0.00826251823852677
7.5200000000000005,-0.008264104914359837
7.524,-0.008262782684498949
7.5280000000000005,-0.00826109984649418
7.532,-0.008261220049208805
7.5360000000000005,-0.008259657413918663
7.54,-0.008264681887390045
7.5440000000000005,-0.008267061901139645
7.548,-0.008264177035988612
7.5520000000000005,-0.008265042495533923
7.556,-0.008260859441064927
7.5600000000000005,-0.008261460454638058
7.564,-0.008261748941153162
7.5680000000000005,-0.008261388333009283
7.572,-0.008257181237997362
7.5760000000000005,-0.008259609332832813
7.58,-0.008262470157440919
7.5840000000000005,-0.008264778049561744
7.588,-0.00826480209010467
7.5920000000000005,-0.008262470157440919
7.596,-0.008263984711645212
7.6000000000000005,-0.008265403103677802
7.604,-0.008267085941682571
7.6080000000000005,-0.008265066536076848
7.612,-0.008265282900963176
7.6160000000000005,-0.008263648144044258
7.62,-0.008262758643956022
7.6240000000000006,-0.008259489130118187
7.628,-0.00825795053537097
7.632000000000001,-0.008258647711115803
7.636,-0.008261388333009283
7.640000000000001,-0.008263816427844734
7.644,-0.008264537644132493
7.648000000000001,-0.008261748941153162
7.652,-0.008260210346405944
7.656000000000001,-0.008258984278716757
7.66,-0.008254104048502927
7.664000000000001,-0.00825561860270722
7.668,-0.008257229319083213
7.672000000000001,-0.008258840035459205
7.676,-0.008260402670749347
7.68,-0.008258984278716757
7.684,-0.008256243656823276
7.688,-0.00825850346785825
7.692,-0.008257157197454436
7.696,-0.008259561251746962
7.7,-0.008261268130294656
7.704,-0.008257373562340764
7.708,-0.008255979210851099
7.712,-0.008257974575913896
7.716,-0.008258142859714372
7.72,-0.008258984278716757
7.724,-0.00825891215708798
7.728,-0.00826109984649418
7.732,-0.008262229752011668
7.736,-0.008260306508577646
7.74,-0.008257758211027567
7.744,-0.008256411940623752
7.748,-0.008256940832568109
7.752,-0.008255450318906742
7.756,-0.008256652346053005
7.76,-0.00825530607564919
7.764,-0.008253983845788302
7.768,-0.008258070738085597
7.772,-0.008258431346229476
7.776,-0.008257301440711988
7.78,-0.008259753576090365
7.784,-0.008260907522150777
7.788,-0.008260907522150777
7.792,-0.008257325481254914
7.796,-0.008255378197277967
7.8,-0.00825484930533361
7.804,-0.008255137791848714
7.808,-0.008251363426609449
7.812,-0.008249800791319305
7.816,-0.008251579791495775
7.82,-0.008254681021533134
7.824,-0.00825480122424776
7.828,-0.008253454953843945
7.832,-0.008253310710586393
7.836,-0.00825520991347749
7.84,-0.008254104048502927
7.844,-0.008256267697366202
7.848,-0.008256700427138856
7.852,-0.008258431346229476
7.856,-0.008256219616280352
7.86,-0.008255859008136471
7.864,-0.008253983845788302
7.868,-0.008253118386242993
7.872,-0.008251026859008494
7.876,-0.008250810494122168
7.88,-0.008251699994210401
7.884,-0.008250377764349512
7.888,-0.008254729102618985
7.892,-0.008257421643426615
7.896,-0.008257012954196884
7.9,-0.008254969508048238
7.904,-0.00825434445393218
7.908,-0.008249945034576857
7.912,-0.008251050899551419
7.916,-0.008254656980990208
7.92,-0.008255089710762864
7.924,-0.008255330116192117
7.928,-0.008249920994033932
7.932,-0.008251820196925028
7.936,-0.008255282035106266
7.94,-0.008256291737909127
7.944,-0.008258695792201653
7.948,-0.008256892751482258
7.952,-0.00825333475112932
7.956,-0.00825561860270722
7.96,-0.008255161832391639
7.964,-0.008248935331773996
7.968,-0.008248887250688145
7.972,-0.008252397169955234
7.976,-0.00825215676452598
7.98,-0.008250377764349512
7.984,-0.00825196444018258
7.988,-0.008254777183704836
7.992,-0.008252493332126935
7.996,-0.0082514115076953
8.0,-0.008250978777922644
8.004,-0.008251988480725505
8.008000000000001,-0.00825292606189959
8.012,-0.008249416142632502
8.016,-0.008243526209615812
8.02,-0.008243406006901186
8.024000000000001,-0.00824826219657209
8.028,-0.00825064221032169
8.032,-0.008247348655940928
8.036,-0.008248069872228687
8.040000000000001,-0.008248959372316922
8.044,-0.008250762413036317
8.048,-0.008250930696836793
8.052,-0.008249945034576857
8.056000000000001,-0.008248526642544267
8.06,-0.008249464223718353
8.064,-0.008248141993857462
8.068,-0.008246891885625348
8.072000000000001,-0.008244824398933776
8.076,-0.008243237723100708
8.08,-0.008243237723100708
8.084,-0.008245401371963983
8.088000000000001,-0.008242612668984652
8.092,-0.008243574290701662
8.096,-0.00824383873667384
8.1,-0.008245473493592758
8.104000000000001,-0.008247637142456032
8.108,-0.008249488264261277
8.112,-0.008249368061546651
8.116,-0.008252325048326459
8.120000000000001,-0.008253454953843945
8.124,-0.008254368494475106
8.128,-0.008254584859361433
8.132,-0.008247757345170659
8.136000000000001,-0.008245930263908338
8.14,-0.00824439166916112
8.144,-0.008244079142103093
8.148,-0.00824708420996875
8.152000000000001,-0.008249175737203249
8.156,-0.00825237312941231
8.16,-0.008252781818642039
8.164,-0.008247925628971135
8.168000000000001,-0.008247348655940928
8.172,-0.008248190074943313
8.176,-0.008246411074766844
8.18,-0.00824780542625651
8.184000000000001,-0.008248598764173042
8.188,-0.008248646845258892
8.192,-0.00824826219657209
8.196,-0.008249031493945697
8.2,-0.008249488264261277
8.204,-0.00824561773685031
8.208,-0.00824379065558799
8.212,-0.00824612258825174
8.216,-0.008247613101913107
8.22,-0.008244559952961599
8.224,-0.008243766615045065
8.228,-0.008247372696483854
8.232,-0.008247877547885285
8.236,-0.008247324615398004
8.24,-0.008248286237115014
8.244,-0.00825073837249339
8.248,-0.008251291304980672
8.252,-0.008251844237467953
8.256,-0.008248983412859847
8.26,-0.008248117953314538
8.264,-0.008249103615574472
8.268,-0.008249295939917875
8.272,-0.008250017156205634
8.276,-0.008250113318377335
8.28,-0.008253046264614216
8.284,-0.008252685656470337
8.288,-0.008248382399286715
8.292,-0.008245761980107862
8.296,-0.008250041196748558
8.3,-0.008252757778099112
8.304,-0.008248021791142836
8.308,-0.008250882615750943
8.312,-0.008250810494122168
8.316,-0.00824511288544888
8.32,-0.008247252493769229
8.324,-0.008247661182998958
8.328,-0.008248646845258892
8.332,-0.008249247858832024
8.336,-0.008247132291054601
8.34,-0.008244680155676224
8.344,-0.008245425412506908
8.348,-0.008245521574678609
8.352,-0.008246242790966366
8.356,-0.008247060169425826
8.36,-0.00824744481811263
8.364,-0.00824602642608004
8.368,-0.008245377331421057
8.372,-0.00824749289919848
8.376,-0.008248622804715968
8.38,-0.008248190074943313
8.384,-0.008248190074943313
8.388,-0.008249247858832024
8.392,-0.00824799775059991
8.396,-0.00824785350734236
8.4,-0.008247973710056986
8.404,-0.008247516939741406
8.408,-0.008244848439476702
8.412,-0.00824388681775969
8.416,-0.00824566581793616
8.42,-0.008247012088339976
8.424,-0.008246555318024396
8.428,-0.008245641777393235
8.432,-0.00824343004744411
8.436,-0.008244752277305001
8.44,-0.008247204412683378
8.444,-0.008245930263908338
8.448,-0.008243982979931392
8.452,-0.008248093912771612
8.456,-0.008247613101913107
8.46,-0.008245377331421057
8.464,-0.008245521574678609
8.468,-0.008246218750423442
8.472,-0.008245136925991804
8.476,-0.008247901588428209
8.48,-0.008251387467152373
8.484,-0.008250377764349512
8.488,-0.00825119514280897
8.492,-0.008249945034576857
8.496,-0.008249079575031548
8.5,-0.008247565020827257
8.504,-0.008245353290878133
8.508000000000001,-0.00824556965576446
8.512,-0.008247781385713584
8.516,-0.008247709264084808
8.52,-0.008243718533959214
8.524000000000001,-0.008244079142103093
8.528,-0.008247396737026779
8.532,-0.00824383873667384
8.536,-0.008244007020474318
8.540000000000001,-0.008247637142456032
8.544,-0.008248214115486239
8.548,-0.008246795723453647
8.552,-0.008249055534488623
8.556000000000001,-0.008243742574502139
8.56,-0.00824095387152281
8.564,-0.008243406006901186
8.568,-0.008241602966181791
8.572000000000001,-0.008239992249805799
8.576,-0.008242059736497371
8.58,-0.008244752277305001
8.584,-0.008246338953138067
8.588000000000001,-0.008247901588428209
8.592,-0.008246435115309769
8.596,-0.008243598331244589
8.6,-0.008244752277305001
8.604000000000001,-0.008247276534312153
8.608,-0.008244872480019627
8.612,-0.00824460803404745
8.616,-0.008246218750423442
8.620000000000001,-0.008244439750246971
8.624,-0.008242083777040296
8.628,-0.008241146195866212
8.632,-0.008240569222836005
8.636000000000001,-0.008237419911712795
8.64,-0.008237684357684972
8.644,-0.008237516073884496
8.648,-0.008238381533429805
8.652000000000001,-0.008239583560576068
8.656,-0.008239030628088787
8.66,-0.008237612236056197
8.664,-0.008235352425021223
8.668000000000001,-0.008232707965299443
8.672,-0.008233260897786724
8.676,-0.008233837870816932
8.68,-0.008236458289995785
8.684000000000001,-0.008236866979225514
8.688,-0.008235280303392446
8.692,-0.008233381100501352
8.696,-0.00823196270846876
8.700000000000001,-0.008232130992269238
8.704,-0.008230760681322497
8.708,-0.008228092181057793
8.712,-0.008225351559164313
8.716,-0.008226265099795472
8.72,-0.008229991383948889
8.724,-0.008230832802951274
8.728,-0.008232948370728696
8.732,-0.008231409775981479
8.736,-0.00823278008692822
8.74,-0.008234751411448091
8.744,-0.008230904924580049
8.748,-0.008229654816347935
8.752,-0.008230111586663515
8.756,-0.00823150593815318
8.76,-0.008227755613456839
8.764,-0.00822729884314126
8.768,-0.008230760681322497
8.772,-0.008230015424491813
8.776,-0.008229462492004532
8.78,-0.008229750978519636
8.784,-0.008228693194630925
8.788,-0.008230327951549843
8.792,-0.00822881339734555
8.796,-0.008228885518974327
8.8,-0.008227731572913915
8.804,-0.008228140262143644
8.808,-0.008228332586487046
8.812,-0.008228212383772419
8.816,-0.008224630342876555
8.82,-0.008224125491475125
8.824,-0.008228548951373373
8.828,-0.008229775019062562
8.832,-0.008230303911006917
8.836,-0.008229222086575281
8.84,-0.008232275235526788
8.844,-0.008235400506107073
8.848,-0.008238621938859058
8.852,-0.008237131425197691
8.856,-0.008234967776334418
8.86,-0.008231938667925836
8.864,-0.008231265532723927
8.868,-0.008232587762584818
8.872,-0.00823013562720644
8.876,-0.008227587329656363
8.88,-0.008226265099795472
8.884,-0.008227923897257317
8.888,-0.008230568356979094
8.892,-0.008230856843494198
8.896,-0.008231169370552226
8.9,-0.008228404708115821
8.904,-0.008227539248570512
8.908,-0.008230784721865423
8.912,-0.008231529978696106
8.916,-0.008231529978696106
8.92,-0.008230664519150796
8.924,-0.008228140262143644
8.928,-0.008228212383772419
8.932,-0.008224413977990229
8.936,-0.008225688126765267
8.94,-0.008229606735262084
8.944,-0.008230327951549843
8.948,-0.008227010356626156
8.952,-0.008223211950843965
8.956,-0.008227707532370988
8.96,-0.008231698262496583
8.964,-0.008230568356979094
8.968,-0.00823003946503474
8.972,-0.008231025127294676
8.976,-0.008229919262320112
8.98,-0.008227370964770036
8.984,-0.00822927016766113
8.988,-0.008229029762231879
8.992,-0.008225375599707239
8.996,-0.00822520731590676
9.0,-0.008224029329303424
9.004,-0.008224269734732677
9.008000000000001,-0.00822496691047751
9.012,-0.008227058437712006
9.016,-0.008222202248041103
9.02,-0.008218475963887686
9.024000000000001,-0.008221072342523615
9.028,-0.008222250329126954
9.032,-0.008217923031400405
9.036,-0.00821931738289007
9.040000000000001,-0.008219918396463202
9.044,-0.008218427882801835
9.048,-0.00821684120696877
9.052,-0.008219197180175445
9.056000000000001,-0.008220663653293886
9.06,-0.008220471328950483
9.064,-0.008220206882978306
9.068,-0.00821926930180422
9.072000000000001,-0.008219509707233473
9.076,-0.008219653950491025
9.08,-0.008220711734379736
9.084,-0.008218620207145238
9.088000000000001,-0.00821739413945605
9.092,-0.008217634544885303
9.096,-0.008212634111956848
9.1,-0.008213667855302633
9.104000000000001,-0.008217874950314554
9.108,-0.00821876445040279
9.112,-0.008219918396463202
9.116,-0.008221144464152392
9.120000000000001,-0.008222514775099133
9.124,-0.008224005288760498
9.128,-0.008223476396816143
9.132,-0.0082241976131039
9.136000000000001,-0.00822369276170247
9.14,-0.008222683058899609
9.144,-0.008222971545414712
9.148,-0.0082241976131039
9.152000000000001,-0.008224101450932199
9.156,-0.008222250329126954
9.16,-0.008219509707233473
9.164,-0.008220615572208035
9.168000000000001,-0.008223837004960021
9.172,-0.00822414953201805
9.176,-0.00822196184261185
9.18,-0.008223957207674647
9.184000000000001,-0.008220807896551437
9.188,-0.00821830768008721
9.192,-0.008221769518268448
9.196,-0.00822547176187894
9.200000000000001,-0.00822328407247274
9.204,-0.008223043667043487
9.208,-0.008219557788319324
9.212,-0.008219076977460818
9.216000000000001,-0.008219846274834427
9.22,-0.008220327085692931
9.224,-0.008222875383243011
9.228,-0.008224317815818527
9.232,-0.008226217018709623
9.236,-0.008223837004960021
9.24,-0.008222154166955252
9.244,-0.008223644680616619
9.248,-0.008224918829391659
9.252,-0.008223933167131723
9.256,-0.00822023092352123
9.26,-0.008221360829038718
9.264,-0.008219605869405174
9.268,-0.008219365463975921
9.272,-0.008219028896374967
9.276,-0.008222106085869402
9.28,-0.008223067707586414
9.284,-0.008222226288584027
9.288,-0.0082241976131039
9.292,-0.008225616005136492
9.296,-0.008225567924050641
9.3,-0.00822003859917783
9.304,-0.008215639179822506
9.308,-0.008212537949785147
9.312,-0.008211648449696912
9.316,-0.008214869882448897
9.32,-0.008214340990504542
9.324,-0.008217033531312172
9.328,-0.008216240193395638
9.332,-0.008217706666514078
9.336,-0.008219245261261296
9.34,-0.008220062639720754
9.344,-0.008222803261614234
9.348,-0.00822273113998546
9.352,-0.008222634977813758
9.356,-0.008221240626324093
9.36,-0.00821926930180422
9.364,-0.008217923031400405
9.368,-0.008216192112309787
9.372,-0.008220423247864633
9.376,-0.008222875383243011
9.38,-0.008219846274834427
9.384,-0.008219413545061772
9.388,-0.008219798193748577
9.392,-0.008217995153029182
9.396,-0.008218500004430612
9.4,-0.008217225855655572
9.404,-0.008215182409506926
9.408,-0.008212105220012492
9.412,-0.008210398341464798
9.416,-0.008212802395757324
9.42,-0.008211696530782762
9.424,-0.008211215719924257
9.428,-0.008212706233585623
9.432,-0.008211384003724734
9.436,-0.008209220354861461
9.44,-0.008212153301098342
9.444,-0.008213980382360663
9.448,-0.008214942004077673
9.452,-0.00821708161239802
9.456,-0.00821561513927958
9.46,-0.008214437152676243
9.464,-0.008214004422903588
9.468,-0.008212273503812968
9.472,-0.008213932301274813
9.476,-0.008213427449873382
9.48,-0.008208282773687375
9.484,-0.008211191679381332
9.488,-0.00821561513927958
9.492,-0.008215518977107879
9.496,-0.008213475530959231
9.5,-0.008207657719571318
9.504,-0.008207513476313766
9.508000000000001,-0.008214124625618213
9.512,-0.008216672923168291
9.516,-0.008212345625441745
9.52,-0.008207777922285945
9.524000000000001,-0.008209797327891667
9.528,-0.008209508841376563
9.532,-0.008210734909065752
9.536,-0.008212706233585623
9.540000000000001,-0.008209508841376563
9.544,-0.008209220354861461
9.548,-0.008209893490063368
9.552,-0.00821003773332092
9.556000000000001,-0.00820734519251329
9.56,-0.00820789812500057
9.564,-0.00820744135468499
9.568,-0.00820496517876369
9.572000000000001,-0.008208090449343973
9.576,-0.008209701165719965
9.58,-0.008206648016768457
9.584,-0.008204292043561781
9.588000000000001,-0.008205782557223148
9.592,-0.008208595300745403
9.596,-0.008212754314671474
9.6,-0.008214004422903588
9.604000000000001,-0.00821419674724699
9.608,-0.008215254531135701
9.612,-0.008211864814583239
9.616,-0.008212321584898818
9.620000000000001,-0.008211985017297866
9.624,-0.00820881166563173
9.628,-0.0082127783552144
9.632,-0.008211359963181808
9.636000000000001,-0.00820917227377561
9.64,-0.008205638313965596
9.644,-0.008202657286642863
9.648,-0.00820638357079628
9.652000000000001,-0.008209484800833639
9.656,-0.008211936936212015
9.66,-0.008207465395227915
9.664,-0.008206239327538728
9.668000000000001,-0.008206575895139682
9.672,-0.008206648016768457
9.676,-0.008203618908359874
9.68,-0.008204532448991034
9.684000000000001,-0.008203138097501369
9.688,-0.008203210219130145
9.692,-0.008205542151793895
9.696,-0.008206407611339204
9.700000000000001,-0.008208427016944927
9.704,-0.008206696097854307
9.708,-0.008206503773510905
9.712,-0.008205301746364642
9.716000000000001,-0.008203426584016472
9.72,-0.008202681327185789
9.724,-0.00820150334058245
9.728,-0.008200878286466394
9.732,-0.008199051205204073
9.736,-0.008202080313612657
9.74,-0.008205181543650016
9.744,-0.008206599935682606
9.748,-0.008204484367905183
9.752,-0.008202993854243817
9.756,-0.008207874084457646
9.76,-0.008207369233056216
9.764,-0.008204724773334436
9.768,-0.008204844976049062
9.772,-0.008203498705645247
9.776,-0.008199483934976728
9.78,-0.008199483934976728
9.784,-0.008200878286466394
9.788,-0.008199532016062579
9.792,-0.008200710002665918
9.796,-0.008202849610986265
9.8,-0.008201335056781974
9.804,-0.008202633246099938
9.808,-0.008202993854243817
9.812,-0.008203979516503753
9.816,-0.008204460327362257
9.82,-0.008203017894786743
9.824,-0.008205253665278791
9.828,-0.008207465395227915
9.832,-0.008203642948902799
9.836,-0.008198498272716792
9.84,-0.00819871463760312
9.844,-0.00820109465135272
9.848,-0.008206239327538728
9.852,-0.008208090449343973
9.856,-0.00820424396247593
9.86,-0.008201839908183404
9.864,-0.008203378502930622
9.868,-0.008203955475960827
9.872,-0.008203138097501369
9.876,-0.008207008624912335
9.88,-0.008205614273422672
9.884,-0.008204532448991034
9.888,-0.008201383137867824
9.892,-0.008199532016062579
9.896,-0.008199892624206458
9.9,-0.008200734043208842
9.904,-0.00820008494854986
9.908,-0.008198882921403597
9.912,-0.008199964745835234
9.916,-0.008201190813524422
9.92,-0.008203666989445725
9.924,-0.008205373867993419
9.928,-0.008205614273422672
9.932,-0.008206167205909953
9.936,-0.008206551854596756
9.94,-0.008204604570619809
9.944,-0.008205854678851923
9.948,-0.00820551811125097
9.952,-0.008202008191983882
9.956,-0.008203402543473546
9.96,-0.008203330421844771
9.964,-0.008201623543297077
9.968,-0.00820272940827164
9.972,-0.008200277272893262
9.976,-0.00819739240774223
9.98,-0.008198354029459242
9.984,-0.008203835273246201
9.988,-0.00820013302963571
9.992,-0.008199339691719177
9.996,-0.008196647150911547
10.0,-0.008193930569560992
10.004,-0.008192992988386908
10.008000000000001,-0.008194699866934602
10.012,-0.00819551724539406
10.016,-0.008196599069825698
10.02,-0.008195397042679435
10.024000000000001,-0.008193185312730309
10.028,-0.008196526948196921
10.032,-0.008198906961946523
10.036,-0.00820176778655463
10.040000000000001,-0.008199604137691356
10.044,-0.00819739240774223
10.048,-0.008197488569913931
10.052,-0.008198426151088017
10.056000000000001,-0.008197248164484678
10.06,-0.008191839042326494
10.064,-0.008188040636544304
10.068,-0.008190468731379755
10.072000000000001,-0.008191262069296289
10.076,-0.008193954610103919
10.08,-0.00819643078602522
10.084,-0.008196623110368622
10.088000000000001,-0.008195565326479911
10.092,-0.00819369016413174
10.096,-0.008195685529194537
10.1,-0.008195877853537939
10.104000000000001,-0.008198786759231896
10.108,-0.008198065542944138
10.112,-0.008194868150735078
10.116,-0.008199748380948906
10.120000000000001,-0.008199940705292308
10.124,-0.008193762285760516
10.128,-0.008198137664572913
10.132,-0.008197632813171483
10.136000000000001,-0.008192848745129357
10.14,-0.008189795596177848
10.144,-0.00819400269118977
10.148,-0.008195228758878957
10.152000000000001,-0.008196286542767668
10.156,-0.008198979083575298
10.16,-0.008197416448285156
10.164,-0.008195757650823313
10.168000000000001,-0.008196166340053043
10.172,-0.00819825786728754
10.176,-0.00819967625932013
10.18,-0.008197608772628559
10.184000000000001,-0.00820109465135272
10.188,-0.008205902759937773
10.192,-0.008203763151617426
10.196,-0.008201118691895647
10.200000000000001,-0.008198570394345569
10.204,-0.008195709569737463
10.208,-0.00819409885336147
10.212,-0.008193642083045889
10.216000000000001,-0.008196166340053043
10.22,-0.008193858447932217
10.224,-0.008195493204851134
10.228,-0.008196623110368622
10.232000000000001,-0.008196046137338415
10.236,-0.008197945340229511
10.24,-0.00819647886711107
10.244,-0.008197248164484678
10.248,-0.008198786759231896
10.252,-0.00819592593462379
10.256,-0.008194435420962423
10.26,-0.008192247731556225
10.264,-0.008192752582957655
10.268,-0.008192175609927448
10.272,-0.008193113191101534
10.276,-0.008196647150911547
10.28,-0.008196575029282772
10.284,-0.008194339258790722
10.288,-0.008194411380419498
10.292,-0.008195829772452088
10.296,-0.008197055840141278
10.3,-0.00819424309661902
10.304,-0.008195348961593584
10.308,-0.008193882488475142
10.312,-0.008194988353449704
10.316,-0.008196166340053043
10.32,-0.008196310583310594
10.324,-0.008193137231644458
10.328,-0.008194387339876572
10.332,-0.008194747948020453
10.336,-0.008193762285760516
10.34,-0.008195204718336032
10.344,-0.008194916231820929
10.348,-0.008194267137161947
10.352,-0.008194868150735078
10.356,-0.008192872785672281
10.36,-0.008189314785319342
10.364,-0.00819135823146799
10.368,-0.008194796029106303
10.372,-0.00819643078602522
10.376,-0.008197248164484678
10.38,-0.008198498272716792
10.384,-0.008197416448285156
10.388,-0.008194315218247797
10.392,-0.008192920866758132
10.396,-0.008191742880154795
10.4,-0.008188184879801856
10.404,-0.008187631947314573
10.408,-0.008186910731026816
10.412,-0.008185131730850347
10.416,-0.008185372136279599
10.42,-0.008185420217365449
10.424,-0.00818551637953715
10.428,-0.008186069312024431
10.432,-0.008186526082340011
10.436,-0.008188737812289137
10.44,-0.008184771122706467
10.444,-0.008183689298274831
10.448,-0.00818181413592666
10.452,-0.008180515946608695
10.456,-0.00818212666298469
10.46,-0.008181429487239857
10.464,-0.008181525649411558
10.468,-0.008183953744247009
10.472,-0.008184025865875784
10.476,-0.008183256568502176
10.48,-0.008183064244158773
10.484,-0.008185396176822525
10.488,-0.008182920000901222
10.492,-0.008180155338464817
10.496,-0.008181742014297885
10.5,-0.008184578798363066
10.504,-0.008183232527959251
10.508000000000001,-0.008183713338817756
10.512,-0.008183929703704084
10.516,-0.008185828906595178
10.52,-0.008184386474019664
10.524000000000001,-0.00818501152813572
10.528,-0.008182727676557821
10.532,-0.008181886257555436
10.536,-0.008183521014474353
10.540000000000001,-0.008181285243982305
10.544,-0.008182487271128568
10.548,-0.008177823405801067
10.552,-0.008178111892316169
10.556000000000001,-0.008177919567972768
10.56,-0.008178881189689778
10.564,-0.008181189081810604
10.568,-0.008180972716924277
10.572000000000001,-0.008179121595119031
10.576,-0.008178905230232703
10.58,-0.008182078581898839
10.584,-0.008183016163072923
10.588000000000001,-0.008185300014650823
10.592,-0.008187175176998993
10.596,-0.008185492338994226
10.6,-0.00818679052831219
10.604000000000001,-0.008186453960711236
10.608,-0.008182391108956867
10.612,-0.008179746649235087
10.616,-0.00818231898732809
10.620000000000001,-0.008181621811583257
10.624,-0.008179626446520462
10.628,-0.008181429487239857
10.632,-0.008183713338817756
10.636000000000001,-0.008183617176646054
10.64,-0.008183400811759728
10.644,-0.008183328690130953
10.648,-0.008180155338464817
10.652000000000001,-0.008183905663161158
10.656,-0.008187776190572125
10.66,-0.008184699001077692
10.664,-0.00818039574389407
10.668000000000001,-0.008180371703351145
10.672,-0.00818049190606577
10.676,-0.008183376771216803
10.68,-0.008180732311495024
10.684000000000001,-0.008183496973931429
10.688,-0.00818679052831219
10.692,-0.008185540420080076
10.696,-0.008183472933388503
10.700000000000001,-0.008181453527782781
10.704,-0.008183809500989457
10.708,-0.008185949109309806
10.712,-0.008186646285054638
10.716000000000001,-0.008184867284878168
10.72,-0.008183256568502176
10.724,-0.008182944041444148
10.728,-0.008184410514562588
10.732000000000001,-0.008180564027694546
10.736,-0.00817993897357849
10.74,-0.008182655554929044
10.744,-0.008181381406154006
10.748000000000001,-0.008180804433123799
10.752,-0.008179169676204882
10.756,-0.008185179811936198
10.76,-0.008186453960711236
10.764,-0.008182487271128568
10.768,-0.008180564027694546
10.772,-0.008178496541002974
10.776,-0.008179698568149237
10.78,-0.0081786167437176
10.784,-0.008179337960005358
10.788,-0.008179866851949713
10.792,-0.00817993897357849
10.796,-0.008178688865346376
10.8,-0.008179337960005358
10.804,-0.008179578365434611
10.808,-0.008180419784436994
10.812,-0.008178736946432227
10.816,-0.00818085251420965
10.82,-0.008184578798363066
10.824,-0.008183809500989457
10.828,-0.008187030933741441
10.832,-0.008185227893022047
10.836,-0.00818140544669693
10.84,-0.008180299581722368
10.844,-0.008179049473490255
10.848,-0.008178184013944946
10.852,-0.00817847250046005
10.856,-0.008180636149323323
10.86,-0.008179217757290731
10.864,-0.008177919567972768
10.868,-0.008178592703174675
10.872,-0.008179241797833657
10.876,-0.008180323622265295
10.88,-0.008177006027341607
10.884,-0.008179145635661956
10.888,-0.008179698568149237
10.892,-0.00817577995965242
10.896,-0.008174842378478334
10.9,-0.008176693500283579
10.904,-0.008177390676028412
10.908,-0.00818140544669693
10.912,-0.008181501608868632
10.916,-0.008183472933388503
10.92,-0.008180131297921892
10.924,-0.008178111892316169
10.928,-0.008176356932682625
10.932,-0.008176501175940177
10.936,-0.008181525649411558
10.94,-0.00818140544669693
10.944,-0.00817501066227881
10.948,-0.008175587635309017
10.952,-0.008179097554576105
10.956,-0.008177126230056234
10.96,-0.008176405013768475
10.964,-0.008176981986798683
10.968,-0.008174794297392483
10.972,-0.008174217324362278
10.976,-0.008177679162543515
10.98,-0.00818231898732809
10.984,-0.008183016163072923
10.988,-0.008181261203439379
10.992,-0.008181645852126183
10.996,-0.008180419784436994
11.0,-0.008175972283995822
11.004,-0.008176092486710447
11.008000000000001,-0.008179145635661956
11.012,-0.008177222392227936
11.016,-0.00818049190606577
11.02,-0.00817770320308644
11.024000000000001,-0.008176981986798683
11.028,-0.008182703636014895
11.032,-0.00817998705466434
11.036,-0.008177222392227936
11.040000000000001,-0.008179698568149237
11.044,-0.008181573730497408
11.048,-0.008181886257555436
11.052,-0.008181381406154006
11.056000000000001,-0.008179866851949713
11.06,-0.00817948220326291
11.064,-0.00818094867638135
11.068,-0.008184218190219186
11.072000000000001,-0.008185227893022047
11.076,-0.00818085251420965
11.08,-0.008176933905712832
11.084,-0.008180756352037948
11.088000000000001,-0.008183496973931429
11.092,-0.008186934771569742
11.096,-0.008188112758173079
11.1,-0.00818866569066036
11.104000000000001,-0.008186261636367834
11.108,-0.008180131297921892
11.112,-0.008177006027341607
11.116,-0.008178736946432227
11.120000000000001,-0.008178352297745422
11.124,-0.008178881189689778
11.128,-0.008179121595119031
11.132,-0.008178280176116647
11.136000000000001,-0.008176260770510924
11.14,-0.008176597338111878
11.144,-0.00817953028434876
11.148,-0.008179842811406789
11.152000000000001,-0.008177775324715216
11.156,-0.008175082783907587
11.16,-0.008172967216130164
11.164,-0.008172318121471182
11.168000000000001,-0.00817212579712778
11.172,-0.008173448026988668
11.176,-0.008173351864816967
11.18,-0.008175683797480718
11.184000000000001,-0.008176212689425073
11.188,-0.008174674094677857
11.192,-0.008177607040914739
11.196,-0.008175563594766093
11.200000000000001,-0.008171909432241452
11.204,-0.008174193283819351
11.208,-0.008175347229879764
11.212,-0.00817436156761983
11.216000000000001,-0.008177727243629366
11.22,-0.008180299581722368
11.224,-0.008177054108427458
11.228,-0.008177318554399637
11.232000000000001,-0.008176693500283579
11.236,-0.008171116094324919
11.24,-0.008171837310612676
11.244,-0.008171476702468797
11.248000000000001,-0.008170875688895666
11.252,-0.008172245999842405
11.256,-0.008172005594413152
11.26,-0.008172197918756554
11.264,-0.008176092486710447
11.268,-0.008177318554399637
11.272,-0.00817308741884479
11.276,-0.00817094781052444
11.28,-0.008173928837847174
11.284,-0.008175924202909971
11.288,-0.008174698135220782
11.292,-0.008176549257026027
11.296,-0.008179169676204882
11.3,-0.008179842811406789
11.304,-0.008179169676204882
11.308,-0.008176477135397252
11.312,-0.008178111892316169
11.316,-0.0081763328921397
11.32,-0.008176957946255756
11.324,-0.00817436156761983
11.328,-0.008172943175587238
11.332,-0.00817171710789805
11.336,-0.008171741148440975
11.34,-0.008174650054134931
11.344,-0.00817532318933684
11.348,-0.008173760554046698
11.352,-0.008172101756584853
11.356,-0.008172390243099957
11.36,-0.008173520148617445
11.364,-0.008172390243099957
11.368,-0.008174481770334455
11.372,-0.008171356499754171
11.376,-0.008166019499224762
11.38,-0.008166259904654015
11.384,-0.008170370837494235
11.388,-0.008172197918756554
11.392,-0.008171284378125395
11.396,-0.008169264972519673
11.4,-0.008170322756408385
11.404,-0.008168375472431438
11.408,-0.008167966783201709
11.412,-0.008169313053605524
11.416,-0.00817075548618104
11.42,-0.008170202553693757
11.424,-0.00817212579712778
11.428,-0.008176188648882149
11.432,-0.008175683797480718
11.436,-0.008173279743188192
11.44,-0.00817436156761983
11.444,-0.008174313486533979
11.448,-0.008177078148970384
11.452,-0.008179121595119031
11.456,-0.008180059176293115
11.46,-0.008179602405977536
11.464,-0.008180083216836042
11.468,-0.008179650487063386
11.472,-0.008181092919638902
11.476,-0.008180612108780396
11.48,-0.008176933905712832
11.484,-0.008175491473137316
11.488,-0.008175587635309017
11.492,-0.008173399945902817
11.496,-0.008172294080928256
11.5,-0.008173399945902817
11.504,-0.008174409648705678
11.508000000000001,-0.008176405013768475
11.512,-0.008177967649058619
11.516,-0.008175154905536362
11.52,-0.008176813702998205
11.524000000000001,-0.008177631081457665
11.528,-0.008177150270599159
11.532,-0.008178688865346376
11.536,-0.008174986621735885
11.540000000000001,-0.008174938540650035
11.544,-0.008172967216130164
11.548,-0.008175202986622212
11.552,-0.008174337527076903
11.556000000000001,-0.008177558959828888
11.56,-0.008179963014121414
11.564,-0.008182895960358297
11.568,-0.008180708270952098
11.572000000000001,-0.008179337960005358
11.576,-0.008177823405801067
11.58,-0.008174722175763708
11.584,-0.008173760554046698
11.588000000000001,-0.008173399945902817
11.592,-0.008177462797657187
11.596,-0.008174481770334455
11.6,-0.008174289445991053
11.604000000000001,-0.008177727243629366
11.608,-0.008176308851596774
11.612,-0.008174962581192961
11.616,-0.008176356932682625
11.620000000000001,-0.008172798932329686
11.624,-0.008171428621382947
11.628,-0.008169841945549879
11.632,-0.00817171710789805
11.636000000000001,-0.008174289445991053
11.64,-0.00817582804073827
11.644,-0.008174169243276427
11.648,-0.008177006027341607
11.652000000000001,-0.008179818770863862
11.656,-0.008177679162543515
11.66,-0.008176116527253374
11.664,-0.008178448459917123
11.668000000000001,-0.00817719835168501
11.672,-0.008178280176116647
11.676,-0.008177919567972768
11.68,-0.00817719835168501
11.684000000000001,-0.008175852081281194
11.688,-0.008177150270599159
11.692,-0.008182968081987072
11.696,-0.00818094867638135
11.700000000000001,-0.008177366635485487
11.704,-0.008174265405448128
11.708,-0.008171524783554648
11.712,-0.00817070740509519
11.716000000000001,-0.008175635716394868
11.72,-0.008177943608515693
11.724,-0.008175972283995822
11.728,-0.008175275108250989
11.732000000000001,-0.008177414716571336
11.736,-0.00817825613557372
11.74,-0.008176669459740655
11.744,-0.00817897735186148
11.748000000000001,-0.008176501175940177
11.752,-0.008174794297392483
11.756,-0.008172438324185807
11.76,-0.008176573297568953
11.764000000000001,-0.008177823405801067
11.768,-0.008174529851420306
11.772,-0.00817267872961506
11.776,-0.00817267872961506
11.78,-0.00817140458084002
11.784,-0.008167846580487081
11.788,-0.008165346364022856
11.792,-0.008165394445108705
11.796,-0.008161139269010935
11.8,-0.008162341296157198
11.804,-0.008165178080222378
11.808,-0.00816683687768422
11.812,-0.008172486405271658
11.816,-0.008171140134867843
11.82,-0.008171476702468797
11.824,-0.008170250634779608
11.828,-0.008174529851420306
11.832,-0.008175082783907587
11.836,-0.008171957513327303
11.84,-0.008173159540473566
11.844,-0.008173279743188192
11.848,-0.00817039487803716
11.852,-0.008169673661749402
11.856,-0.008166668593883744
11.86,-0.008167317688542727
11.864,-0.008166572431712043
11.868,-0.008168495675146064
11.872,-0.008170875688895666
11.876,-0.008172606607986284
11.88,-0.00817212579712778
11.884,-0.008171837310612676
11.888,-0.008175659756937792
11.892,-0.008177438757114262
11.896,-0.008177775324715216
11.9,-0.008178760986975151
11.904,-0.008175251067708063
11.908,-0.008171428621382947
11.912,-0.00817263064852921
11.916,-0.00817491450010711
11.92,-0.00817075548618104
11.924,-0.008170995891610291
11.928,-0.008171308418668321
11.932,-0.008171428621382947
11.936,-0.008171308418668321
11.94,-0.008171140134867843
11.944,-0.008169409215777225
11.948,-0.008169962148264506
11.952,-0.008168327391345587
11.956,-0.008166524350626193
11.96,-0.008168423553517289
11.964,-0.00816943325632015
11.968,-0.008172534486357508
11.972,-0.008172342162014106
11.976,-0.008172558526900435
11.98,-0.008169841945549879
11.984,-0.008167726377772456
11.988,-0.008164216458505368
11.992,-0.00816765425614368
11.996,-0.008169601540120626
12.0,-0.008169120729262121
12.004,-0.008166259904654015
12.008000000000001,-0.008167630215600755
12.012,-0.00816755809397198
12.016,-0.008167077283113474
12.02,-0.008167125364199324
12.024000000000001,-0.0081672936479998
12.028,-0.00817263064852921
12.032,-0.008173423986445744
12.036,-0.008171140134867843
12.040000000000001,-0.008171524783554648
12.044,-0.008172606607986284
12.048,-0.008173448026988668
12.052,-0.0081740490405618
12.056000000000001,-0.00817121225649662
12.06,-0.008170034269893281
12.064,-0.008168327391345587
12.068,-0.008164745350449724
12.072000000000001,-0.008165202120765304
12.076,-0.00816395201253319
12.08,-0.008165033836964826
12.084,-0.008165851215424286
12.088000000000001,-0.008169962148264506
12.092,-0.00816943325632015
12.096,-0.008169673661749402
12.1,-0.008170995891610291
12.104000000000001,-0.008169120729262121
12.108,-0.008164937674793125
12.112,-0.008162653823215226
12.116,-0.008161499877154813
12.120000000000001,-0.008156403282054657
12.124,-0.008157581268657994
12.128,-0.008159648755349568
12.132,-0.00815664368748391
12.136000000000001,-0.008155057011650842
12.14,-0.008157485106486295
12.144,-0.008158254403859902
12.148,-0.008161547958240664
12.152000000000001,-0.008162557661043525
12.156,-0.008162870188101553
12.16,-0.008165706972166734
12.164,-0.008164937674793125
12.168000000000001,-0.008161860485298692
12.172,-0.008162966350273254
12.176,-0.008163711607103937
12.18,-0.00816318271515958
12.184000000000001,-0.008163038471902029
12.188,-0.00816318271515958
12.192,-0.008160562295980727
12.196,-0.008162197052899646
12.200000000000001,-0.008164120296333666
12.204,-0.008164192417962441
12.208,-0.008164264539591218
12.212,-0.008164553026106322
12.216000000000001,-0.008162028769099168
12.22,-0.008160610377066578
12.224,-0.008162437458328897
12.228,-0.008162990390816178
12.232000000000001,-0.008165033836964826
12.236,-0.008164480904477545
12.24,-0.008162918269187403
12.244,-0.008165634850537958
12.248000000000001,-0.008164264539591218
12.252,-0.008162581701586449
12.256,-0.008161932606927467
12.26,-0.008164432823391694
12.264000000000001,-0.00816532232347993
12.268,-0.008161908566384542
12.272,-0.008161427755526036
12.276,-0.008161427755526036
12.280000000000001,-0.008162004728556244
12.284,-0.008163567363846385
12.288,-0.008160201687836849
12.292,-0.008162774025929851
12.296,-0.008167437891257352
12.3,-0.008167534053429053
12.304,-0.008166668593883744
12.308,-0.008167534053429053
12.312,-0.008167461931800278
12.316,-0.008164264539591218
12.32,-0.008165178080222378
12.324,-0.008162052809642094
12.328,-0.008166067580310613
12.332,-0.008168543756231914
12.336,-0.008165057877507752
12.34,-0.008165178080222378
12.344,-0.008164504945020471
12.348,-0.008164817472078499
12.352,-0.008163855850361489
12.356,-0.008161692201498216
12.36,-0.008161980688013317
12.364,-0.008160778660867054
12.368,-0.008160201687836849
12.372,-0.008162653823215226
12.376,-0.008166716674969595
12.38,-0.00816537040456578
12.384,-0.008164432823391694
12.388,-0.008163855850361489
12.392,-0.008160105525665148
12.396,-0.008158206322774052
12.4,-0.008156763890198536
12.404,-0.0081580620795165
12.408,-0.00816267786375815
12.412,-0.008165923337053061
12.416,-0.008165442526194555
12.42,-0.008164144336876593
12.424,-0.00816359140438931
12.428,-0.00816308655298788
12.432,-0.00816390393144734
12.436,-0.008162389377243047
12.44,-0.008162653823215226
12.444,-0.008163687566561011
12.448,-0.008164312620677069
12.452,-0.008161427755526036
12.456,-0.008160105525665148
12.46,-0.008160442093266102
12.464,-0.008157172579428265
12.468,-0.008160514214894877
12.472,-0.00816363948547516
12.476,-0.00816308655298788
12.48,-0.008162052809642094
12.484,-0.008162485539414748
12.488,-0.008161163309553859
12.492,-0.008162870188101553
12.496,-0.008162461498871823
12.5,-0.008161451796068963
12.504,-0.008162100890727945
12.508000000000001,-0.008166163742482314
12.512,-0.008162245133985497
12.516,-0.008163735647646862
12.52,-0.008165178080222378
12.524000000000001,-0.00816070653923828
12.528,-0.008160538255437803
12.532,-0.008160826741952905
12.536,-0.008161547958240664
12.540000000000001,-0.008161980688013317
12.544,-0.008163471201674684
12.548,-0.008165057877507752
12.552,-0.008163375039502983
12.556000000000001,-0.008162509579957674
12.56,-0.008163879890904413
12.564,-0.008163976053076115
12.568,-0.008163062512444955
12.572000000000001,-0.00816075462032413
12.576,-0.008162581701586449
12.58,-0.00816212493127087
12.584,-0.008161980688013317
12.588000000000001,-0.008164817472078499
12.592,-0.008165610809995033
12.596,-0.008162557661043525
12.6,-0.008164144336876593
12.604000000000001,-0.00816674071551252
12.608,-0.008164889593707274
12.612,-0.00816683687768422
12.616,-0.00816587525596721
12.620000000000001,-0.008167702337229531
12.624,-0.008171236297039544
12.628,-0.008167221526371025
12.632,-0.008165057877507752
12.636000000000001,-0.008168183148088036
12.64,-0.008165466566737481
12.644,-0.008164024134161965
12.648,-0.008164793431535573
12.652000000000001,-0.008163831809818563
12.656,-0.008163014431359104
12.66,-0.00816222109344257
12.664,-0.008163735647646862
12.668000000000001,-0.008164673228820947
12.672,-0.00816390393144734
12.676,-0.00816390393144734
12.68,-0.008160922904124606
12.684000000000001,-0.008160418052723176
12.688,-0.008160850782495831
12.692,-0.008161139269010935
12.696,-0.008163110593530806
12.700000000000001,-0.008163158674616656
12.704,-0.0081626297826723
12.708,-0.008159264106662763
12.712,-0.008158927539061809
12.716000000000001,-0.008162052809642094
12.72,-0.008160466133809026
12.724,-0.008157821674087247
12.728,-0.008161331593354335
12.732000000000001,-0.008162100890727945
12.736,-0.008159961282407596
12.74,-0.008164625147735097
12.744,-0.008161884525841616
12.748000000000001,-0.008161355633897261
12.752,-0.008163326958417132
12.756,-0.008167846580487081
12.76,-0.00816587525596721
12.764000000000001,-0.008164985755878975
12.768,-0.008165105958593603
12.772,-0.008162076850185019
12.776,-0.008158951579604735
12.780000000000001,-0.008159817039150044
12.784,-0.008161043106839233
12.788,-0.008164769390992649
12.792,-0.00816952941849185
12.796000000000001,-0.008167942742658783
12.8,-0.008169673661749402
12.804,-0.00816628394519694
12.808,-0.00816628394519694
12.812,-0.008167750418315382
12.816,-0.008166235864111089
12.82,-0.00816577909379551
12.824,-0.008166356066825716
12.828,-0.00816587525596721
12.832,-0.008163855850361489
12.836,-0.0081672936479998
12.84,-0.008166187783025238
12.844,-0.008164312620677069
12.848,-0.008160418052723176
12.852,-0.008159456431006165
12.856,-0.008162749985386927
12.86,-0.008165755053252585
12.864,-0.008165226161308228
12.868,-0.008163711607103937
12.872,-0.008161571998783588
12.876,-0.008159264106662763
12.88,-0.008159744917521269
12.884,-0.008158927539061809
12.888,-0.008158494809289155
12.892,-0.008162533620500598
12.896,-0.008165995458681836
12.9,-0.008163711607103937
12.904,-0.00816359140438931
12.908,-0.008158615012003781
12.912,-0.00815933622829154
12.916,-0.008160874823038755
12.92,-0.008160586336523652
12.924,-0.008159240066119839
12.928,-0.008160970985210457
12.932,-0.008160129566208072
12.936,-0.008158422687660379
12.94,-0.008158687133632558
12.944,-0.00815988916077882
12.948,-0.00816166816095529
12.952,-0.008161115228468008
12.956,-0.008161740282584066
12.96,-0.008159456431006165
12.964,-0.008155898430653227
12.968,-0.008155922471196151
12.972,-0.008158446728203305
12.976,-0.008159744917521269
12.98,-0.008158855417433034
12.984,-0.008155561863052272
12.988,-0.008157412984857518
12.992,-0.008159961282407596
12.996,-0.008162413417785973
13.0,-0.008157749552458472
13.004,-0.008154335795363085
13.008000000000001,-0.008152244268128587
13.012,-0.008151114362611098
13.016,-0.00815440791699186
13.02,-0.008156739849655611
13.024000000000001,-0.008158783295804257
13.028,-0.00815928814720569
13.032,-0.008160394012180251
13.036,-0.008161331593354335
13.040000000000001,-0.008165178080222378
13.044,-0.008163158674616656
13.048,-0.008156547525312209
13.052,-0.008155609944138123
13.056000000000001,-0.00815491276839329
13.06,-0.00815573014685275
13.064,-0.00815765339028677
13.068,-0.008158230363316976
13.072000000000001,-0.008157773593001396
13.076,-0.008157917836258948
13.08,-0.00815902370123351
13.084,-0.008159264106662763
13.088000000000001,-0.0081603459310944
13.092,-0.008158735214718408
13.096,-0.008160321890551474
13.1,-0.00816400009361904
13.104000000000001,-0.008162581701586449
13.108,-0.008161427755526036
13.112,-0.00816217301235672
13.116,-0.008159360268834464
13.120000000000001,-0.008160033404036371
13.124,-0.008158615012003781
13.128,-0.008157124498342414
13.132,-0.008158687133632558
13.136000000000001,-0.008159768958064193
13.14,-0.008162509579957674
13.144,-0.008160778660867054
13.148,-0.00815623499825418
13.152000000000001,-0.008158446728203305
13.156,-0.00815902370123351
13.16,-0.008160538255437803
13.164,-0.008160826741952905
13.168000000000001,-0.008159167944491062
13.172,-0.008156547525312209
13.176,-0.00815536953870887
13.18,-0.00815532145762302
13.184000000000001,-0.008157172579428265
13.188,-0.008160490174351952
13.192,-0.008158374606574528
13.196,-0.008157485106486295
13.200000000000001,-0.008157821674087247
13.204,-0.008157509147029219
13.208,-0.008156523484769283
13.212,-0.008156763890198536
13.216000000000001,-0.008158326525488677
13.22,-0.008157292782142892
13.224,-0.008155297417080095
13.228,-0.008155273376537169
13.232000000000001,-0.008151547092383754
13.236,-0.008151090322068174
13.24,-0.008153157808759746
13.244,-0.008151090322068174
13.248000000000001,-0.008151835578898857
13.252,-0.008152917403330493
13.256,-0.008153734781789953
13.26,-0.00815152305184083
13.264000000000001,-0.008149864254378985
13.268,-0.00815399922776213
13.272,-0.008155008930564991
13.276,-0.008155561863052272
13.280000000000001,-0.008155898430653227
13.284,-0.00815496084947914
13.288,-0.008155513781966422
13.292,-0.008152676997901242
13.296000000000001,-0.008155802268481525
13.3,-0.008155249335994244
13.304,-0.008155537822509348
13.308,-0.008155706106309824
13.312000000000001,-0.008153013565502194
13.316,-0.008153758822332878
13.32,-0.008155177214365468
13.324,-0.008153686700704103
13.328,-0.008151931741070558
13.332,-0.008146546659455299
13.336,-0.008147291916285982
13.34,-0.00814984021383606
13.344,-0.008147628483886936
13.348,-0.008151114362611098
13.352,-0.00815217214649981
13.356,-0.008151114362611098
13.36,-0.008149864254378985
13.364,-0.008150080619265313
13.368,-0.008148806470490273
13.372,-0.008147628483886936
13.376,-0.008144984024165157
13.38,-0.008146642821627
13.384,-0.008147315956828908
13.388,-0.008148037173116665
13.392,-0.008147267875743058
13.396,-0.008147412119000608
13.4,-0.008149647889492658
13.404,-0.00814887859211905
13.408,-0.008150873957181847
13.412,-0.00815207598432811
13.416,-0.00814786888931619
13.42,-0.008146883227056253
13.424,-0.008149671930035584
13.428,-0.008149744051664359
13.432,-0.008148277578545918
13.436,-0.008149768092207283
13.44,-0.008147339997371833
13.444,-0.008144142605162772
13.448,-0.008142844415844808
13.452,-0.008144863821450531
13.456,-0.008145897564796317
13.46,-0.00814527251068026
13.464,-0.008142555929329704
13.468,-0.008142820375301884
13.472,-0.008142724213130182
13.476,-0.008141810672499023
13.48,-0.008139478739835272
13.484,-0.008135584171881378
13.488,-0.008138348834317783
13.492,-0.008141690469784395
13.496,-0.008140416321009357
13.5,-0.008135704374596006
13.504,-0.008136545793598389
13.508000000000001,-0.008141498145440993
13.512,-0.008140945212953712
13.516,-0.008138252672146084
13.52,-0.008141426023812218
13.524000000000001,-0.008141257740011742
13.528,-0.00814202703738535
13.532,-0.008142147240099975
13.536,-0.008143517551046716
13.540000000000001,-0.008144142605162772
13.544,-0.00814476765927883
13.548,-0.008146835145970402
13.552,-0.008148157375831291
13.556000000000001,-0.008141738550870246
13.56,-0.008140728848067385
13.564,-0.008139815307436226
13.568,-0.008135848617853558
13.572000000000001,-0.008137483374772474
13.576,-0.008136834280113492
13.58,-0.008138036307259755
13.584,-0.008141257740011742
13.588000000000001,-0.008140488442638132
13.592,-0.008139094091148467
13.596,-0.008138396915403634
13.6,-0.008140440361552282
13.604000000000001,-0.008141666429241471
13.608,-0.008140151875037178
13.612,-0.008139935510150851
13.616,-0.008139502780378198
13.620000000000001,-0.00814106541566834
13.624,-0.008141185618382965
13.628,-0.008141209658925891
13.632,-0.008140993294039563
13.636000000000001,-0.00814111349675419
13.64,-0.008143229064531613
13.644,-0.00814517634850856
13.648,-0.008145705240452914
13.652000000000001,-0.008147364037914757
13.656,-0.008144839780907605
13.66,-0.008143565632132567
13.664,-0.008147796767687412
13.668000000000001,-0.008150128700351164
13.672,-0.008150032538179463
13.676,-0.008150825876095997
13.68,-0.008149215159720002
13.684000000000001,-0.008147003429770878
13.688,-0.008147844848773263
13.692,-0.00814618605131142
13.696,-0.008143637753761342
13.700000000000001,-0.008145128267422709
13.704,-0.008146883227056253
13.708,-0.008148205456917142
13.712,-0.008148085254202516
13.716000000000001,-0.008148253538002992
13.72,-0.008145849483710466
13.724,-0.008145945645882167
13.728,-0.008144599375478352
13.732000000000001,-0.008144070483533997
13.736,-0.008146498578369448
13.74,-0.008147027470313805
13.744,-0.008143469469960866
13.748000000000001,-0.008145560997195362
13.752,-0.008147892929859114
13.756,-0.008145392713394886
13.76,-0.008146787064884552
13.764000000000001,-0.008145512916109513
13.768,-0.008143012699645286
13.772,-0.008143084821274061
13.776,-0.008147267875743058
13.780000000000001,-0.00814786888931619
13.784,-0.00814760444334401
13.788,-0.00814760444334401
13.792,-0.00814984021383606
13.796000000000001,-0.008148758389404423
13.8,-0.008150393146323341
13.804,-0.00814984021383606
13.808,-0.00815253275464369
13.812000000000001,-0.008150272943608716
13.816,-0.008145705240452914
13.82,-0.008145416753937812
13.824,-0.00814572928099584
13.828,-0.008150633551752594
13.832,-0.008147820808230339
13.836,-0.008146330294568972
13.84,-0.008150200821979939
13.844,-0.008153758822332878
13.848,-0.008152676997901242
13.852,-0.008150849916638921
13.856,-0.008153253970931447
13.86,-0.008156403282054657
13.864,-0.00815573014685275
13.868,-0.008156523484769283
13.872,-0.008160057444579297
13.876,-0.008157412984857518
13.88,-0.00815856693091793
13.884,-0.008158927539061809
13.888,-0.008156908133456087
13.892,-0.008153278011474373
13.896,-0.008150633551752594
13.9,-0.008153879025047505
13.904,-0.008156090754996629
13.908,-0.008158206322774052
13.912,-0.008157533187572145
13.916,-0.008159576633720791
13.92,-0.008161283512268485
13.924,-0.008158446728203305
13.928,-0.008157388944314593
13.932,-0.008156162876625404
13.936,-0.00815664368748391
13.94,-0.008157701471372621
13.944,-0.00815897562014766
13.948,-0.008160009363493446
13.952,-0.008161884525841616
13.956,-0.008161980688013317
13.96,-0.0081602497689227
13.964,-0.008160177647293923
13.968,-0.00815541761979472
13.972,-0.008157437025400444
13.976,-0.008159504512092016
13.98,-0.008161091187925084
13.984,-0.008163976053076115
13.988,-0.008168159107545111
13.992,-0.008169673661749402
13.996,-0.008169793864464028
14.0,-0.00816952941849185
14.004,-0.008169625580663552
14.008000000000001,-0.008169505377948926
14.012,-0.008166860918227147
14.016,-0.008165298282937005
14.02,-0.00816363948547516
14.024000000000001,-0.008165706972166734
14.028,-0.008167966783201709
14.032,-0.00816811102645926
14.036,-0.008168303350802663
14.040000000000001,-0.008171572864640498
14.044,-0.008170106391522058
14.048,-0.008168159107545111
14.052,-0.008168639918403615
14.056000000000001,-0.008171957513327303
14.06,-0.00817094781052444
14.064,-0.008167894661572932
14.068,-0.008168712040032392
14.072000000000001,-0.008171693067355124
14.076,-0.008170995891610291
14.08,-0.008169817905006954
14.084,-0.008168255269716812
14.088000000000001,-0.008169817905006954
14.092,-0.008169216891433823
14.096,-0.008170827607809815
14.1,-0.008170418918580086
14.104000000000001,-0.008166067580310613
14.108,-0.008165226161308228
14.112,-0.0081671013236564
14.116,-0.008165682931623808
14.120000000000001,-0.008163326958417132
14.124,-0.008161836444755766
14.128,-0.008160634417609502
14.132,-0.008160057444579297
14.136000000000001,-0.008159576633720791
14.14,-0.008157172579428265
14.144,-0.00816080270140998
14.148,-0.008163879890904413
14.152000000000001,-0.008164697269363873
14.156,-0.008168279310259737
14.16,-0.00816760617505783
14.164,-0.008167510012886129
14.168000000000001,-0.008169625580663552
14.172,-0.008169168810347972
14.176,-0.008165586769452107
14.18,-0.008167534053429053
14.184000000000001,-0.008167630215600755
14.188,-0.008164192417962441
14.192,-0.008163615444932236
14.196,-0.008161571998783588
14.200000000000001,-0.008158206322774052
14.204,-0.008160177647293923
14.208,-0.008160009363493446
14.212,-0.008160898863581682
14.216000000000001,-0.008157677430829695
14.22,-0.00816171624204114
14.224,-0.008163110593530806
14.228,-0.008164192417962441
14.232000000000001,-0.008165057877507752
14.236,-0.008163783728732712
14.24,-0.0081603459310944
14.244,-0.008160995025753383
14.248000000000001,-0.008161091187925084
14.252,-0.00816222109344257
14.256,-0.008160490174351952
14.26,-0.008161788363669915
14.264000000000001,-0.008161091187925084
14.268,-0.008159817039150044
14.272,-0.008161932606927467
14.276,-0.00815902370123351
14.280000000000001,-0.008156739849655611
14.284,-0.008158542890375006
14.288,-0.008158735214718408
14.292,-0.008156763890198536
14.296000000000001,-0.008154648322421113
14.3,-0.008152845281701718
14.304,-0.008151114362611098
14.308,-0.008153157808759746
14.312000000000001,-0.008151859619441782
14.316,-0.00815344629527485
14.32,-0.008155850349567376
14.324,-0.008155249335994244
14.328000000000001,-0.0081556820657669
14.332,-0.008159600674263717
14.336,-0.008157533187572145
14.34,-0.008151547092383754
14.344,-0.008151378808583278
14.348,-0.00815248467355784
14.352,-0.008151354768040351
14.356,-0.008148998794833676
14.36,-0.008148758389404423
14.364,-0.008150128700351164
14.368,-0.008147676564972787
14.372,-0.008147676564972787
14.376,-0.008149431524606331
14.38,-0.008150152740894088
14.384,-0.00814613797022557
14.388,-0.008144383010592025
14.392,-0.008137363172057849
14.396,-0.008140127834494254
14.4,-0.008143878159190595
14.404,-0.008145440794480737
14.408,-0.008145657159367064
14.412,-0.008141954915756573
14.416,-0.00813481487450777
14.42,-0.00813623326654036
14.424,-0.008138973888433841
14.428,-0.008133684968990283
14.432,-0.008128900900948156
14.436,-0.00812426107616358
14.44,-0.008126280481769303
14.444,-0.008129093225291558
14.448,-0.008129670198321764
14.452,-0.00812435723833528
14.456,-0.008122241670557856
14.46,-0.008123611981504596
14.464,-0.00812353985987582
14.468,-0.008123347535532418
14.472,-0.008128035441402847
14.476,-0.00812887686040523
14.48,-0.008125198657337665
14.484,-0.0081194289270356
14.488,-0.008118226899889338
14.492,-0.008119957818979956
14.496,-0.008120390548752611
14.5,-0.008120318427123834
14.504,-0.00812034246766676
14.508000000000001,-0.008121472373184247
14.512,-0.008118707710747842
14.516,-0.008116544061884568
14.52,-0.008118948116177095
14.524000000000001,-0.00812024630549506
14.528,-0.008117457602515728
14.532,-0.008117337399801102
14.536,-0.00812221763001493
14.540000000000001,-0.008123563900418745
14.544,-0.00811938084594975
14.548,-0.008119813575722404
14.552,-0.008123275413903642
14.556000000000001,-0.008124188954534805
14.56,-0.008122409954358333
14.564,-0.008121832981328127
14.568,-0.00812577563036787
14.572000000000001,-0.008127482508915566
14.576,-0.008128083522488698
14.58,-0.008126112197968825
14.584,-0.008122433994901259
14.588000000000001,-0.008121496413727173
14.592,-0.00812344369770412
14.596,-0.008126641089913181
14.6,-0.00812527077896644
14.604000000000001,-0.008124910170822562
14.608,-0.008126208360140526
14.612,-0.00812471784647916
14.616,-0.008123587940961671
14.620000000000001,-0.008124405319421131
14.624,-0.00812349177878997
14.628,-0.008122385913815408
14.632,-0.008124044711277253
14.636000000000001,-0.00812563138711032
14.64,-0.0081260881574259
14.644,-0.008124645724850384
14.648,-0.008123876427476777
14.652000000000001,-0.008127121900771686
14.656,-0.008127242103486313
14.66,-0.008123876427476777
14.664,-0.008123924508562625
14.668000000000001,-0.00812695361697121
14.672,-0.0081259919952542
14.676,-0.00812344369770412
14.68,-0.008120823278525265
14.684000000000001,-0.008120053981151657
14.688,-0.008118731751290768
14.692,-0.008121231967754996
14.696,-0.008122866724673912
14.700000000000001,-0.008122794603045137
14.704,-0.008121953184042753
14.708,-0.008121400251555472
14.712,-0.008121857021871052
14.716000000000001,-0.008123876427476777
14.72,-0.008124982292451339
14.724,-0.008127795035973594
14.728,-0.008127795035973594
14.732000000000001,-0.008123347535532418
14.736,-0.008125463103309843
14.74,-0.008127194022400462
14.744,-0.008124525522135757
14.748000000000001,-0.008124188954534805
14.752,-0.008128203725203323
14.756,-0.008128636454975979
14.76,-0.008127194022400462
14.764000000000001,-0.008127338265658014
14.768,-0.008131809806642113
14.772,-0.00812928554963496
14.776,-0.008128997063119857
14.780000000000001,-0.008130920306553878
14.784,-0.008128997063119857
14.788,-0.008129934644293941
14.792,-0.008132290617500619
14.796000000000001,-0.008133564766275657
14.8,-0.008129622117235913
14.804,-0.008132098293157216
14.808,-0.008133204158131778
14.812000000000001,-0.00812974231995054
14.816,-0.008129718279407614
14.82,-0.00813380517170491
14.824,-0.008133204158131778
14.828000000000001,-0.008133204158131778
14.832,-0.008133156077045928
14.836,-0.008133252239217629
14.84,-0.008132242536414768
14.844000000000001,-0.008131689603927487
14.848,-0.00813161748229871
14.852,-0.008126713211541957
14.856,-0.008128035441402847
14.86,-0.008129453833435437
14.864,-0.008129477873978361
14.868,-0.008130920306553878
14.872,-0.008132362739129394
14.876,-0.008128588373890128
14.88,-0.008127795035973594
14.884,-0.008130006765922718
14.888,-0.008128396049546726
14.892,-0.008128131603574546
14.896,-0.008128997063119857
14.9,-0.0081283720090038
14.904,-0.008127843117059445
14.908,-0.008126689170999032
14.912,-0.008127819076516518
14.916,-0.008126304522312227
14.92,-0.00812649684665563
14.924,-0.00812481400865086
14.928,-0.008120270346037984
14.932,-0.008122001265128603
14.936,-0.008125823711453721
14.94,-0.00812572754928202
14.944,-0.008123563900418745
14.948,-0.008119597210836077
14.952,-0.00812216954892908
14.956,-0.008123107130103165
14.96,-0.008120510751467237
14.964,-0.008122962886845614
14.968,-0.008122193589472006
14.972,-0.008122073386757378
14.976,-0.008124068751820177
14.98,-0.008125967954711273
14.984,-0.008124405319421131
14.988,-0.008121808940785201
14.992,-0.00811897215672002
14.996,-0.008120654994724788
15.0,-0.008125439062766918
15.004,-0.008124333197792356
15.008000000000001,-0.008124188954534805
15.012,-0.008122385913815408
15.016,-0.00812125600829792
15.02,-0.008121832981328127
15.024000000000001,-0.008122337832729557
15.028,-0.008121929143499827
15.032,-0.008125439062766918
15.036,-0.0081259919952542
15.040000000000001,-0.00812476592756501
15.044,-0.008123107130103165
15.048,-0.008122193589472006
15.052,-0.008122746521959287
15.056000000000001,-0.008120438629838462
15.06,-0.008118948116177095
15.064,-0.008117409521429877
15.068,-0.008121063683954518
15.072000000000001,-0.008125487143852769
15.076,-0.008126016035797124
15.08,-0.008124237035620655
15.084,-0.00812353985987582
15.088000000000001,-0.008120198224409209
15.092,-0.008121448332641322
15.096,-0.008121159846126219
15.1,-0.008124237035620655
15.104000000000001,-0.0081260881574259
15.108,-0.008127097860228761
15.112,-0.008128323927917949
15.116,-0.008127795035973594
15.120000000000001,-0.008124862089736711
15.124,-0.008121905102956902
15.128,-0.008120390548752611
15.132,-0.008121328129926695
15.136000000000001,-0.008122289751643707
15.14,-0.008123780265305075
15.144,-0.008128948982034007
15.148,-0.008130583738952923
15.152000000000001,-0.008128251806289174
15.156,-0.008130078887551493
15.16,-0.008132002130985515
15.164,-0.008128083522488698
15.168000000000001,-0.008124549562678683
15.172,-0.008124597643764534
15.176,-0.008127314225115088
15.18,-0.0081259919952542
15.184000000000001,-0.008125390981681068
15.188,-0.008126689170999032
15.192,-0.008125198657337665
15.196,-0.008126016035797124
15.200000000000001,-0.008124501481592833
15.204,-0.008122554197615884
15.208,-0.008125366941138142
15.212,-0.008123395616618269
15.216000000000001,-0.008123419657161193
15.22,-0.008123900468019701
15.224,-0.008125366941138142
15.228,-0.008127554630544341
15.232000000000001,-0.00813060777949585
15.236,-0.008133420523018105
15.24,-0.008130920306553878
15.244,-0.00812176085969935
15.248000000000001,-0.00812075115689649
15.252,-0.008121929143499827
15.256,-0.008122025305671528
15.26,-0.008121111765040368
15.264000000000001,-0.008123203292274866
15.268,-0.008126520887198554
15.272,-0.008127097860228761
15.276,-0.008130006765922718
15.280000000000001,-0.008130727982210475
15.284,-0.008131016468725579
15.288,-0.008127891198145295
15.292,-0.008129477873978361
15.296000000000001,-0.008132290617500619
15.3,-0.008132771428359123
15.304,-0.008132098293157216
15.308,-0.00813152132012701
15.312000000000001,-0.008132771428359123
15.316,-0.008128155644117473
15.32,-0.008130078887551493
15.324,-0.008136738117941791
15.328000000000001,-0.008137483374772474
15.332,-0.008131954049899665
15.336,-0.008129982725379792
15.34,-0.008130078887551493
15.344000000000001,-0.008130727982210475
15.348,-0.008134598509621444
15.352,-0.008134334063649265
15.356,-0.008135944780025257
15.36,-0.008137291050429072
15.364,-0.00813517548265165
15.368,-0.008137291050429072
15.372,-0.008141714510327322
15.376,-0.008143397348332089
15.38,-0.008141858753584873
15.384,-0.00813623326654036
15.388,-0.008132963752702525
15.392,-0.008134550428535593
15.396,-0.008131449198498234
15.4,-0.008128396049546726
15.404,-0.008130752022753401
15.408,-0.0081328435499879
15.412,-0.008134213860934639
15.416,-0.008132675266187422
15.42,-0.00813156940121286
15.424,-0.00812923746854911
15.428,-0.008130247171351971
15.432,-0.008134285982563414
15.436,-0.008135031239394097
15.44,-0.008136257307083287
15.444,-0.008138132469431457
15.448,-0.008139190253320168
15.452,-0.008139887429065
15.456,-0.008133684968990283
15.46,-0.008131785766099187
15.464,-0.008130319292980746
15.468,-0.008130727982210475
15.472,-0.008127194022400462
15.476,-0.008128756657690604
15.48,-0.008131425157955308
15.484,-0.00813019909026612
15.488,-0.00813426194202049
15.492,-0.008133324360846404
15.496,-0.008132747387816198
15.5,-0.00813257910401572
15.504,-0.008132338698586468
15.508000000000001,-0.008132603144558647
15.512,-0.00813161748229871
15.516,-0.008124982292451339
15.52,-0.008120679035267713
15.524000000000001,-0.008119957818979956
15.528,-0.008120198224409209
15.532,-0.008120534792010163
15.536,-0.008118948116177095
15.540000000000001,-0.008119140440520497
15.544,-0.008118635589119067
15.548,-0.008121472373184247
15.552,-0.008121616616441799
15.556000000000001,-0.00811882791346247
15.56,-0.00812029438658091
15.564,-0.008121063683954518
15.568,-0.008120558832553087
15.572000000000001,-0.008120029940608732
15.576,-0.008117914372831308
15.58,-0.008118587508033216
15.584,-0.008117746089030832
15.588000000000001,-0.008120150143323358
15.592,-0.008120318427123834
15.596,-0.008120078021694581
15.6,-0.00812262631924466
15.604000000000001,-0.008121111765040368
15.608,-0.008124020670734327
15.612,-0.008125967954711273
15.616,-0.008124116832906028
15.620000000000001,-0.008123059049017315
15.624,-0.00812522269788059
15.628,-0.008127867157602369
15.632,-0.008123708143676297
15.636000000000001,-0.008121063683954518
15.64,-0.008122482075987108
15.644,-0.008122962886845614
15.648,-0.008125895833082498
15.652000000000001,-0.00812704977914291
15.656,-0.00812704977914291
15.66,-0.00812563138711032
15.664,-0.008125679468196171
15.668000000000001,-0.008123828346390926
15.672,-0.008122001265128603
15.676,-0.008122001265128603
15.68,-0.00811897215672002
15.684000000000001,-0.00811810669717471
15.688,-0.008119693373007778
15.692,-0.008120438629838462
15.696,-0.00811856346749029
15.700000000000001,-0.008115894967225586
15.704,-0.008111976358728769
15.708,-0.008113731318362313
15.712,-0.008110702209953729
15.716000000000001,-0.008109572304436242
15.72,-0.008107384615030043
15.724,-0.00810892320977726
15.728,-0.008108298155661203
15.732000000000001,-0.008105196925623843
15.736,-0.008104932479651666
15.74,-0.008102648628073765
15.744,-0.008105100763452142
15.748000000000001,-0.00810796158806025
15.752,-0.00811202443981462
15.756,-0.00811125514244101
15.76,-0.008107384615030043
15.764000000000001,-0.008106158547340855
15.768,-0.008102552465902066
15.772,-0.008100052249437838
15.776,-0.00810257650644499
15.780000000000001,-0.008102889033503018
15.784,-0.008106567236570585
15.788,-0.008103970857934656
15.792,-0.008102840952417168
15.796000000000001,-0.00810380257413418
15.8,-0.00810207165504356
15.804,-0.008101927411786008
15.808,-0.008105076722909218
15.812000000000001,-0.008102215898301112
15.816,-0.008103321763275674
15.82,-0.008105052682366292
15.824,-0.008104740155308264
15.828000000000001,-0.00810248034427329
15.832,-0.008105533493224798
15.836,-0.008105413290510172
15.84,-0.008101013871154849
15.844000000000001,-0.008099306992607155
15.848,-0.008101085992783624
15.852,-0.008101951452328934
15.856,-0.008102360141558664
15.860000000000001,-0.008106278750055481
15.864,-0.008109764628779645
15.868,-0.008110245439638149
15.872,-0.008112048480357544
15.876,-0.008108490480004605
15.88,-0.008102696709159616
15.884,-0.008105293087795545
15.888,-0.008101326398212877
15.892,-0.008101398519841653
15.896,-0.0081011581144124
15.9,-0.008101398519841653
15.904,-0.00810526904725262
15.908,-0.00810038881703879
15.912,-0.008102288019929887
15.916,-0.00810577389865405
15.92,-0.008103321763275674
15.924,-0.008101831249614307
15.928,-0.008103754493048329
15.932,-0.008107841385345623
15.936,-0.008107384615030043
15.94,-0.008107216331229567
15.944,-0.00810841835837583
15.948,-0.008107937547517324
15.952,-0.008108803007062633
15.956,-0.008108129871860726
15.96,-0.00810764906100222
15.964,-0.008111639791127815
15.968,-0.00811161575058489
15.972,-0.008113707277819387
15.976,-0.008120053981151657
15.98,-0.00812075115689649
15.984,-0.00812298692738854
15.988,-0.008118635589119067
15.992,-0.00812024630549506
15.996,-0.008123900468019701
16.0,-0.00812481400865086
16.004,-0.008123708143676297
16.008,-0.008124068751820177
16.012,-0.008123251373360717
16.016000000000002,-0.008123611981504596
16.02,-0.008125967954711273
16.024,-0.00812923746854911
16.028,-0.008127073819685835
16.032,-0.008126568968284405
16.036,-0.008128251806289174
16.04,-0.008131401117412384
16.044,-0.008129910603751017
16.048000000000002,-0.008129622117235913
16.052,-0.008129453833435437
16.056,-0.008127554630544341
16.06,-0.008127362306200939
16.064,-0.008129766360493465
16.068,-0.008135055279937024
16.072,-0.008135199523194575
16.076,-0.00813664195577009
16.080000000000002,-0.0081375074153154
16.084,-0.0081375074153154
16.088,-0.008133011833788376
16.092,-0.00813156940121286
16.096,-0.008134502347449743
16.1,-0.008137531455858325
16.104,-0.008139911469607927
16.108,-0.008142820375301884
16.112000000000002,-0.008140464402095208
16.116,-0.008139190253320168
16.12,-0.008139070050605542
16.124,-0.008137795901830502
16.128,-0.008138084388345606
