0.0,0.012338351886075958
0.004,0.012337270061644322
0.008,0.012335875710154657
0.012,0.012336380561556087
0.016,0.012331019520483754
0.02,0.012329120317592658
0.024,0.01233433711540744
0.028,0.012339433710507596
0.032,0.012341885845885973
0.036000000000000004,0.012340491494396307
0.04,0.012337221980558472
0.044,0.0123375345076165
0.048,0.012335178534409824
0.052000000000000005,0.012334817926265946
0.056,0.012333784182920159
0.06,0.012329168398678508
0.064,0.012314503667494097
0.068,0.012317989546218261
0.07200000000000001,0.012326908587643534
0.076,0.012327942330989319
0.08,0.012327822128274693
0.084,0.012334529439750842
0.088,0.012334457318122065
0.092,0.012329649209537013
0.096,0.012330105979852592
0.1,0.012327148993072785
0.10400000000000001,0.012328783749991704
0.108,0.012325971006469448
0.112,0.012326187371355775
0.116,0.0123306829528828
0.12,0.01232936072302191
0.124,0.01232981749333749
0.128,0.012330971439397903
0.132,0.012331067601569604
0.136,0.012334457318122065
0.14,0.012337197940015546
0.14400000000000002,0.012334505399207916
0.148,0.012330971439397903
0.152,0.012312123653744496
0.156,0.012304262396207934
0.16,0.01231931177607915
0.164,0.012326187371355775
0.168,0.012328110614789797
0.17200000000000001,0.012334096709978187
0.176,0.012336837331871667
0.18,0.012331981142200764
0.184,0.01232758172284544
0.188,0.012326043128098223
0.192,0.012328519304019526
0.196,0.012327245155244486
0.2,0.01232712495252986
0.20400000000000001,0.012329529006822387
0.20800000000000002,0.012325730601040195
0.212,0.012326740303843056
0.216,0.012326644141671355
0.22,0.012333255290975802
0.224,0.012336380561556087
0.228,0.012332774480117298
0.232,0.012331380128627632
0.23600000000000002,0.012329913655509192
0.24,0.012324961303666587
0.244,0.012321667749285826
0.248,0.012327798087731767
0.252,0.012331812858400288
0.256,0.012328687587820002
0.26,0.012330947398854977
0.264,0.012331981142200764
0.268,0.012327197074158636
0.272,0.012326259492984552
0.276,0.012325682519954344
0.28,0.012325418073982167
0.28400000000000003,0.012319840668023507
0.28800000000000003,0.012296136692699196
0.292,0.01229820417939077
0.296,0.012312652545688852
0.3,0.012323398668376446
0.304,0.012324744938780259
0.308,0.012327870209360544
0.312,0.01232748556067374
0.316,0.012324768979323185
0.32,0.012323494830548145
0.324,0.012326740303843056
0.328,0.012322124519601406
0.332,0.012315922059526687
0.336,0.012318975208478196
0.34,0.012323446749462296
0.34400000000000003,0.01232337462783352
0.34800000000000003,0.012322797654803314
0.352,0.012323446749462296
0.356,0.012324817060409035
0.36,0.012325538276696793
0.364,0.012323206344033043
0.368,0.012323158262947193
0.372,0.012325634438868494
0.376,0.012314816194552125
0.38,0.012303180571776299
0.384,0.01231387861337804
0.388,0.012324480492808081
0.392,0.012327653844474217
0.396,0.012324672817151484
0.4,0.012325490195610942
0.404,0.012324696857694408
0.40800000000000003,0.012325177668552914
0.41200000000000003,0.012326764344385982
0.41600000000000004,0.012325177668552914
0.42,0.012317628938074381
0.424,0.012317869343503634
0.428,0.012321018654626844
0.432,0.012322292803401882
0.436,0.01232484110095196
0.44,0.012326499898413803
0.444,0.012326644141671355
0.448,0.012325418073982167
0.452,0.012322941898060864
0.456,0.012319600262594254
0.46,0.012318758843591869
0.464,0.012320129154538608
0.468,0.01231611438387009
0.47200000000000003,0.012322677452088687
0.47600000000000003,0.012324264127921754
0.48,0.012321884114172153
0.484,0.012318446316533841
0.488,0.012315417208125257
0.492,0.01231784530296071
0.496,0.012321283100599021
0.5,0.012323398668376446
0.504,0.012322364925030659
0.508,0.012318037627304112
0.512,0.012296665584643552
0.516,0.012295848206184092
0.52,0.01231108991039871
0.524,0.012319840668023507
0.528,0.012321523506028274
0.532,0.012323639073805697
0.536,0.01232241300611651
0.54,0.01232118693842732
0.544,0.01232149946548535
0.548,0.012324216046835904
0.552,0.012327966371532245
0.556,0.01232250916828821
0.56,0.012320345519424937
0.5640000000000001,0.012326860506557683
0.5680000000000001,0.012331764777314437
0.5720000000000001,0.012334361155950364
0.5760000000000001,0.01233383226400601
0.58,0.012334000547806485
0.584,0.012331283966455931
0.588,0.012331764777314437
0.592,0.012332389831430493
0.596,0.012336476723727789
0.6,0.012336428642641938
0.604,0.012332269628715867
0.608,0.012333279331518728
0.612,0.012337919156303303
0.616,0.012336957534586293
0.62,0.012338015318475004
0.624,0.012339193305078343
0.628,0.012340010683537801
0.632,0.012340467453853381
0.636,0.012339145223992492
0.64,0.012337173899472621
0.644,0.012323062100775491
0.648,0.012296280935956748
0.652,0.012302098747344661
0.656,0.012319936830195206
0.66,0.012350492360253217
0.664,0.012381793147141912
0.668,0.012407805014587046
0.672,0.012429177057247606
0.676,0.012438360544645055
0.68,0.012433913044203881
0.684,0.012419536799534574
0.6880000000000001,0.012396698283755574
0.6920000000000001,0.012357776644759571
0.6960000000000001,0.012338640372591062
0.7000000000000001,0.012331308006998856
0.704,0.012326644141671355
0.708,0.012327750006645917
0.712,0.012329072236506807
0.716,0.012322292803401882
0.72,0.0123217398709146
0.724,0.01232657202004258
0.728,0.01232707687144401
0.732,0.012322172600687256
0.736,0.01230524805846787
0.74,0.012297098314416206
0.744,0.012311210113113336
0.748,0.012318157830018737
0.752,0.0123239275603208
0.756,0.01232758172284544
0.76,0.012328783749991704
0.764,0.012329577087908238
0.768,0.012326860506557683
0.772,0.012325490195610942
0.776,0.012325490195610942
0.78,0.012320970573540993
0.784,0.012319167532821598
0.788,0.012320369559967861
0.792,0.012321451384399499
0.796,0.012318927127392345
0.8,0.012319888749109355
0.804,0.012318662681420168
0.808,0.012316474992013968
0.812,0.012314022856635591
0.8160000000000001,0.012317725100246082
0.8200000000000001,0.012319888749109355
0.8240000000000001,0.012313638207948788
0.8280000000000001,0.012307772315475024
0.8320000000000001,0.012310464856282653
0.836,0.012311354356370888
0.84,0.012317725100246082
0.844,0.012318278032733363
0.848,0.012323086141318416
0.852,0.012324456452265157
0.856,0.012325562317239719
0.86,0.01232565847941142
0.864,0.012327653844474217
0.868,0.012329384763564835
0.872,0.012329408804107761
0.876,0.012325778682126046
0.88,0.012322797654803314
0.884,0.012315633573011586
0.888,0.012298156098304919
0.892,0.012306498166699984
0.896,0.012318734803048943
0.9,0.01232387947923495
0.904,0.01232885587162048
0.908,0.012326908587643534
0.912,0.012320081073452758
0.916,0.01231972046530888
0.92,0.012323735235977398
0.924,0.012326403736242103
0.928,0.012322605330459912
0.932,0.012316282667670566
0.936,0.012320008951823983
0.9400000000000001,0.012322677452088687
0.9440000000000001,0.012323807357606175
0.9480000000000001,0.012323494830548145
0.9520000000000001,0.012323518871091071
0.9560000000000001,0.012321162897884395
0.96,0.012319383897707925
0.964,0.01232529787126754
0.968,0.012328976074335106
0.972,0.012325562317239719
0.976,0.012308060801990126
0.98,0.012304815328695217
0.984,0.012316715397443221
0.988,0.012325009384752438
0.992,0.012330370425824771
0.996,0.012329697290622863
1.0,0.012327221114701562
1.004,0.012332389831430493
1.008,0.01233311104771825
1.012,0.01233388034509186
1.016,0.012332269628715867
1.02,0.012323855438692025
1.024,0.012323158262947193
1.028,0.012322701492631613
1.032,0.012324456452265157
1.036,0.012325321911810466
1.04,0.01232484110095196
1.044,0.01232301401968964
1.048,0.012320153195081535
1.052,0.012319239654450375
1.056,0.012319239654450375
1.06,0.012320393600510788
1.064,0.012315681654097434
1.068,0.01231387861337804
1.072,0.012320922492455142
1.076,0.012318710762506018
1.08,0.012319960870738132
1.084,0.012319480059879626
1.088,0.012321210978970246
1.092,0.012319504100422552
1.096,0.012314671951294574
1.1,0.012308589693934483
1.104,0.01230373350426358
1.108,0.01229793973341859
1.112,0.012279308312651512
1.116,0.012285751178155483
1.12,0.01229971873359506
1.124,0.012303853706978205
1.1280000000000001,0.012307315545159443
1.1320000000000001,0.012310609099540204
1.1360000000000001,0.012314720032380424
1.1400000000000001,0.012317677019160232
1.1440000000000001,0.012318470357076765
1.1480000000000001,0.012314792154009201
1.1520000000000001,0.0123146959918375
1.156,0.012309190707507614
1.16,0.012311739005057692
1.164,0.012313397802519535
1.168,0.01231291699166103
1.172,0.012315080640524303
1.176,0.012318278032733363
1.18,0.012320201276167385
1.184,0.012319504100422552
1.188,0.01232438433063638
1.192,0.012328423141847825
1.196,0.012326427776785028
1.2,0.012318710762506018
1.204,0.0123217398709146
1.208,0.012326523938956729
1.212,0.012323086141318416
1.216,0.012324408371179306
1.22,0.012324023722492502
1.224,0.012324456452265157
1.228,0.01232657202004258
1.232,0.012328254858047349
1.236,0.01232748556067374
1.24,0.012324312209007605
1.244,0.012313037194375657
1.248,0.012297915692875666
1.252,0.012309503234565642
1.256,0.01231738853264513
1.26,0.012314167099893143
1.264,0.012306209680184881
1.268,0.012298492665905872
1.272,0.012301209247256428
1.276,0.012321860073629228
1.28,0.012351886711742881
1.284,0.012387755201787377
1.288,0.012416531731668916
1.292,0.012428311597702295
1.296,0.012427566340871613
1.3,0.012420834988852538
1.304,0.012403549838489274
1.308,0.012374532903178482
1.312,0.012345395765153061
1.316,0.012328014452618096
1.32,0.012316595194728596
1.324,0.01231246022134545
1.328,0.012312820829489328
1.332,0.012307267464073592
1.336,0.012283900056350237
1.34,0.012284501069923369
1.344,0.012296256895413823
1.348,0.012305873112583928
1.352,0.012307267464073592
1.356,0.012303180571776299
1.36,0.012300223584996491
1.364,0.012301641977029081
1.368,0.012304046031321608
1.372,0.012307964639818425
1.3760000000000001,0.012306858774843863
1.3800000000000001,0.012301978544630035
1.3840000000000001,0.012301521774314456
1.3880000000000001,0.012304959571952767
1.3920000000000001,0.012302098747344661
1.3960000000000001,0.012298805192963901
1.4000000000000001,0.012299021557850228
1.4040000000000001,0.012298733071335125
1.408,0.012296280935956748
1.412,0.01229820417939077
1.416,0.012305127855753245
1.42,0.01230693089647264
1.424,0.012293203746462315
1.428,0.012293468192434492
1.432,0.01230149773377153
1.436,0.012300512071511595
1.44,0.012297266598216684
1.444,0.012299286003822405
1.448,0.012300295706625266
1.452,0.012300800558026697
1.456,0.012300343787711117
1.46,0.012299093679479003
1.464,0.012300824598569623
1.468,0.012290679489455161
1.472,0.012272649082261214
1.476,0.012279692961338316
1.48,0.01229017463805373
1.484,0.012294141327636399
1.488,0.012295126989896335
1.492,0.012293179705919388
1.496,0.012291280503028293
1.5,0.01229190555714435
1.504,0.012291761313886799
1.508,0.01229104009759904
1.512,0.012288996651450394
1.516,0.01228601562412766
1.52,0.01228866008384944
1.524,0.012289237056879645
1.528,0.01229053524619761
1.532,0.012292386368002855
1.536,0.01229190555714435
1.54,0.012292578692346257
1.544,0.012289645746109376
1.548,0.012291568989543396
1.552,0.01229459809795198
1.556,0.012288275435162635
1.56,0.012280750745227028
1.564,0.012284573191552144
1.568,0.01228774654321828
1.572,0.01229063140836931
1.576,0.012295319314239737
1.58,0.012290967975970265
1.584,0.01229236232745993
1.588,0.012293588395149118
1.592,0.012291593030086322
1.596,0.012290559286740535
1.6,0.012289693827195226
1.604,0.012274476163523534
1.608,0.012270605636112566
1.612,0.012283250961691255
1.616,0.012293083543747687
1.62,0.012297170436044983
1.624,0.012295151030439261
1.6280000000000001,0.012297026192787431
1.6320000000000001,0.012300488030968669
1.6360000000000001,0.012300920760741324
1.6400000000000001,0.01229875711187805
1.6440000000000001,0.012298132057761993
1.6480000000000001,0.01229428557089395
1.6520000000000001,0.012297603165817638
1.6560000000000001,0.012300800558026697
1.6600000000000001,0.012297771449618114
1.6640000000000001,0.01229839650373417
1.668,0.012297699327989338
1.672,0.012292290205831153
1.676,0.012292602732889183
1.68,0.012298011855047367
1.684,0.012296377098128449
1.688,0.012292963341033062
1.692,0.01228774654321828
1.696,0.012270148865796986
1.7,0.012275245460897142
1.704,0.012281183474999683
1.708,0.012288948570364543
1.712,0.01229479042229538
1.716,0.012297795490161039
1.72,0.012296304976499674
1.724,0.012291785354429723
1.728,0.012289934232624478
1.732,0.012290342921854209
1.736,0.012294766381752456
1.74,0.012289765948824001
1.744,0.012291977678773125
1.748,0.012291472827371695
1.752,0.012293588395149118
1.756,0.012293227787005239
1.76,0.012294213449265175
1.764,0.0122942374898081
1.768,0.0122918574760585
1.772,0.012291232421942442
1.776,0.012290150597510806
1.78,0.012291280503028293
1.784,0.012288059070276308
1.788,0.012288732205478214
1.792,0.01228962170556645
1.796,0.01228870816493529
1.8,0.012288107151362158
1.804,0.012285751178155483
1.808,0.012280726704684103
1.812,0.012275846474470274
1.816,0.01227591859609905
1.82,0.012279548718080764
1.824,0.01227998144785342
1.828,0.012269403608966303
1.832,0.01225440231018094
1.836,0.012264835905810503
1.84,0.012273875149950403
1.844,0.01228404429960779
1.848,0.012284212583408265
1.852,0.012283347123862956
1.856,0.012286231989013987
1.86,0.012286664718786642
1.864,0.012285390570011604
1.868,0.012286592597157867
1.872,0.012283491367120508
1.8760000000000001,0.01228459723209507
1.8800000000000001,0.012289862110995703
1.8840000000000001,0.012289862110995703
1.8880000000000001,0.012288852408192842
1.8920000000000001,0.01228820331353386
1.8960000000000001,0.012290030394796179
1.9000000000000001,0.012290775651626862
1.9040000000000001,0.012287626340503652
1.9080000000000001,0.012290415043482984
1.9120000000000001,0.012294453854694428
1.9160000000000001,0.012293179705919388
1.92,0.012284933799696024
1.924,0.012286953205301746
1.928,0.012292626773432107
1.932,0.012293997084378849
1.936,0.012292626773432107
1.94,0.012292001719316051
1.944,0.012290679489455161
1.948,0.01229007847588203
1.952,0.012290727570541012
1.956,0.012290871813798563
1.96,0.012287626340503652
1.964,0.012268898757564872
1.968,0.012264355094951999
1.972,0.012269403608966303
1.976,0.012267191879017179
1.98,0.012265292676126083
1.984,0.012267985216933713
1.988,0.012284717434809696
1.992,0.012315513370296958
1.996,0.012348472954647494
2.0,0.012371888443456703
2.004,0.012386865701699142
2.008,0.012383307701346203
2.012,0.012374364619378004
2.016,0.012355468752638746
2.02,0.012328014452618096
2.024,0.012301978544630035
2.028,0.012287217651273923
2.032,0.012277889920618922
2.036,0.012276038798813676
2.04,0.012278683258535456
2.044,0.01228089498848458
2.048,0.012279404474823213
2.052,0.012269644014395556
2.056,0.012250555823312897
2.06,0.012258441121392384
2.064,0.012267720770961535
2.068,0.012274235758094281
2.072,0.0122782505287628
2.076,0.012279236191022736
2.08,0.012278779420707157
2.084,0.012277817798990145
2.088,0.012277649515189669
2.092,0.012276134960985377
2.096,0.01227267312280414
2.1,0.012269692095481406
2.104,0.01227221635248856
2.108,0.012273490501263598
2.112,0.01227418767700843
2.116,0.012273803028321626
2.12,0.012274524244609385
2.124,0.012278851542335932
2.128,0.012282048934544992
2.132,0.012278418812563276
2.136,0.012274716568952787
2.14,0.012273851109407477
2.144,0.012270629676655492
2.148,0.012269163203537051
2.152,0.012271086446971072
2.156,0.012272697163347064
2.16,0.012276255163700003
2.164,0.012277048501616537
2.168,0.01227728890704579
2.172,0.012271567257829578
2.176,0.012267480365532282
2.18,0.012268994919736573
2.184,0.01227312989311972
2.188,0.012255964945471081
2.192,0.012242598403604634
2.196,0.01224887298530813
2.2,0.01225642171578666
2.204,0.012265340757211933
2.208,0.012264066608436895
2.212,0.012256205350900334
2.216,0.012257263134789045
2.22,0.012263056905634034
2.224,0.012265629243727037
2.228,0.012268490068335143
2.232,0.012264619540924176
2.236,0.01226546095992656
2.24,0.012268874717021948
2.244,0.012270317149597464
2.248,0.012271254730771548
2.2520000000000002,0.012273490501263598
2.2560000000000002,0.012274404041894758
2.2600000000000002,0.012271831703801755
2.2640000000000002,0.012269283406251677
2.2680000000000002,0.012267480365532282
2.2720000000000002,0.012265677324812888
2.2760000000000002,0.012265220554497308
2.2800000000000002,0.012266494703272346
2.2840000000000003,0.012269956541453585
2.2880000000000003,0.012275173339268367
2.2920000000000003,0.012271110487513998
2.2960000000000003,0.012271999987602231
2.3000000000000003,0.012272048068688082
2.3040000000000003,0.012270797960455968
2.308,0.01227409151483673
2.312,0.012276038798813676
2.316,0.012273033730948018
2.32,0.012270413311769165
2.324,0.012251926134259638
2.328,0.012253248364120527
2.332,0.01226490802743928
2.336,0.012269163203537051
2.34,0.012272312514660261
2.344,0.012272072109231008
2.348,0.01227560606904102
2.352,0.012279308312651512
2.356,0.01227993336676757
2.36,0.012281135393913832
2.364,0.012278899623421782
2.368,0.012272048068688082
2.372,0.012269764217110183
2.376,0.012274404041894758
2.38,0.012280366096540223
2.384,0.0122805343803407
2.388,0.012278923663964708
2.392,0.01227413959592258
2.396,0.012271927865973456
2.4,0.01227550990686932
2.404,0.01227505313655374
2.408,0.012271615338915428
2.412,0.012255964945471081
2.416,0.0122394250519385
2.42,0.012253320485749302
2.424,0.01226582156807044
2.428,0.012272048068688082
2.432,0.012272913528233393
2.436,0.012273971312122104
2.44,0.012278058204419398
2.444,0.012279885285681719
2.448,0.012281015191199205
2.452,0.012281375799343085
2.456,0.012277553353017967
2.46,0.01227144705511495
2.464,0.012274283839180132
2.468,0.012276808096187284
2.472,0.012279188109936886
2.476,0.012279885285681719
2.48,0.012278683258535456
2.484,0.012280414177626073
2.488,0.012283563488749283
2.492,0.012284452988837518
2.496,0.012284020259064863
2.5,0.012282577826489349
2.504,0.012279692961338316
2.508,0.012281183474999683
2.512,0.012279019826136408
2.516,0.01227728890704579
2.52,0.012274067474293805
2.524,0.012270677757741343
2.528,0.012270653717198416
2.532,0.012270052703625285
2.536,0.012269163203537051
2.54,0.012270797960455968
2.544,0.012272504839003662
2.548,0.01226221548663165
2.552,0.01226363387866424
2.556,0.012266662987072824
2.56,0.012268994919736573
2.564,0.012272096149773933
2.568,0.012274043433750879
2.572,0.012272528879546588
2.576,0.012273610703978224
2.58,0.012272745244432915
2.584,0.012272865447147542
2.588,0.01227272120388999
2.592,0.012261927000116546
2.596,0.012256902526645167
2.6,0.01226687935195915
2.604,0.012265557122098262
2.608,0.012272793325518765
2.612,0.012276447488043405
2.616,0.012276038798813676
2.62,0.012274884852753264
2.624,0.012273514541806524
2.628,0.012270773919913044
2.632,0.012273754947235775
2.636,0.012272120190316859
2.64,0.012270052703625285
2.644,0.012272360595746112
2.648,0.012274956974382039
2.652,0.01227171150108713
2.656,0.012266711068158674
2.66,0.012264114689522746
2.664,0.012266494703272346
2.668,0.01226586964915629
2.672,0.012266061973499692
2.676,0.012263393473234987
2.68,0.01225221462077474
2.684,0.0122257219424711
2.688,0.012224255469352659
2.692,0.01223750180850448
2.696,0.012258633445735785
2.7,0.012290775651626862
2.704,0.012324817060409035
2.708,0.012351189535998048
2.712,0.012371888443456703
2.716,0.012371359551512346
2.72,0.012361022118054484
2.724,0.012348809522248448
2.728,0.012317100046130026
2.732,0.012292434449088705
2.736,0.012279019826136408
2.74,0.012266951473587927
2.744,0.012260172040483002
2.748,0.012256493837415438
2.7520000000000002,0.012256854445559316
2.7560000000000002,0.01225445039126679
2.7600000000000002,0.012257671824018775
2.7640000000000002,0.012257287175331972
2.7680000000000002,0.012251998255888413
2.7720000000000002,0.012234737146068073
2.7760000000000002,0.012225577699213548
2.7800000000000002,0.01223718928144645
2.7840000000000003,0.012245988120157097
2.7880000000000003,0.012246973782417033
2.7920000000000003,0.012246036201242948
2.7960000000000003,0.012243055173920214
2.8000000000000003,0.012242742646862186
2.8040000000000003,0.01224298305229144
2.8080000000000003,0.012240554957455987
2.8120000000000003,0.012237742213933731
2.816,0.012234184213580792
2.82,0.01223435249738127
2.824,0.012235963213757263
2.828,0.012235626646156308
2.832,0.012236371902986992
2.836,0.012237333524704002
2.84,0.012236564227330394
2.844,0.012242382038718308
2.848,0.01224394467400845
2.852,0.012243319619892393
2.856,0.012242357998175381
2.86,0.012241204052114969
2.864,0.012237309484161078
2.868,0.012237670092304956
2.872,0.012239761619539455
2.876,0.012240434754741361
2.88,0.012242213754917831
2.884,0.012238679795107817
2.888,0.012236948876017197
2.892,0.012234665024439298
2.896,0.012236708470587946
2.9,0.01224211759274613
2.904,0.012240578997998913
2.908,0.01223668443004502
2.912,0.012239304849223875
2.916,0.012242093552203204
2.92,0.012241829106231027
2.924,0.012239184646509247
2.928,0.012236852713845498
2.932,0.01223815090316346
2.936,0.01224156466025885
2.94,0.012239569295196052
2.944,0.012240723241256465
2.948,0.012244064876723077
2.952,0.01222627487495838
2.956,0.012209903265226276
2.96,0.012224543955867763
2.964,0.012236612308416245
2.968,0.012243632146950421
2.972,0.01224769499870479
2.976,0.012245964079614171
2.98,0.012248368133906697
2.984,0.012251108755800178
2.988,0.012249257633994932
2.992,0.012249305715080783
2.996,0.01224211759274613
3.0,0.012236828673302572
3.004,0.01224759883653309
3.008,0.012247911363591117
3.012,0.01224572367418492
3.016,0.012249161471823231
3.02,0.012250724107113375
3.024,0.012249978850282691
3.028,0.012249594201595887
3.032,0.012251589566658684
3.036,0.012249522079967112
3.04,0.012244545687581581
3.044,0.012240506876370138
3.048,0.012246829539159482
3.052,0.012253320485749302
3.056,0.012256181310357408
3.06,0.012256133229271559
3.064,0.012255700499498904
3.068,0.012254786958867744
3.072,0.012255099485925772
3.076,0.012255700499498904
3.08,0.012251829972087937
3.084,0.012247622877076016
3.088,0.012241829106231027
3.092,0.012248368133906697
3.096,0.012250916431456775
3.1,0.012251036634171403
3.104,0.012250844309828
3.108,0.01225221462077474
3.112,0.012252118458603039
3.116,0.012254378269638013
3.12,0.012255123526468696
3.124,0.012253897458779509
3.128,0.012252022296431337
3.132,0.012231924402545818
3.136,0.012223053442206396
3.14,0.012237020997645974
3.144,0.01224577175527077
3.148,0.012254137864208762
3.152,0.01225632555361496
3.156,0.012257263134789045
3.16,0.01225637363470081
3.164,0.012256445756329587
3.168,0.012252815634347871
3.172,0.012251397242315281
3.176,0.012247791160876492
3.18,0.012249185512366157
3.184,0.012252959877605423
3.188,0.012252887755976648
3.192,0.012259330621480618
3.196,0.012259090216051366
3.2,0.012254642715610192
3.204,0.012253801296607808
3.208,0.01225175785045916
3.212,0.012249233593452008
3.216,0.012250507742227046
3.22,0.012244521647038657
3.224,0.012242959011748513
3.228,0.01224932975562371
3.232,0.01224531498495519
3.236,0.012246805498616556
3.24,0.01224663721481608
3.244,0.012250772188199224
3.248,0.012253007958691274
3.2520000000000002,0.012253897458779509
3.2560000000000002,0.01225276755326202
3.2600000000000002,0.012251180877428955
3.2640000000000002,0.01224673337698778
3.2680000000000002,0.012227669226448046
3.2720000000000002,0.012234088051409091
3.2760000000000002,0.012244353363238179
3.2800000000000002,0.01224957016105296
3.2840000000000003,0.01225033945842657
3.2880000000000003,0.012252599269461545
3.2920000000000003,0.012251733809916236
3.2960000000000003,0.01225033945842657
3.3000000000000003,0.012247069944588735
3.3040000000000003,0.012244305282152328
3.3080000000000003,0.01224769499870479
3.3120000000000003,0.012248271971734998
3.3160000000000003,0.012249546120510036
3.3200000000000003,0.012248175809563297
3.3240000000000003,0.012250147134083168
3.3280000000000003,0.012252334823489367
3.332,0.012255604337327202
3.336,0.012255724540041828
3.34,0.01225546009406965
3.344,0.012254666756153117
3.348,0.012258585364649934
3.352,0.012263369432692062
3.356,0.012259835472882048
3.36,0.012259835472882048
3.364,0.012261157702742938
3.368,0.01226322518943451
3.372,0.012268466027792219
3.376,0.012269595933309705
3.38,0.012266230257300169
3.384,0.012264715703095877
3.388,0.012265196513954382
3.392,0.012263297311063287
3.396,0.01226130194600049
3.4,0.012253152201948826
3.404,0.01223791049773421
3.408,0.012249690363767588
3.412,0.012257166972617344
3.416,0.012264763784181728
3.42,0.012267191879017179
3.424,0.012266158135671393
3.428,0.012267312081731806
3.432,0.012266999554673776
3.436,0.012264427216580774
3.44,0.012257575661847073
3.444,0.012254065742579985
3.448,0.012244353363238179
3.452,0.012247214187846285
3.456,0.012269956541453585
3.46,0.012298588828077573
3.464,0.012325033425295362
3.468,0.012350852968397096
3.472,0.01236347425343286
3.476,0.012363233848003608
3.48,0.012356550577070382
3.484,0.012342366656744477
3.488,0.012315922059526687
3.492,0.012288539881134814
3.496,0.012276615771843882
3.5,0.012266807230330376
3.504,0.012263032865091108
3.508,0.012264307013866148
3.512,0.012264307013866148
3.516,0.012262744378576006
3.52,0.012266278338386019
3.524,0.012265100351782682
3.528,0.012264883986896354
3.532,0.01226459550038125
3.536,0.012257383337503671
3.54,0.012236660389502095
3.544,0.012239977984425781
3.548,0.012252815634347871
3.552,0.012257046769902719
3.556,0.012257816067276326
3.56,0.012256157269814483
3.564,0.012256662121215914
3.568,0.012259763351253273
3.572,0.012263153067805736
3.576,0.012261854878487771
3.58,0.012256854445559316
3.584,0.012253344526292228
3.588,0.012257864148362177
3.592,0.012262071243374098
3.596,0.012262383770432126
3.6,0.012262023162288247
3.604,0.0122599797161396
3.608,0.012257263134789045
3.612,0.012262071243374098
3.616,0.012263080946176959
3.62,0.012264619540924176
3.624,0.012265268635583158
3.628,0.01226322518943451
3.632,0.012263201148891586
3.636,0.012263898324636419
3.64,0.012262455892060903
3.644,0.012263441554320837
3.648,0.01225673424284469
3.652,0.012232886024262828
3.656,0.012237069078731825
3.66,0.012247959444676968
3.664,0.012254979283211145
3.668,0.01225490716158237
3.672,0.01224887298530813
3.676,0.01224892106639398
3.68,0.012253152201948826
3.684,0.012252791593804947
3.688,0.012254330188552164
3.692,0.012253657053350256
3.696,0.012253104120862975
3.7,0.012258417080849458
3.704,0.012260893256770761
3.708,0.012257936269990954
3.712,0.012257239094246121
3.716,0.012257767986190476
3.72,0.012261951040659472
3.724,0.012263874284093493
3.728,0.012265581162641186
3.732,0.01226459550038125
3.736,0.012265509041012411
3.74,0.012264210851694447
3.744,0.012260869216227835
3.748,0.012262912662376483
3.7520000000000002,0.012265220554497308
3.7560000000000002,0.012267552487161059
3.7600000000000002,0.012264835905810503
3.7640000000000002,0.01224932975562371
3.7680000000000002,0.012251156836886028
3.7720000000000002,0.012259282540394767
3.7760000000000002,0.012267384203360581
3.7800000000000002,0.012269884419824809
3.7840000000000003,0.012261999121745323
3.7880000000000003,0.012251325120686506
3.7920000000000003,0.012256157269814483
3.7960000000000003,0.012262143365002875
3.8000000000000003,0.012267119757388404
3.8040000000000003,0.012267384203360581
3.8080000000000003,0.012259787391796197
3.8120000000000003,0.01226043648645518
3.8160000000000003,0.012263730040835941
3.8200000000000003,0.012263898324636419
3.8240000000000003,0.012267143797931328
3.8280000000000003,0.012264980149068055
3.8320000000000003,0.012260965378399536
3.8360000000000003,0.01226449933820955
3.84,0.01226322518943451
3.844,0.012262792459661855
3.848,0.012263104986719885
3.852,0.01225911425659429
3.856,0.012259931635053749
3.86,0.01226267225694723
3.864,0.012263056905634034
3.868,0.012264355094951999
3.872,0.012263465594863764
3.876,0.012262600135318455
3.88,0.012265148432868533
3.884,0.012267528446618133
3.888,0.012269211284622902
3.892,0.012267552487161059
3.896,0.012264523378752475
3.9,0.012245290944412264
3.904,0.012250676026027524
3.908,0.012257551621304149
3.912,0.012265581162641186
3.916,0.012269884419824809
3.92,0.012266061973499692
3.924,0.012266398541100645
3.928,0.012268850676479022
3.932,0.012269668054938482
3.936,0.012270245027968687
3.94,0.012267119757388404
3.944,0.0122644512571237
3.948,0.012265196513954382
3.952,0.012267480365532282
3.956,0.012269956541453585
3.96,0.012271374933486175
3.964,0.012268321784534667
3.968,0.012268586230506844
3.972,0.01227312989311972
3.976,0.01227500505546789
3.98,0.012276303244785854
3.984,0.012274620406781086
3.988,0.012273610703978224
3.992,0.01227510121763959
3.996,0.012275485866326395
4.0,0.012273370298548972
4.0040000000000004,0.01227144705511495
4.008,0.012266614905986973
4.0120000000000005,0.012248320052820848
4.016,0.012252935837062499
4.0200000000000005,0.012261325986543415
4.024,0.012266687027615748
4.0280000000000005,0.012270629676655492
4.032,0.012267191879017179
4.0360000000000005,0.01226906704136535
4.04,0.012269043000822424
4.0440000000000005,0.012269235325165826
4.048,0.012273442420177747
4.0520000000000005,0.012269547852223854
4.056,0.01226459550038125
4.0600000000000005,0.012267215919560105
4.064,0.012270870082084745
4.0680000000000005,0.012271567257829578
4.072,0.012271543217286652
4.0760000000000005,0.012270918163170596
4.08,0.012262503973146753
4.0840000000000005,0.012258465161935309
4.088,0.012259811432339124
4.0920000000000005,0.012264307013866148
4.096,0.012261133662200012
4.1,0.012240771322342315
4.104,0.012233607240550587
4.108,0.012249353796166634
4.112,0.012256205350900334
4.116,0.012262552054232604
4.12,0.012258224756506056
4.124,0.01225719101316027
4.128,0.012265316716669009
4.132,0.012270797960455968
4.136,0.012270293109054538
4.14,0.01226906704136535
4.144,0.01226810541964834
4.148,0.01227190382543053
4.152,0.012275726271755648
4.156,0.012275197379811292
4.16,0.012271927865973456
4.164,0.012272841406604616
4.168,0.012274163636465506
4.172,0.012275774352841499
4.176,0.012275726271755648
4.18,0.012274740609495712
4.184,0.012270966244256446
4.188,0.012266927433045001
4.192,0.012269812298196034
4.196,0.012271543217286652
4.2,0.012277721636818445
4.204,0.012279909326224643
4.208,0.01227500505546789
4.212,0.012267937135847862
4.216,0.012272552920089512
4.22,0.012275125258182517
4.224,0.012275894555556124
4.228,0.01227601475827075
4.232,0.012271374933486175
4.236,0.012249281674537859
4.24,0.012254474431809714
4.244,0.012263609838121315
4.248,0.01226363387866424
4.252,0.01226074901351321
4.256,0.012260821135141984
4.26,0.01227632728532878
4.264,0.012303877747521131
4.268,0.012324071803578352
4.272,0.012346790116642727
4.276,0.012364147388634767
4.28,0.012359916253079922
4.284,0.012354843698522688
4.288,0.012347030522071978
4.292,0.01232712495252986
4.296,0.012307339585702369
4.3,0.012288684124392364
4.304,0.01227627920424293
4.308,0.01227043735231209
4.312,0.012270124825254062
4.316,0.012270629676655492
4.32,0.012270004622539434
4.324,0.012255339891355025
4.328,0.012242598403604634
4.332,0.012253801296607808
4.336,0.012259907594510825
4.34,0.012267432284446432
4.344,0.012266278338386019
4.348,0.012261374067629265
4.352,0.012267720770961535
4.356,0.012266230257300169
4.36,0.012265268635583158
4.364,0.012265533081555336
4.368,0.012263537716492539
4.372,0.01226171063523022
4.376,0.01226536479775486
4.38,0.01226829774399174
4.384,0.012265509041012411
4.388,0.012264066608436895
4.392,0.012256013026556932
4.396,0.012254330188552164
4.4,0.012257022729359792
4.404,0.01226272033803308
4.408,0.012267264000645955
4.412,0.012265509041012411
4.416,0.012265172473411457
4.42,0.012263273270520361
4.424,0.012266903392502077
4.428,0.012270918163170596
4.432,0.012269163203537051
4.436,0.012261470229800966
4.44,0.012259498905281095
4.444,0.012260893256770761
4.448,0.012262455892060903
4.452,0.01226591773024214
4.456,0.012266999554673776
4.46,0.012258200715963131
4.464,0.012261854878487771
4.468,0.012263201148891586
4.472,0.012265941770785065
4.476,0.01226774481150446
4.48,0.012259787391796197
4.484,0.012236900794931348
4.488,0.012243199417177766
4.492,0.012253753215521957
4.496,0.012258633445735785
4.5,0.01226029224319763
4.5040000000000004,0.012262383770432126
4.508,0.0122644512571237
4.5120000000000005,0.012263898324636419
4.516,0.01226363387866424
4.5200000000000005,0.012263754081378867
4.524,0.012263465594863764
4.5280000000000005,0.012266590865444047
4.532,0.012271014325342297
4.5360000000000005,0.012273466460720674
4.54,0.0122713989740291
4.5440000000000005,0.012270269068511613
4.548,0.012264379135494923
4.5520000000000005,0.01226358579757839
4.556,0.012265388838297784
4.5600000000000005,0.012266759149244525
4.564,0.012268393906163442
4.5680000000000005,0.012270076744168211
4.572,0.012253007958691274
4.5760000000000005,0.012246396809386826
4.58,0.0122576958645617
4.5840000000000005,0.01226687935195915
4.588,0.012269788257653107
4.5920000000000005,0.012269716136024332
4.596,0.012265677324812888
4.6000000000000005,0.012273202014748495
4.604,0.012278442853106203
4.6080000000000005,0.012276928298901911
4.612,0.012272649082261214
4.616,0.012268586230506844
4.62,0.012270677757741343
4.624,0.012274860812210337
4.628,0.012270124825254062
4.632,0.012272384636289036
4.636,0.012272576960632438
4.64,0.012269764217110183
4.644,0.01227195190651638
4.648,0.012269403608966303
4.652,0.012269908460367735
4.656,0.012268874717021948
4.66,0.012265581162641186
4.664,0.012260172040483002
4.668,0.012266470662729421
4.672,0.012269427649509229
4.676,0.012269956541453585
4.68,0.012271927865973456
4.684,0.012255267769726248
4.688,0.01224887298530813
4.692,0.01226495610852513
4.696,0.012274524244609385
4.7,0.012275245460897142
4.704,0.012268706433221472
4.708,0.012267576527703983
4.712,0.012272480798460737
4.716,0.01227413959592258
4.72,0.012272769284975841
4.724,0.012273202014748495
4.728,0.012269403608966303
4.732,0.012267480365532282
4.736,0.012268177541277115
4.74,0.012269764217110183
4.744,0.012271663420001279
4.748,0.012269427649509229
4.752,0.012265388838297784
4.756,0.012268898757564872
4.76,0.012274620406781086
4.764,0.012274476163523534
4.768,0.012277024461073613
4.772,0.0122760628393566
4.776,0.012271110487513998
4.78,0.012274788690581562
4.784,0.012279885285681719
4.788,0.012280510339797775
4.792,0.012278731339621306
4.796,0.012273514541806524
4.8,0.012271471095657877
4.804,0.012275317582525919
4.808,0.012276856177273135
4.812,0.012280125691110972
4.816,0.012275317582525919
4.82,0.012255892823842306
4.824,0.0122576958645617
4.828,0.012268441987249292
4.832,0.012276639812386808
4.836,0.012277120623245314
4.84,0.012277192744874089
4.844,0.012278154366591099
4.848,0.012279765082967091
4.852,0.012283202880605405
4.856,0.012281207515542607
4.86,0.012279067907222259
4.864,0.012273778987778702
4.868,0.012275582028498096
4.872,0.012276663852929732
4.876,0.012278058204419398
4.88,0.012278731339621306
4.884,0.012276423447500481
4.888,0.01227272120388999
4.892,0.012277385069217491
4.896,0.012276134960985377
4.9,0.012275437785240545
4.904,0.012277000420530686
4.908,0.012272817366061691
4.912,0.012267456324989358
4.916,0.012267360162817657
4.92,0.012272649082261214
4.924,0.01227536566361177
4.928,0.01227002866308236
4.932,0.012245603471470292
4.936,0.0122439927550943
4.94,0.012255892823842306
4.944,0.012268778554850247
4.948,0.01227240867683196
4.952,0.012265388838297784
4.956,0.012263104986719885
4.96,0.012262912662376483
4.964,0.012266350460014796
4.968,0.012274163636465506
4.972,0.012274740609495712
4.976,0.012269764217110183
4.98,0.01227144705511495
4.984,0.012277168704331164
4.988,0.012278490934192053
4.992,0.012275846474470274
4.996,0.012277962042247697
5.0,0.01227627920424293
5.0040000000000004,0.012278226488219876
5.008,0.01228195277237329
5.0120000000000005,0.012282385502145946
5.016,0.012282337421060096
5.0200000000000005,0.012280342055997298
5.024,0.012280846907398729
5.0280000000000005,0.012282890353547377
5.032,0.012282577826489349
5.0360000000000005,0.012282097015630843
5.04,0.012281207515542607
5.0440000000000005,0.012278779420707157
5.048,0.012282698029203974
5.0520000000000005,0.01228185661020159
5.056,0.012278779420707157
5.0600000000000005,0.012277649515189669
5.064,0.012269908460367735
5.0680000000000005,0.01224815176902037
5.072,0.012247358431103837
5.0760000000000005,0.012253440688463929
5.08,0.012260051837768376
5.0840000000000005,0.012272072109231008
5.088,0.012294670219580755
5.0920000000000005,0.01231712408667295
5.096,0.012346573751756398
5.1000000000000005,0.0123738838085195
5.104,0.012382874971573548
5.1080000000000005,0.012371912483999627
5.112,0.012357151590643514
5.1160000000000005,0.012338207642818406
5.12,0.012314599829665799
5.124,0.012292674854517958
5.128,0.012278563055820828
5.132,0.012266470662729421
5.136,0.01226459550038125
5.14,0.012267191879017179
5.144,0.01226810541964834
5.148,0.012268225622362966
5.152,0.01226774481150446
5.156,0.012266037932956766
5.16,0.012267480365532282
5.164,0.0122690189602795
5.168,0.012273202014748495
5.172,0.012270605636112566
5.176,0.012258897891707964
5.18,0.012243896592922599
5.184,0.012253777256064882
5.188,0.012260364364826404
5.192,0.012264739743638802
5.196,0.012265436919383635
5.2,0.012262888621833556
5.204,0.012265100351782682
5.208,0.012270725838827193
5.212,0.01227144705511495
5.216,0.012268273703448816
5.22,0.012268033298019563
5.224,0.012266590865444047
5.228,0.012271615338915428
5.232,0.012276519609672182
5.236,0.012276711934015583
5.24,0.012272817366061691
5.244,0.012267600568246908
5.248,0.012266061973499692
5.252,0.012268321784534667
5.256,0.012267432284446432
5.26,0.01226582156807044
5.264,0.012262984784005258
5.268,0.012261181743285863
5.272,0.012261902959573622
5.276,0.012263465594863764
5.28,0.012263393473234987
5.284,0.012263273270520361
5.288,0.012256614040130063
5.292,0.012233342794578408
5.296,0.012238367268049789
5.3,0.012251878053173787
5.304,0.012255940904928157
5.308,0.012257503540218298
5.312,0.012260388405369329
5.316,0.012260580729712731
5.32,0.012266903392502077
5.324,0.012269764217110183
5.328,0.012268922798107798
5.332,0.012266278338386019
5.336,0.01226029224319763
5.34,0.012261590432515592
5.344,0.012265220554497308
5.348,0.012266230257300169
5.352,0.012266278338386019
5.356,0.012262792459661855
5.36,0.01226459550038125
5.364,0.012264379135494923
5.368,0.012259258499851843
5.372,0.012259330621480618
5.376,0.01226221548663165
5.38,0.012258970013336739
5.384,0.012261157702742938
5.388,0.012266903392502077
5.392,0.012270653717198416
5.396,0.012273394339091897
5.4,0.012270581595569641
5.404,0.012268466027792219
5.408,0.012269884419824809
5.412,0.012268081379105414
5.416,0.012268730473764396
5.42,0.012270004622539434
5.424,0.012260556689169807
5.428,0.012245579430927368
5.432,0.012256902526645167
5.436,0.012265581162641186
5.44,0.0122691151224512
5.444,0.012270124825254062
5.448,0.012264835905810503
5.452,0.01226632641947187
5.456,0.012269836338738958
5.46,0.012268441987249292
5.464,0.01226687935195915
5.468,0.012262143365002875
5.472,0.012263537716492539
5.476,0.012267191879017179
5.48,0.012270365230683315
5.484,0.012273153933662644
5.488,0.012272937568776317
5.492,0.012273490501263598
5.496,0.012272528879546588
5.5,0.012271326852400325
5.5040000000000004,0.012270725838827193
5.508,0.012271423014572026
5.5120000000000005,0.01227510121763959
5.516,0.012268658352135621
5.5200000000000005,0.012265989851870916
5.524,0.012267552487161059
5.5280000000000005,0.012272144230859783
5.532,0.012276808096187284
5.5360000000000005,0.012265797527527513
5.54,0.012246589133730229
5.5440000000000005,0.012258393040306534
5.548,0.012270773919913044
5.5520000000000005,0.012274981014924965
5.556,0.012278611136906679
5.5600000000000005,0.012275125258182517
5.564,0.012275341623068843
5.5680000000000005,0.012277625474646744
5.572,0.012277481231389192
5.5760000000000005,0.012275077177096666
5.58,0.012271879784887606
5.5840000000000005,0.012273730906692851
5.588,0.012278899623421782
5.5920000000000005,0.012279380434280288
5.596,0.012281736407486964
5.6000000000000005,0.012279741042424167
5.604,0.012277577393560894
5.6080000000000005,0.01227962083970954
5.612,0.012280173772196822
5.6160000000000005,0.012277144663788238
5.62,0.012276447488043405
5.6240000000000006,0.012276519609672182
5.628,0.012273442420177747
5.632,0.01227550990686932
5.636,0.012273923231036253
5.64,0.012275437785240545
5.644,0.01227464444732401
5.648,0.01226582156807044
5.652,0.012246973782417033
5.656,0.012260099918854227
5.66,0.01227002866308236
5.664,0.012274716568952787
5.668,0.01227820244767695
5.672,0.01227240867683196
5.676,0.01227053351448379
5.68,0.012274452122980608
5.684,0.012277577393560894
5.688,0.012277481231389192
5.692,0.012275293541982993
5.696,0.012271086446971072
5.7,0.012275461825783469
5.704,0.012272552920089512
5.708,0.012274764650038638
5.712,0.01228139983988601
5.716,0.012276471528586332
5.72,0.012276038798813676
5.724,0.012277769717904296
5.728,0.01227099028479937
5.732,0.012270317149597464
5.736,0.012275966677184901
5.74,0.01227135089294325
5.744,0.012278034163876473
5.748,0.012280846907398729
5.752,0.012279500636994914
5.756,0.01227870729907838
5.76,0.012277000420530686
5.764,0.012270365230683315
5.768,0.012274043433750879
5.772,0.012279260231565661
5.776,0.012276471528586332
5.78,0.012271615338915428
5.784,0.012258465161935309
5.788,0.012248247931192072
5.792,0.012258945972793815
5.796,0.012272889487690467
5.8,0.012277048501616537
5.804,0.01227829860984865
5.808,0.012274235758094281
5.812,0.012276351325871704
5.816,0.012282625907575197
5.82,0.012283226921148329
5.824,0.012284933799696024
5.828,0.012283972177979012
5.832,0.012283467326577582
5.836,0.012283707732006835
5.84,0.012283226921148329
5.844,0.012285294407839903
5.848,0.012286857043130045
5.852,0.012284693394266771
5.856,0.012284308745579967
5.86,0.012283731772549761
5.864,0.01228337116440588
5.868,0.012285294407839903
5.872,0.012282048934544992
5.876,0.012274428082437684
5.88,0.012270870082084745
5.884,0.01227089412262767
5.888,0.01227322605529142
5.892,0.012277649515189669
5.896,0.012263706000293017
5.9,0.012247310350017986
5.904,0.01225536393189795
5.908,0.012264571459838326
5.912,0.012274620406781086
5.916,0.012276735974558509
5.92,0.012260172040483002
5.924,0.012253681093893182
5.928,0.012259739310710348
5.932,0.01227089412262767
5.936,0.012298997517307302
5.94,0.012324456452265157
5.944,0.01235032407645274
5.948,0.012376888876385158
5.952,0.01239128916159739
5.956,0.012382538403972595
5.96,0.012366286996955116
5.964,0.012343472521719039
5.968,0.012320946532998069
5.972,0.012300824598569623
5.976,0.012288179272990933
5.98,0.012277673555732595
5.984,0.012274908893296188
5.988,0.012274740609495712
5.992,0.012276928298901911
5.996,0.012277769717904296
6.0,0.012280702664141177
6.0040000000000004,0.012282457623774721
6.008,0.012273418379634823
6.0120000000000005,0.012271927865973456
6.016,0.012276399406957555
6.0200000000000005,0.012276760015101433
6.024,0.012276134960985377
6.0280000000000005,0.012275726271755648
6.032,0.012256013026556932
6.0360000000000005,0.012250700066570449
6.04,0.012261422148715116
6.0440000000000005,0.012267961176390788
6.048,0.01227053351448379
6.0520000000000005,0.012263970446265194
6.056,0.012260508608083956
6.0600000000000005,0.012270773919913044
6.064,0.012274932933839114
6.0680000000000005,0.012271254730771548
6.072,0.01227002866308236
6.0760000000000005,0.012262576094775528
6.08,0.012259210418765992
6.0840000000000005,0.012260556689169807
6.088,0.012266302378928945
6.0920000000000005,0.01226856218996392
6.096,0.012264859946353429
6.1000000000000005,0.012262383770432126
6.104,0.012264427216580774
6.1080000000000005,0.012268466027792219
6.112,0.012272024028145158
6.1160000000000005,0.012272360595746112
6.12,0.012270773919913044
6.1240000000000006,0.012270245027968687
6.128,0.012271567257829578
6.132000000000001,0.01227216827140271
6.136,0.012270196946882837
6.140000000000001,0.01226490802743928
6.144,0.01224521882278349
6.148,0.012242838809033887
6.152,0.01225632555361496
6.156,0.012263297311063287
6.16,0.012266230257300169
6.164,0.012266230257300169
6.168,0.012265797527527513
6.172,0.012267215919560105
6.176,0.012269836338738958
6.18,0.012272072109231008
6.184,0.012273803028321626
6.188,0.012274211717551355
6.192,0.01227195190651638
6.196,0.012272048068688082
6.2,0.012276183042071228
6.204,0.012275293541982993
6.208,0.012272625041718289
6.212,0.012268994919736573
6.216,0.012273682825607
6.22,0.012276110920442451
6.224,0.012275317582525919
6.228,0.012277048501616537
6.232,0.01227560606904102
6.236,0.012278322650391577
6.24,0.012281015191199205
6.244,0.012280005488396344
6.248,0.01227993336676757
6.252,0.012280774785769954
6.256,0.01226002779722545
6.26,0.012251036634171403
6.264,0.012265989851870916
6.268,0.012278466893649127
6.272,0.012282938434633227
6.276,0.012278803461250081
6.28,0.012271927865973456
6.284,0.012276159001528302
6.288,0.012276711934015583
6.292,0.012278370731477427
6.296,0.01227637536641463
6.3,0.012275269501440068
6.304,0.012272336555203186
6.308,0.012267480365532282
6.312,0.012266350460014796
6.316,0.012265100351782682
6.32,0.012265773486984589
6.324,0.012260628810798582
6.328,0.01225860940519286
6.332,0.0122599797161396
6.336,0.012266206216757244
6.34,0.012269860379281884
6.344,0.012265509041012411
6.348,0.012265172473411457
6.352,0.012271687460544203
6.356,0.012272504839003662
6.36,0.012271663420001279
6.364,0.012270509473940866
6.368,0.012254714837238967
6.372,0.01224572367418492
6.376,0.012262528013689678
6.38,0.012266903392502077
6.384,0.012269860379281884
6.388,0.012272120190316859
6.392,0.012264547419295401
6.396,0.012269259365708753
6.4,0.012278082244962324
6.404,0.012281327718257235
6.408,0.012281303677714309
6.412,0.012277649515189669
6.416,0.01227601475827075
6.42,0.012279019826136408
6.424,0.012279692961338316
6.428,0.012281183474999683
6.432,0.012283563488749283
6.436,0.012279428515366139
6.44,0.012282193177802544
6.444,0.012282385502145946
6.448,0.012284813596981397
6.452,0.012287986948647533
6.456,0.012287650381046579
6.46,0.012283755813092686
6.464,0.012284933799696024
6.468,0.012286905124215895
6.472,0.012286736840415419
6.476,0.012291472827371695
6.48,0.01229089585434149
6.484,0.012287842705389981
6.488,0.012288323516248485
6.492,0.012289285137965495
6.496,0.012289910192081553
6.5,0.012287986948647533
6.5040000000000004,0.012269908460367735
6.508,0.012268682392678545
6.5120000000000005,0.01227724082595994
6.516,0.0122805343803407
6.5200000000000005,0.012284428948294592
6.524,0.012283515407663433
6.5280000000000005,0.012282505704860572
6.532,0.012288155232448009
6.5360000000000005,0.012288684124392364
6.54,0.012288972610907467
6.5440000000000005,0.012290030394796179
6.548,0.01228368369146391
6.5520000000000005,0.012283779853635612
6.556,0.012288996651450394
6.5600000000000005,0.01229113625977074
6.564,0.012288876448735766
6.5680000000000005,0.012287025326930521
6.572,0.012285895421413034
6.5760000000000005,0.01229104009759904
6.58,0.01229094393542734
6.5840000000000005,0.012293155665376464
6.588,0.012291785354429723
6.5920000000000005,0.012284789556438473
6.596,0.012284212583408265
6.6000000000000005,0.01228866008384944
6.604,0.012287962908104607
6.6080000000000005,0.012287938867561682
6.612,0.012290222719139581
6.6160000000000005,0.012270846041541819
6.62,0.012268321784534667
6.6240000000000006,0.012279067907222259
6.628,0.012283539448206359
6.632000000000001,0.012287578259417802
6.636,0.012283731772549761
6.640000000000001,0.012278875582878858
6.644,0.012282890353547377
6.648000000000001,0.012285582894355006
6.652,0.012287626340503652
6.656000000000001,0.012292554651803332
6.66,0.012285582894355006
6.664,0.012286616637700792
6.668,0.012293949003292998
6.672,0.012294766381752456
6.676,0.012291520908457546
6.68,0.012285991583584736
6.684,0.012278539015277904
6.688,0.012284020259064863
6.692,0.012293059503204763
6.696,0.012295800125098243
6.7,0.012294934665552933
6.704,0.012291280503028293
6.708,0.01229063140836931
6.712,0.012292650813975034
6.716,0.012293083543747687
6.72,0.012290030394796179
6.724,0.01228769846213243
6.728,0.01227135089294325
6.732,0.012266110054585543
6.736,0.012279043866679334
6.74,0.012289092813622095
6.744,0.012294453854694428
6.748,0.012290679489455161
6.752,0.012288083110819232
6.756,0.012291064138141966
6.76,0.01229551163858314
6.764,0.012297410841474236
6.768,0.012298156098304919
6.772,0.012291929597687275
6.776,0.012290318881311282
6.78,0.012288804327106991
6.784,0.012279284272108587
6.788,0.012269812298196034
6.792,0.012262143365002875
6.796,0.012263393473234987
6.8,0.012286712799872493
6.804,0.012319840668023507
6.808,0.012347871941074362
6.812,0.012374076132862902
6.816,0.0123944384727206
6.82,0.012392971999602159
6.824,0.012383379822974978
6.828,0.012370542173052888
6.832,0.01234397737312047
6.836,0.012316210546041791
6.84,0.012294045165464697
6.844,0.012284308745579967
6.848,0.01228733785398855
6.852,0.012289549583937675
6.856,0.012287938867561682
6.86,0.01228240954268887
6.864,0.012259907594510825
6.868,0.01226586964915629
6.872,0.012277889920618922
6.876,0.01228144792097186
6.88,0.012283299042777106
6.884,0.012277962042247697
6.888,0.012276735974558509
6.892,0.012279548718080764
6.896,0.012281976812916217
6.9,0.012281207515542607
6.904,0.012281808529115739
6.908,0.012278130326048175
6.912,0.01227829860984865
6.916,0.012280702664141177
6.92,0.01228089498848458
6.924,0.012278418812563276
6.928,0.012277144663788238
6.932,0.012273370298548972
6.936,0.012271158568599849
6.94,0.012274115555379656
6.944,0.012276038798813676
6.948,0.012276110920442451
6.952,0.012273250095834345
6.956,0.012274812731124487
6.96,0.012274884852753264
6.964,0.012273105852576793
6.968,0.012273971312122104
6.972,0.012273971312122104
6.976,0.012254330188552164
6.98,0.01225637363470081
6.984,0.012264114689522746
6.988,0.012269836338738958
6.992,0.01227267312280414
6.996,0.012269307446794603
7.0,0.01226824966290589
7.0040000000000004,0.012270269068511613
7.008,0.012269235325165826
7.0120000000000005,0.012271374933486175
7.016,0.012270509473940866
7.0200000000000005,0.012264739743638802
7.024,0.012263297311063287
7.0280000000000005,0.01226947573059508
7.032,0.012273466460720674
7.0360000000000005,0.012269860379281884
7.04,0.012265797527527513
7.0440000000000005,0.01226175871631607
7.048,0.012267143797931328
7.0520000000000005,0.01227216827140271
7.056,0.012271110487513998
7.0600000000000005,0.01227048543339794
7.064,0.012269187244079976
7.0680000000000005,0.012269451690052153
7.072,0.012274716568952787
7.0760000000000005,0.012276735974558509
7.08,0.012280414177626073
7.0840000000000005,0.012279596799166615
7.088,0.01226084517568491
7.0920000000000005,0.01225637363470081
7.096,0.012265797527527513
7.1000000000000005,0.012274836771667413
7.104,0.01227947659645199
7.1080000000000005,0.012278899623421782
7.112,0.012278058204419398
7.1160000000000005,0.012284789556438473
7.12,0.012289261097422571
7.1240000000000006,0.012286905124215895
7.128,0.012282529745403498
7.132000000000001,0.012278803461250081
7.136,0.012281568123686486
7.140000000000001,0.012286400272814465
7.144,0.012282481664317647
7.148000000000001,0.012281736407486964
7.152,0.012283250961691255
7.156000000000001,0.012281087312827982
7.16,0.012282529745403498
7.164000000000001,0.012282217218345468
7.168,0.012283996218521939
7.172,0.012284933799696024
7.176,0.012284308745579967
7.18,0.01228089498848458
7.184,0.012280750745227028
7.188,0.012280293974911448
7.192,0.012281832569658665
7.196,0.012281255596628458
7.2,0.012280750745227028
7.204,0.012281544083143562
7.208,0.012284669353723845
7.212,0.012283996218521939
7.216,0.012283443286034658
7.22,0.012277481231389192
7.224,0.01225901809442259
7.228,0.012267889054762011
7.232,0.01227829860984865
7.236,0.01228094306957043
7.24,0.012280366096540223
7.244,0.01227993336676757
7.248,0.012281880650744516
7.252,0.01228231338051717
7.256,0.012286688759329568
7.26,0.012284981880781875
7.264,0.012280077610025121
7.268,0.012273971312122104
7.272,0.012282986515719078
7.276,0.012285390570011604
7.28,0.012284717434809696
7.284,0.012285414610554529
7.288,0.01228277015083275
7.292,0.012281544083143562
7.296,0.012279019826136408
7.3,0.012276639812386808
7.304,0.012277096582702388
7.308,0.01227733698813164
7.312,0.01227829860984865
7.316,0.012280366096540223
7.32,0.012284621272637995
7.324,0.012283250961691255
7.328,0.012281423880428934
7.332,0.012271783622715905
7.336,0.012253753215521957
7.34,0.01226272033803308
7.344,0.012268682392678545
7.348,0.012275293541982993
7.352,0.01227993336676757
7.356,0.01227962083970954
7.36,0.012281327718257235
7.364,0.012288876448735766
7.368,0.012289934232624478
7.372,0.012294309611436877
7.376,0.012291280503028293
7.38,0.012285871380870108
7.384,0.012287193610730999
7.388,0.012287602299960728
7.392,0.01229012655696788
7.396,0.012290006354253254
7.4,0.012288587962220664
7.404,0.012290150597510806
7.408,0.012289789989366928
7.412,0.012288996651450394
7.416,0.01228769846213243
7.42,0.012284789556438473
7.424,0.012281087312827982
7.428,0.012283563488749283
7.432,0.012283491367120508
7.436,0.01228459723209507
7.44,0.012287650381046579
7.444,0.012284717434809696
7.448,0.012263417513777913
7.452,0.012269644014395556
7.456,0.012279019826136408
7.46,0.012282746110289825
7.464,0.012284789556438473
7.468,0.012277817798990145
7.472,0.012283851975264387
7.476,0.012285029961867724
7.48,0.012281784488572815
7.484,0.012280366096540223
7.488,0.012275437785240545
7.492,0.012276399406957555
7.496,0.012281760448029888
7.5,0.012281231556085534
7.5040000000000004,0.012279765082967091
7.508,0.012276639812386808
7.5120000000000005,0.012274043433750879
7.516,0.012277433150303342
7.5200000000000005,0.012279957407310494
7.524,0.012281592164229412
7.5280000000000005,0.01228094306957043
7.532,0.012283659650920984
7.5360000000000005,0.01228236146160302
7.54,0.01228190469128744
7.5440000000000005,0.012283803894178536
7.548,0.012285390570011604
7.5520000000000005,0.012286328151185688
7.556,0.012284212583408265
7.5600000000000005,0.012279861245138792
7.564,0.012285823299784258
7.5680000000000005,0.012287145529645148
7.572,0.012285174205125276
7.5760000000000005,0.012288323516248485
7.58,0.012286905124215895
7.5840000000000005,0.012284356826665817
7.588,0.012287530178331951
7.5920000000000005,0.012288539881134814
7.596,0.012290439084025908
7.6000000000000005,0.012290871813798563
7.604,0.012286616637700792
7.6080000000000005,0.01229241040854578
7.612,0.012295367395325588
7.6160000000000005,0.012295631841297765
7.62,0.012293396070805717
7.6240000000000006,0.012285630975440855
7.628,0.012265388838297784
7.632000000000001,0.01227043735231209
7.636,0.012281015191199205
7.640000000000001,0.012287818664847055
7.644,0.012287866745932905
7.648000000000001,0.012273274136377271
7.652,0.0122668312708733
7.656000000000001,0.012270605636112566
7.66,0.012280438218169
7.664000000000001,0.012306065436927329
7.668,0.012335899750697581
7.672000000000001,0.012360661509910605
7.676,0.012384726093378793
7.68,0.012396746364841425
7.684,0.012389894810107724
7.688,0.012377778376473393
7.692,0.012352247319886761
7.696,0.01232301401968964
7.7,0.01230245935548854
7.704,0.012293107584290613
7.708,0.012293011422118912
7.712,0.012286857043130045
7.716,0.012279644880252466
7.72,0.012280293974911448
7.724,0.012287866745932905
7.728,0.01228829947570556
7.732,0.012291256462485368
7.736,0.012287506137789027
7.74,0.012263730040835941
7.744,0.012265388838297784
7.748,0.012276519609672182
7.752,0.01228313075897663
7.756,0.012281520042600635
7.76,0.012273370298548972
7.764,0.012272649082261214
7.768,0.012278322650391577
7.772,0.012277721636818445
7.776,0.012276447488043405
7.78,0.012272649082261214
7.784,0.01226851410887807
7.788,0.012271302811857399
7.792,0.012272240393031484
7.796,0.012274716568952787
7.8,0.012268417946706368
7.804,0.012267865014219087
7.808,0.01226947573059508
7.812,0.012273875149950403
7.816,0.012278490934192053
7.82,0.012277721636818445
7.824,0.01227409151483673
7.828,0.012274019393207955
7.832,0.012277529312475043
7.836,0.012281664285858187
7.84,0.012279404474823213
7.844,0.01227500505546789
7.848,0.012270677757741343
7.852,0.012249762485396363
7.856,0.01225586878329938
7.86,0.012268586230506844
7.864,0.01227560606904102
7.868,0.012276255163700003
7.872,0.012274476163523534
7.876,0.012274884852753264
7.88,0.012280558420883625
7.884,0.012278082244962324
7.888,0.012278827501793007
7.892,0.0122805343803407
7.896,0.012278322650391577
7.9,0.012282169137259618
7.904,0.012284020259064863
7.908,0.012283851975264387
7.912,0.012281832569658665
7.916,0.012278226488219876
7.92,0.012279236191022736
7.924,0.012282481664317647
7.928,0.012285222286211126
7.932,0.012287001286387596
7.936,0.012289261097422571
7.94,0.012282385502145946
7.944,0.01228332308332003
7.948,0.012289429381223047
7.952,0.012288804327106991
7.956,0.01228911685416502
7.96,0.012287409975617326
7.964,0.012267552487161059
7.968,0.012271471095657877
7.972,0.012289886151538627
7.976,0.01229693003061573
7.98,0.012298180138847844
7.984,0.012295319314239737
7.988,0.012292194043659454
7.992,0.012292626773432107
7.996,0.012294982746638783
8.0,0.01229474234120953
8.004,0.012294405773608578
8.008000000000001,0.012291064138141966
8.012,0.012286905124215895
8.016,0.012291112219227816
8.02,0.012295655881840692
8.024000000000001,0.012296040530527495
8.028,0.01228971786773815
8.032,0.012287626340503652
8.036,0.012290775651626862
8.040000000000001,0.012296593463014776
8.044,0.012297194476587907
8.048,0.01229241040854578
8.052,0.012286207948471062
8.056000000000001,0.012285871380870108
8.06,0.012291929597687275
8.064,0.01229784357124689
8.068,0.012295848206184092
8.072000000000001,0.012291304543571219
8.076,0.012272192311945634
8.08,0.012267720770961535
8.084,0.012281616204772337
8.088000000000001,0.012285991583584736
8.092,0.012282577826489349
8.096,0.012280125691110972
8.1,0.01228144792097186
8.104000000000001,0.01228337116440588
8.108,0.0122851020834965
8.112,0.012288587962220664
8.116,0.012287578259417802
8.120000000000001,0.012280366096540223
8.124,0.012282048934544992
8.128,0.01228551077272623
8.132,0.012288275435162635
8.136000000000001,0.012285534813269156
8.14,0.012281423880428934
8.144,0.012279284272108587
8.148,0.012282601867032273
8.152000000000001,0.012283972177979012
8.156,0.01228277015083275
8.16,0.012281928731830366
8.164,0.012273322217463122
8.168000000000001,0.012261902959573622
8.172,0.012270413311769165
8.176,0.012276543650215107
8.18,0.012279452555909063
8.184000000000001,0.012282457623774721
8.188,0.012280919029027504
8.192,0.01228337116440588
8.196,0.01228409238069364
8.2,0.012283419245491731
8.204,0.012282601867032273
8.208,0.012281688326401113
8.212,0.012280342055997298
8.216,0.012285270367296977
8.22,0.012288996651450394
8.224,0.012294069206007624
8.228,0.012291424746285844
8.232,0.012285799259241333
8.236,0.01228652047552909
8.24,0.012289838070452776
8.244,0.012288347556791411
8.248,0.012289982313710328
8.252,0.012291304543571219
8.256,0.012287962908104607
8.26,0.012289405340680123
8.264,0.012291689192258022
8.268,0.01229058332728346
8.272,0.012290727570541012
8.276,0.012288347556791411
8.28,0.012281327718257235
8.284,0.012280606501969476
8.288,0.01228414046177949
8.292,0.012285222286211126
8.296,0.012284212583408265
8.3,0.012265749446441664
8.304,0.012260268202654703
8.308,0.012273706866149925
8.312,0.012279428515366139
8.316,0.012283034596804928
8.32,0.01227952467753784
8.324,0.012270317149597464
8.328,0.012280702664141177
8.332,0.01228551077272623
8.336,0.012288155232448009
8.34,0.012291977678773125
8.344,0.012289645746109376
8.348,0.012288179272990933
8.352,0.012293396070805717
8.356,0.012294718300666606
8.36,0.012292434449088705
8.364,0.01228911685416502
8.368,0.012287578259417802
8.372,0.012290246759682507
8.376,0.012292121922030677
8.38,0.012289477462308898
8.384,0.012290751611083938
8.388,0.01229601648998457
8.392,0.01229693003061573
8.396,0.012298612868620499
8.4,0.012300367828254043
8.404,0.012301666017572007
8.408,0.012302964206889972
8.412,0.012285823299784258
8.416,0.01227413959592258
8.42,0.012284188542865341
8.424,0.012288035029733382
8.428,0.012293636476234968
8.432,0.012297531044188861
8.436,0.012299406206537033
8.44,0.012302170868973438
8.444,0.012301161166170577
8.448,0.012304118152950384
8.452,0.012301473693228605
8.456,0.012294453854694428
8.46,0.012294886584467082
8.464,0.012298612868620499
8.468,0.012301233287799352
8.472,0.012307411707331144
8.476,0.01231058505899728
8.48,0.012305728869326377
8.484,0.012308205045247678
8.488,0.012313301640347834
8.492,0.012314984478352603
8.496,0.012310104248138774
8.5,0.012309070504792987
8.504,0.012304142193493309
8.508000000000001,0.012305320180096647
8.512,0.012305175936839096
8.516,0.012299766814680911
8.52,0.012294958706095859
8.524000000000001,0.012277433150303342
8.528,0.012265629243727037
8.532,0.012295992449441644
8.536,0.012331404169170557
8.540000000000001,0.012360998077511558
8.544,0.01238818793156003
8.548,0.012401386189626001
8.552,0.012407204001013914
8.556000000000001,0.012398861932618847
8.56,0.012384894377179271
8.564,0.01236155100999884
8.568,0.012331428209713483
8.572000000000001,0.012312388099716675
8.576,0.012302964206889972
8.58,0.012303493098834327
8.584,0.012308325247962305
8.588000000000001,0.01230642604507121
8.592,0.012297314679302535
8.596,0.012300319747168192
8.6,0.012303709463720653
8.604000000000001,0.01230469512598059
8.608,0.01230647412615706
8.612,0.012302988247432896
8.616,0.01230007934173894
8.620000000000001,0.012302435314945615
8.624,0.012304767247609366
8.628,0.01230195450408711
8.632,0.012300656314769145
8.636000000000001,0.012298492665905872
8.64,0.012296112652156271
8.644,0.01229693003061573
8.648,0.012293588395149118
8.652000000000001,0.012292194043659454
8.656,0.012289381300137197
8.66,0.01227363474452115
8.664,0.012270317149597464
8.668000000000001,0.01228409238069364
8.672,0.012291713232800948
8.676,0.012297531044188861
8.68,0.012297242557673758
8.684000000000001,0.012292698895060884
8.688,0.01229459809795198
8.692,0.012293299908634016
8.696,0.012292242124745303
8.700000000000001,0.012293852841121297
8.704,0.012288347556791411
8.708,0.012289910192081553
8.712,0.012288684124392364
8.716,0.012284981880781875
8.72,0.012283659650920984
8.724,0.012280582461426551
8.728,0.012277913961161846
8.732,0.012280750745227028
8.736,0.012282337421060096
8.74,0.012281688326401113
8.744,0.012279284272108587
8.748,0.012284068340150714
8.752,0.012282097015630843
8.756,0.01228240954268887
8.76,0.012283972177979012
8.764,0.012285462691640379
8.768,0.012285078042953574
8.772,0.012266638946529898
8.776,0.012263706000293017
8.78,0.012274716568952787
8.784,0.012279741042424167
8.788,0.012286183907928138
8.792,0.012287145529645148
8.796,0.012283948137436088
8.8,0.012289020691993318
8.804,0.012288612002763589
8.808,0.01228678492150127
8.812,0.01229382880057837
8.816,0.012290342921854209
8.82,0.012288467759506037
8.824,0.012293949003292998
8.828,0.012294982746638783
8.832,0.012296905990072805
8.836,0.012293876881664221
8.84,0.012290198678596657
8.844,0.012293347989719866
8.848,0.01229793973341859
8.852,0.012301065003998876
8.856,0.012299887017395537
8.86,0.012298011855047367
8.864,0.012296954071158656
8.868,0.012298733071335125
8.872,0.012298997517307302
8.876,0.012297290638759608
8.88,0.012300463990425744
8.884,0.012282673988661048
8.888,0.012274764650038638
8.892,0.012288876448735766
8.896,0.012293804760035446
8.9,0.012298684990249274
8.904,0.01229743488201716
8.908,0.012294477895237353
8.912,0.012296809827901104
8.916,0.012296569422471851
8.92,0.012299286003822405
8.924,0.012298108017219068
8.928,0.012290439084025908
8.932,0.012291617070629247
8.936,0.012298973476764377
8.94,0.012298564787534648
8.944,0.012296809827901104
8.948,0.012296833868444029
8.952,0.012293468192434492
8.956,0.012294718300666606
8.96,0.012296689625186477
8.964,0.012298324382105395
8.968,0.012299766814680911
8.972,0.01229793973341859
8.976,0.01229382880057837
8.98,0.012297074273873282
8.984,0.012301882382458334
8.988,0.012304166234036235
8.992,0.012305584626068825
8.996,0.012303493098834327
9.0,0.012306834734300939
9.004,0.012311354356370888
9.008000000000001,0.012308469491219855
9.012,0.012308661815563258
9.016,0.012309743639994895
9.02,0.012288371597334336
9.024000000000001,0.01228875624602114
9.028,0.012300223584996491
9.032,0.012306546247785835
9.036,0.012305464423354198
9.040000000000001,0.012304094112407458
9.044,0.012310873545512382
9.048,0.012309695558909045
9.052,0.012309455153479792
9.056000000000001,0.012311017788769934
9.06,0.012309334950765166
9.064,0.012303132490690448
9.068,0.012303853706978205
9.072000000000001,0.012310104248138774
9.076,0.012310488896825579
9.08,0.012305368261182498
9.084,0.012301016922913025
9.088000000000001,0.012303180571776299
9.092,0.012304623004351815
9.096,0.012307363626245293
9.1,0.012312436180802525
9.104000000000001,0.012310296572482176
9.108,0.012304647044894739
9.112,0.012308277166876455
9.116,0.012312412140259599
9.120000000000001,0.012315345086496482
9.124,0.012318205911104588
9.128,0.012316282667670566
9.132,0.012293564354606193
9.136000000000001,0.012293251827548165
9.14,0.012306209680184881
9.144,0.012314623870208723
9.148,0.012319744505851805
9.152000000000001,0.012314720032380424
9.156,0.012314479626951171
9.16,0.01231712408667295
9.164,0.012319480059879626
9.168000000000001,0.012320898451912218
9.172,0.012321643708742901
9.176,0.012315873978440837
9.18,0.012316186505498867
9.184000000000001,0.012318446316533841
9.188,0.012320802289740517
9.192,0.012318518438162616
9.196,0.012315272964867705
9.200000000000001,0.012308709896649108
9.204,0.012309479194022718
9.208,0.012313397802519535
9.212,0.012313037194375657
9.216000000000001,0.012316354789299343
9.22,0.012311618802343065
9.224,0.012307267464073592
9.228,0.012306570288328761
9.232,0.012306762612672162
9.236,0.012308060801990126
9.24,0.012307339585702369
9.244,0.012284068340150714
9.248,0.012281183474999683
9.252,0.01229382880057837
9.256,0.012298540746991722
9.26,0.012307003018101415
9.264,0.012304118152950384
9.268,0.012301377531056904
9.272,0.012302579558203167
9.276,0.012304623004351815
9.28,0.012308517572305706
9.284,0.012309166666964688
9.288,0.0123010890445418
9.292,0.01230017550391064
9.296,0.012304526842180113
9.3,0.012300728436397922
9.304,0.01230281996363242
9.308,0.012307652112760397
9.312,0.012307579991131622
9.316,0.012307820396560875
9.32,0.01230962343728027
9.324,0.01231017636976755
9.328,0.01231008020759585
9.332,0.012308733937192035
9.336,0.012304214315122085
9.34,0.012305825031498078
9.344,0.01230890222099251
9.348,0.012307579991131622
9.352,0.012308974342621288
9.356,0.01230981576162367
9.36,0.012306498166699984
9.364,0.012309935964338298
9.368,0.012313037194375657
9.372,0.012311859207772318
9.376,0.012303445017748476
9.38,0.012284380867208743
9.384,0.012293949003292998
9.388,0.012299454287622882
9.392,0.012296353057585524
9.396,0.012288972610907467
9.4,0.012286328151185688
9.404,0.01229885327404975
9.408,0.012330610831254024
9.412,0.012361863537056868
9.416,0.012392587350915354
9.42,0.01241859921836049
9.424,0.012422469745771457
9.428,0.012419368515734098
9.432,0.012403285392517097
9.436,0.012377850498102168
9.44,0.012349194170935253
9.444,0.012326451817327954
9.448,0.012308493531762782
9.452,0.01230885413990666
9.456,0.012311979410486945
9.46,0.012311234153656262
9.464,0.012308517572305706
9.468,0.012301858341915408
9.472,0.012306089477470255
9.476,0.01230880605882081
9.48,0.012311883248315244
9.484,0.012314984478352603
9.488,0.012309407072393941
9.492,0.012288107151362158
9.496,0.012292073840944827
9.5,0.012301473693228605
9.504,0.012307459788416995
9.508000000000001,0.012310561018454354
9.512,0.012306185639641956
9.516,0.012305224017924946
9.52,0.012310344653568027
9.524000000000001,0.012313445883605386
9.528,0.012308421410134007
9.532,0.012306570288328761
9.536,0.012301473693228605
9.540000000000001,0.01230373350426358
9.544,0.012309455153479792
9.548,0.01230570482878345
9.552,0.012301978544630035
9.556000000000001,0.012299550449794583
9.56,0.012295583760211915
9.564,0.012295367395325588
9.568,0.012296665584643552
9.572000000000001,0.012299959139024314
9.576,0.012299045598393153
9.58,0.012293468192434492
9.584,0.012293684557320819
9.588000000000001,0.012298132057761993
9.592,0.01229875711187805
9.596,0.01230063227422622
9.6,0.012295920327812869
9.604000000000001,0.012291929597687275
9.608,0.012297242557673758
9.612,0.012299838936309686
9.616,0.012301521774314456
9.620000000000001,0.012303853706978205
9.624,0.012292386368002855
9.628,0.012273995352665028
9.632,0.012282938434633227
9.636000000000001,0.012291304543571219
9.64,0.012296256895413823
9.644,0.01229820417939077
9.648,0.012296737706272327
9.652000000000001,0.012300247625539416
9.656,0.012302483396031466
9.66,0.012306137558556106
9.664,0.012309455153479792
9.668000000000001,0.012306858774843863
9.672,0.01230245935548854
9.676,0.01230570482878345
9.68,0.012308950302078361
9.684000000000001,0.01230926282913639
9.688,0.012309455153479792
9.692,0.012305849072041002
9.696,0.012308132923618903
9.700000000000001,0.012311258194199187
9.704,0.012311883248315244
9.708,0.012314720032380424
9.712,0.012312820829489328
9.716000000000001,0.012308613734477407
9.72,0.012312556383517151
9.724,0.01231296507274688
9.728,0.012314311343150695
9.732,0.012314119018807293
9.736,0.01230277188254657
9.74,0.012285751178155483
9.744,0.012295679922383616
9.748,0.012303685423177729
9.752,0.0123056567476976
9.756,0.012307628072217473
9.76,0.012305849072041002
9.764,0.012303757544806504
9.768,0.012313806491749265
9.772,0.012317412573188054
9.776,0.012316378829842267
9.78,0.01231515276215308
9.784,0.012314840235095052
9.788,0.012316739437986148
9.792,0.012313902653920966
9.796,0.012312868910575179
9.8,0.012312532342974226
9.804,0.012307772315475024
9.808,0.012309383031851017
9.812,0.012315801856812062
9.816,0.012318205911104588
9.82,0.012315922059526687
9.824,0.012313950735006816
9.828,0.012309190707507614
9.832,0.012310056167052923
9.836,0.012317196208301727
9.84,0.012320874411369292
9.844,0.012319984911281057
9.848,0.012311642842885991
9.852,0.012292674854517958
9.856,0.012302627639289018
9.86,0.012310969707684083
9.864,0.012316763478529072
9.868,0.012320153195081535
9.872,0.012314840235095052
9.876,0.012316595194728596
9.88,0.012321715830371676
9.884,0.012324600695522709
9.888,0.012322388965573583
9.892,0.01232022531671031
9.896,0.012315585491925735
9.9,0.012318782884134793
9.904,0.012322148560144332
9.908,0.01232250916828821
9.912,0.012325321911810466
9.916,0.012319335816622074
9.92,0.012318133789475811
9.924,0.012318686721963092
9.928,0.012320874411369292
9.932,0.012323615033262772
9.936,0.012321331181684872
9.94,0.012314984478352603
9.944,0.012314912356723827
9.948,0.01232113885734147
9.952,0.012322316843944808
9.956,0.012321860073629228
9.96,0.01231880692467772
9.964,0.012315898018983763
9.968,0.01232032147888201
9.972,0.01232534595235339
9.976,0.012320874411369292
9.98,0.012318590559791393
9.984,0.012306786653215088
9.988,0.01229500678718171
9.992,0.01230880605882081
9.996,0.012319696424765955
10.0,0.012326091209184074
10.004,0.012325995047012372
10.008000000000001,0.012319672384223029
10.012,0.012321403303313648
10.016,0.012321162897884395
10.02,0.012319359857165
10.024000000000001,0.012323494830548145
10.028,0.012319960870738132
10.032,0.01231058505899728
10.036,0.012310609099540204
10.040000000000001,0.012310945667141159
10.044,0.012312796788946404
10.048,0.01231419114043607
10.052,0.012308709896649108
10.056000000000001,0.012310753342797756
10.06,0.012311714964514766
10.064,0.01231063314008313
10.068,0.012314792154009201
10.072000000000001,0.012314263262064844
10.076,0.012309671518366119
10.08,0.012312267897002047
10.084,0.01231784530296071
10.088000000000001,0.01232337462783352
10.092,0.012320850370826367
10.096,0.012304454720551337
10.1,0.012292073840944827
10.104000000000001,0.012308132923618903
10.108,0.012318710762506018
10.112,0.012323206344033043
10.116,0.012317677019160232
10.120000000000001,0.01231205153211572
10.124,0.012312652545688852
10.128,0.012316018221698389
10.132,0.012317797221874859
10.136000000000001,0.012318157830018737
10.14,0.012315056599981378
10.144,0.012311474559085513
10.148,0.012314311343150695
10.152000000000001,0.012317364492102204
10.156,0.012316523073099819
10.16,0.012317917424589485
10.164,0.012313806491749265
10.168000000000001,0.012316595194728596
10.172,0.012323855438692025
10.176,0.012324576654979782
10.18,0.012323807357606175
10.184000000000001,0.012325394033439241
10.188,0.012323566952176922
10.192,0.012324216046835904
10.196,0.012323783317063249
10.200000000000001,0.012326211411898701
10.204,0.012328976074335106
10.208,0.012319071370649897
10.212,0.012301281368885203
10.216000000000001,0.012312892951118105
10.22,0.012319672384223029
10.224,0.012322148560144332
10.228,0.012321884114172153
10.232000000000001,0.012312868910575179
10.236,0.012315537410839884
10.24,0.012320008951823983
10.244,0.012323134222404266
10.248,0.012326211411898701
10.252,0.012321811992543378
10.256,0.012318157830018737
10.26,0.012321884114172153
10.264,0.012320369559967861
10.268,0.01231753277590268
10.272,0.012318374194905064
10.276,0.012309599396737344
10.28,0.012304526842180113
10.284,0.012297819530703965
10.288,0.012298612868620499
10.292,0.012315441248668183
10.296,0.012340299170052905
10.3,0.012363714658862114
10.304,0.012397443540586257
10.308,0.012422926516087037
10.312,0.012429729989734887
10.316,0.01241869538053219
10.32,0.012398693648818371
10.324,0.012373282794946368
10.328,0.01235042023862444
10.332,0.01233311104771825
10.336,0.012322388965573583
10.34,0.012314888316180902
10.344,0.012296449219757224
10.348,0.012288539881134814
10.352,0.01230007934173894
10.356,0.012307579991131622
10.36,0.012316763478529072
10.364,0.012314912356723827
10.368,0.012314335383693621
10.372,0.012318830965220644
10.376,0.012322244722316033
10.38,0.012323086141318416
10.384,0.01232337462783352
10.388,0.012318061667847036
10.392,0.012318446316533841
10.396,0.012319528140965477
10.4,0.012321715830371676
10.404,0.012321090776255619
10.408,0.012317412573188054
10.412,0.012311739005057692
10.416,0.012313157397090282
10.42,0.012314984478352603
10.424,0.01230981576162367
10.428,0.012308253126333529
10.432,0.012303300774490924
10.436,0.012305536544982974
10.44,0.012309551315651493
10.444,0.012311306275285037
10.448,0.012313181437633209
10.452,0.012312219815916197
10.456,0.012293876881664221
10.46,0.012288876448735766
10.464,0.012301690058114932
10.468,0.012305849072041002
10.472,0.012310777383340682
10.476,0.012312267897002047
10.48,0.012310753342797756
10.484,0.012311618802343065
10.488,0.01230962343728027
10.492,0.01230880605882081
10.496,0.012308036761447202
10.5,0.012298949436221451
10.504,0.012295631841297765
10.508000000000001,0.01230104096345595
10.512,0.012305296139553721
10.516,0.012304719166523516
10.52,0.012306498166699984
10.524000000000001,0.012306065436927329
10.528,0.012308878180449586
10.532,0.012312820829489328
10.536,0.01231291699166103
10.540000000000001,0.012308156964161827
10.544,0.012307459788416995
10.548,0.012307099180273116
10.552,0.012314431545865322
10.556000000000001,0.012319696424765955
10.56,0.012321571587114125
10.564,0.01232032147888201
10.568,0.012305368261182498
10.572000000000001,0.012293588395149118
10.576,0.01230053611205452
10.58,0.012307820396560875
10.584,0.012315297005410631
10.588000000000001,0.01231976854639473
10.592,0.012319359857165
10.596,0.012321162897884395
10.6,0.012321932195258003
10.604000000000001,0.012324937263123661
10.608,0.012327798087731767
10.612,0.012324672817151484
10.616,0.012325225749638765
10.620000000000001,0.012326307574070402
10.624,0.012323206344033043
10.628,0.012323566952176922
10.632,0.012322316843944808
10.636000000000001,0.01231794146513241
10.64,0.012317749140789008
10.644,0.012315994181155464
10.648,0.012317364492102204
10.652000000000001,0.012320393600510788
10.656,0.012319047330106973
10.66,0.012319119451735748
10.664,0.01232337462783352
10.668000000000001,0.012326812425471833
10.672,0.012324552614436858
10.676,0.012321667749285826
10.68,0.012317003883958325
10.684000000000001,0.012318157830018737
10.688,0.012320706127568816
10.692,0.012318061667847036
10.696,0.012321787952000451
10.700000000000001,0.012321571587114125
10.704,0.012297410841474236
10.708,0.012298684990249274
10.712,0.012313037194375657
10.716000000000001,0.012313109316004432
10.72,0.012318951167935271
10.724,0.012321523506028274
10.728,0.012325418073982167
10.732000000000001,0.012328663547277078
10.736,0.012327341317416187
10.74,0.012325802722668972
10.744,0.012326740303843056
10.748000000000001,0.012322364925030659
10.752,0.012323590992719846
10.756,0.012328254858047349
10.76,0.012328735668905853
10.764,0.012327293236330337
10.768,0.012322677452088687
10.772,0.012324167965750053
10.776,0.012326596060585504
10.78,0.012331981142200764
10.784,0.01233118780428423
10.788,0.012332798520660222
10.792,0.012327629803931291
10.796,0.012324312209007605
10.8,0.012324528573893932
10.804,0.012326812425471833
10.808,0.01232875970944878
10.812,0.012325538276696793
10.816,0.012307700193846248
10.82,0.01230241127440269
10.824,0.012312195775373272
10.828,0.012324264127921754
10.832,0.01233164457459981
10.836,0.012330057898766743
10.84,0.012328302939133198
10.844,0.012330658912339875
10.848,0.012327846168817618
10.852,0.012326836466014757
10.856,0.012330298304195995
10.86,0.01232844718239075
10.864,0.012325418073982167
10.868,0.012328182736418572
10.872,0.012330995479940828
10.876,0.012330370425824771
10.88,0.012330250223110144
10.884,0.012324576654979782
10.888,0.012325442114525091
10.892,0.01232799041207517
10.896,0.012330803155597425
10.9,0.01232854334456245
10.904,0.012321523506028274
10.908,0.012324288168464679
10.912,0.012329625168994088
10.916,0.012330322344738921
10.92,0.012330178101481369
10.924,0.012328182736418572
10.928,0.012319407938250851
10.932,0.012319480059879626
10.936,0.01232662010112843
10.94,0.012332221547630017
10.944,0.012330105979852592
10.948,0.01232200431688678
10.952,0.012304021990778683
10.956,0.01230642604507121
10.96,0.012318638640877243
10.964,0.012327774047188843
10.968,0.012330514669082323
10.972,0.012321259060056097
10.976,0.012321210978970246
10.98,0.012326403736242103
10.984,0.012327413439044964
10.988,0.012326740303843056
10.992,0.01232524979018169
10.996,0.012320081073452758
11.0,0.012323302506204744
11.004,0.012329937696052116
11.008000000000001,0.012329408804107761
11.012,0.012323759276520324
11.016,0.012318374194905064
11.02,0.012319431978793776
11.024000000000001,0.012325898884840671
11.028,0.012325369992896316
11.032,0.012325081506381213
11.036,0.012323687154891547
11.040000000000001,0.012322485127745284
11.044,0.012327365357959114
11.048,0.012332534074688045
11.052,0.012333688020748457
11.056000000000001,0.012331308006998856
11.06,0.012325418073982167
11.064,0.012307459788416995
11.068,0.012313277599804908
11.072000000000001,0.012323086141318416
11.076,0.012326644141671355
11.08,0.012330538709625248
11.084,0.01232950496627946
11.088000000000001,0.012329553047365311
11.092,0.012333351453147503
11.096,0.01233337549369043
11.1,0.012333736101834308
11.104000000000001,0.012330658912339875
11.108,0.012325273830724615
11.112,0.01232926456085021
11.116,0.012331812858400288
11.120000000000001,0.012330298304195995
11.124,0.012330009817680893
11.128,0.012331043561026678
11.132,0.01233210134491539
11.136000000000001,0.012335515102010777
11.14,0.012334505399207916
11.144,0.012333712061291382
11.148,0.012335034291152272
11.152000000000001,0.012331981142200764
11.156,0.012329529006822387
11.16,0.01232758172284544
11.164,0.012333591858576756
11.168000000000001,0.012335178534409824
11.172,0.01232844718239075
11.176,0.012299069638936079
11.18,0.01229748296310301
11.184000000000001,0.012311017788769934
11.188,0.012326235452441625
11.192,0.012349530738536205
11.196,0.012368330443103764
11.200000000000001,0.01239352493208944
11.204,0.012419801245506753
11.208,0.012424513191920105
11.212,0.012414776772035372
11.216000000000001,0.012404751865635538
11.22,0.012384052958176886
11.224,0.012363185766917757
11.228,0.01235042023862444
11.232000000000001,0.01234621314361252
11.236,0.012341789683714272
11.24,0.012334986210066422
11.244,0.012332341750344642
11.248000000000001,0.01233347165586213
11.252,0.012330851236683276
11.256,0.012331404169170557
11.26,0.012333351453147503
11.264,0.01232981749333749
11.268,0.012329144358135582
11.272,0.01233118780428423
11.276,0.012334216912692814
11.28,0.012332774480117298
11.284,0.012328158695875648
11.288,0.012308421410134007
11.292,0.01230596927475563
11.296,0.012316426910928118
11.3,0.012322677452088687
11.304,0.012328567385105377
11.308,0.012324047763035428
11.312,0.012320441681596638
11.316,0.012323038060232565
11.32,0.012325057465838288
11.324,0.012327052830901086
11.328,0.012329577087908238
11.332,0.012325321911810466
11.336,0.012325418073982167
11.34,0.012327269195787412
11.344,0.012329024155420957
11.348,0.012329144358135582
11.352,0.01232433624955053
11.356,0.012320609965397114
11.36,0.012324865141494886
11.364,0.01232875970944878
11.368,0.012326932628186458
11.372,0.01232570656049727
11.376,0.012320898451912218
11.38,0.012320513803225413
11.384,0.012320561884311264
11.388,0.01232159562765705
11.392,0.012324937263123661
11.396,0.012318614600334317
11.4,0.012311017788769934
11.404,0.012317148127215877
11.408,0.012321114816798545
11.412,0.012321475424942423
11.416,0.012323759276520324
11.42,0.012321331181684872
11.424,0.012320032992366907
11.428,0.01232488918203781
11.432,0.012327341317416187
11.436,0.012327942330989319
11.44,0.012325057465838288
11.444,0.012323759276520324
11.448,0.012326692222757205
11.452,0.012322629371002836
11.456,0.012322677452088687
11.46,0.012324047763035428
11.464,0.012318181870561662
11.468,0.01230245935548854
11.472,0.012306618369414612
11.476,0.012317869343503634
11.48,0.012325634438868494
11.484,0.01233169265568566
11.488,0.012327653844474217
11.492,0.012327293236330337
11.496,0.012330562750168174
11.5,0.01233113972319838
11.504,0.012331957101657838
11.508000000000001,0.01233214942600124
11.512,0.012328110614789797
11.516,0.012328735668905853
11.52,0.012330658912339875
11.524000000000001,0.012332341750344642
11.528,0.012332389831430493
11.532,0.012331812858400288
11.536,0.01232950496627946
11.540000000000001,0.01233337549369043
11.544,0.012335082372238123
11.548,0.012336236318298536
11.552,0.012335707426354179
11.556000000000001,0.012330947398854977
11.56,0.012333255290975802
11.564,0.012338111480646705
11.568,0.012336861372414592
11.572000000000001,0.012334697723551318
11.576,0.012333591858576756
11.58,0.012314864275637976
11.584,0.012312412140259599
11.588000000000001,0.012319407938250851
11.592,0.01233022618256722
11.596,0.012336236318298536
11.6,0.012332365790887569
11.604000000000001,0.012330827196140351
11.608,0.012334216912692814
11.612,0.012334144791064037
11.616,0.012332534074688045
11.620000000000001,0.01233626035884146
11.624,0.012334264993778665
11.628,0.012337366223816022
11.632,0.01234077998091141
11.636000000000001,0.012341549278285019
11.64,0.012342679183802507
11.644,0.012341164629598214
11.648,0.01233662096698534
11.652000000000001,0.012338303804990108
11.656,0.012343232116289788
11.66,0.012345227481352583
11.664,0.012345588089496463
11.668000000000001,0.01234159735937087
11.672,0.012346116981440818
11.676,0.012346549711213474
11.68,0.012348472954647494
11.684000000000001,0.012351550144141929
11.688,0.012345323643524284
11.692,0.012326331614613327
11.696,0.012325562317239719
11.700000000000001,0.012339025021277867
11.704,0.012346645873385175
11.708,0.012353377225404248
11.712,0.01235169438739948
11.716000000000001,0.012346116981440818
11.72,0.012347463251844633
11.724,0.0123467660760998
11.728,0.012344914954294555
11.732000000000001,0.01234479475157993
11.736,0.012343472521719039
11.74,0.01234443414343605
11.744,0.01234804022487484
11.748000000000001,0.012347415170758783
11.752,0.012347535373473408
11.756,0.012345924657097416
11.76,0.012340587656568008
11.764000000000001,0.012346357386870071
11.768,0.012350468319710291
11.772,0.012347920022160213
11.776,0.012343544643347816
11.78,0.012345083238095033
11.784,0.012346285265241296
11.788,0.012342799386517132
11.792,0.01234073189982556
11.796,0.01234114058905529
11.8,0.012340755940368485
11.804,0.01232565847941142
11.808,0.012321283100599021
11.812,0.012332293669258792
11.816,0.012339385629421745
11.82,0.012347847900531438
11.824,0.012346982440986127
11.828,0.012341429075570393
11.832,0.012344217778549722
11.836,0.012348569116819195
11.84,0.012347607495102185
11.844,0.012345900616554491
11.848,0.012342967670317609
11.852,0.012342078170229375
11.856,0.012341741602628421
11.86,0.012345564048953537
11.864,0.012347655576188036
11.868,0.012345564048953537
11.872,0.012341717562085495
11.876,0.01233996260245195
11.88,0.012344602427236527
11.884,0.012347367089672932
11.888,0.012343953332577545
11.892,0.012340082805166578
11.896,0.012336164196669759
11.9,0.012340203007881204
11.904,0.012344241819092648
11.908,0.012343736967691218
11.912,0.012340347251138755
11.916,0.012326836466014757
11.92,0.012320850370826367
11.924,0.012332942763917774
11.928,0.012336837331871667
11.932,0.012345323643524284
11.936,0.012346621832842249
11.94,0.012342631102716656
11.944,0.012346790116642727
11.948,0.01234844891410457
11.952,0.012348088305960691
11.956,0.012349290333106954
11.96,0.01234818446813239
11.964,0.012348064265417765
11.968,0.012354891779608539
11.972,0.012355156225580718
11.976,0.012351982873914582
11.98,0.012352944495631592
11.984,0.012350804887311245
11.988,0.012354338847121258
11.992,0.012356887144671336
11.996,0.01235503602286609
12.0,0.012355348549924119
12.004,0.012353329144318397
12.008000000000001,0.01235042023862444
12.012,0.012354627333636362
12.016,0.012358377658332705
12.02,0.012355829360782625
12.024000000000001,0.012353785914633977
12.028,0.012337895115760378
12.032,0.012327725966102992
12.036,0.012334264993778665
12.040000000000001,0.012337101777843845
12.044,0.012338520169876434
12.048,0.012345636170582314
12.052,0.012367561145730156
12.056000000000001,0.012398765770447148
12.06,0.012429802111363662
12.064,0.012453866694831851
12.068,0.012466175452809588
12.072000000000001,0.012455669735551246
12.076,0.012436797909354914
12.08,0.01241412767737639
12.084,0.012392899877973382
12.088000000000001,0.012377778376473393
12.092,0.012363402131804084
12.096,0.01235301661726037
12.1,0.012356189968926503
12.104000000000001,0.012357295833901065
12.108,0.012352127117172134
12.112,0.012348857603334299
12.116,0.012347246886958306
12.120000000000001,0.012346068900354968
12.124,0.012349049927677701
12.128,0.012344770711037003
12.132,0.012343688886605367
12.136000000000001,0.012346237184155446
12.14,0.012332750439574372
12.144,0.012322244722316033
12.148,0.012337510467073574
12.152000000000001,0.012348424873561643
12.156,0.012356598658156233
12.16,0.012352920455088668
12.164,0.012347559414016334
12.168000000000001,0.01235159822522778
12.172,0.01235138186034145
12.176,0.012352391563144311
12.18,0.012350300035909815
12.184000000000001,0.012345035157009182
12.188,0.01234534768406721
12.192,0.012346693954471025
12.196,0.01234844891410457
12.200000000000001,0.012349626900707907
12.204,0.012352944495631592
12.208,0.012347775778902661
12.212,0.012347655576188036
12.216000000000001,0.012348088305960691
12.22,0.012345588089496463
12.224,0.012345612130039388
12.228,0.01234388121094877
12.232000000000001,0.01233945775105052
12.236,0.01234630930578422
12.24,0.012351045292740498
12.244,0.012351766509028255
12.248000000000001,0.012349242252021103
12.252,0.012334601561379617
12.256,0.012320706127568816
12.26,0.012332173466544166
12.264000000000001,0.01233712581838677
12.268,0.012340563616025082
12.272,0.012339073102363717
12.276,0.012337510467073574
12.280000000000001,0.012344987075923332
12.284,0.012347150724786605
12.288,0.012347775778902661
12.292,0.012348256589761167
12.296,0.01234479475157993
12.3,0.012343688886605367
12.304,0.012345948697640342
12.308,0.012348160427589466
12.312,0.012351478022513152
12.316,0.012350780846768319
12.32,0.01234986730613716
12.324,0.0123513337792556
12.328,0.01235626209055528
12.332,0.01235621400946943
12.336,0.012353449347033025
12.34,0.012353232982146696
12.344,0.012351237617083899
12.348,0.012350901049482946
12.352,0.012351261657626825
12.356,0.012353136819974995
12.36,0.012360661509910605
12.364,0.01235234348205846
12.368,0.012335322777667376
12.372,0.012343712927148292
12.376,0.012350227914281038
12.38,0.012354170563320782
12.384,0.012355180266123643
12.388,0.012351574184684853
12.392,0.01235128569816975
12.396,0.01235621400946943
12.4,0.012355372590467045
12.404,0.012356021685126027
12.408,0.012356334212184055
12.412,0.012355540874267521
12.416,0.012357031387928888
12.42,0.012357584320416169
12.424,0.012358257455618079
12.428,0.012360156658509175
12.432,0.012355108144494868
12.436,0.012359195036792163
12.44,0.01236246455063
12.444,0.01236251263171585
12.448,0.012364243550806469
12.452,0.01236123848294081
12.456,0.012356069766211878
12.46,0.012356478455441607
12.464,0.012359916253079922
12.468,0.012359868171994071
12.472,0.012360541307195978
12.476,0.012361382726198362
12.48,0.012358978671905836
12.484,0.012364459915692797
12.488,0.012367128415957501
12.492,0.012367176497043351
12.496,0.01236566194283906
12.5,0.012348881643877223
12.504,0.012345515967867687
12.508000000000001,0.01235539663100997
12.512,0.012362945361488504
12.516,0.01236895549721982
12.52,0.012366431240212668
12.524000000000001,0.012360925955882783
12.528,0.012364700321122048
12.532,0.01236388294266259
12.536,0.012364988807637152
12.540000000000001,0.012367320740300903
12.544,0.012369243983734924
12.548,0.012372273092143508
12.552,0.012375879173582297
12.556000000000001,0.012374556943721407
12.56,0.01237306643006004
12.564,0.012369796916222205
12.568,0.012365878307725387
12.572000000000001,0.012368474686361316
12.576,0.012373619362547321
12.58,0.012374412700463855
12.584,0.012376696552041756
12.588000000000001,0.012374364619378004
12.592,0.012369123781020298
12.596,0.012372249051600582
12.6,0.01237489351132236
12.604000000000001,0.012375999376296923
12.608,0.012377321606157812
12.612,0.012363161726374833
12.616,0.012352463684773088
12.620000000000001,0.012356454414898682
12.624,0.012364483956235722
12.628,0.01236876317287642
12.632,0.012372826024630789
12.636000000000001,0.012371936524542554
12.64,0.01237119126771187
12.644,0.012375518565438417
12.648,0.012378812119819178
12.652000000000001,0.012376335943897877
12.656,0.012372249051600582
12.66,0.012375662808695969
12.664,0.012378667876561627
12.668000000000001,0.012380062228051292
12.672,0.012377417768329513
12.676,0.012374580984264333
12.68,0.012371888443456703
12.684000000000001,0.012371864402913777
12.688,0.01237676867367053
12.692,0.012379196768505983
12.696,0.012377658173758766
12.700000000000001,0.012375133916751614
12.704,0.012373258754403442
12.708,0.012373763605804873
12.712,0.012368835294505194
12.716000000000001,0.012363666577776263
12.72,0.012363762739947964
12.724,0.012351934792828732
12.728,0.012340972305254811
12.732000000000001,0.01235037215753859
12.736,0.01235876230701951
12.74,0.01236489264546545
12.744,0.012367633267358931
12.748000000000001,0.012367633267358931
12.752,0.012365060929265929
12.756,0.012360998077511558
12.76,0.012365565780667359
12.764000000000001,0.012367176497043351
12.768,0.012366791848356547
12.772,0.012361118280226185
12.776,0.012364532037321572
12.780000000000001,0.012369556510792952
12.784,0.012373402997660994
12.788,0.012371960565085478
12.792,0.012367801551159407
12.796000000000001,0.012366960132157025
12.8,0.01236804195658866
12.804,0.012372898146259564
12.808,0.0123670322537858
12.812,0.012360421104481352
12.816,0.012357608360959095
12.82,0.012364916686008377
12.824,0.01236342617234701
12.828,0.012368162159303288
12.832,0.012368931456676896
12.836,0.012363714658862114
12.84,0.012364868604922526
12.844,0.012369075699934447
12.848,0.012371527835312824
12.852,0.012373090470602966
12.856,0.012370397929795336
12.86,0.012344963035380406
12.864,0.012340467453853381
12.868,0.012356574617613308
12.872,0.012363233848003608
12.876,0.01235972392873652
12.88,0.012353545509204724
12.884,0.01234945861690743
12.888,0.0123602768612238
12.892,0.012388692782961461
12.896,0.012417637596643478
12.9,0.012445692910237262
12.904,0.012466656263668092
12.908,0.012476296521381124
12.912,0.012467569804299253
12.916,0.012455501451750768
12.92,0.012428455840959847
12.924,0.012397323337871632
12.928,0.012373090470602966
12.932,0.012369243983734924
12.936,0.01236342617234701
12.94,0.01236246455063
12.944,0.01236383486157674
12.948,0.012360925955882783
12.952,0.012362560712801701
12.956,0.012366286996955116
12.96,0.012369484389164177
12.964,0.012369700754050503
12.968,0.012367056294328724
12.972,0.01234407353529217
12.976,0.012340251088967054
12.98,0.012354218644406632
12.984,0.01236388294266259
12.988,0.012369195902649073
12.992,0.012369556510792952
12.996,0.012365421537409807
13.0,0.012367921753874035
13.004,0.012372441375943984
13.008000000000001,0.012373330876032219
13.012,0.01236900357830567
13.016,0.012364411834606947
13.02,0.012369195902649073
13.024000000000001,0.012370830659567992
13.028,0.012364435875149871
13.032,0.012363185766917757
13.036,0.01236292132094558
13.040000000000001,0.012356093806754802
13.044,0.012362801118230952
13.048,0.012365469618495658
13.052,0.012364243550806469
13.056000000000001,0.012363666577776263
13.06,0.012359868171994071
13.064,0.012359699888193595
13.068,0.012360853834254008
13.072000000000001,0.01236292132094558
13.076,0.01236429163189232
13.08,0.01236662356455607
13.084,0.012350732765682469
13.088000000000001,0.012345828494925715
13.092,0.01235631017164113
13.096,0.012358666144847808
13.1,0.012365012848180078
13.104000000000001,0.012364003145377216
13.108,0.012359675847650669
13.112,0.012363233848003608
13.116,0.012365205172523479
13.120000000000001,0.012364075267005992
13.124,0.012361358685655438
13.128,0.01235931523950679
13.132,0.012357872806931272
13.136000000000001,0.01236119040185496
13.14,0.012367729429530632
13.144,0.012368594889075941
13.148,0.012368570848533017
13.152000000000001,0.012363161726374833
13.156,0.01236758518627308
13.16,0.01236926802427785
13.164,0.012372321173229358
13.168000000000001,0.012372369254315209
13.172,0.012368859335048119
13.176,0.012369243983734924
13.18,0.01236977287567928
13.184000000000001,0.012372946227345414
13.188,0.012372705821916161
13.192,0.012370830659567992
13.196,0.012367200537586276
13.200000000000001,0.012371071064997245
13.204,0.012375133916751614
13.208,0.012376696552041756
13.212,0.012378739998190403
13.216000000000001,0.012376191700640325
13.22,0.012358521901590256
13.224,0.012364435875149871
13.228,0.012376504227698353
13.232000000000001,0.012376960998013933
13.236,0.01238114405248293
13.24,0.012378980403619656
13.244,0.01237434057883508
13.248000000000001,0.012378187065703122
13.252,0.012377057160185634
13.256,0.01237758605212999
13.26,0.0123762638222691
13.264000000000001,0.012371215308254795
13.268,0.01237489351132236
13.272,0.012377393727786588
13.276,0.012376816754756381
13.280000000000001,0.012379942025336666
13.284,0.012374725227521885
13.288,0.012368811253962268
13.292,0.012376888876385158
13.296000000000001,0.012382033552571163
13.3,0.012382490322886745
13.304,0.012377754335930467
13.308,0.012375686849238895
13.312000000000001,0.012377465849415363
13.316,0.012379629498278637
13.32,0.012381913349856537
13.324,0.012383307701346203
13.328,0.012375374322180867
13.332,0.012349530738536205
13.336,0.012347559414016334
13.34,0.012357560279873244
13.344,0.012362825158773879
13.348,0.012366888010528248
13.352,0.01236804195658866
13.356,0.012370397929795336
13.36,0.012372321173229358
13.364,0.012374532903178482
13.368,0.012374172295034604
13.372,0.012373739565261948
13.376,0.012369075699934447
13.38,0.012372826024630789
13.384,0.012374244416663379
13.388,0.012375013714036986
13.392,0.012378739998190403
13.396,0.012376960998013933
13.4,0.012375278160009166
13.404,0.012377465849415363
13.408,0.012377129281814411
13.412,0.012376864835842232
13.416,0.012375494524895492
13.42,0.01237123934879772
13.424,0.012374484822092632
13.428,0.012377658173758766
13.432,0.012376864835842232
13.436,0.01237657634932713
13.44,0.01237631190335495
13.444,0.0123535214686618
13.448,0.012354170563320782
13.452,0.012371022983911394
13.456,0.012376143619554475
13.46,0.012380230511851768
13.464,0.012382201836371641
13.468,0.01238169698497021
13.472,0.01238484629609342
13.476,0.012381336376826332
13.48,0.0123762638222691
13.484,0.012374028051777052
13.488,0.012369508429707101
13.492,0.012370133483823159
13.496,0.012371311470426496
13.5,0.012374100173405827
13.504,0.012376143619554475
13.508000000000001,0.01237393188960535
13.512,0.012374100173405827
13.516,0.01237840343058945
13.52,0.012381504660626808
13.524000000000001,0.012380350714566396
13.528,0.01238160082279851
13.532,0.012381432538998031
13.536,0.012381095971397079
13.540000000000001,0.012384197201434438
13.544,0.012388620661332686
13.548,0.012389125512734116
13.552,0.012387875404502003
13.556000000000001,0.0123806392010815
13.56,0.012381432538998031
13.564,0.012386360850297711
13.568,0.012388524499160985
13.572000000000001,0.01238895722893364
13.576,0.01237941313339231
13.58,0.012359651807107744
13.584,0.012369844997308055
13.588000000000001,0.012381793147141912
13.592,0.01238864470187561
13.596,0.012387514796358124
13.6,0.012387586917986899
13.604000000000001,0.012391144918339838
13.608,0.012393212405031412
13.612,0.012395520297152237
13.616,0.012393044121230934
13.620000000000001,0.012389750566850174
13.624,0.01238672145844159
13.628,0.012389630364135547
13.632,0.01239448655380645
13.636000000000001,0.012393957661862095
13.64,0.012387971566673704
13.644,0.012376912916928082
13.648,0.012373643403090247
13.652000000000001,0.012380783444339051
13.656,0.01239814071633109
13.66,0.012429345341048082
13.664,0.01245910753318956
13.668000000000001,0.012482907670685571
13.672,0.012497908969470934
13.676,0.012491970955368395
13.68,0.012480792102908148
13.684000000000001,0.012463867560688763
13.688,0.012432110003484487
13.692,0.012385591552924104
13.696,0.012377465849415363
13.700000000000001,0.012379990106422517
13.704,0.01238261052560137
13.708,0.01238535114749485
13.712,0.0123807353632532
13.716000000000001,0.012382466282343818
13.72,0.012387514796358124
13.724,0.012387851363959078
13.728,0.01238398083654811
13.732000000000001,0.0123831153770028
13.736,0.01237722544398611
13.74,0.012381504660626808
13.744,0.012382706687773071
13.748000000000001,0.012381216174111705
13.752,0.012380494957823947
13.756,0.01237698503855686
13.76,0.012376744633127606
13.764000000000001,0.012378138984617272
13.768,0.012377562011587065
13.772,0.012385831958353355
13.776,0.012382947093202324
13.780000000000001,0.012377898579188019
13.784,0.012374268457206303
13.788,0.012377177362900262
13.792,0.012379629498278637
13.796000000000001,0.012377850498102168
13.8,0.012375085835665763
13.804,0.012373451078746845
13.808,0.012378980403619656
13.812000000000001,0.012380446876738097
13.816,0.012376936957471009
13.82,0.012377105241271485
13.824,0.012364315672435245
13.828,0.012348521035733345
13.832,0.012360156658509175
13.836,0.012366262956412192
13.84,0.012364628199493273
13.844,0.012363979104834291
13.848,0.012359988374708697
13.852,0.01236748902410138
13.856,0.01237018156490901
13.86,0.012369965200022683
13.864,0.012367008213242874
13.868,0.012365782145553686
13.872,0.012364556077864498
13.876,0.012364580118407423
13.88,0.012368715091790569
13.884,0.012369604591878802
13.888,0.012366960132157025
13.892,0.012365685983381985
13.896,0.012367513064644306
13.9,0.012370325808166561
13.904,0.0123716961191133
13.908,0.012369893078393906
13.912,0.012368282362017913
13.916,0.012364964767094228
13.92,0.01236611871315464
13.924,0.012369436308078326
13.928,0.012370205605451934
13.932,0.01236972479459343
13.936,0.01236251263171585
13.94,0.012357968969102974
13.944,0.012368282362017913
13.948,0.012375061795122837
13.952,0.012372801984087863
13.956,0.012370878740653842
13.96,0.01235407440114908
13.964,0.012348929724963074
13.968,0.012366262956412192
13.972,0.012372176929971807
13.976,0.012376936957471009
13.98,0.012375446443809642
13.984,0.01236799387550281
13.988,0.012370133483823159
13.992,0.012373763605804873
13.996,0.012379845863164965
14.0,0.012381312336283406
14.004,0.012378619795475776
14.008000000000001,0.012377730295387543
14.012,0.012380134349680069
14.016,0.012377562011587065
14.02,0.012377706254844616
14.024000000000001,0.012374580984264333
14.028,0.012373763605804873
14.032,0.012379677579364487
14.036,0.012379629498278637
14.040000000000001,0.012376047457382773
14.044,0.012375326241095016
14.048,0.012366647605098995
14.052,0.012348016184331914
14.056000000000001,0.012357872806931272
14.06,0.012367561145730156
14.064,0.012375133916751614
14.068,0.012380951728139527
14.072000000000001,0.012378980403619656
14.076,0.012376456146612503
14.08,0.012375542605981343
14.084,0.012379557376649862
14.088000000000001,0.012382947093202324
14.092,0.012381456579540958
14.096,0.012378379390046525
14.1,0.012382995174288175
14.104000000000001,0.012383908714919335
14.108,0.012385110742065598
14.112,0.012382971133745249
14.116,0.012377465849415363
14.120000000000001,0.012376696552041756
14.124,0.012379076565791356
14.128,0.012378187065703122
14.132,0.012382129714742864
14.136000000000001,0.012382778809401846
14.14,0.012379701619907413
14.144,0.012381071930854153
14.148,0.012383836593290558
14.152000000000001,0.012380807484881975
14.156,0.012386865701699142
14.16,0.012386625296269889
14.164,0.012382394160715043
14.168000000000001,0.012381985471485314
14.172,0.01238438952577784
14.176,0.012386072363782608
14.18,0.012385423269123626
14.184000000000001,0.012371095105540169
14.188,0.012358786347562434
14.192,0.012372200970514731
14.196,0.012378379390046525
14.200000000000001,0.012378980403619656
14.204,0.01237063833522459
14.208,0.012368426605275465
14.212,0.012374965632951136
14.216000000000001,0.012376480187155429
14.22,0.012377369687243662
14.224,0.012376456146612503
14.228,0.012377369687243662
14.232000000000001,0.012375783011410596
14.236,0.012379148687420133
14.24,0.012383139417545727
14.244,0.012386144485411385
14.248000000000001,0.012385663674552879
14.252,0.012381023849768302
14.256,0.012381168093025854
14.26,0.012386360850297711
14.264000000000001,0.012385495390752402
14.268,0.012383644268947157
14.272,0.01238215375528579
14.276,0.012379653538821563
14.280000000000001,0.012382273958000416
14.284,0.01238429336360614
14.288,0.012387346512557648
14.292,0.012389942891193575
14.296000000000001,0.012373402997660994
14.3,0.01236205586140027
14.304,0.012375206038380389
14.308,0.012386360850297711
14.312000000000001,0.012389678445221397
14.316,0.012390928553453511
14.32,0.012386240647583084
14.324,0.01238571175563873
14.328000000000001,0.012388332174817582
14.332,0.012390952593996437
14.336,0.012395087567379582
14.34,0.012390616026395483
14.344,0.012386072363782608
14.348,0.012391313202140316
14.352,0.01239489524303618
14.356,0.012393765337518693
14.36,0.012389678445221397
14.364,0.012377898579188019
14.368,0.012376023416839847
14.372,0.012383692350033008
14.376,0.012398501324474969
14.38,0.012427662503043314
14.384,0.012457352573556017
14.388,0.012481657562453457
14.392,0.012497139672097327
14.396,0.012489230333474915
14.4,0.012481056548880326
14.404,0.012459684506219766
14.408,0.012430186760050466
14.412,0.012407300163185616
14.416,0.01239717909461408
14.42,0.012389486120877995
14.424,0.012385904079982132
14.428,0.012383403863517904
14.432,0.012366238915869266
14.436,0.012361983739771494
14.44,0.012375446443809642
14.444,0.012384822255550494
14.448,0.012388236012645881
14.452,0.012384197201434438
14.456,0.012383355782432054
14.46,0.012387659039615676
14.464,0.012387322472014722
14.468,0.012380615160538573
14.472,0.012381456579540958
14.476,0.012381384457912183
14.48,0.012382418201257968
14.484,0.012383836593290558
14.488,0.012382346079629193
14.492,0.012382874971573548
14.496,0.012383620228404231
14.5,0.012377129281814411
14.504,0.012378090903531421
14.508000000000001,0.012379100606334282
14.512,0.012379341011763535
14.516,0.012382706687773071
14.52,0.012377730295387543
14.524000000000001,0.012374605024807257
14.528,0.012376888876385158
14.532,0.012379893944250816
14.536,0.012381504660626808
14.540000000000001,0.012383596187861307
14.544,0.012378715957647477
14.548,0.012377249484529037
14.552,0.012378739998190403
14.556000000000001,0.01237890828199088
14.56,0.012380711322710274
14.564,0.0123738838085195
14.568,0.012352054995543359
14.572000000000001,0.012359651807107744
14.576,0.012368739132333493
14.58,0.01237530220055209
14.584,0.012376816754756381
14.588000000000001,0.012371888443456703
14.592,0.01237311451114589
14.596,0.01237621574118325
14.6,0.012380230511851768
14.604000000000001,0.012380494957823947
14.608,0.012377850498102168
14.612,0.012373739565261948
14.616,0.012378571714389925
14.620000000000001,0.01238256244451552
14.624,0.012384101039262737
14.628,0.012382225876914565
14.632,0.012379148687420133
14.636000000000001,0.012378547673847001
14.64,0.012384653971750018
14.644,0.012385303066409
14.648,0.012384581850121241
14.652000000000001,0.012386553174641114
14.656,0.012373739565261948
14.66,0.012369364186449551
14.664,0.012380951728139527
14.668000000000001,0.012389630364135547
14.672,0.012393188364488486
14.676,0.012394606756521077
14.68,0.012396650202669723
14.684000000000001,0.012396866567556052
14.688,0.012398212837959867
14.692,0.012400905378767495
14.696,0.012401506392340627
14.700000000000001,0.012396529999955098
14.704,0.012394775040321554
14.708,0.012399655270535381
14.712,0.012398813851532998
14.716000000000001,0.012401698716684029
14.72,0.012403501757403424
14.724,0.01240037648682314
14.728,0.012400088000308037
14.732000000000001,0.012403453676317573
14.736,0.012405497122466221
14.74,0.012403285392517097
14.744,0.012400857297681644
14.748000000000001,0.01239864556773252
14.752,0.012398284959588642
14.756,0.012403694081746826
14.76,0.01241006482562202
14.764000000000001,0.012405617325180847
14.768,0.01238799560721663
14.772,0.012377778376473393
14.776,0.012391168958882764
14.780000000000001,0.01239576070258149
14.784,0.012399655270535381
14.788,0.012401939122113282
14.792,0.012400136081393887
14.796000000000001,0.012402083365370834
14.8,0.012401362149083075
14.804,0.012404559541292135
14.808,0.01240398256826193
14.812000000000001,0.01239763586492966
14.816,0.012394222107834273
14.82,0.01239982355433586
14.824,0.012402612257315189
14.828000000000001,0.012404799946721388
14.832,0.012403790243918527
14.836,0.012399583148906606
14.84,0.012401818919398656
14.844000000000001,0.012406530865812008
14.848,0.01241102644733903
14.852,0.012410401393222975
14.856,0.01240641066309738
14.86,0.01240641066309738
14.864,0.012408069460559223
14.868,0.012409031082276235
14.872,0.012410641798652228
14.876,0.012408261784902626
14.88,0.01240631450092568
14.884,0.012408285825445552
14.888,0.012409944622907395
14.892,0.012409824420192768
14.896,0.01240996866345032
14.9,0.012408381987617253
14.904,0.012405665406266697
14.908,0.0124058577306101
14.912,0.012405713487352548
14.916,0.012399583148906606
14.92,0.012396001108010741
14.924,0.012394654837606926
14.928,0.012394005742947946
14.932,0.012402972865459069
14.936,0.012404583581835061
14.94,0.012400352446280214
14.944,0.012398669608275447
14.948,0.012386312769211861
14.952,0.012379990106422517
14.956,0.012393236445574336
14.96,0.012402828622201517
14.964,0.012407348244271466
14.968,0.01240631450092568
14.972,0.012400208203022662
14.976,0.01240499227106479
14.98,0.012412036150141893
14.984,0.012414392123348569
14.988,0.012413334339459856
14.992,0.012406098136039352
14.996,0.012406266419839829
15.0,0.012410353312137124
15.004,0.01241266120425795
15.008000000000001,0.012414704650406597
15.012,0.012417757799358106
15.016,0.012415161420722177
15.02,0.012412949690773053
15.024000000000001,0.012413310298916931
15.028,0.012415594150494832
15.032,0.01241778183990103
15.036,0.012413791109775437
15.040000000000001,0.012419416596819948
15.044,0.012421243678082268
15.048,0.012419897407678453
15.052,0.012422469745771457
15.056000000000001,0.012421772570026624
15.06,0.012406338541468605
15.064,0.012393188364488486
15.068,0.012406963595584661
15.072000000000001,0.012414055555747615
15.076,0.012408814717389907
15.08,0.012401602554512328
15.084,0.012398693648818371
15.088000000000001,0.01240758864970072
15.092,0.012432975463029797
15.096,0.012461126938795282
15.1,0.012484975157377143
15.104000000000001,0.012503558497058372
15.108,0.012511924605996363
15.112,0.0125038710241164
15.116,0.01249519238812038
15.120000000000001,0.012479325629789706
15.124,0.012459684506219766
15.128,0.012437903774329476
15.132,0.012430667570908972
15.136000000000001,0.012426027746124396
15.14,0.01242220529979928
15.144,0.012416844258726946
15.148,0.012414271920633942
15.152000000000001,0.012410257149965423
15.156,0.012412901609687202
15.16,0.012418094366959058
15.164,0.012422037015998802
15.168000000000001,0.012418767502160966
15.172,0.012402347811343011
15.176,0.01238799560721663
15.18,0.012399751432707082
15.184000000000001,0.012407660771329494
15.188,0.012414704650406597
15.192,0.012414728690949521
15.196,0.012407973298387522
15.200000000000001,0.012411194731139509
15.204,0.012415113339636326
15.208,0.012417084664156197
15.212,0.012416724056012319
15.216000000000001,0.012413406461088633
15.22,0.012412589082629174
15.224,0.012414247880091017
15.228,0.01241544990723728
15.232000000000001,0.012419729123877976
15.236,0.012421051353738867
15.24,0.012417397191214227
15.244,0.012416796177641095
15.248000000000001,0.012418046285873209
15.252,0.012421964894370027
15.256,0.01242097923211009
15.26,0.012419536799534574
15.264000000000001,0.012417998204787358
15.268,0.012420161853650632
15.272,0.012421363880796895
15.276,0.012422109137627578
15.280000000000001,0.012419368515734098
15.284,0.012402492054600563
15.288,0.012388163891017106
15.292,0.012404511460206285
15.296000000000001,0.012412372717742846
15.3,0.01241996952930723
15.304,0.012422085097084652
15.308,0.012416916380355721
15.312000000000001,0.012421051353738867
15.316,0.012427422097614061
15.32,0.012421003272653016
15.324,0.012416435569497215
15.328000000000001,0.012416507691125992
15.332,0.012415594150494832
15.336,0.012418262650759536
15.34,0.012422854394458262
15.344000000000001,0.01242220529979928
15.348,0.012419632961706275
15.352,0.012418310731845386
15.356,0.012421868732198325
15.36,0.012426845124583854
15.364,0.01242819139498767
15.368,0.012427422097614061
15.372,0.012428864530189578
15.376,0.012423767935089421
15.38,0.012426292192096573
15.384,0.012427902908472566
15.388,0.012428407759873996
15.392,0.012429754030277811
15.396,0.01241879154270389
15.4,0.01240270841948689
15.404,0.012412228474485294
15.408,0.012420402259079885
15.412,0.012420498421251584
15.416,0.012419200231933622
15.42,0.012415834555924083
15.424,0.012420137813107706
15.428,0.012421964894370027
15.432,0.012424248745947926
15.436,0.012430306962765092
15.44,0.01243006655733584
15.444,0.012429561705934409
15.448,0.012430619489823122
15.452,0.012429874232992438
15.456,0.012427542300328687
15.46,0.012425282489293712
15.464,0.012422181259256353
15.468,0.012422012975455877
15.472,0.012421772570026624
15.476,0.012425979665038545
15.48,0.012429032813990054
15.484,0.01242727785435651
15.488,0.012420498421251584
15.492,0.01242143600242567
15.496,0.012423142880973364
15.5,0.012426171989381948
15.504,0.012426797043498004
15.508000000000001,0.01241535374506558
15.512,0.012393404729374814
15.516,0.012405352879208669
15.52,0.012419729123877976
15.524000000000001,0.012424417029748403
15.528,0.012424609354091806
15.532,0.012419080029218994
15.536,0.012423503489117242
15.540000000000001,0.012427806746300864
15.544,0.012426748962412153
15.548,0.012428503922045697
15.552,0.012425787340695143
15.556000000000001,0.012421339840253969
15.56,0.012424465110834254
15.564,0.012427061489470183
15.568,0.01242778270575794
15.572000000000001,0.012428648165303249
15.576,0.01242371985400357
15.58,0.012425739259609292
15.584,0.012430859895252373
15.588000000000001,0.01242997039516414
15.592,0.012431629192625982
15.596,0.012431340706110879
15.6,0.012428503922045697
15.604000000000001,0.012429008773447128
15.608,0.012429681908649036
15.612,0.012430379084393869
15.616,0.012433143746830274
15.620000000000001,0.012425691178523442
15.624,0.012407204001013914
15.628,0.012413743028689587
15.632,0.012418767502160966
15.636000000000001,0.01241960892116335
15.64,0.012417589515557628
15.644,0.012412877569144276
15.648,0.012412805447515501
15.652000000000001,0.01241641152895429
15.656,0.012418334772388311
15.66,0.012417012542527422
15.664,0.012416483650583066
15.668000000000001,0.012415281623436802
15.672,0.012420113772564781
15.676,0.01242321500260214
15.68,0.012421532164597371
15.684000000000001,0.012422734191743634
15.688,0.012418022245330283
15.692,0.012414608488234896
15.696,0.01241585859646701
15.700000000000001,0.012419176191390695
15.704,0.012423791975632346
15.708,0.012425234408207862
15.712,0.012421123475367642
15.716000000000001,0.0124219408538271
15.72,0.012422974597172887
15.724,0.012424513191920105
15.728,0.01242458531354888
15.732000000000001,0.01241585859646701
15.736,0.012398164756874016
15.74,0.012403381554688798
15.744,0.012416339407325514
15.748000000000001,0.012424248745947926
15.752,0.012424489151377179
15.756,0.012422541867400232
15.76,0.012425426732551264
15.764000000000001,0.012425522894722965
15.768,0.012425450773094189
15.772,0.012424825718978133
15.776,0.012427950989558416
15.780000000000001,0.012424200664862075
15.784,0.012425186327122011
15.788,0.01242559501635174
15.792,0.012427157651641882
15.796000000000001,0.012424681475720581
15.8,0.012420666705052062
15.804,0.012413526663803258
15.808,0.012410185028336648
15.812000000000001,0.012410377352680049
15.816,0.012418454975102938
15.82,0.01244016358536445
15.824,0.012461631790196713
15.828000000000001,0.012485480008778574
15.832,0.012504399916060756
15.836,0.012509232065188733
15.84,0.012503029605114017
15.844000000000001,0.01249153822559574
15.848,0.012454131140804028
15.852,0.012439778936677645
15.856,0.012431172422310403
15.860000000000001,0.012428552003131548
15.864,0.01242600370558147
15.868,0.012420041650936004
15.872,0.012416243245153814
15.876,0.012418503056188789
15.88,0.012417757799358106
15.884,0.012418935785961443
15.888,0.012422854394458262
15.892,0.012419440637362873
15.896,0.012418046285873209
15.9,0.012416916380355721
15.904,0.012415329704522653
15.908,0.012413310298916931
15.912,0.012412925650230127
15.916,0.012413190096202306
15.92,0.012416435569497215
15.924,0.012414969096378774
15.928,0.012416387488411364
15.932,0.012417156785784974
15.936,0.012410305231051274
15.94,0.012410713920281003
15.944,0.012415233542350952
15.948,0.012415281623436802
15.952,0.012417180826327898
15.956,0.012417517393928853
15.96,0.012412084231227742
15.964,0.01241544990723728
15.968,0.012417469312843002
15.972,0.012418046285873209
15.976,0.012415041218007551
15.98,0.01240326135197417
15.984,0.012386168525954309
15.988,0.012403141149259545
15.992,0.012411314933854134
15.996,0.012413430501631557
16.0,0.012413358380002782
16.004,0.012408670474132355
16.008,0.012408381987617253
16.012,0.012410689879738078
16.016000000000002,0.012413478582717408
16.02,0.012413574744889109
16.024,0.012408718555218206
16.028,0.01240489610889309
16.032,0.012405689446809623
16.036,0.012405232676494043
16.04,0.012408694514675281
16.044,0.012408117541645074
16.048000000000002,0.012401073662567973
16.052,0.012402540135686414
16.056,0.012408381987617253
16.06,0.012408838757932833
16.064,0.012409872501278618
16.068,0.012406530865812008
16.072,0.012404078730433631
16.076,0.012410882204081479
16.080000000000002,0.012413238177288156
16.084,0.01241124281222536
16.088,0.012410954325710256
16.092,0.012405376919751595
16.096,0.012390015012822352
16.1,0.012400713054424093
16.104,0.012413454542174483
16.108,0.012417805880443956
16.112000000000002,0.012418142448044909
16.116,0.012411435136568762
16.12,0.012413238177288156
16.124,0.012415473947780205
16.128,0.012417036583070347
16.132,0.01241879154270389
16.136,0.01241855113727464
16.14,0.012415209501808027
16.144000000000002,0.012418430934560012
16.148,0.012421123475367642
16.152,0.012423647732374794
16.156,0.012426268151553649
16.16,0.01242275823228656
16.164,0.012421700448397847
16.168,0.012419945488764303
16.172,0.01241864729944634
16.176000000000002,0.012415522028866055
16.18,0.012410906244624405
16.184,0.012411050487881957
16.188,0.012417974164244432
16.192,0.012421171556453493
16.196,0.012420738826680837
16.2,0.012422493786314381
16.204,0.012415041218007551
16.208000000000002,0.012396650202669723
16.212,0.012407059757756363
16.216,0.012419248313019472
16.22,0.0124219408538271
16.224,0.012421580245683222
16.228,0.012417349110128376
16.232,0.012417180826327898
16.236,0.012417878002072731
16.240000000000002,0.012417517393928853
16.244,0.012417397191214227
16.248,0.012415281623436802
16.252,0.012410882204081479
16.256,0.012411170690596583
16.26,0.012413454542174483
16.264,0.012413430501631557
16.268,0.012415762434295308
16.272000000000002,0.012417853961529807
16.276,0.012414848893664149
16.28,0.012419849326592604
16.284,0.01242006569147893
16.288,0.012419031948133144
16.292,0.0124195608400775
16.296,0.0124150892990934
16.3,0.012418503056188789
16.304000000000002,0.012424465110834254
16.308,0.012423527529660168
16.312,0.012422301461970979
16.316,0.012420185894193556
16.32,0.012417974164244432
16.324,0.01242225338088513
16.328,0.012422493786314381
16.332,0.012422373583599756
16.336000000000002,0.012420786907766688
16.34,0.012405473081923295
16.344,0.012400400527366065
16.348,0.012409680176935216
16.352,0.012419296394105321
16.356,0.012423551570203093
16.36,0.012419921448221379
16.364,0.012397611824386735
16.368000000000002,0.012399775473250009
16.372,0.012412516961000397
16.376,0.01241874346161804
16.38,0.012425186327122011
16.384,0.012425306529836637
16.388,0.012420041650936004
16.392,0.012418863664332667
16.396,0.012420883069938389
16.4,0.012419440637362873
16.404,0.01241321413674523
16.408,0.012409632095849367
16.412,0.012418671339989265
16.416,0.012419729123877976
16.42,0.012419440637362873
16.424,0.012418046285873209
16.428,0.012416964461441572
16.432,0.012413574744889109
16.436,0.012414800812578298
16.44,0.01241773375881518
16.444,0.012420306096908184
16.448,0.012414872934207073
16.452,0.012409199366076712
16.456,0.012399486986734905
16.46,0.012410882204081479
16.464,0.012418094366959058
16.468,0.012421796610569549
16.472,0.012424344908119627
16.476,0.012424008340518674
16.48,0.012426604719154601
16.484,0.012431581111540132
16.488,0.012431460908825505
16.492,0.01243001847624999
16.496,0.012424873800063983
16.5,0.012424561273005955
16.504,0.012425234408207862
16.508,0.012422229340342204
16.512,0.012423407326945543
16.516000000000002,0.012424224705405001
16.52,0.012420402259079885
16.524,0.012425066124407386
16.528,0.012433095665744423
16.532,0.012434297692890686
16.536,0.012430306962765092
16.54,0.012429513624848558
16.544,0.012423022678258738
16.548000000000002,0.012419632961706275
16.552,0.012410136947250797
16.556,0.012404343176405808
16.56,0.012405545203552071
16.564,0.012405833690067175
16.568,0.012413334339459856
16.572,0.012452472343342185
16.576,0.012490600644421654
16.580000000000002,0.012516876957838968
16.584,0.012525363269491585
16.588,0.01251483351169032
16.592,0.01250057746973564
16.596,0.012479109264903379
16.6,0.012453482046145046
16.604,0.012437879733786551
16.608,0.012429778070820737
16.612000000000002,0.012417974164244432
16.616,0.012418527096731713
16.62,0.01241910406976192
16.624,0.012416651934383544
16.628,0.012416339407325514
16.632,0.012411988069056043
16.636,0.012412132312313593
16.64,0.012415497988323131
16.644000000000002,0.01241732506958545
16.648,0.012421676407854923
16.652,0.012421051353738867
16.656,0.012416724056012319
16.66,0.012420137813107706
16.664,0.012421916813284176
16.668,0.01242102731319594
16.672,0.01242001761039308
16.676000000000002,0.012415257582893878
16.68,0.01241544990723728
16.684,0.012420762867223763
