0.0,0.01596691123250062
0.004,0.015955564096239896
0.008,0.015956044907098402
0.012,0.015960804934597603
0.016,0.015963954245720814
0.02,0.015939216527050718
0.024,0.015929480107165984
0.028,0.015941596540800317
0.032,0.015945923838526867
0.036000000000000004,0.015916834781587296
0.04,0.01590135267194343
0.044,0.01590519915881147
0.048,0.015914142240779666
0.052000000000000005,0.015913709511007013
0.056,0.015901569036829755
0.06,0.01591580103824151
0.064,0.01592580190409842
0.068,0.015916570335615117
0.07200000000000001,0.015904093293836907
0.076,0.015926378877128625
0.08,0.015934047810321785
0.084,0.015928566566534824
0.088,0.0159284463638202
0.092,0.01594484201409523
0.096,0.01595380913660635
0.1,0.015960131799395694
0.10400000000000001,0.015944096757264544
0.108,0.015945707473640536
0.112,0.015956189150355952
0.116,0.01595950674527964
0.12,0.01594330341934801
0.124,0.015928013634047545
0.128,0.015934095891407634
0.132,0.015919623484566627
0.136,0.01590697815898794
0.14,0.015896328198472046
0.14400000000000002,0.015898443766249472
0.148,0.01590183348280193
0.152,0.015889284319394945
0.156,0.015860195262455377
0.16,0.01587127795274392
0.164,0.015868801776822622
0.168,0.015853391788807524
0.17200000000000001,0.015837452908848075
0.176,0.015842669706662857
0.18,0.01584783842339179
0.184,0.015840866665943462
0.188,0.015833991070666836
0.192,0.015822643934406112
0.196,0.015837861598077804
0.2,0.015833678543608808
0.20400000000000001,0.01582524031304204
0.20800000000000002,0.015833077530035676
0.212,0.015851468545373504
0.216,0.0158556515998425
0.22,0.015853391788807524
0.224,0.015854305329438687
0.228,0.01586490720886873
0.232,0.015868176722706562
0.23600000000000002,0.015860579911142182
0.24,0.01589269807649033
0.244,0.015904670266867114
0.248,0.015897602347247086
0.252,0.01588269721063342
0.256,0.01589026998165488
0.26,0.015899429428509405
0.264,0.015884620454067445
0.268,0.015864979330497502
0.272,0.015859954857026123
0.276,0.015865339938641383
0.28,0.015858272019021354
0.28400000000000003,0.015839544436082573
0.28800000000000003,0.015834447840982417
0.292,0.015848559639679547
0.296,0.01584916065325268
0.3,0.015834159354467314
0.304,0.015831346610945058
0.308,0.015849953991169213
0.312,0.01584985782899751
0.316,0.015836491287131063
0.32,0.01583589027355793
0.324,0.01585255036980514
0.328,0.015857358478390194
0.332,0.01585021843714139
0.336,0.01585194935623201
0.34,0.0158578392892487
0.34400000000000003,0.0158693547093099
0.34800000000000003,0.015869907641797184
0.352,0.015849184693795603
0.356,0.01587053269591324
0.36,0.01587538888558414
0.364,0.015869138344423574
0.368,0.01586490720886873
0.372,0.01587541292612707
0.376,0.015877768899333743
0.38,0.015878369912906875
0.384,0.015862791641091306
0.388,0.015860243343541226
0.392,0.015863705181722466
0.396,0.01586007505974075
0.4,0.015840722422685912
0.404,0.015846780639503077
0.40800000000000003,0.015853968761837735
0.41200000000000003,0.015853848559123106
0.41600000000000004,0.015844184260867148
0.42,0.015850651166914045
0.424,0.0158713500743727
0.428,0.015878201629106397
0.432,0.015860507789513405
0.436,0.01585651705938781
0.44,0.015862839722177155
0.444,0.015876807277616735
0.448,0.01587130199328685
0.452,0.01586591691167159
0.456,0.01587514848015489
0.46,0.015882408724118318
0.464,0.01588555803524153
0.468,0.01588262508900465
0.47200000000000003,0.01588993341405393
0.47600000000000003,0.0158943809144951
0.48,0.01591899843045057
0.484,0.015926595242014955
0.488,0.015931259107342454
0.492,0.01592260451188936
0.496,0.015915320227383005
0.5,0.01591209879463102
0.504,0.0159216909712582
0.508,0.015925489377040393
0.512,0.015909790902510195
0.516,0.0159078916996191
0.52,0.015928157877305095
0.524,0.015939625216280447
0.528,0.015946308487213668
0.532,0.01595087619036947
0.536,0.015964747583637345
0.54,0.01597467632786548
0.544,0.01596650254327089
0.548,0.01596481970526612
0.552,0.015978955544506176
0.556,0.015987586099416345
0.56,0.015976287044241474
0.5640000000000001,0.015971767422171525
0.5680000000000001,0.015987754383216823
0.5720000000000001,0.01600015930336626
0.5760000000000001,0.016004943371408387
0.58,0.01599162491062779
0.584,0.01599395684329154
0.588,0.0160062896418122
0.592,0.015997442722015705
0.596,0.015991144099769285
0.6,0.01599604837052604
0.604,0.015999173641106323
0.608,0.015995952208354338
0.612,0.01597756119301651
0.616,0.01596366575920571
0.62,0.015958136434332897
0.624,0.01594525070332496
0.628,0.015933735283263757
0.632,0.015913709511007013
0.636,0.01590904564567951
0.64,0.01591570487606981
0.644,0.015913036375805104
0.648,0.015907050280616713
0.652,0.01591452688946647
0.656,0.015929600309880613
0.66,0.015933687202177905
0.664,0.01593289386426137
0.668,0.01593640378352846
0.672,0.01596203100228679
0.676,0.01597220015194418
0.68,0.015975950476640518
0.684,0.015983379004404424
0.6880000000000001,0.016003885587519674
0.6920000000000001,0.01601203533157134
0.6960000000000001,0.016006890655385332
0.7000000000000001,0.01601131411528358
0.704,0.01602345458946084
0.708,0.01601963214313572
0.712,0.016011506439626982
0.716,0.01598833135624703
0.72,0.015983090517889324
0.724,0.01597590239555467
0.728,0.01595717481261589
0.732,0.015946116162870266
0.736,0.01593931268922242
0.74,0.015928374242191422
0.744,0.01592753282318904
0.748,0.015910752524227204
0.752,0.015915416389554706
0.756,0.015928254039476796
0.76,0.01592046490356901
0.764,0.0159193109575086
0.768,0.015930249404539593
0.772,0.01594609212232734
0.776,0.015950755987654844
0.78,0.015950635784940218
0.784,0.01596919508407852
0.788,0.0159835472882049
0.792,0.01598970166719377
0.796,0.01597604663881222
0.8,0.01596614193512701
0.804,0.015976359165870247
0.808,0.015980397977081694
0.812,0.01596275221857455
0.8160000000000001,0.015953688933891725
0.8200000000000001,0.015958256637047526
0.8240000000000001,0.015955155407010167
0.8280000000000001,0.01594061087854038
0.8320000000000001,0.015934624783351992
0.836,0.015939432891937045
0.84,0.01594950587942273
0.844,0.015941692702972018
0.848,0.01592818191784802
0.852,0.015931691837115108
0.856,0.01594087532451256
0.86,0.01595020305516756
0.864,0.015935682567240702
0.868,0.015940634919083308
0.872,0.015949529919965656
0.876,0.01595517944755309
0.88,0.015939985824424324
0.884,0.015944601608665974
0.888,0.01595741521804514
0.892,0.015954530352894108
0.896,0.015929840715309864
0.9,0.01591327678123436
0.904,0.01591575295715566
0.908,0.015901520955743903
0.912,0.015889548765367124
0.916,0.015880389318512596
0.92,0.015876711115445034
0.924,0.015864450438553147
0.928,0.01585199743731786
0.932,0.01585043480202772
0.936,0.015869811479625483
0.9400000000000001,0.01586961915528208
0.9440000000000001,0.015856396856673186
0.9480000000000001,0.015864426398010223
0.9520000000000001,0.015865700546785263
0.9560000000000001,0.01588002871036872
0.96,0.015893130806262985
0.964,0.015904958753382218
0.968,0.015921306322571396
0.972,0.015944745851923528
0.976,0.015956068947641327
0.98,0.015954698636694586
0.984,0.01594914527127885
0.988,0.015951212757970422
0.992,0.015940586837997456
0.996,0.015913829713721638
1.0,0.015902434496375063
1.004,0.015893900103636595
1.008,0.015876278385672377
1.012,0.015849713585739958
1.016,0.015831250448773357
1.02,0.015836130678987186
1.024,0.015830745597371926
1.028,0.015813292163208186
1.032,0.015782231781748746
1.036,0.015784611795498348
1.04,0.01579266537737831
1.044,0.015786054228073863
1.048,0.0157894199040834
1.052,0.01581052750077178
1.056,0.015825697083357623
1.06,0.01582879831339498
1.064,0.015821994839747132
1.068,0.01584454486901103
1.072,0.015871470277087324
1.076,0.01588281741334805
1.08,0.015895102130782858
1.084,0.01590519915881147
1.088,0.015930537891054697
1.092,0.015935514283440227
1.096,0.01593594701321288
1.1,0.015939625216280447
1.104,0.01595407358257853
1.108,0.015950443460596816
1.112,0.01593517771583927
1.116,0.015934793067152467
1.12,0.01593137931005708
1.124,0.015926066350070597
1.1280000000000001,0.015903852888407656
1.1320000000000001,0.01590488663175344
1.1360000000000001,0.015905127037182692
1.1400000000000001,0.015907362807674744
1.1440000000000001,0.015891520089886993
1.1480000000000001,0.01587976426439654
1.1520000000000001,0.015893154846805913
1.156,0.015898467806792396
1.16,0.01589966983393866
1.164,0.015894669401010204
1.168,0.01591301233526218
1.172,0.01592560957975502
1.176,0.015934143972493486
1.18,0.015935297918553897
1.184,0.015949578001051505
1.188,0.01597436380080745
1.192,0.015977801598445765
1.196,0.015975565827953713
1.2,0.01598628791009838
1.204,0.015999029397848773
1.208,0.01599112005922636
1.212,0.015972921368231936
1.216,0.015975012895466434
1.22,0.015976383206413175
1.224,0.01596929124625022
1.228,0.015962632015859922
1.232,0.01596092513731223
1.236,0.015959386542565013
1.24,0.01596361767811986
1.244,0.015948400014448166
1.248,0.015940490675825755
1.252,0.015952486906745462
1.256,0.015948400014448166
1.26,0.015941812905686643
1.264,0.015938110662076156
1.268,0.015942870689575356
1.272,0.015955299650267717
1.276,0.01594741435218823
1.28,0.01592986475585279
1.284,0.01593433629683689
1.288,0.015942101392201747
1.292,0.015943375540976787
1.296,0.01594178886514372
1.3,0.015943471703148488
1.304,0.01595933846147916
1.308,0.015961910799572165
1.312,0.015952486906745462
1.316,0.01595517944755309
1.32,0.015968882557020492
1.324,0.015970421151767708
1.328,0.015963016664546727
1.332,0.015959386542565013
1.336,0.015958857650620658
1.34,0.015959891393966443
1.344,0.015934696904980766
1.348,0.015919359038594448
1.352,0.015922436228088883
1.356,0.015911449699972036
1.36,0.01589880437439335
1.364,0.015885365710898127
1.368,0.015883202062034852
1.372,0.015876951520874285
1.3760000000000001,0.015866349641444243
1.3800000000000001,0.015857502721647748
1.3840000000000001,0.01586437831692437
1.3880000000000001,0.015869811479625483
1.3920000000000001,0.015853584113150927
1.3960000000000001,0.015831202367687508
1.4000000000000001,0.015845434369099264
1.4040000000000001,0.015849785707368735
1.408,0.015849425099224858
1.412,0.015828894475566683
1.416,0.015835938354643784
1.42,0.015850386720941866
1.424,0.01585682958644584
1.428,0.01585194935623201
1.432,0.01585524291061277
1.436,0.0158692585471382
1.44,0.015934047810321785
1.444,0.01593178799928681
1.448,0.015925922106813047
1.452,0.01593224476960239
1.456,0.015921354403657245
1.46,0.01590195368551656
1.464,0.015907242604960115
1.468,0.015922989160576165
1.472,0.015912267078431498
1.476,0.015912699808204152
1.48,0.01592560957975502
1.484,0.015926691404186656
1.488,0.015923638255235146
1.492,0.01590584825347045
1.496,0.01590428561818031
1.5,0.015921787133429902
1.504,0.015919286916965675
1.508,0.015902722982890166
1.512,0.01590880524025026
1.516,0.01592022449813976
1.52,0.01592560957975502
1.524,0.015917555997875053
1.528,0.015915584673355184
1.532,0.015930273445082518
1.536,0.015938375108048332
1.54,0.01592443159315168
1.544,0.015916065484213687
1.548,0.015914238402951367
1.552,0.015919070552079344
1.556,0.01591830125470574
1.56,0.015900102563711313
1.564,0.015903997131665206
1.568,0.01591580103824151
1.572,0.015914502848923547
1.576,0.01590428561818031
1.58,0.015913348902863132
1.584,0.01591443072729477
1.588,0.01590695411844501
1.592,0.0158943809144951
1.596,0.015899213063623078
1.6,0.015920801471169966
1.604,0.015923229566005417
1.608,0.015917195389731176
1.612,0.015923469971434668
1.616,0.015933494877834502
1.62,0.01592479220129556
1.624,0.015916089524756614
1.6280000000000001,0.015900006401539612
1.6320000000000001,0.015911858389201766
1.6360000000000001,0.015914574970552323
1.6400000000000001,0.01590310763157697
1.6440000000000001,0.015901544996286827
1.6480000000000001,0.01590411733437983
1.6520000000000001,0.015911810308115917
1.6560000000000001,0.01589611183358572
1.6600000000000001,0.01589002957622563
1.6640000000000001,0.015895582941641364
1.668,0.01590863695644978
1.672,0.015894765563181906
1.676,0.015878033345305922
1.68,0.01588103841317158
1.684,0.01588630329207221
1.688,0.01589118352228604
1.692,0.015889620886995897
1.696,0.015893323130606388
1.7,0.015914046078607965
1.704,0.01591726751135995
1.708,0.015906521388672358
1.712,0.015910944848570606
1.716,0.015929984958567414
1.72,0.015927845350247067
1.724,0.015912579605489526
1.728,0.015903035509948194
1.732,0.015917099227559475
1.736,0.015917099227559475
1.74,0.015911545862143738
1.744,0.015903684604607178
1.748,0.01590503087501099
1.752,0.01591416628132259
1.756,0.015900391050226417
1.76,0.015886736021844868
1.764,0.015892313427803527
1.768,0.015896544563358376
1.772,0.015893900103636595
1.776,0.015886495616415613
1.78,0.015889236238309096
1.784,0.015901112266514174
1.788,0.015902314293660437
1.792,0.015893900103636595
1.796,0.015907002199530864
1.8,0.015913901835350415
1.804,0.015918878227735946
1.808,0.015911377578343263
1.812,0.015902073888231186
1.816,0.015910295753911625
1.82,0.015911666064858367
1.824,0.01590916584839414
1.828,0.015903203793748672
1.832,0.015916137605842463
1.836,0.015919190754793974
1.84,0.015914070119150893
1.844,0.015911209294542785
1.848,0.01592164289017235
1.852,0.015929672431509386
1.856,0.015915680835526885
1.86,0.015906401185957732
1.864,0.015908781199707334
1.868,0.015918469538506213
1.872,0.01592032066031146
1.8760000000000001,0.01591647417344342
1.8800000000000001,0.01592092167388459
1.8840000000000001,0.015923229566005417
1.8880000000000001,0.015918421457420364
1.8920000000000001,0.015909935145767745
1.8960000000000001,0.015915921240956137
1.9000000000000001,0.01592118611985677
1.9040000000000001,0.015915632754441033
1.9080000000000001,0.01589853992842117
1.9120000000000001,0.015900342969140564
1.9160000000000001,0.015917507916789204
1.92,0.015925224931068214
1.924,0.015916402051814642
1.928,0.0159125555649466
1.932,0.015932461134488717
1.936,0.015929696472052314
1.94,0.01592291703894739
1.944,0.015915175984125455
1.948,0.01592753282318904
1.952,0.01592981667476694
1.956,0.015914358605665993
1.96,0.01590844463210638
1.964,0.015914214362408443
1.968,0.015920705308998265
1.972,0.015910752524227204
1.976,0.015898948617650902
1.98,0.015911617983772514
1.984,0.01592419118772243
1.988,0.01591077656477013
1.992,0.01590503087501099
1.996,0.015919479241309077
2.0,0.015931162945170753
2.004,0.01592234006591718
2.008,0.015909478375452167
2.012,0.015912026673002243
2.016,0.015917195389731176
2.02,0.015914623051638172
2.024,0.015904910672296366
2.028,0.015910848686398905
2.032,0.015921354403657245
2.036,0.015920032173796356
2.04,0.015910944848570606
2.044,0.015897410022903683
2.048,0.015904574104695413
2.052,0.015911377578343263
2.056,0.015907507050932294
2.06,0.015900487212398118
2.064,0.015911858389201766
2.068,0.015916546295072193
2.072,0.01592022449813976
2.076,0.015918878227735946
2.08,0.015908468672649306
2.084,0.015912218997345646
2.088,0.01590697815898794
2.092,0.01590007852316839
2.096,0.015900943982713696
2.1,0.0159035163208067
2.104,0.01589560698218429
2.108,0.01589026998165488
2.112,0.015894981928068232
2.116,0.01590204984768826
2.12,0.01590981494305312
2.124,0.015888154413877458
2.128,0.015880798007742326
2.132,0.015889332400480797
2.136,0.015895438698383814
2.14,0.015888322697677933
2.144,0.015887096629988745
2.148,0.015890967157399714
2.152,0.0158941885901517
2.156,0.015880894169914027
2.16,0.015863705181722466
2.164,0.015888298657135008
2.168,0.015889019873422765
2.172,0.015876398588387002
2.176,0.01587844203453565
2.18,0.015889524724824196
2.184,0.015896664766073
2.188,0.015892145144003052
2.192,0.015881903872716888
2.196,0.015885173386554725
2.2,0.015892674035947407
2.204,0.01589503000915408
2.208,0.015889741089710526
2.212,0.015889212197766168
2.216,0.015903083591034047
2.22,0.01589127968445774
2.224,0.015888539062564263
2.228,0.015886543697501466
2.232,0.015897506185075384
2.236,0.01589423667123755
2.24,0.015880894169914027
2.244,0.015876206264043603
2.248,0.01588940452210957
2.2520000000000002,0.015899116901451377
2.2560000000000002,0.015887505319218474
2.2600000000000002,0.01587579757481387
2.2640000000000002,0.015893034644091288
2.2680000000000002,0.01590620886161433
2.2720000000000002,0.01589454919829558
2.2760000000000002,0.015882889534976824
2.2800000000000002,0.01588793804899113
2.2840000000000003,0.015899982360996687
2.2880000000000003,0.015896640725530077
2.2920000000000003,0.015883803075607984
2.2960000000000003,0.015890558468169984
2.3000000000000003,0.015902025807145333
2.3040000000000003,0.01588793804899113
2.308,0.015881807710545186
2.312,0.015889644927538825
2.316,0.015900799739456146
2.32,0.01589503000915408
2.324,0.015886375413700988
2.328,0.01588825057604916
2.332,0.01588930835993787
2.336,0.0159035163208067
2.34,0.015889909373511
2.344,0.015891736454773323
2.348,0.01590007852316839
2.352,0.0159058001723846
2.356,0.015898828414936273
2.36,0.015900847820541998
2.364,0.015908925442964884
2.368,0.01590854079427808
2.372,0.015904405820894935
2.376,0.01588993341405393
2.38,0.01590058337456982
2.384,0.015903564401892552
2.388,0.0158964724417296
2.392,0.015884404089181115
2.396,0.01588387519723676
2.4,0.015898972658193827
2.404,0.015898948617650902
2.408,0.015884812778410844
2.412,0.01588899583287984
2.416,0.01590479046958174
2.42,0.01589930922579478
2.424,0.01589774659050464
2.428,0.01589966983393866
2.432,0.015901112266514174
2.436,0.01589798699593389
2.44,0.015890606549255833
2.444,0.015889596846452973
2.448,0.015892385549432304
2.452,0.01589839568516362
2.456,0.01589555890109844
2.46,0.015890510387084132
2.464,0.015907290686045968
2.468,0.015912315159517347
2.472,0.01590118438814295
2.476,0.015894501117209726
2.48,0.015889428562652498
2.484,0.015900102563711313
2.488,0.01589853992842117
2.492,0.015876182223500675
2.496,0.015888466940935486
2.5,0.01590955049708094
2.504,0.015900030442082536
2.508,0.01588825057604916
2.512,0.015896544563358376
2.516,0.015902795104518943
2.52,0.01589565506327014
2.524,0.015892890400833734
2.528,0.015883442467464107
2.532,0.015880701845570624
2.536,0.015891904738573798
2.54,0.015888178454420383
2.544,0.015883178021491928
2.548,0.01589529445512626
2.552,0.01589464536046728
2.556,0.01588382711615091
2.56,0.015887817846276502
2.564,0.0159056078480412
2.568,0.015913733551549937
2.572,0.01589478960372483
2.576,0.015883658832350434
2.58,0.01590274702343309
2.584,0.015908324429391753
2.588,0.01590260278017554
2.592,0.0158898132113393
2.596,0.01589880437439335
2.6,0.01591219495680272
2.604,0.015906641591386984
2.608,0.015896905171502253
2.612,0.01590149691520098
2.616,0.015899044779822603
2.62,0.01588611096772881
2.624,0.01588250488629002
2.628,0.015882649129547573
2.632,0.01589789083376219
2.636,0.01589377990092197
2.64,0.015884957021668398
2.644,0.015888563103107187
2.648,0.015894477076666802
2.652,0.015893707779293192
2.656,0.015875124439611966
2.66,0.015881735588916413
2.664,0.01589539061729796
2.668,0.015895823347070615
2.672,0.01588839481930671
2.676,0.01588062972394185
2.68,0.015892986563005435
2.684,0.015897650428332938
2.688,0.015899237104166002
2.692,0.015890510387084132
2.696,0.015891063319571415
2.7,0.015892289387260602
2.704,0.01589721769856028
2.708,0.01588281741334805
2.712,0.015887409157046773
2.716,0.015892217265631826
2.72,0.015884957021668398
2.724,0.01587327331780672
2.728,0.015878105466934696
2.732,0.015893130806262985
2.736,0.015892337468346455
2.74,0.015874595547667607
2.744,0.015869955722883033
2.748,0.015893683738750268
2.7520000000000002,0.015892674035947407
2.7560000000000002,0.015882408724118318
2.7600000000000002,0.015888322697677933
2.7640000000000002,0.01590757917256107
2.7680000000000002,0.015907939780704948
2.7720000000000002,0.015903035509948194
2.7760000000000002,0.015901040144885397
2.7800000000000002,0.01589091907631386
2.7840000000000003,0.015895631022727213
2.7880000000000003,0.015891760495316248
2.7920000000000003,0.015894957887525308
2.7960000000000003,0.015894597279381428
2.8000000000000003,0.015893900103636595
2.8040000000000003,0.01588377903506506
2.8080000000000003,0.015874475344952982
2.8120000000000003,0.01587916325082341
2.816,0.01589094311685679
2.82,0.01587824971019225
2.824,0.015868561371393367
2.828,0.015884932981125473
2.832,0.015895222333497484
2.836,0.015888827549079367
2.84,0.015881783670002262
2.844,0.015881615386201788
2.848,0.01589077483305631
2.852,0.01588865926527889
2.856,0.015879812345482393
2.86,0.015880413359055524
2.864,0.015887817846276502
2.868,0.01589774659050464
2.872,0.015879235372452186
2.876,0.015873898371922775
2.88,0.015884091562123087
2.884,0.015894981928068232
2.888,0.015875316763955368
2.892,0.015866902573931526
2.896,0.01587062885808494
2.9,0.015874499385495906
2.904,0.0158691623849665
2.908,0.015863897506065868
2.912,0.015871830885231204
2.916,0.015871782804145352
2.92,0.015869474912024527
2.924,0.015872263615003858
2.928,0.01587473979092516
2.932,0.01587524464232659
2.936,0.01587397049355155
2.94,0.015873153115092093
2.944,0.015872624223147738
2.948,0.015875845655899723
2.952,0.01588488490003962
2.956,0.015870388452655686
2.96,0.01586683045230275
2.964,0.01587990850765409
2.968,0.015889019873422765
2.972,0.015885533994698605
2.976,0.01588204811597444
2.98,0.01588454833243867
2.984,0.015892241306174754
2.988,0.015873008871834543
2.992,0.015869787439082555
2.996,0.01587880264267953
3.0,0.01588630329207221
3.004,0.015880365277969672
3.008,0.015872744425862364
3.012,0.015876037980243125
3.016,0.015890991197942638
3.02,0.01588519742709765
3.024,0.015872479979890185
3.028,0.015872287655546782
3.032,0.015883153980949003
3.036,0.01588312994040608
3.04,0.015869186425509423
3.044,0.015873249277263794
3.048,0.01588560611632738
3.052,0.01588469257569622
3.056,0.015861998303174772
3.06,0.015870220168855212
3.064,0.015880605683398923
3.068,0.015880966291542804
3.072,0.01587911516973756
3.076,0.015874667669296384
3.08,0.01588469257569622
3.084,0.01589404434689415
3.088,0.015882336602489545
3.092,0.01587149431763025
3.096,0.01587738425064694
3.1,0.01587949981842436
3.104,0.01587327331780672
3.108,0.015870003803968885
3.112,0.015863248411406884
3.116,0.015873105034006244
3.12,0.015876086061328974
3.124,0.015869474912024527
3.128,0.015867215100989554
3.132,0.015876855358702584
3.136,0.015879091129194632
3.14,0.015875100399069038
3.144,0.015876134142414827
3.148,0.01587921133190926
3.152,0.015887288954332147
3.156,0.015881831751088114
3.16,0.015883586710721657
3.164,0.015900342969140564
3.168,0.015898684171678723
3.172,0.015873682007036448
3.176,0.015872528060976037
3.18,0.015887673603018952
3.184,0.015886255210986362
3.188,0.015872479979890185
3.192,0.015864570641267773
3.196,0.015881206696972055
3.2,0.015883298224206553
3.204,0.015872143412289232
3.208,0.015871734723059503
3.212,0.015880846088828178
3.216,0.015887361075960924
3.22,0.01588361075126458
3.224,0.015880966291542804
3.228,0.01588438004863819
3.232,0.015884500251352816
3.236,0.015882120237603218
3.24,0.015876110101871902
3.244,0.015875364845041217
3.248,0.015876711115445034
3.2520000000000002,0.015879091129194632
3.2560000000000002,0.01587190300685998
3.2600000000000002,0.015873585844864747
3.2640000000000002,0.01589606375249987
3.2680000000000002,0.015891472008801144
3.2720000000000002,0.015878634358879054
3.2760000000000002,0.0158784901156215
3.2800000000000002,0.015884500251352816
3.2840000000000003,0.01589063058979876
3.2880000000000003,0.01588596672447126
3.2920000000000003,0.0158784901156215
3.2960000000000003,0.015885173386554725
3.3000000000000003,0.01589671284715885
3.3040000000000003,0.015892409589975228
3.3080000000000003,0.015879836386025317
3.3120000000000003,0.015895486779469663
3.3160000000000003,0.015897337901274906
3.3200000000000003,0.01589286636029081
3.3240000000000003,0.015878634358879054
3.3280000000000003,0.01588488490003962
3.332,0.01589813123919144
3.336,0.015885990765014183
3.34,0.01588108649425743
3.344,0.0158829616566056
3.348,0.01589094311685679
3.352,0.01589774659050464
3.356,0.01589017381948318
3.36,0.01588312994040608
3.364,0.015893659698207344
3.368,0.01589474152263898
3.372,0.015881471142944234
3.376,0.015880221034712122
3.38,0.015890390184369507
3.384,0.015895270414583336
3.388,0.015874066655723253
3.392,0.01587560525047047
3.396,0.015885005102754247
3.4,0.015881471142944234
3.404,0.015869474912024527
3.408,0.01586582074949989
3.412,0.01587851415616443
3.416,0.015881062453714505
3.42,0.015874956155811488
3.424,0.01587949981842436
3.428,0.015864354276381446
3.432,0.015876590912730405
3.436,0.01587692748033136
3.44,0.01586747954696173
3.444,0.015873994534094476
3.448,0.01588300973769145
3.452,0.015882312561946617
3.456,0.01586976339853963
3.46,0.015869643195825005
3.464,0.015870364412112762
3.468,0.015889789170796375
3.472,0.01587440322332421
3.476,0.015870148047226435
3.48,0.015877191926303536
3.484,0.01587880264267953
3.488,0.015869835520168407
3.492,0.015869811479625483
3.496,0.01589154413042992
3.5,0.015892265346717678
3.504,0.015881206696972055
3.508,0.01587488403418271
3.512,0.015888923711251064
3.516,0.01588529358926935
3.52,0.015870196128312287
3.524,0.015857142113503867
3.528,0.015863657100636613
3.532,0.015873802209751077
3.536,0.015868729655193845
3.54,0.015862118505889398
3.544,0.01587062885808494
3.548,0.015875893736985572
3.552,0.015867455506418805
3.556,0.01586190214100307
3.56,0.015868393087592893
3.564,0.015875220601783667
3.568,0.015876254345129452
3.572,0.015857743127077
3.576,0.015866493884701797
3.58,0.015884211764837713
3.584,0.015885942683928334
3.588,0.01586971531745378
3.592,0.015865989033300366
3.596,0.01587724000738939
3.6,0.015887865927362355
3.604,0.01586418599258097
3.608,0.015859041316394963
3.612,0.015872287655546782
3.616,0.01587336947997842
3.62,0.015860603951685107
3.624,0.01585706999187509
3.628,0.015877720818247894
3.632,0.01588281741334805
3.636,0.015874355142238356
3.64,0.015859474046167617
3.644,0.015862094465346473
3.648,0.015874932115268563
3.652,0.015866590046873498
3.656,0.01585399280238066
3.66,0.01585723827567557
3.664,0.015871518358173176
3.668,0.015864859127782877
3.672,0.015852165721118337
3.676,0.015851011775057922
3.68,0.015865844790042813
3.684,0.015866614087416422
3.688,0.015853800478037257
3.692,0.015852766734691468
3.696,0.015859281721824218
3.7,0.015861637695030892
3.704,0.015855531397127875
3.708,0.01584113111191564
3.712,0.01585601220798638
3.716,0.0158601231408266
3.72,0.01585103581560085
3.724,0.0158556515998425
3.728,0.01586007505974075
3.732,0.01586524377646968
3.736,0.01586490720886873
3.74,0.015845025679869534
3.744,0.015853487950979225
3.748,0.01586582074949989
3.7520000000000002,0.015861325167972864
3.7560000000000002,0.01584615558538702
3.7600000000000002,0.015849088531623902
3.7640000000000002,0.01586408983040927
3.7680000000000002,0.01586656600633057
3.7720000000000002,0.015850987734514998
3.7760000000000002,0.0158510838966867
3.7800000000000002,0.015876134142414827
3.7840000000000003,0.01587397049355155
3.7880000000000003,0.015862118505889398
3.7920000000000003,0.01585199743731786
3.7960000000000003,0.015866710249588124
3.8000000000000003,0.015870749060799567
3.8040000000000003,0.015859401924538843
3.8080000000000003,0.01585204551840371
3.8120000000000003,0.015864258114209745
3.8160000000000003,0.015878874764308305
3.8200000000000003,0.015866806411759825
3.8240000000000003,0.015865388019727235
3.8280000000000003,0.015875869696442647
3.8320000000000003,0.015876999601960134
3.8360000000000003,0.015870725020256642
3.84,0.015862671438376677
3.844,0.01587007592559766
3.848,0.0158736339259506
3.852,0.01585985869485442
3.856,0.015856228572872708
3.86,0.015864161952038044
3.864,0.01588007679145457
3.868,0.015874595547667607
3.872,0.015869066222794798
3.876,0.015864714884525326
3.88,0.01587255210151896
3.884,0.015875773534270946
3.888,0.015860579911142182
3.892,0.015856036248529305
3.896,0.01586312820869226
3.9,0.01586851329030752
3.904,0.015864522560181924
3.908,0.01585716615404679
3.912,0.015864354276381446
3.916,0.015882745291719274
3.92,0.015868946020080172
3.924,0.015857358478390194
3.928,0.01586966723636793
3.932,0.015876446669472855
3.936,0.015858416262278907
3.94,0.015848319234250296
3.944,0.015863657100636613
3.948,0.015874114736809105
3.952,0.015861325167972864
3.956,0.015851300261573026
3.96,0.015854689978125492
3.964,0.01586190214100307
3.968,0.015858079694677955
3.972,0.015849641464111185
3.976,0.015854714018668416
3.98,0.01586418599258097
3.984,0.015865195695383832
3.988,0.015850506923656492
3.992,0.015850074193883838
3.996,0.015858993235309114
4.0,0.015858007573049178
4.0040000000000004,0.0158578392892487
4.008,0.015859401924538843
4.0120000000000005,0.015858728789336935
4.016,0.01586921046605235
4.0200000000000005,0.015858488383907684
4.024,0.015839881003683526
4.0280000000000005,0.015849881869540436
4.032,0.01585194935623201
4.0360000000000005,0.015849569342482408
4.04,0.015834519962611194
4.0440000000000005,0.015848703882937097
4.048,0.015858560505536457
4.0520000000000005,0.015864931249411653
4.056,0.015851829153517384
4.0600000000000005,0.015853560072608002
4.064,0.015860603951685107
4.0680000000000005,0.015859401924538843
4.072,0.015840698382142984
4.0760000000000005,0.01583774139536318
4.08,0.015855795843100054
4.0840000000000005,0.015858488383907684
4.088,0.015841876368746323
4.0920000000000005,0.01584077050377176
4.096,0.015860964559828983
4.1,0.015856036248529305
4.104,0.015844184260867148
4.108,0.015845867098871917
4.112,0.015849593383025332
4.116,0.015853584113150927
4.12,0.015845218004212937
4.124,0.01583774139536318
4.128,0.01584834327479322
4.132,0.01585819989739258
4.136,0.015845506490728037
4.14,0.015843895774352044
4.144,0.015861325167972864
4.148,0.0158557477620142
4.152,0.015848824085651726
4.156,0.015852237842747113
4.16,0.015847598017962535
4.164,0.015859738492139796
4.168,0.015857743127077
4.172,0.01584043393617081
4.176,0.01583783755753488
4.18,0.015856613221559512
4.184,0.015858368181193055
4.188,0.015841203233544415
4.192,0.01583194762451819
4.196,0.015848944288366352
4.2,0.01585581988364298
4.204,0.01583961655771135
4.208,0.01583656340875984
4.212,0.01584966550465411
4.216,0.01584702104493233
4.22,0.015836371084416438
4.224,0.015832476516462544
4.228,0.01584538628801341
4.232,0.01587190300685998
4.236,0.015858151816306728
4.24,0.015844256382495925
4.244,0.01585728635676142
4.248,0.01586098860037191
4.252,0.015863609019550765
4.256,0.01585432936998161
4.26,0.015854689978125492
4.264,0.01586454660072485
4.268,0.015858536464993533
4.272,0.01585295905903487
4.276,0.015857959491963326
4.28,0.015861373249058713
4.284,0.01585194935623201
4.288,0.01584331880132184
4.292,0.0158465161935309
4.296,0.0158533677482646
4.3,0.01584589113941484
4.304,0.01582829346199355
4.308,0.015828870435023755
4.312,0.015840602219971283
4.316,0.015848679842394173
4.32,0.015847189328732806
4.324,0.0158463238691875
4.328,0.01584875196402295
4.332,0.015849737626282886
4.336,0.015843030314806737
4.34,0.015834183395010238
4.344,0.015848223072078595
4.348,0.015857526762190672
4.352,0.01585678150535999
4.356,0.015834015111209764
4.36,0.015832837124606425
4.364,0.015849713585739958
4.368,0.015846395990816272
4.372,0.015820864934229642
4.376,0.01582295646146414
4.38,0.015839544436082573
4.384,0.015843487085122315
4.388,0.015840842625400538
4.392,0.015840337773999107
4.396,0.01585615645124393
4.4,0.01585464189703964
4.404,0.015839688679340123
4.408,0.015834712286954596
4.412,0.01585043480202772
4.416,0.01584952126139656
4.42,0.015838871300880665
4.424,0.015834712286954596
4.428,0.015847718220677164
4.432,0.015857406559476046
4.436,0.015844232341953
4.44,0.015838294327850458
4.444,0.015847357612533284
4.448,0.01585591604581468
4.452,0.015846948923303555
4.456,0.01584254950394823
4.46,0.015832428435376696
4.464,0.015833942989580987
4.468,0.015845097801498308
4.472,0.01583560178704283
4.476,0.015826899110503886
4.48,0.015844424666296403
4.484,0.01584310243643551
4.488,0.01583596239518671
4.492,0.015841900409289247
4.496,0.015844857396069056
4.5,0.015852718653605616
4.5040000000000004,0.015835169057270174
4.508,0.015827812651135045
4.5120000000000005,0.015838462611650936
4.516,0.01585031459931309
4.5200000000000005,0.01584305435534966
4.524,0.01583488057075507
4.5280000000000005,0.015840914747029314
4.532,0.01585505058626937
4.5360000000000005,0.015843847693266196
4.54,0.015844208301410072
4.5440000000000005,0.015863536897921988
4.548,0.015853536032065078
4.5520000000000005,0.015844568909553953
4.556,0.015838414530565087
4.5600000000000005,0.015847670139591312
4.564,0.015863416695207362
4.5680000000000005,0.01585581988364298
4.572,0.015832163989404516
4.5760000000000005,0.015844232341953
4.58,0.015853223505007046
4.5840000000000005,0.015842669706662857
4.588,0.01584310243643551
4.5920000000000005,0.015841467679516594
4.596,0.015853800478037257
4.6000000000000005,0.01585870474879401
4.604,0.015837236543961748
4.6080000000000005,0.015836491287131063
4.612,0.015865772668414036
4.616,0.015863056087063482
4.62,0.015851396423744727
4.624,0.015843583247294016
4.628,0.015850699247999894
4.632,0.015865460141356008
4.636,0.015850867531800372
4.64,0.015839784841511825
4.644,0.01585026651822724
4.648,0.015864258114209745
4.652,0.015862142546432322
4.656,0.015884836818953772
4.66,0.015881975994345664
4.664,0.015884957021668398
4.668,0.015877312129018165
4.672,0.01586793631727731
4.676,0.015869787439082555
4.68,0.015882264480860768
4.684,0.015879475777881437
4.688,0.015855290991698624
4.692,0.015860868397657282
4.696,0.015873297358349643
4.7,0.015873201196177945
4.704,0.015854281288895763
4.708,0.01584738165307621
4.712,0.01585637281613026
4.716,0.015851973396774934
4.72,0.01585687766753169
4.724,0.015855074626812297
4.728,0.015848150950449818
4.732,0.015859233640738366
4.736,0.015850362680398942
4.74,0.015839544436082573
4.744,0.015850963693972073
4.748,0.015857526762190672
4.752,0.015849881869540436
4.756,0.015842525463405307
4.76,0.015845338206927562
4.764,0.015858320100107206
4.768,0.01585709403241802
4.772,0.015844592950096877
4.776,0.015844352544667626
4.78,0.015852766734691468
4.784,0.015846900842217702
4.788,0.01582418252915333
4.792,0.01584053009834251
4.796,0.015847622058505463
4.8,0.01584966550465411
4.804,0.015842236976890203
4.808,0.015836491287131063
4.812,0.01586709489827493
4.816,0.015869042182251873
4.82,0.01584935297759608
4.824,0.015848631761308324
4.828,0.015857454640561895
4.832,0.015859570208339318
4.836,0.01585199743731786
4.84,0.01583286116514935
4.844,0.01584144363897367
4.848,0.01585372835640848
4.852,0.015841419598430745
4.856,0.015847910545020563
4.86,0.01585642089721611
4.864,0.01584721336927573
4.868,0.015837356746676374
4.872,0.01582656254290293
4.876,0.015840097368569853
4.88,0.015856108370158082
4.884,0.015841227274087342
4.888,0.015827548205162866
4.892,0.01584117919300149
4.896,0.015850050153340914
4.9,0.015848150950449818
4.904,0.015844112139238375
4.908,0.015842381220147753
4.912,0.015854113005095285
4.916,0.01585560351875665
4.92,0.015840337773999107
4.924,0.01584168404440292
4.928,0.015856132410701006
4.932,0.015855531397127875
4.936,0.015846035382672395
4.94,0.01583697209798957
4.944,0.015849929950626288
4.948,0.01585937788399592
4.952,0.01583601047627256
4.956,0.015828557907965727
4.96,0.015844977598783682
4.964,0.01586130112742994
4.968,0.0158555554376708
4.972,0.015847261450361583
4.976,0.01584555457181389
4.98,0.01584980974791166
4.984,0.015849064491080977
4.988,0.015836683611474466
4.992,0.0158327169218918
4.996,0.015854473613239165
5.0,0.015854040883466508
5.0040000000000004,0.01584170808494585
5.008,0.01583632300333059
5.0120000000000005,0.015850651166914045
5.016,0.015853536032065078
5.0200000000000005,0.01582915892153886
5.024,0.015830817719000703
5.0280000000000005,0.015842934152635036
5.032,0.015844112139238375
5.0360000000000005,0.01584331880132184
5.04,0.01584478527444028
5.0440000000000005,0.01585194935623201
5.048,0.01586396962769464
5.0520000000000005,0.01585702191078924
5.056,0.015841491720059518
5.0600000000000005,0.01585235804546174
5.064,0.015857118072960943
5.0680000000000005,0.01584798266664934
5.072,0.015833894908495138
5.0760000000000005,0.015836996138532494
5.08,0.015841227274087342
5.0840000000000005,0.015842982233720885
5.088,0.015829904178369544
5.0920000000000005,0.015832933286778126
5.096,0.01584158788223122
5.1000000000000005,0.015838053922421207
5.104,0.015827764570049193
5.1080000000000005,0.015820840893686718
5.112,0.01582449505621136
5.1160000000000005,0.015825624961728846
5.12,0.01581348448755159
5.124,0.015814157622753493
5.128,0.015832236111033293
5.132,0.0158464200313592
5.136,0.015829832056740767
5.14,0.015822115042461758
5.144,0.015832500557005472
5.148,0.015847357612533284
5.152,0.01584230909851898
5.156,0.015816585717588948
5.16,0.015837525030476852
5.164,0.015838462611650936
5.168,0.01582774052950627
5.172,0.015824831623812312
5.176,0.01582656254290293
5.18,0.015837308665590525
5.184,0.015842116774175578
5.188,0.015825288394127893
5.192,0.015832284192119142
5.196,0.015854209167266986
5.2,0.01584396789598082
5.204,0.01582920700262471
5.208,0.01582326898852217
5.212,0.015834664205868744
5.216,0.015845602652899738
5.22,0.015832981367863975
5.224,0.015832740962434724
5.228,0.015836611489845692
5.232,0.015840241611827406
5.236,0.015835770070843306
5.24,0.01583870301708019
5.244,0.01584738165307621
5.248,0.015844256382495925
5.252,0.01583875109816604
5.256,0.01583555370595698
5.26,0.01584199657146095
5.264,0.015851204099401325
5.268,0.01583589027355793
5.272,0.015822571812777336
5.276,0.01583589027355793
5.28,0.015854449572696237
5.284,0.015854281288895763
5.288,0.015838270287307533
5.292,0.01583733270613345
5.296,0.01585204551840371
5.3,0.015836731692560318
5.304,0.015829279124253484
5.308,0.015836443206045214
5.312,0.015840409895627884
5.316,0.015839544436082573
5.32,0.015832476516462544
5.324,0.015837236543961748
5.328,0.01585259845089099
5.332,0.01585618049178686
5.336,0.01583601047627256
5.34,0.015826899110503886
5.344,0.015847766301763013
5.348,0.01585810373522088
5.352,0.015849545301939483
5.356,0.015837476949391
5.36,0.0158419484903751
5.364,0.015850651166914045
5.368,0.015845001639326606
5.372,0.01584437658521055
5.376,0.015863560938464912
5.38,0.015864859127782877
5.384,0.015858007573049178
5.388,0.015846948923303555
5.392,0.015851612788631054
5.396,0.01586298396543471
5.4,0.01585687766753169
5.404,0.015837645233191477
5.408,0.015838198165678757
5.412,0.015851228139944253
5.416,0.0158465161935309
5.42,0.01584716528818988
5.424,0.015842068693089725
5.428,0.01585560351875665
5.432,0.01586180597883137
5.436,0.015848944288366352
5.44,0.015847093166561105
5.444,0.015861781938288445
5.448,0.015856132410701006
5.452,0.015839784841511825
5.456,0.015834808449126297
5.46,0.01584524204475586
5.464,0.015854569775410866
5.468,0.015846852761131854
5.472,0.015837645233191477
5.476,0.015842837990463335
5.48,0.01585218976166126
5.484,0.01584716528818988
5.488,0.01584473719335443
5.492,0.01583889534142359
5.496,0.01584574689615729
5.5,0.015841780206574622
5.5040000000000004,0.015832837124606425
5.508,0.0158419484903751
5.5120000000000005,0.01585829605956428
5.516,0.01584793458556349
5.5200000000000005,0.015835842192472083
5.524,0.015830457110856823
5.5280000000000005,0.01584218889580435
5.532,0.01585091561288622
5.5360000000000005,0.01583793371970658
5.54,0.01582875023230913
5.5440000000000005,0.015841323436259044
5.548,0.015844160220324224
5.5520000000000005,0.0158328130840635
5.556,0.015830312867599273
5.5600000000000005,0.01583879917925189
5.564,0.015842934152635036
5.5680000000000005,0.015836082597901334
5.572,0.015832091867775743
5.5760000000000005,0.015843679409465718
5.58,0.015849881869540436
5.5840000000000005,0.01583915978739577
5.588,0.0158306253946573
5.5920000000000005,0.015831827421803564
5.596,0.01584738165307621
5.6000000000000005,0.015852766734691468
5.604,0.015835169057270174
5.6080000000000005,0.015831875502889413
5.612,0.015843535166208168
5.6160000000000005,0.015849184693795603
5.62,0.01584629982864457
5.6240000000000006,0.01584468911226858
5.628,0.01584117919300149
5.632,0.015842982233720885
5.636,0.015830601354114376
5.64,0.015827524164619942
5.644,0.015838943422509442
5.648,0.01583884726033774
5.652,0.015835313300527728
5.656,0.01582925508371056
5.66,0.01583564986812868
5.664,0.01584103494974394
5.668,0.01584574689615729
5.672,0.015828918516109607
5.676,0.01584230909851898
5.68,0.015848054788278117
5.684,0.015833918949038062
5.688,0.01583439975989657
5.692,0.01584271778774871
5.696,0.01584615558538702
5.7,0.01583189954343234
5.704,0.015823244947979244
5.708,0.01582860598905158
5.712,0.015839808882054753
5.716,0.015833029448949827
5.72,0.015819494623282904
5.724,0.015825624961728846
5.728,0.015835169057270174
5.732,0.015837452908848075
5.736,0.0158329092462352
5.74,0.015830000340541245
5.744,0.015842789909377483
5.748,0.015844929517697833
5.752,0.01583036094868512
5.756,0.01583305348949275
5.76,0.015840049287484004
5.764,0.01583858281436556
5.768,0.01583144277311676
5.772,0.015821225542373522
5.776,0.015832067827232815
5.78,0.015838871300880665
5.784,0.01583067347574315
5.788,0.01582286029929244
5.792,0.015828173259278922
5.796,0.015838919381966517
5.8,0.015829182962081783
5.804,0.01582026392065651
5.808,0.01582574516444347
5.812,0.015835721989757457
5.816,0.015832668840805947
5.82,0.015822740096577814
5.824,0.015833918949038062
5.828,0.01583605855735841
5.832,0.015826802948332185
5.836,0.01581382105515254
5.84,0.015814662474154927
5.844,0.015827379921362388
5.848,0.015835024814012624
5.852,0.015818148352879088
5.856,0.0158234853534085
5.86,0.01583413531392439
5.864,0.015833005408406903
5.868,0.015834159354467314
5.872,0.015830048421627094
5.876,0.01583468824641167
5.88,0.0158464200313592
5.884,0.015840986868658088
5.888,0.015829543570225663
5.892,0.01584002524694108
5.896,0.0158375731115627
5.9,0.01582447101566843
5.904,0.015813941257867167
5.908,0.01581860512319467
5.912,0.015833101570578604
5.916,0.01583478440858337
5.92,0.01581459035252615
5.924,0.015820864934229642
5.928,0.015834423800439493
5.932,0.015834976732926772
5.936,0.015824302731867957
5.94,0.015817859866363984
5.944,0.015819735028712156
5.948,0.015822884339835367
5.952,0.015819494623282904
5.956,0.01581408550112472
5.96,0.01582829346199355
5.964,0.015833245813836154
5.968,0.015823341110150945
5.972,0.015822091001918833
5.976,0.01582336515069387
5.98,0.015833245813836154
5.984,0.01583103408388703
5.988,0.015817451177134255
5.992,0.015820864934229642
5.996,0.015831226408230432
6.0,0.015832644800263022
6.0040000000000004,0.015832091867775743
6.008,0.015826394259102455
6.0120000000000005,0.015833197732750305
6.016,0.015833077530035676
6.0200000000000005,0.01582564900227177
6.024,0.015832765002977648
6.0280000000000005,0.01584666043678845
6.032,0.015832067827232815
6.0360000000000005,0.015825216272499117
6.04,0.01582646638073123
6.0440000000000005,0.015836851895274943
6.048,0.015847189328732806
6.0520000000000005,0.015836587449302764
6.056,0.015828269421450623
6.0600000000000005,0.01583449592206827
6.064,0.015836226841158887
6.0680000000000005,0.015824254650782105
6.072,0.015827668407877492
6.0760000000000005,0.015837909679163657
6.08,0.015839183827938693
6.0840000000000005,0.015832765002977648
6.088,0.015826730826703408
6.0920000000000005,0.015830192664884647
6.096,0.015838414530565087
6.1000000000000005,0.015824831623812312
6.104,0.01581408550112472
6.1080000000000005,0.015817451177134255
6.112,0.015823437272322646
6.1160000000000005,0.015824350812953806
6.12,0.015812234379319473
6.1240000000000006,0.015814013379495943
6.128,0.015826177894216125
6.132000000000001,0.015826995272675587
6.136,0.01581860512319467
6.140000000000001,0.015829038718824233
6.144,0.015835529665414055
6.148,0.01583240439483377
6.152,0.01581773966364936
6.156,0.015826177894216125
6.16,0.01583824624676461
6.164,0.015844592950096877
6.168,0.01582189867757543
6.172,0.015815287528270983
6.176,0.01582459121838306
6.18,0.015834423800439493
6.184,0.01583180338126064
6.188,0.01581576833912949
6.192,0.01581886956916685
6.196,0.015829447408053962
6.2,0.015823148785807543
6.204,0.01581499904175588
6.208,0.015821177461287673
6.212,0.015821586150517403
6.216,0.01581668187976065
6.22,0.015806705054446663
6.224,0.01581276327126383
6.228,0.015829279124253484
6.232,0.015823533434494347
6.236,0.015805719392186727
6.24,0.01580879658168116
6.244,0.015823509393951423
6.248,0.015825288394127893
6.252,0.015813917217324242
6.256,0.015800550675457797
6.26,0.015818773406995147
6.264,0.015826610623988782
6.268,0.015822836258749515
6.272,0.015824783542726463
6.276,0.01583149085420261
6.28,0.01582555284010007
6.284,0.01582079281260087
6.288,0.015815696217500713
6.292,0.015824398894039658
6.296,0.015835770070843306
6.3,0.015822764137120738
6.304,0.01581028709534253
6.308,0.015823341110150945
6.312,0.015830601354114376
6.316,0.015825889407701025
6.32,0.015821778474860805
6.324,0.015811176595430763
6.328,0.015820696650429168
6.332,0.01582007159631311
6.336,0.01581047941968593
6.34,0.01581824451505079
6.344,0.0158327169218918
6.348,0.015823701718294825
6.352,0.015812739230720903
6.356,0.01581112851434491
6.36,0.01581870128536637
6.364,0.015830505191942675
6.368,0.01581759542039181
6.372,0.01580795516267878
6.376,0.015819182096224876
6.38,0.015824975867069862
6.384,0.015820504326085765
6.388,0.015816489555417246
6.392,0.015816128947273366
6.396,0.015823749799380674
6.4,0.015818460879937116
6.404,0.01580829173027973
6.408,0.0158169222851899
6.412,0.015828173259278922
6.416,0.015814349947096896
6.42,0.015806248284131085
6.424,0.015807570513991974
6.428,0.01581240266311995
6.432,0.015820191799027737
6.436,0.015807306068019795
6.44,0.01580514241915652
6.444,0.01581718673116208
6.448,0.015821393826174
6.452,0.015811008311630285
6.456,0.01580946971688307
6.46,0.015813893176781318
6.464,0.01582307666417877
6.468,0.015805671311100878
6.472,0.015804517365040464
6.476,0.015822692015491965
6.48,0.01582235544789101
6.484,0.015810960230544437
6.488,0.015801920986404535
6.492,0.015810142852084975
6.496,0.015819302298939502
6.5,0.01581295559560723
6.5040000000000004,0.015795381958728864
6.508,0.015810046689913274
6.5120000000000005,0.01581951866382583
6.516,0.01581925421785365
6.5200000000000005,0.01581550389315731
6.524,0.015810575581857632
6.5280000000000005,0.015815383690442684
6.532,0.015811320838688313
6.5360000000000005,0.015801560378260658
6.54,0.015806128081416456
6.5440000000000005,0.01582860598905158
6.548,0.01582007159631311
6.5520000000000005,0.01581028709534253
6.556,0.015813772974066692
6.5600000000000005,0.015828053056564297
6.564,0.015829447408053962
6.5680000000000005,0.015817042487904526
6.572,0.015806729094989588
6.5760000000000005,0.015816225109445067
6.58,0.015823004542549993
6.5840000000000005,0.015809541838511843
6.588,0.015806200203045233
6.5920000000000005,0.01581677804193235
6.596,0.01582564900227177
6.6000000000000005,0.015816441474331394
6.604,0.015814253784925195
6.6080000000000005,0.015830096502712946
6.612,0.015832668840805947
6.6160000000000005,0.015818773406995147
6.62,0.015809926487198648
6.6240000000000006,0.015817763704192283
6.628,0.015824278691325033
6.632000000000001,0.01581937442056828
6.636,0.01581290751452138
6.640000000000001,0.015808315770822656
6.644,0.015813917217324242
6.648000000000001,0.015815840460758263
6.652,0.015809758203398173
6.656000000000001,0.015817138650076227
6.66,0.015823557475037272
6.664,0.015822788177663666
6.668,0.01581737905550548
6.672,0.015808628297880684
6.676,0.015819735028712156
6.68,0.015829591651311516
6.684,0.015813244082122334
6.688,0.015811056392716138
6.692,0.015818653204280518
6.696,0.015822619893863188
6.7,0.01581824451505079
6.704,0.015812691149635055
6.708,0.01582062452880039
6.712,0.01582555284010007
6.716,0.015822066961375905
6.72,0.015812522865834577
6.724,0.01581947058273998
6.728,0.015816393393245545
6.732,0.015815816420215338
6.736,0.01581088810891566
6.74,0.01581098427108736
6.744,0.01582322090743632
6.748,0.015823100704721694
6.752,0.015797906215736016
6.756,0.015782448146635073
6.76,0.015813532568637437
6.764,0.01581514328501343
6.768,0.015809806284484022
6.772,0.015806705054446663
6.776,0.01581860512319467
6.78,0.015827355880819464
6.784,0.015806031919244755
6.788,0.01580595979761598
6.792,0.015814926920127103
6.796,0.015807209905848094
6.8,0.015800911283601674
6.804,0.015793963566696274
6.808,0.015787977471507883
6.812,0.015821922718118355
6.816,0.015814205703839346
6.82,0.015800670878172423
6.824,0.01580163249988943
6.828,0.015811609325203417
6.832,0.01580468564884094
6.836,0.01580165654043236
6.84,0.015797401364334586
6.844,0.015810840027829808
6.848,0.015800430472743168
6.852,0.015781726930347316
6.856,0.015806993540961767
6.86,0.015809734162855246
6.864,0.015798579350937925
6.868,0.015789948796027756
6.872,0.01579860339148085
6.876,0.01580434908123999
6.88,0.015818989771881474
6.884,0.015814277825468123
6.888,0.015799781378084188
6.892,0.01581372489298084
6.896,0.015822932420921216
6.9,0.01580307493246495
6.904,0.015799853499712965
6.908,0.015804397162325838
6.912,0.01581468651469785
6.916,0.015812931555064306
6.92,0.01580682525716129
6.924,0.015813532568637437
6.928,0.015820672609886243
6.932,0.01581966290708338
6.936,0.01580879658168116
6.94,0.01581002264937035
6.944,0.015816850163561123
6.948,0.015813532568637437
6.952,0.015789251620282923
6.956,0.01578252026826385
6.96,0.01580240179726304
6.964,0.015804517365040464
6.968,0.015792352850320282
6.972,0.01580636848684571
6.976,0.015807402230191496
6.98,0.01581874936645222
6.984,0.015799540972654937
6.988,0.015774274362040482
6.992,0.01581605682564459
6.996,0.01582286029929244
7.0,0.015799420769940307
7.0040000000000004,0.01579475690461281
7.008,0.01580795516267878
7.0120000000000005,0.01581600874455874
7.016,0.015793651039638246
7.0200000000000005,0.01579302598552219
7.024,0.01580163249988943
7.0280000000000005,0.015814542271440298
7.032,0.015814806717412477
7.0360000000000005,0.015799324607768606
7.04,0.0158007429998012
7.0440000000000005,0.015802954729750324
7.048,0.01580509433807067
7.0520000000000005,0.015797737931935542
7.056,0.015795934891216147
7.0600000000000005,0.015805070297527746
7.064,0.015793626999095322
7.0680000000000005,0.0157984591482233
7.072,0.015801223810659702
7.0760000000000005,0.015816537636503095
7.08,0.01581459035252615
7.0840000000000005,0.01580206522966209
7.088,0.015800262188942694
7.0920000000000005,0.015812739230720903
7.096,0.01581047941968593
7.1000000000000005,0.015806080000330607
7.104,0.015796439742617577
7.1080000000000005,0.01580586363544428
7.112,0.01581276327126383
7.1160000000000005,0.015805310702956998
7.12,0.015794396296468928
7.1240000000000006,0.01579723308053411
7.128,0.015822259285719308
7.132000000000001,0.015810094770999126
7.136,0.015791703755661298
7.140000000000001,0.015797665810306765
7.144,0.015812498825291652
7.148000000000001,0.015811080433259062
7.152,0.01580574343272965
7.156000000000001,0.01580372402712393
7.16,0.01580824364919388
7.164000000000001,0.015807089703133468
7.168,0.015801608459346507
7.172,0.015791968201633477
7.176,0.015808003243764628
7.18,0.015808724460052385
7.184,0.015798915918538877
7.188,0.015782736633150177
7.192,0.015797713891392614
7.196,0.015816128947273366
7.2,0.01580636848684571
7.204,0.015782592389892623
7.208,0.015795550242529342
7.212,0.015813460447008664
7.216,0.015794636701898183
7.22,0.015793290431494366
7.224,0.015793891445067498
7.228,0.01579610317501662
7.232,0.015795285796557163
7.236,0.01578764090390693
7.24,0.01580408463526781
7.244,0.01580422887852536
7.248,0.015791319106974493
7.252,0.015775476389186745
7.256,0.015757205576563547
7.26,0.01578778514716448
7.264,0.0158170184473616
7.268,0.015782712592607252
7.272,0.01577703902447689
7.276,0.015805839594901352
7.28,0.015804469283954615
7.284,0.015788025552593735
7.288,0.015786150390245564
7.292,0.015782087538491193
7.296,0.015787352417391827
7.3,0.015776005281131104
7.304,0.01579184799891885
7.308,0.015806993540961767
7.312,0.01579814662116527
7.316,0.015787112011962572
7.32,0.015772880010550817
7.324,0.015800502594371945
7.328,0.015810263054799604
7.332,0.01581079194674396
7.336,0.015773384861952247
7.34,0.01578290491695065
7.344,0.015793867404524573
7.348,0.015794636701898183
7.352,0.01577545234864382
7.356,0.015786559079475293
7.36,0.015795814688501518
7.364,0.015805286662414073
7.368,0.01580422887852536
7.372,0.015798723594195475
7.376,0.0158170184473616
7.38,0.01581413358221057
7.384,0.01579129506643157
7.388,0.015788939093224895
7.392,0.01581165740628927
7.396,0.015811681446832194
7.4,0.015788025552593735
7.404,0.015757758509050826
7.408,0.015756243954846535
7.412,0.015782472187177998
7.416,0.015790862336658915
7.42,0.015794228012668454
7.424,0.015784395430612018
7.428,0.01579901208071058
7.432,0.01579692055347608
7.436,0.015773456983581024
7.44,0.015778673781395806
7.444,0.01581413358221057
7.448,0.015800550675457797
7.452,0.015766076536902967
7.456,0.015789660309512652
7.46,0.015804926054270193
7.464,0.01581148912248879
7.468,0.01579576660741567
7.472,0.015793963566696274
7.476,0.015803868270381483
7.48,0.015788866971596118
7.484,0.01577891418682506
7.488,0.01579011707982823
7.492,0.01578526089015733
7.496,0.015802425837805965
7.5,0.01579475690461281
7.5040000000000004,0.015780669146458603
7.508,0.01579326639095144
7.5120000000000005,0.015798170661708195
7.516,0.015780044092342547
7.5200000000000005,0.015790501728515035
7.524,0.015800670878172423
7.5280000000000005,0.01581870128536637
7.532,0.01580809940593633
7.5360000000000005,0.015791126782631094
7.54,0.015777591956964168
7.5440000000000005,0.015802185432376714
7.548,0.01579759368867799
7.5520000000000005,0.015774130118782932
7.556,0.015787256255220126
7.5600000000000005,0.015803363418980053
7.564,0.015793098107150964
7.5680000000000005,0.015768095942508692
7.572,0.01578398674138229
7.5760000000000005,0.015795718526329817
7.58,0.015795237715471314
7.5840000000000005,0.01576622078016052
7.588,0.015756941130591368
7.5920000000000005,0.01577864974085288
7.596,0.015816609758131872
7.6000000000000005,0.015812859433435533
7.604,0.015795021350584984
7.6080000000000005,0.015803796148752706
7.612,0.015804877973184344
7.6160000000000005,0.015803123013550798
7.62,0.015799781378084188
7.6240000000000006,0.01579728116161996
7.628,0.015763047428494385
7.632000000000001,0.01575521021150075
7.636,0.01575631607647531
7.640000000000001,0.01576369652315337
7.644,0.015793098107150964
7.648000000000001,0.015786246552417265
7.652,0.015784780079298823
7.656000000000001,0.015769706658884684
7.66,0.01576723048296338
7.664000000000001,0.01579819470225112
7.668,0.015792689417921234
7.672000000000001,0.01578581382264461
7.676,0.01579064597177259
7.68,0.01580860425733776
7.684,0.015794973269499135
7.688,0.015790020917656532
7.692,0.01580651273010326
7.696,0.01578997283657068
7.7,0.015782231781748746
7.704,0.015785837863187536
7.708,0.015792328809777358
7.712,0.015799733296998335
7.716,0.0157893237419117
7.72,0.015764081171840173
7.724,0.0157896122284268
7.728,0.015797713891392614
7.732,0.015794829026241585
7.736,0.015795670445243968
7.74,0.015791703755661298
7.744,0.015799997742970515
7.748,0.01579148739077497
7.752,0.015785645538844133
7.756,0.015774634970184363
7.76,0.015802353716177192
7.764,0.015799036121253506
7.768,0.01576987494268516
7.772,0.0157553544547583
7.776,0.01575922498216927
7.78,0.015784972403642225
7.784,0.01578179905197609
7.788,0.01577009130757149
7.792,0.015804373121782914
7.796,0.01580307493246495
7.8,0.01579869955365255
7.804,0.015795550242529342
7.808,0.015798338945508673
7.812,0.015791703755661298
7.816,0.015785525336129508
7.82,0.015761028022888663
7.824,0.015787256255220126
7.828,0.015804156756896587
7.832,0.01579006899874238
7.836,0.015775981240588176
7.84,0.01580545494621455
7.844,0.015807065662590544
7.848,0.01580357978386638
7.852,0.015772880010550817
7.856,0.01576170115809057
7.86,0.015795886810130295
7.864,0.015803603824409304
7.868,0.01579937268885446
7.872,0.01579737732379166
7.876,0.015802233513462563
7.88,0.015798723594195475
7.884,0.015786799484904544
7.888,0.01577687074067641
7.892,0.015807089703133468
7.896,0.015799420769940307
7.9,0.01577251940240694
7.904,0.01577672649741886
7.908,0.01578367421432426
7.912,0.01578124611948881
7.916,0.015787568782278154
7.92,0.015761629036461795
7.924,0.015760451049858456
7.928,0.015786799484904544
7.932,0.015781198038402958
7.936,0.01576581209093079
7.94,0.015792232647605656
7.944,0.015790958498830616
7.948,0.01578915545811122
7.952,0.015762999347408536
7.956,0.0157804768221152
7.96,0.0158055030273004
7.964,0.015793146188236816
7.968,0.01576160499591887
7.972,0.01575521021150075
7.976,0.015760306806600906
7.98,0.0157848522009276
7.984,0.01578098167351663
7.988,0.015772230915891836
7.992,0.015795021350584984
7.996,0.01578191925469072
8.0,0.015783241484551607
8.004,0.015771629902318705
8.008000000000001,0.015778866105739208
8.012,0.015786342714588966
8.016,0.01575816719828056
8.02,0.015761316509403767
8.024000000000001,0.01578199137631949
8.028,0.015795430039814717
8.032,0.015784731998212974
8.036,0.015773384861952247
8.040000000000001,0.015779346916597714
8.044,0.015795718526329817
8.048,0.015780957632973706
8.052,0.01578453967386957
8.056000000000001,0.01578199137631949
8.06,0.015798338945508673
8.064,0.01579540599927179
8.068,0.015772783848379116
8.072000000000001,0.015780669146458603
8.076,0.015792833661178788
8.08,0.015784251187354468
8.084,0.015788001512050807
8.088000000000001,0.015781053795145408
8.092,0.01579458862081233
8.096,0.015794708823526956
8.1,0.015769249888569103
8.104000000000001,0.015760955901259886
8.108,0.015786342714588966
8.112,0.015786799484904544
8.116,0.015777495794792467
8.120000000000001,0.015783794417038886
8.124,0.015761797320262273
8.128,0.015755546779101702
8.132,0.015755138089871973
8.136000000000001,0.015758431644252734
8.14,0.01579225668814858
8.144,0.015785164727985627
8.148,0.015782640470978476
8.152000000000001,0.01577622164601743
8.156,0.015762350252749552
8.16,0.015796199337188323
8.164,0.01577956328148404
8.168000000000001,0.01575561890073048
8.172,0.01576992302377101
8.176,0.01579256921520661
8.18,0.01578610230915971
8.184000000000001,0.015790525769057963
8.188,0.0157780006461939
8.192,0.015789179498654146
8.196,0.015767518969478485
8.2,0.01577302425380837
8.204,0.01578191925469072
8.208,0.015763335915009488
8.212,0.015761316509403767
8.216,0.015766701591019026
8.22,0.01578545321450073
8.224,0.015772447280778163
8.228,0.015791775877290075
8.232,0.015777591956964168
8.236,0.015753599495124757
8.24,0.01576626886124637
8.244,0.0157896122284268
8.248,0.015771581821232852
8.252,0.015774274362040482
8.256,0.015787592822821078
8.26,0.01576485046921378
8.264,0.015756003549417284
8.268,0.015761629036461795
8.272,0.015783385727809157
8.276,0.015809157189825042
8.28,0.01578417906572569
8.284,0.015756147792674834
8.288,0.015756243954846535
8.292,0.015760763576916484
8.296,0.01577992388962792
8.3,0.015781967335776567
8.304,0.015761124185060364
8.308,0.015760210644429205
8.312,0.015782279862834595
8.316,0.015783145322379906
8.32,0.01577170202394748
8.324,0.015792184566519804
8.328,0.015774466686383885
8.332,0.015763600360981667
8.336,0.015783049160208205
8.34,0.015775428308100897
8.344,0.015766821793733652
8.348,0.01578292895749358
8.352,0.01576900948313985
8.356,0.015759801955199475
8.36,0.015762206009492002
8.364,0.015777519835335395
8.368,0.015780044092342547
8.372,0.015762085806777376
8.376,0.015758575887510288
8.38,0.01575708537384892
8.384,0.01574927219739821
8.388,0.01575708537384892
8.392,0.015763047428494385
8.396,0.01577795256510805
8.4,0.01577840933542363
8.404,0.01576023468497213
8.408,0.0157643936988982
8.412,0.015782977038579428
8.416,0.01577480325398484
8.42,0.015761124185060364
8.424,0.01576042700931553
8.428,0.015762446414921253
8.432,0.015775019618871167
8.436,0.015778529538138256
8.44,0.015766172699074668
8.444,0.015784731998212974
8.448,0.015779202673340164
8.452,0.01576114822560329
8.456,0.015781871173604866
8.46,0.015794059728867976
8.464,0.015790165160914083
8.468,0.015772471321321088
8.472,0.015758720130767838
8.476,0.015769658577798832
8.48,0.015786294633503114
8.484,0.015765090874643034
8.488,0.015759850036285324
8.492,0.015760571252573085
8.496,0.015764658144870377
8.5,0.015767687253278963
8.504,0.01577992388962792
8.508000000000001,0.015766605428847325
8.512,0.015755426576387076
8.516,0.015754585157384694
8.52,0.015754272630326666
8.524000000000001,0.015757181536020622
8.528,0.01575932114434097
8.532,0.01574958472445624
8.536,0.015752325346349717
8.540000000000001,0.015760955901259886
8.544,0.015784876241470524
8.548,0.015778289132709
8.552,0.015756772846790893
8.556000000000001,0.01575932114434097
8.56,0.015759898117371177
8.564,0.015760210644429205
8.568,0.01575867204968199
8.572000000000001,0.015751387765175633
8.576,0.015774154159325857
8.58,0.015782856835864802
8.584,0.01575689304950552
8.588000000000001,0.0157666775504761
8.592,0.015791872039461776
8.596,0.015775428308100897
8.6,0.01575206090037754
8.604000000000001,0.015754152427612036
8.608,0.015758623968596137
8.612,0.01577110101037435
8.616,0.015780500862658125
8.620000000000001,0.015772735767293267
8.624,0.015757205576563547
8.628,0.0157552582925866
8.632,0.015759200941626344
8.636000000000001,0.015760883779631113
8.64,0.01578191925469072
8.644,0.015787809187707405
8.648,0.015787208174134273
8.652000000000001,0.015774514767469737
8.656,0.0157804768221152
8.66,0.01578855444453809
8.664,0.015760667414744783
8.668000000000001,0.015752902319379924
8.672,0.01575456111684177
8.676,0.015759489428141447
8.68,0.015759801955199475
8.684000000000001,0.01574816633242365
8.688,0.015756195873760686
8.692,0.01577074040223047
8.696,0.015789492025712174
8.700000000000001,0.015773961834982454
8.704,0.015790261323085784
8.708,0.01580317109463665
8.712,0.015788121714765437
8.716,0.015768937361511075
8.72,0.015780861470802005
8.724,0.015803195135179575
8.728,0.015786054228073863
8.732,0.0157576383063362
8.736,0.01576388884749677
8.74,0.015785693619929982
8.744,0.01578403482246814
8.748,0.01578728029576305
8.752,0.01577535618647212
8.756,0.01577489941615654
8.76,0.015792016282719326
8.764,0.015766749672104875
8.768,0.01576348015826704
8.772,0.015779082470625535
8.776,0.01578240006554922
8.78,0.015756748806247965
8.784,0.015753912022182785
8.788,0.015757686387422053
8.792,0.015776606294704235
8.796,0.015787352417391827
8.8,0.015761965604062747
8.804,0.015758840333482464
8.808,0.01575900861728294
8.812,0.015767350685678007
8.816,0.015787400498477676
8.82,0.015761869441891046
8.824,0.01576855271282427
8.828,0.01579381932343872
8.832,0.015769346050740804
8.836,0.015753311008609654
8.84,0.0157576383063362
8.844,0.015779755605827443
8.848,0.015783554011609635
8.852,0.01575915286054049
8.856,0.015761124185060364
8.86,0.015790525769057963
8.864,0.015773721429553203
8.868,0.015755234252043674
8.872,0.015764610063784528
8.876,0.015785477255043655
8.88,0.015785837863187536
8.884,0.01576470622595623
8.888,0.015781077835688332
8.892,0.015778938227367985
8.896,0.015761869441891046
8.9,0.015759249022712193
8.904,0.01578316936292283
8.908,0.015784731998212974
8.912,0.01578581382264461
8.916,0.015772904051093745
8.92,0.015756364157561164
8.924,0.015771966469919657
8.928,0.015793747201809948
8.932,0.015761484793204245
8.936,0.015758359522623958
8.94,0.01575891245511124
8.944,0.015770139388657338
8.948,0.01578526089015733
8.952,0.015764321577269425
8.956,0.015759874076828252
8.96,0.015777880443479272
8.964,0.01578240006554922
8.968,0.01576545148278691
8.972,0.015788241917480062
8.976,0.015792833661178788
8.98,0.015790670012315513
8.984,0.015770259591371964
8.988,0.015764369658355273
8.992,0.015788362120194688
8.996,0.01577626972710328
9.0,0.01575557081964463
9.004,0.015754777481728096
9.008000000000001,0.015765643807130313
9.012,0.015783241484551607
9.016,0.01577535618647212
9.02,0.015759513468684372
9.024000000000001,0.01577367334846735
9.028,0.015788025552593735
9.032,0.015761172266146217
9.036,0.01576160499591887
9.040000000000001,0.01578521280907148
9.044,0.015782688552064324
9.048,0.015756147792674834
9.052,0.015754681319556395
9.056000000000001,0.015760811658002336
9.06,0.015769249888569103
9.064,0.01578316936292283
9.068,0.01576699007753413
9.072000000000001,0.015768480591195493
9.076,0.015792016282719326
9.08,0.01576814402359454
9.084,0.01575511404932905
9.088000000000001,0.015753166765352104
9.092,0.01576864887499597
9.096,0.01578809767422251
9.1,0.01576973069942761
9.104000000000001,0.015760571252573085
9.108,0.015772783848379116
9.112,0.01578764090390693
9.116,0.015764177334011874
9.120000000000001,0.0157553544547583
9.124,0.015761268428317914
9.128,0.01578165480871854
9.132,0.0157805729842869
9.136000000000001,0.015756652644076264
9.14,0.015762230050034926
9.144,0.015772904051093745
9.148,0.015783818457581814
9.152000000000001,0.015763864806953843
9.156,0.015757662346879125
9.16,0.015756027589960208
9.164,0.0157527821166653
9.168000000000001,0.015754633238470542
9.172,0.015761436712118392
9.176,0.015761172266146217
9.18,0.015767206442420457
9.184000000000001,0.015773553145752725
9.188,0.015772375159149386
9.192,0.015772855970007892
9.196,0.01578845828236639
9.200000000000001,0.01576571592875909
9.204,0.01575867204968199
9.208,0.01575648436027579
9.212,0.015755186170957825
9.216000000000001,0.015757830630679603
9.22,0.01576749492893556
9.224,0.015787328376848903
9.228,0.01577037979408659
9.232,0.01575480152227102
9.236,0.015754993846614423
9.24,0.015759609630856073
9.244,0.015756436279189937
9.248,0.01574992129205719
9.252,0.015754633238470542
9.256,0.01576251853655003
9.26,0.015782880876407727
9.264,0.015778745903024582
9.268,0.015754921724985646
9.272,0.015761076103974515
9.276,0.015762590658178807
9.28,0.015756147792674834
9.284,0.015753960103268638
9.288,0.015774057997154155
9.292,0.015783962700839364
9.296,0.015759128819997567
9.3,0.015754152427612036
9.304,0.015754585157384694
9.308,0.015767975739794063
9.312,0.015780188335600097
9.316,0.015776341848732056
9.32,0.01575915286054049
9.324,0.01577946711931234
9.328,0.015789684350055577
9.332,0.01576287914469391
9.336,0.015746507534961804
9.34,0.015757974873937156
9.344,0.015754753441185168
9.348,0.015751387765175633
9.352,0.01575790275230838
9.356,0.01575867204968199
9.36,0.01575338313023843
9.364,0.015750017454228892
9.368,0.01575646031973286
9.372,0.015758119117194706
9.376,0.01575831144153811
9.38,0.015747974008080246
9.384,0.015752806157208223
9.388,0.015757782549593754
9.392,0.01576042700931553
9.396,0.015755282333129526
9.4,0.015755546779101702
9.404,0.015754681319556395
9.408,0.015756748806247965
9.412,0.015753070603180402
9.416,0.01575220514363509
9.42,0.015758720130767838
9.424,0.015756941130591368
9.428,0.015752878278837
9.432,0.015752493630150195
9.436,0.015755498698015853
9.44,0.015762181968949077
9.444,0.015782496227720922
9.448,0.015777519835335395
9.452,0.015759104779454643
9.456,0.015763047428494385
9.46,0.015762398333835404
9.464,0.015753743738382307
9.468,0.015751483927347334
9.472,0.01575174837331951
9.476,0.015754825562813945
9.48,0.01575170029223366
9.484,0.01575311868426625
9.488,0.015768216145223318
9.492,0.01576292722577976
9.496,0.01576840846956672
9.5,0.0157781929705373
9.504,0.015763600360981667
9.508000000000001,0.015762206009492002
9.512,0.015779274794968937
9.516,0.015775332145929195
9.52,0.015762686820350508
9.524000000000001,0.015758263360452256
9.528,0.015757518103621575
9.532,0.0157550659682432
9.536,0.015754513035755917
9.540000000000001,0.015757157495477694
9.544,0.015760354887686755
9.548,0.015749897251514267
9.552,0.015750402102915697
9.556000000000001,0.01576900948313985
9.56,0.01577929883551186
9.564,0.015771990510462585
9.568,0.01575739790090695
9.572000000000001,0.01575867204968199
9.576,0.015757373860364025
9.58,0.01575530637367245
9.584,0.015751267562461008
9.588000000000001,0.015757758509050826
9.592,0.01575881629293954
9.596,0.015752998481551626
9.6,0.015754368792498367
9.604000000000001,0.01575530637367245
9.608,0.01575780659013668
9.612,0.01575302252209455
9.616,0.015751628170604885
9.620000000000001,0.015761893482433974
9.624,0.015784563714412496
9.628,0.015781029754602483
9.632,0.015756676684619192
9.636000000000001,0.015756340117018236
9.64,0.015763720563696293
9.644,0.015790621931229664
9.648,0.015770860604945095
9.652000000000001,0.015755739103445104
9.656,0.015756917090048443
9.66,0.015757301738735248
9.664,0.015752229184178016
9.668000000000001,0.015754464954670068
9.672,0.01575648436027579
9.676,0.015761316509403767
9.68,0.01575032998128692
9.684000000000001,0.015751219481375155
9.688,0.015763576320438743
9.692,0.015773625267381502
9.696,0.01578148652491806
9.700000000000001,0.015763576320438743
9.704,0.01575917690108342
9.708,0.01575790275230838
9.712,0.015754464954670068
9.716000000000001,0.015749296237941135
9.72,0.015759345184883894
9.724,0.01576535532061521
9.728,0.0157691537263974
9.732,0.015780597024829826
9.736,0.015767783415450664
9.74,0.01575597950887436
9.744,0.015752637873407745
9.748,0.015751676251690737
9.752,0.01575689304950552
9.756,0.01576384076641092
9.76,0.015765283198986436
9.764,0.015747469156678816
9.768,0.015745017021300437
9.772,0.01575621991430361
9.776,0.015757470022535726
9.78,0.015751820494948287
9.784,0.015751988778748765
9.788,0.01575790275230838
9.792,0.01575581122507388
9.796,0.015754609197927618
9.8,0.015757758509050826
9.804,0.015760955901259886
9.808,0.01576100398234574
9.812,0.015768865239882298
9.816,0.015774274362040482
9.82,0.015769706658884684
9.824,0.015764057131297245
9.828,0.015777519835335395
9.832,0.015778721862481658
9.836,0.015763095509580237
9.84,0.01575917690108342
9.844,0.01575444091412714
9.848,0.015751435846261482
9.852,0.01575343121132428
9.856,0.015758840333482464
9.86,0.015757349819821097
9.864,0.01575119544083223
9.868,0.015755498698015853
9.872,0.01575780659013668
9.876,0.015752589792321896
9.88,0.01575227726526387
9.884,0.01575585930615973
9.888,0.01575855184696736
9.892,0.015775596591901375
9.896,0.015785573417215357
9.9,0.015762230050034926
9.904,0.015757157495477694
9.908,0.015756700725162116
9.912,0.015757758509050826
9.916,0.015751724332776586
9.92,0.015754993846614423
9.924,0.01575932114434097
9.928,0.0157551621304149
9.932,0.015750354021829848
9.936,0.015756436279189937
9.94,0.01575547465747293
9.944,0.01575489768444272
9.948,0.015752036859834614
9.952,0.015755883346702658
9.956,0.015760883779631113
9.96,0.01576646118558977
9.964,0.015755931427788507
9.968,0.015752541711236044
9.972,0.015760042360628727
9.976,0.01577891418682506
9.98,0.015772134753720135
9.984,0.015755426576387076
9.988,0.015757926792851304
9.992,0.015755763143988032
9.996,0.01575210898146339
10.0,0.01575383990055401
10.004,0.01576114822560329
10.008000000000001,0.015758720130767838
10.012,0.015747949967537322
10.016,0.01575379181946816
10.02,0.01575881629293954
10.024000000000001,0.015758383563166885
10.028,0.015754104346526188
10.032,0.015749632805542087
10.036,0.01575545061693
10.040000000000001,0.015758599928053212
10.044,0.01575347929241013
10.048,0.01575504192770027
10.052,0.015755522738558778
10.056000000000001,0.01575946538759852
10.06,0.015756844968419666
10.064,0.015750666548887876
10.068,0.01575444091412714
10.072000000000001,0.015769898983228087
10.076,0.015788770809424417
10.08,0.015765643807130313
10.084,0.015755498698015853
10.088000000000001,0.015757782549593754
10.092,0.015758744171310762
10.096,0.015753984143811562
10.1,0.015748959670340183
10.104000000000001,0.01575621991430361
10.108,0.01575795083339423
10.112,0.015752709995036522
10.116,0.015755787184530957
10.120000000000001,0.015756796887333818
10.124,0.015755402535844152
10.128,0.015752589792321896
10.132,0.01575434475195544
10.136000000000001,0.01575698921167722
10.14,0.01576545148278691
10.144,0.015754633238470542
10.148,0.01574799804862317
10.152000000000001,0.01575612375213191
10.156,0.01575703729276307
10.16,0.015754633238470542
10.164,0.015751411805718558
10.168000000000001,0.015753767778925235
10.172,0.01575905669836879
10.176,0.015758119117194706
10.18,0.015748478859481677
10.184000000000001,0.01575840760370981
10.188,0.01575698921167722
10.192,0.015755186170957825
10.196,0.015753262927523805
10.200000000000001,0.01575251767069312
10.204,0.015759369225426822
10.208,0.01575759022525035
10.212,0.01575246958960727
10.216000000000001,0.01575133968408978
10.22,0.015755522738558778
10.224,0.01575698921167722
10.228,0.01575347929241013
10.232000000000001,0.015752589792321896
10.236,0.015756869008962594
10.24,0.015758287400995184
10.244,0.015752902319379924
10.248,0.015754272630326666
10.252,0.015757061333305993
10.256,0.015756700725162116
10.26,0.015751628170604885
10.264,0.01575227726526387
10.268,0.015755282333129526
10.272,0.01575922498216927
10.276,0.015754777481728096
10.28,0.015751387765175633
10.284,0.015756676684619192
10.288,0.015759393265969746
10.292,0.015756243954846535
10.296,0.01575379181946816
10.3,0.01575242150852142
10.304,0.0157575421441645
10.308,0.015756147792674834
10.312,0.015752349386892642
10.316,0.015753311008609654
10.32,0.015758095076651782
10.324,0.01575439283304129
10.328,0.01575521021150075
10.332,0.015753551414038905
10.336,0.01575708537384892
10.34,0.015759609630856073
10.344,0.01575227726526387
10.348,0.015751940697662913
10.352,0.015756508400818714
10.356,0.015757109414391846
10.36,0.01575530637367245
10.364,0.015753719697839383
10.368,0.01575383990055401
10.372,0.015758071036108857
10.376,0.015754080305983263
10.38,0.015754056265440335
10.384,0.015756796887333818
10.388,0.0157597298335707
10.392,0.015757253657649396
10.396,0.015752349386892642
10.4,0.015750906954317127
10.404,0.015758792252396615
10.408,0.015763600360981667
10.412,0.015749897251514267
10.416,0.01574607480518915
10.42,0.015757470022535726
10.424,0.015757878711765455
10.428,0.01575311868426625
10.432,0.015752637873407745
10.436,0.015754080305983263
10.44,0.015756652644076264
10.444,0.01575328696806673
10.448,0.015753238886980877
10.452,0.01576009044171458
10.456,0.015756820927876742
10.46,0.01575186857603414
10.464,0.015754080305983263
10.468,0.015757421941449874
10.472,0.015757205576563547
10.476,0.015757758509050826
10.48,0.01574982512988549
10.484,0.01575561890073048
10.488,0.015758599928053212
10.492,0.015755642941273403
10.496,0.015752349386892642
10.5,0.015756027589960208
10.504,0.01575494576552857
10.508000000000001,0.015754729400642244
10.512,0.015753407170781355
10.516,0.01575571506290218
10.52,0.015761268428317914
10.524000000000001,0.015758383563166885
10.528,0.01575008957585767
10.532,0.01575083483268835
10.536,0.015756844968419666
10.540000000000001,0.015757157495477694
10.544,0.015756340117018236
10.548,0.015750161697486446
10.552,0.015756147792674834
10.556000000000001,0.015758479725338587
10.56,0.015754921724985646
10.564,0.015753551414038905
10.568,0.01575612375213191
10.572000000000001,0.01575547465747293
10.576,0.015754753441185168
10.58,0.015751676251690737
10.584,0.01575470536009932
10.588000000000001,0.015761629036461795
10.592,0.01575242150852142
10.596,0.01575100311648883
10.6,0.015754873643899797
10.604000000000001,0.015757277698192323
10.608,0.01575708537384892
10.612,0.01575494576552857
10.616,0.015754128387069112
10.620000000000001,0.015759369225426822
10.624,0.015756556481904563
10.628,0.015753575454581833
10.632,0.01575388798163986
10.636000000000001,0.015757349819821097
10.64,0.015757782549593754
10.644,0.01575145988680441
10.648,0.01575145988680441
10.652000000000001,0.01575607567104606
10.656,0.015760114482257503
10.66,0.015752325346349717
10.664,0.01575124352191808
10.668000000000001,0.01575722961710647
10.672,0.015758479725338587
10.676,0.015756844968419666
10.68,0.01575133968408978
10.684000000000001,0.015752036859834614
10.688,0.015758527806424436
10.692,0.015756027589960208
10.696,0.01575028190020107
10.700000000000001,0.01575739790090695
10.704,0.0157576383063362
10.708,0.01575722961710647
10.712,0.015750714629973725
10.716000000000001,0.015754320711412514
10.72,0.01576023468497213
10.724,0.015758359522623958
10.728,0.01575042614345862
10.732000000000001,0.01575196473820584
10.736,0.01575804699556593
10.74,0.015758022955023005
10.744,0.01575453707629884
10.748000000000001,0.015751988778748765
10.752,0.015753455251867204
10.756,0.015757854671222527
10.76,0.015754488995212992
10.764,0.015752830197751148
10.768,0.015759970238999953
10.772,0.015757157495477694
10.776,0.01575242150852142
10.78,0.01575160413006196
10.784,0.01575662860353334
10.788,0.015763552279895815
10.792,0.01575521021150075
10.796,0.015749512602827462
10.8,0.01575403222489741
10.804,0.01575470536009932
10.808,0.015753671616753534
10.812,0.015754080305983263
10.816,0.015750450184001546
10.82,0.015758840333482464
10.824,0.01575876821185369
10.828,0.015752349386892642
10.832,0.015753335049152578
10.836,0.015760571252573085
10.84,0.015754272630326666
10.844,0.01575261383286482
10.848,0.01575311868426625
10.852,0.01575831144153811
10.856,0.015759489428141447
10.86,0.015753984143811562
10.864,0.015750522305630323
10.868,0.015756243954846535
10.872,0.01575831144153811
10.876,0.015752325346349717
10.88,0.015753960103268638
10.884,0.015755426576387076
10.888,0.01575648436027579
10.892,0.015756604562990415
10.896,0.015752397467978494
10.9,0.015753984143811562
10.904,0.01576028276605798
10.908,0.015754320711412514
10.912,0.015751820494948287
10.916,0.0157553544547583
10.92,0.0157576383063362
10.924,0.01575804699556593
10.928,0.015750570386716175
10.932,0.015752229184178016
10.936,0.01575900861728294
10.94,0.015757373860364025
10.944,0.015754825562813945
10.948,0.015754464954670068
10.952,0.015755691022359256
10.956,0.01575749406307865
10.96,0.01575453707629884
10.964,0.01575383990055401
10.968,0.015756412238647013
10.972,0.015758431644252734
10.976,0.01575420050869789
10.98,0.0157505944272591
10.984,0.015754777481728096
10.988,0.01575780659013668
10.992,0.015757445981992798
10.996,0.015751051197574677
11.0,0.015751123319203454
11.004,0.015760402968772607
11.008000000000001,0.015756195873760686
11.012,0.015749464521741613
11.016,0.015757758509050826
11.02,0.015753647576210606
11.024000000000001,0.015755907387245582
11.028,0.015753214846437952
11.032,0.015754416873584216
11.036,0.015761028022888663
11.040000000000001,0.015757325779278172
11.044,0.01575018573802937
11.048,0.015754513035755917
11.052,0.015757518103621575
11.056000000000001,0.01575956154977022
11.06,0.01575612375213191
11.064,0.015749536643370386
11.068,0.015754152427612036
11.072000000000001,0.015757277698192323
11.076,0.015755426576387076
11.08,0.01575379181946816
11.084,0.01575831144153811
11.088000000000001,0.015756243954846535
11.092,0.015751820494948287
11.096,0.01575210898146339
11.1,0.015755594860187554
11.104000000000001,0.01576023468497213
11.108,0.015754224549240813
11.112,0.015749873210971342
11.116,0.015752806157208223
11.120000000000001,0.01576006640117165
11.124,0.01575713345493477
11.128,0.015755426576387076
11.132,0.015751411805718558
11.136000000000001,0.01575799891448008
11.14,0.015757277698192323
11.144,0.015752734035579447
11.148,0.01575379181946816
11.152000000000001,0.015758599928053212
11.156,0.01575530637367245
11.16,0.015754008184354486
11.164,0.015751796454405362
11.168000000000001,0.015758022955023005
11.172,0.015760523171487233
11.176,0.0157527821166653
11.18,0.01575160413006196
11.184000000000001,0.015756267995389463
11.188,0.01575867204968199
11.192,0.015754152427612036
11.196,0.015755691022359256
11.200000000000001,0.015751315643546857
11.204,0.015757205576563547
11.208,0.015754921724985646
11.212,0.015752806157208223
11.216000000000001,0.015753647576210606
11.22,0.01576033084714383
11.224,0.015754416873584216
11.228,0.015751676251690737
11.232000000000001,0.015754224549240813
11.236,0.015758792252396615
11.24,0.01575864800913906
11.244,0.015749945332600115
11.248000000000001,0.01575347929241013
11.252,0.015759489428141447
11.256,0.015757277698192323
11.26,0.015752349386892642
11.264,0.015754152427612036
11.268,0.015755402535844152
11.272,0.015757181536020622
11.276,0.015754681319556395
11.28,0.01575302252209455
11.284,0.015758720130767838
11.288,0.015758239319909332
11.292,0.01575227726526387
11.296,0.01575095503540298
11.3,0.015755378495301228
11.304,0.01575840760370981
11.308,0.01575749406307865
11.312,0.015748695224368003
11.316,0.015752709995036522
11.32,0.01576033084714383
11.324,0.015756556481904563
11.328,0.015752325346349717
11.332,0.01575456111684177
11.336,0.015756652644076264
11.34,0.015756772846790893
11.344,0.01575227726526387
11.348,0.015753503332953056
11.352,0.01575896053619709
11.356,0.015755835265616806
11.36,0.0157529744410087
11.364,0.015753767778925235
11.368,0.015757710427964977
11.372,0.0157577344685079
11.376,0.015756195873760686
11.38,0.01574958472445624
11.384,0.015756051630503132
11.388,0.015757758509050826
11.392,0.01575383990055401
11.396,0.015753719697839383
11.4,0.015755546779101702
11.404,0.015756027589960208
11.408,0.01575530637367245
11.412,0.015751772413862438
11.416,0.01575617183321776
11.42,0.015760763576916484
11.424,0.015754272630326666
11.428,0.01574941644065576
11.432,0.015751075238117605
11.436,0.015761725198633496
11.44,0.01575831144153811
11.444,0.015752133022006315
11.448,0.015752637873407745
11.452,0.01575922498216927
11.456,0.01575876821185369
11.46,0.015751916657119988
11.464,0.01575489768444272
11.468,0.015756965171134295
11.472,0.015756267995389463
11.476,0.015755186170957825
11.48,0.015750930994860052
11.484,0.01575648436027579
11.488,0.01575968175248485
11.492,0.015750979075945904
11.496,0.015751267562461008
11.5,0.015756027589960208
11.504,0.015758744171310762
11.508000000000001,0.015757205576563547
11.512,0.01575170029223366
11.516,0.015752878278837
11.52,0.01575845568479566
11.524000000000001,0.015755691022359256
11.528,0.015753311008609654
11.532,0.01575595546833143
11.536,0.01575585930615973
11.540000000000001,0.01575607567104606
11.544,0.015752709995036522
11.548,0.01575186857603414
11.552,0.015760499130944308
11.556000000000001,0.015760571252573085
11.56,0.015751988778748765
11.564,0.015750257859658147
11.568,0.015756676684619192
11.572000000000001,0.015758431644252734
11.576,0.01575561890073048
11.58,0.015751628170604885
11.584,0.015754609197927618
11.588000000000001,0.01575759022525035
11.592,0.015754513035755917
11.596,0.01575261383286482
11.6,0.01575876821185369
11.604000000000001,0.015756652644076264
11.608,0.015753407170781355
11.612,0.015751676251690737
11.616,0.01575566698181633
11.620000000000001,0.01575956154977022
11.624,0.01575799891448008
11.628,0.015749200075769434
11.632,0.01575480152227102
11.636000000000001,0.015757782549593754
11.64,0.01575607567104606
11.644,0.015754681319556395
11.648,0.01575251767069312
11.652000000000001,0.01575621991430361
11.656,0.015756748806247965
11.66,0.015753238886980877
11.664,0.01575261383286482
11.668000000000001,0.015757926792851304
11.672,0.015756195873760686
11.676,0.01575227726526387
11.68,0.01575206090037754
11.684000000000001,0.01575703729276307
11.688,0.01576124438777499
11.692,0.01575352737349598
11.696,0.015752758076122374
11.700000000000001,0.015758239319909332
11.704,0.015757109414391846
11.708,0.01575511404932905
11.712,0.015753455251867204
11.716000000000001,0.015753743738382307
11.72,0.01575672476570504
11.724,0.015755282333129526
11.728,0.015753190805895028
11.732000000000001,0.015755642941273403
11.736,0.015760258725515053
11.74,0.01575184453549121
11.744,0.015752349386892642
11.748000000000001,0.015753743738382307
11.752,0.015759200941626344
11.756,0.015760667414744783
11.76,0.015749608764999163
11.764000000000001,0.01575042614345862
11.768,0.01575713345493477
11.772,0.01575739790090695
11.776,0.01575343121132428
11.78,0.015755282333129526
11.784,0.015756027589960208
11.788,0.015757349819821097
11.792,0.015752902319379924
11.796,0.015752902319379924
11.8,0.0157575421441645
11.804,0.01575956154977022
11.808,0.015751315643546857
11.812,0.01575085887323128
11.816,0.015756965171134295
11.82,0.01575932114434097
11.824,0.015756700725162116
11.828,0.0157505944272591
11.832,0.015753719697839383
11.836,0.01575946538759852
11.84,0.015756508400818714
11.844,0.01575186857603414
11.848,0.01575571506290218
11.852,0.015757518103621575
11.856,0.015755498698015853
11.86,0.015752181103092167
11.864,0.015754513035755917
11.868,0.015759513468684372
11.872,0.015756772846790893
11.876,0.015750378062372773
11.88,0.01575439283304129
11.884,0.01575689304950552
11.888,0.015757325779278172
11.892,0.0157551621304149
11.896,0.01575133968408978
11.9,0.015754633238470542
11.904,0.01575790275230838
11.908,0.01575494576552857
11.912,0.015752661913950673
11.916,0.01575612375213191
11.92,0.01575672476570504
11.924,0.01575595546833143
11.928,0.015750041494771817
11.932,0.0157529744410087
11.936,0.01576110014451744
11.94,0.015754152427612036
11.944,0.01575008957585767
11.948,0.015754272630326666
11.952,0.015759441347055595
11.956,0.015756917090048443
11.96,0.01575480152227102
11.964,0.01575246958960727
11.968,0.015758575887510288
11.972,0.015756556481904563
11.976,0.01575343121132428
11.98,0.01575607567104606
11.984,0.015759297103798045
11.988,0.015754633238470542
11.992,0.01575362353566768
11.996,0.015751676251690737
12.0,0.01575703729276307
12.004,0.01576006640117165
12.008000000000001,0.01575150796789026
12.012,0.015750113616400593
12.016,0.015757445981992798
12.02,0.015757109414391846
12.024000000000001,0.015754825562813945
12.028,0.01575150796789026
12.032,0.015753238886980877
12.036,0.015759104779454643
12.040000000000001,0.015754633238470542
12.044,0.015750522305630323
12.048,0.015754104346526188
12.052,0.015759801955199475
12.056000000000001,0.015756027589960208
12.06,0.015753647576210606
12.064,0.015753912022182785
12.068,0.015759801955199475
12.072000000000001,0.01575941730651267
12.076,0.015751075238117605
12.08,0.015752734035579447
12.084,0.01575739790090695
12.088000000000001,0.01576114822560329
12.092,0.015752902319379924
12.096,0.015752541711236044
12.1,0.0157549698060715
12.104000000000001,0.015756869008962594
12.108,0.015751796454405362
12.112,0.015746796021476907
12.116,0.015758720130767838
12.120000000000001,0.015761172266146217
12.124,0.01575379181946816
12.128,0.01575227726526387
12.132,0.01575383990055401
12.136000000000001,0.015760883779631113
12.14,0.015759104779454643
12.144,0.0157505944272591
12.148,0.015752229184178016
12.152000000000001,0.015759850036285324
12.156,0.015757614265793276
12.16,0.015752541711236044
12.164,0.015754080305983263
12.168000000000001,0.015756099711588985
12.172,0.01575648436027579
12.176,0.015752998481551626
12.18,0.01575388798163986
12.184000000000001,0.015760114482257503
12.188,0.01575489768444272
12.192,0.015751916657119988
12.196,0.015753262927523805
12.200000000000001,0.015758431644252734
12.204,0.015756748806247965
12.208,0.015754753441185168
12.212,0.015749296237941135
12.216000000000001,0.015755787184530957
12.22,0.01576059529311601
12.224,0.015755642941273403
12.228,0.01575388798163986
12.232000000000001,0.01575420050869789
12.236,0.015756147792674834
12.24,0.01575557081964463
12.244,0.015752301305806793
12.248000000000001,0.015754873643899797
12.252,0.015760859739088185
12.256,0.01575420050869789
12.26,0.01575119544083223
12.264000000000001,0.01575379181946816
12.268,0.015757662346879125
12.272,0.015757277698192323
12.276,0.01575343121132428
12.280000000000001,0.015750882913774203
12.284,0.015759441347055595
12.288,0.015758623968596137
12.292,0.015754681319556395
12.296,0.015752878278837
12.3,0.01575521021150075
12.304,0.015755642941273403
12.308,0.015752709995036522
12.312,0.015751219481375155
12.316,0.015757470022535726
12.32,0.01576160499591887
12.324,0.015752589792321896
12.328,0.015751892616577064
12.332,0.015755402535844152
12.336,0.015758720130767838
12.34,0.015756412238647013
12.344,0.015751916657119988
12.348,0.015751387765175633
12.352,0.015759489428141447
12.356,0.015755642941273403
12.36,0.01574556995378772
12.364,0.015756027589960208
12.368,0.015762903185236835
12.372,0.015758071036108857
12.376,0.01575328696806673
12.38,0.015754248589783738
12.384,0.01575855184696736
12.388,0.015759609630856073
12.392,0.0157506905894308
12.396,0.015752229184178016
12.4,0.015756340117018236
12.404,0.015757445981992798
12.408,0.015754825562813945
12.412,0.015749103913597733
12.416,0.015756748806247965
12.42,0.01575896053619709
12.424,0.015752950400465773
12.428,0.015749873210971342
12.432,0.015758287400995184
12.436,0.01575876821185369
12.44,0.015756027589960208
12.444,0.015752036859834614
12.448,0.01575595546833143
12.452,0.01575814315773763
12.456,0.0157550659682432
12.46,0.01575119544083223
12.464,0.015753743738382307
12.468,0.01575840760370981
12.472,0.01575867204968199
12.476,0.015754873643899797
12.48,0.015751483927347334
12.484,0.01575689304950552
12.488,0.01575739790090695
12.492,0.015753767778925235
12.496,0.0157550659682432
12.5,0.015757518103621575
12.504,0.015751676251690737
12.508000000000001,0.015752734035579447
12.512,0.015747949967537322
12.516,0.01573547292575911
12.52,0.015731265830747188
12.524000000000001,0.015744848737499963
12.528,0.015749945332600115
12.532,0.01575547465747293
12.536,0.015760451049858456
12.540000000000001,0.015754681319556395
12.544,0.015753142724809176
12.548,0.015752950400465773
12.552,0.01575780659013668
12.556000000000001,0.01575638819810409
12.56,0.015743502467096146
12.564,0.0157186205051685
12.568,0.01574597864301745
12.572000000000001,0.0157550659682432
12.576,0.015751580089519036
12.58,0.015747012386363234
12.584,0.015760475090401384
12.588000000000001,0.01576369652315337
12.592,0.015752541711236044
12.596,0.01575186857603414
12.6,0.01575672476570504
12.604000000000001,0.015756820927876742
12.608,0.015754513035755917
12.612,0.015752758076122374
12.616,0.01575073867051665
12.620000000000001,0.01576261469872173
12.624,0.015755234252043674
12.628,0.015753070603180402
12.632,0.015758359522623958
12.636000000000001,0.015757445981992798
12.64,0.01575225322472094
12.644,0.015751075238117605
12.648,0.015754320711412514
12.652000000000001,0.015760763576916484
12.656,0.015757614265793276
12.66,0.015749849170428414
12.664,0.01575119544083223
12.668000000000001,0.015758888414568316
12.672,0.01575648436027579
12.676,0.015742324480492807
12.68,0.015727635708765474
12.684000000000001,0.01573617010150394
12.688,0.015752589792321896
12.692,0.01575145988680441
12.696,0.015752998481551626
12.700000000000001,0.015761052063431587
12.704,0.01575739790090695
12.708,0.015750666548887876
12.712,0.015753214846437952
12.716000000000001,0.01575698921167722
12.72,0.015759369225426822
12.724,0.01575638819810409
12.728,0.01574900775142603
12.732000000000001,0.015756051630503132
12.736,0.015759705793027774
12.74,0.015753599495124757
12.744,0.015751483927347334
12.748000000000001,0.0157507867516025
12.752,0.01574196387234893
12.756,0.015749512602827462
12.76,0.015747805724279768
12.764000000000001,0.01575383990055401
12.768,0.015761388631032543
12.772,0.015758599928053212
12.776,0.015750498265087398
12.780000000000001,0.015741531142576273
12.784,0.015744848737499963
12.788,0.0157553544547583
12.792,0.015749200075769434
12.796000000000001,0.01572866945211126
12.8,0.015746507534961804
12.804,0.015757205576563547
12.808,0.01575403222489741
12.812,0.015748190372966573
12.816,0.015755931427788507
12.82,0.01576297530686561
12.824,0.015752830197751148
12.828,0.015748286535138274
12.832,0.0157529744410087
12.836,0.015765018753014257
12.84,0.015756965171134295
12.844,0.015748286535138274
12.848,0.015757518103621575
12.852,0.015765090874643034
12.856,0.01575780659013668
12.86,0.0157527821166653
12.864,0.01574917603522651
12.868,0.015758840333482464
12.872,0.015759489428141447
12.876,0.015748214413509497
12.88,0.01575124352191808
12.884,0.01575689304950552
12.888,0.01576006640117165
12.892,0.015748382697309975
12.896,0.015741290737147022
12.9,0.01572830884396738
12.904,0.01574556995378772
12.908,0.015745137224015063
12.912,0.015737372128650205
12.916,0.015727202978992817
12.92,0.01574297357515179
12.924,0.01575246958960727
12.928,0.015752036859834614
12.932,0.015751916657119988
12.936,0.01575867204968199
12.94,0.01576292722577976
12.944,0.01575242150852142
12.948,0.015758720130767838
12.952,0.015758431644252734
12.956,0.015755330414215375
12.96,0.0157505944272591
12.964,0.015751724332776586
12.968,0.015757109414391846
12.972,0.015762061766234448
12.976,0.015749224116312358
12.98,0.01575210898146339
12.984,0.015759898117371177
12.988,0.015757373860364025
12.992,0.015753575454581833
12.996,0.015752709995036522
13.0,0.01575456111684177
13.004,0.015761316509403767
13.008000000000001,0.015751628170604885
13.012,0.01574982512988549
13.016,0.01576297530686561
13.02,0.015757470022535726
13.024000000000001,0.015752661913950673
13.028,0.01575174837331951
13.032,0.015757325779278172
13.036,0.01576287914469391
13.040000000000001,0.01575439283304129
13.044,0.01574816633242365
13.048,0.015754080305983263
13.052,0.015761076103974515
13.056000000000001,0.01575698921167722
13.06,0.015750113616400593
13.064,0.015750137656943518
13.068,0.015757157495477694
13.072000000000001,0.015757662346879125
13.076,0.015745137224015063
13.08,0.015748983710883107
13.084,0.015768865239882298
13.088000000000001,0.015757926792851304
13.092,0.015751772413862438
13.096,0.01574867118382508
13.1,0.01575864800913906
13.104000000000001,0.015763239752837787
13.108,0.01575242150852142
13.112,0.01574292549406594
13.116,0.01574093012900314
13.120000000000001,0.015738598196339392
13.124,0.01573992042620028
13.128,0.015752084940920466
13.132,0.01575018573802937
13.136000000000001,0.01576073953637356
13.14,0.015755931427788507
13.144,0.015748022089166095
13.148,0.015755282333129526
13.152000000000001,0.015765066834100106
13.156,0.01575145988680441
13.16,0.015750041494771817
13.164,0.015755522738558778
13.168000000000001,0.015764081171840173
13.172,0.01576006640117165
13.176,0.015748719264910928
13.18,0.015748983710883107
13.184000000000001,0.01575900861728294
13.188,0.01576225409057785
13.192,0.01574826249459535
13.196,0.0157506905894308
13.200000000000001,0.015757325779278172
13.204,0.015758431644252734
13.208,0.015754104346526188
13.212,0.01575210898146339
13.216000000000001,0.01575708537384892
13.22,0.015760354887686755
13.224,0.015751988778748765
13.228,0.01575109927866053
13.232000000000001,0.01575494576552857
13.236,0.01576018660388628
13.24,0.015757061333305993
13.244,0.015749296237941135
13.248000000000001,0.015751483927347334
13.252,0.015756700725162116
13.256,0.015756796887333818
13.26,0.01574891158925433
13.264000000000001,0.015757974873937156
13.268,0.01576042700931553
13.272,0.015757349819821097
13.276,0.01574826249459535
13.280000000000001,0.015749031791968956
13.284,0.015763504198809966
13.288,0.015760114482257503
13.292,0.015746940264734458
13.296000000000001,0.01575504192770027
13.3,0.01576251853655003
13.304,0.01575638819810409
13.308,0.01575658052244749
13.312000000000001,0.015749801089342565
13.316,0.015757013252220144
13.32,0.015759946198457025
13.324,0.015755642941273403
13.328,0.015751219481375155
13.332,0.01575672476570504
13.336,0.015757854671222527
13.34,0.015753142724809176
13.344,0.0157483105756812
13.348,0.015753647576210606
13.352,0.015761917522976898
13.356,0.01575504192770027
13.36,0.015747709562108067
13.364,0.015748623102739227
13.368,0.015756965171134295
13.372,0.01576485046921378
13.376,0.01575210898146339
13.38,0.015754993846614423
13.384,0.015761580955375946
13.388,0.01575662860353334
13.392,0.01575023381911522
13.396,0.015755594860187554
13.4,0.015758599928053212
13.404,0.015756676684619192
13.408,0.015753094643723327
13.412,0.015749392400112836
13.416,0.015751988778748765
13.42,0.015765162996271807
13.424,0.015752541711236044
13.428,0.015750257859658147
13.432,0.01575561890073048
13.436,0.015758696090224913
13.44,0.015756147792674834
13.444,0.015749536643370386
13.448,0.015736915358334623
13.452,0.015753311008609654
13.456,0.01575504192770027
13.46,0.015751916657119988
13.464,0.015757518103621575
13.468,0.01575698921167722
13.472,0.015753984143811562
13.476,0.0157505944272591
13.48,0.015751940697662913
13.484,0.015756844968419666
13.488,0.01575850376588151
13.492,0.015750714629973725
13.496,0.015754464954670068
13.5,0.015758071036108857
13.504,0.015753238886980877
13.508000000000001,0.015752637873407745
13.512,0.015748623102739227
13.516,0.01572903006025514
13.52,0.01573297270929488
13.524000000000001,0.015748094210794872
13.528,0.015756292035932387
13.532,0.01575905669836879
13.536,0.015758479725338587
13.540000000000001,0.01575251767069312
13.544,0.015753311008609654
13.548,0.015756796887333818
13.552,0.01576114822560329
13.556000000000001,0.01575595546833143
13.56,0.01575114735974638
13.564,0.015754753441185168
13.568,0.015757373860364025
13.572000000000001,0.01575547465747293
13.576,0.015751532008433183
13.58,0.015750113616400593
13.584,0.015759441347055595
13.588000000000001,0.015754681319556395
13.592,0.015752589792321896
13.596,0.015755186170957825
13.6,0.015761076103974515
13.604000000000001,0.01575403222489741
13.608,0.0157529744410087
13.612,0.01575362353566768
13.616,0.01575922498216927
13.620000000000001,0.015757926792851304
13.624,0.015752445549064343
13.628,0.01574932027848406
13.632,0.015759850036285324
13.636000000000001,0.01575831144153811
13.64,0.01575206090037754
13.644,0.015753671616753534
13.648,0.01575352737349598
13.652000000000001,0.01575338313023843
13.656,0.015751435846261482
13.66,0.015729703195457044
13.664,0.01572866945211126
13.668000000000001,0.015752661913950673
13.672,0.01575403222489741
13.676,0.01575434475195544
13.68,0.01575595546833143
13.684000000000001,0.01576119630668914
13.688,0.01575759022525035
13.692,0.015753960103268638
13.696,0.01575311868426625
13.700000000000001,0.015758479725338587
13.704,0.015756965171134295
13.708,0.015751219481375155
13.712,0.01575480152227102
13.716000000000001,0.015755234252043674
13.72,0.015756003549417284
13.724,0.015753311008609654
13.728,0.01575136372463271
13.732000000000001,0.015758071036108857
13.736,0.01575831144153811
13.74,0.01575085887323128
13.744,0.015746940264734458
13.748000000000001,0.015724173870584234
13.752,0.015736242223132718
13.756,0.01575456111684177
13.76,0.015750570386716175
13.764000000000001,0.015752854238294072
13.768,0.015759200941626344
13.772,0.015756796887333818
13.776,0.015749704927170864
13.780000000000001,0.01576100398234574
13.784,0.01575759022525035
13.788,0.01575480152227102
13.792,0.015752445549064343
13.796000000000001,0.015751580089519036
13.8,0.015758239319909332
13.804,0.015756796887333818
13.808,0.01574749319722174
13.812000000000001,0.01574388711578295
13.816,0.015730520573916506
13.82,0.015737973142223336
13.824,0.015752397467978494
13.828,0.015749632805542087
13.832,0.015757109414391846
13.836,0.015762590658178807
13.84,0.01575328696806673
13.844,0.015752709995036522
13.848,0.015759609630856073
13.852,0.015757109414391846
13.856,0.015753671616753534
13.86,0.015750305940743996
13.864,0.0157577344685079
13.868,0.015759513468684372
13.872,0.015752998481551626
13.876,0.01574703642690616
13.88,0.015757566184707427
13.884,0.01575946538759852
13.888,0.015755378495301228
13.892,0.015752589792321896
13.896,0.01575369565729646
13.9,0.01575831144153811
13.904,0.01575504192770027
13.908,0.015750618467802024
13.912,0.01575530637367245
13.916,0.01576069145528771
13.92,0.01575595546833143
13.924,0.01575379181946816
13.928,0.015751219481375155
13.932,0.01575547465747293
13.936,0.015761965604062747
13.94,0.01575023381911522
13.944,0.01575184453549121
13.948,0.015755907387245582
13.952,0.015758599928053212
13.956,0.01575220514363509
13.96,0.01574713258907786
13.964,0.015731770682148618
13.968,0.015732443817350526
13.972,0.01575042614345862
13.976,0.015751796454405362
13.98,0.01575876821185369
13.984,0.015760451049858456
13.988,0.015753671616753534
13.992,0.01575186857603414
13.996,0.015752854238294072
14.0,0.015757157495477694
14.004,0.015760883779631113
14.008000000000001,0.015750378062372773
14.012,0.015750113616400593
14.016,0.015760210644429205
14.02,0.015755835265616806
14.024000000000001,0.01575251767069312
14.028,0.015748214413509497
14.032,0.015719005153855305
14.036,0.015737708696251157
14.040000000000001,0.01575174837331951
14.044,0.01573297270929488
14.048,0.015723500735382326
14.052,0.015749224116312358
14.056000000000001,0.015748550981110453
14.06,0.015721649613577082
14.064,0.015733165033638283
14.068,0.015754921724985646
14.072000000000001,0.01575968175248485
14.076,0.015750017454228892
14.08,0.01573516039870108
14.084,0.015726914492477716
14.088000000000001,0.01574835865676705
14.092,0.015751724332776586
14.096,0.01575658052244749
14.1,0.015752589792321896
14.104000000000001,0.015758383563166885
14.108,0.015750930994860052
14.112,0.01575302252209455
14.116,0.015760859739088185
14.120000000000001,0.015742084075063556
14.124,0.01573311695255243
14.128,0.01573439110132747
14.132,0.01573008784414385
14.136000000000001,0.01574653157550473
14.14,0.015753359089695506
14.144,0.015745089142929214
14.148,0.015735881614988838
14.152000000000001,0.015736771115077073
14.156,0.015743863075240026
14.16,0.015751075238117605
14.164,0.015754272630326666
14.168000000000001,0.01575968175248485
14.172,0.01575547465747293
14.176,0.015745353588901393
14.18,0.015737636574622384
14.184000000000001,0.015738213547652587
14.188,0.015739030926112046
14.192,0.015740761845202667
14.196,0.015728044397995203
14.200000000000001,0.015734126655355295
14.204,0.015752830197751148
14.208,0.015751580089519036
14.212,0.015733766047211415
14.216000000000001,0.015730905222603307
14.22,0.015745257426729692
14.224,0.015749248156855283
14.228,0.015743189940038118
14.232000000000001,0.015756820927876742
14.236,0.015761797320262273
14.24,0.015755907387245582
14.244,0.015738141426023814
14.248000000000001,0.01572912622242684
14.252,0.015750065535314745
14.256,0.015749031791968956
14.26,0.015748526940567525
14.264000000000001,0.015754513035755917
14.268,0.01575393606272571
14.272,0.015749873210971342
14.276,0.015743911156325875
14.280000000000001,0.0157256643842456
14.284,0.015747974008080246
14.288,0.01575227726526387
14.292,0.015743262061666895
14.296000000000001,0.015730496533373578
14.3,0.015738886682854496
14.304,0.015752084940920466
14.308,0.015749464521741613
14.312000000000001,0.015752998481551626
14.316,0.015764417739441126
14.32,0.01576042700931553
14.324,0.01574722875124956
14.328000000000001,0.015754272630326666
14.332,0.01576261469872173
14.336,0.01575917690108342
14.34,0.015755017887157347
14.344,0.01575032998128692
14.348,0.01575338313023843
14.352,0.015758431644252734
14.356,0.015751315643546857
14.36,0.0157439351968688
14.364,0.01574790188645147
14.368,0.015765739969302014
14.372,0.01575896053619709
14.376,0.01574734895396419
14.38,0.015732539979522227
14.384,0.015736795155619997
14.388,0.015749873210971342
14.392,0.01574314185895227
14.396,0.0157391751693696
14.4,0.015751027157031753
14.404,0.015758623968596137
14.408,0.015740882047917293
14.412,0.015734367060784547
14.416,0.01575032998128692
14.42,0.015754993846614423
14.424,0.015750474224544474
14.428,0.015740761845202667
14.432,0.015730328249573104
14.436,0.015739343453170077
14.44,0.015738285669281364
14.444,0.01571801949159537
14.448,0.015737660615165308
14.452,0.015746820062019832
14.456,0.015741122453346544
14.46,0.015716048167075496
14.464,0.015718139694309994
14.468,0.015740761845202667
14.472,0.01574703642690616
14.476,0.015742492764293285
14.48,0.015728380965596155
14.484,0.015744728534785334
14.488,0.01575174837331951
14.492,0.01574013679108661
14.496,0.015729558952199494
14.5,0.015739127088283747
14.504,0.015736963439420475
14.508000000000001,0.015720712032402998
14.512,0.015730712898259905
14.516,0.015731025425317936
14.52,0.015729462790027793
14.524000000000001,0.015741843669634305
14.528,0.015716408775219376
14.532,0.015728981979169287
14.536,0.015729558952199494
14.540000000000001,0.015722515073122393
14.544,0.015719726370143062
14.548,0.015733189074181208
14.552,0.015744584291527784
14.556000000000001,0.015732035128120797
14.56,0.01573150623617644
14.564,0.01575246958960727
14.568,0.015762470455464177
14.572000000000001,0.01575184453549121
14.576,0.015744367926641457
14.58,0.015736049898789316
14.584,0.015734006452640666
14.588000000000001,0.015748094210794872
14.592,0.015742661048093763
14.596,0.015721938100092186
14.6,0.015739079007197898
14.604000000000001,0.01575023381911522
14.608,0.015745377629444317
14.612,0.01572826076288153
14.616,0.015727106816821115
14.620000000000001,0.015732539979522227
14.624,0.015714990383186783
14.628,0.015719750410685986
14.632,0.015738045263852113
14.636000000000001,0.01575347929241013
14.64,0.015739247290998376
14.644,0.015720663951317146
14.648,0.015738045263852113
14.652000000000001,0.015751435846261482
14.656,0.01574278125080839
14.66,0.015714221085813176
14.664,0.015716817464449105
14.668000000000001,0.015735953736617615
14.672,0.015750714629973725
14.676,0.015749464521741613
14.68,0.01574597864301745
14.684000000000001,0.01573475170947135
14.688,0.015725592262616824
14.692,0.015724173870584234
14.696,0.015728453087224932
14.700000000000001,0.015755186170957825
14.704,0.01575429667086959
14.708,0.01572866945211126
14.712,0.01572145728923368
14.716000000000001,0.01574556995378772
14.72,0.015753262927523805
14.724,0.015744728534785334
14.728,0.01572429407329886
14.732000000000001,0.01574734895396419
14.736,0.015751916657119988
14.74,0.01573415069589822
14.744,0.01572085627566055
14.748000000000001,0.01574571419704527
14.752,0.01574773360265099
14.756,0.01574881542708263
14.76,0.01572583266804608
14.764000000000001,0.015743454386010297
14.768,0.015756412238647013
14.772,0.015737636574622384
14.776,0.015713956639840997
14.780000000000001,0.015727972276366426
14.784,0.015727803992565948
14.788,0.01573734808810728
14.792,0.015735280601415706
14.796000000000001,0.015721625573034158
14.8,0.015751916657119988
14.804,0.015758888414568316
14.808,0.015749127954140657
14.812000000000001,0.015742324480492807
14.816,0.015727803992565948
14.82,0.015735689290645435
14.824,0.01573592969607469
14.828000000000001,0.015720519708059596
14.832,0.015746675818762282
14.836,0.015757566184707427
14.84,0.01574405539958343
14.844000000000001,0.0157210966810898
14.848,0.0157369874799634
14.852,0.015749512602827462
14.856,0.015730376330658952
14.86,0.015726409641076283
14.864,0.015730760979345757
14.868,0.01572451043818519
14.872,0.015727467424964996
14.876,0.015706768517506343
14.88,0.015712514207265483
14.884,0.015731025425317936
14.888,0.0157142451263561
14.892,0.015712946937038137
14.896,0.015711624707177248
14.9,0.01571821181593877
14.904,0.015748286535138274
14.908,0.015725544181530975
14.912,0.015722851640723345
14.916,0.015743334183295668
14.92,0.01572441427601349
14.924,0.01572652984379091
14.928,0.015725712465331453
14.932,0.015733982412097742
14.936,0.015742685088636688
14.94,0.01571660109956278
14.944,0.015709965909715403
14.948,0.015726914492477716
14.952,0.0157413628587758
14.956,0.015719846572857687
14.96,0.01571749059965101
14.964,0.01571922151874163
14.968,0.01572977531708582
14.972,0.01572196214063511
14.976,0.015712297842379156
14.98,0.015722418910950692
14.984,0.015727635708765474
14.988,0.01573054461445943
14.992,0.015727467424964996
14.996,0.015716528977934
15.0,0.015727876114194725
15.004,0.015727972276366426
15.008000000000001,0.015725952870760704
15.012,0.015724342154384712
15.016,0.015748430778395824
15.02,0.01573561716901666
15.024000000000001,0.015714437450699503
15.028,0.015708186909538936
15.032,0.01571282673432351
15.036,0.01573095330368916
15.040000000000001,0.01574186771017723
15.044,0.01571282673432351
15.048,0.015732564020065152
15.052,0.01572802035745228
15.056000000000001,0.015729054100798064
15.06,0.015726361559990434
15.064,0.015718933032226528
15.068,0.015726097114018255
15.072000000000001,0.015724342154384712
15.076,0.015716817464449105
15.08,0.015722659316379943
15.084,0.015721481329776604
15.088000000000001,0.015726193276189956
15.092,0.01570926873397057
15.096,0.015711071774689965
15.1,0.01573314099309536
15.104000000000001,0.01572657792487676
15.108,0.015715711599474543
15.112,0.0157093889366852
15.116,0.01573008784414385
15.120000000000001,0.01572314012723845
15.124,0.01572455851927104
15.128,0.015714677856128755
15.132,0.01572140920814783
15.136000000000001,0.015723717100268656
15.14,0.01571374027495467
15.144,0.015711744909891873
15.148,0.015724822965243218
15.152000000000001,0.01575095503540298
15.156,0.01573617010150394
15.16,0.015717899288880743
15.164,0.01573054461445943
15.168000000000001,0.015725135492301246
15.172,0.015729558952199494
15.176,0.015718187775395843
15.18,0.015724582559813963
15.184000000000001,0.015725712465331453
15.188,0.01574004062891491
15.192,0.015722491032579465
15.196,0.01572886177645466
15.200000000000001,0.015730712898259905
15.204,0.015722899721809194
15.208,0.015716769383363253
15.212,0.01571902919439823
15.216000000000001,0.015722515073122393
15.22,0.015726794289763087
15.224,0.01570936489614227
15.228,0.015706504071534167
15.232000000000001,0.015722010221720963
15.236,0.015716769383363253
15.24,0.015708307112253562
15.244,0.015707465693251176
15.248000000000001,0.015710086112430032
15.252,0.015720351424259118
15.256,0.01571725019422176
15.26,0.015704460625385518
15.264000000000001,0.015712129558578678
15.268,0.01572068799186007
15.272,0.015708908125826693
15.276,0.01570902832854132
15.280000000000001,0.015723572857011103
15.284,0.01572758762767962
15.288,0.01573953577751348
15.292,0.015715086545358484
15.296000000000001,0.015722515073122393
15.3,0.01572491912741492
15.304,0.015736795155619997
15.308,0.015721769816291708
15.312000000000001,0.015712345923465005
15.316,0.01570962934211445
15.32,0.01570998995025833
15.324,0.015717274234764683
15.328000000000001,0.015696815732735285
15.332,0.01571693766716373
15.336,0.01571400472092685
15.34,0.015703547084754358
15.344000000000001,0.01570835519333941
15.348,0.015715759680560392
15.352,0.01573972810185688
15.356,0.015727419343879147
15.36,0.015706648314791717
15.364,0.01570602326067566
15.368,0.01571328350463909
15.372,0.015716312613047675
15.376,0.01571780312670904
15.38,0.015717923329423667
15.384,0.015718476261910946
15.388,0.015707633977051653
15.392,0.01570587901741811
15.396,0.015721120721632727
15.4,0.015726265397818733
15.404,0.015721986181178035
15.408,0.015702609503580274
15.412,0.01571232188292208
15.416,0.0157256643842456
15.42,0.015725231654472947
15.424,0.015731434114547665
15.428,0.015711191977404594
15.432,0.015717899288880743
15.436,0.015730496533373578
15.44,0.015710711166546088
15.444,0.015701383435891086
15.448,0.01570693680130682
15.452,0.01571648089684815
15.456,0.015713355626267866
15.46,0.015707321449993625
15.464,0.015720327383716193
15.468,0.01572475084361444
15.472,0.015711768950434798
15.476,0.01570674447696342
15.48,0.01571328350463909
15.484,0.015730424411744805
15.488,0.015720327383716193
15.492,0.015705638611988856
15.496,0.01571369219386882
15.5,0.01572196214063511
15.504,0.015731265830747188
15.508000000000001,0.015716120288704272
15.512,0.015719990816115238
15.516,0.015722587194751166
15.52,0.015738526074710615
15.524000000000001,0.015713668153325894
15.528,0.01571474997775753
15.532,0.015725904789674852
15.536,0.015742228318321106
15.540000000000001,0.015715807761646244
15.544,0.01570597517958981
15.548,0.015715038464272635
15.552,0.015716408775219376
15.556000000000001,0.015720976478375174
15.56,0.015707369531079474
15.564,0.015712394004550857
15.568,0.015733717966125563
15.572000000000001,0.01572054374860252
15.576,0.015722659316379943
15.58,0.01572085627566055
15.584,0.015730304209030176
15.588000000000001,0.015707225287821924
15.592,0.01570217677380762
15.596,0.01570114303046183
15.6,0.015712754612694734
15.604000000000001,0.01570835519333941
15.608,0.015691598934920503
15.612,0.015693377935096973
15.616,0.01571333158572494
15.620000000000001,0.015720399505344967
15.624,0.01570936489614227
15.628,0.015705229922759127
15.632,0.015712802693780586
15.636000000000001,0.01572378922189743
15.64,0.015703787490183613
15.644,0.01570410001724164
15.648,0.015710086112430032
15.652000000000001,0.015709725504286152
15.656,0.015704845274072322
15.66,0.015705037598415725
15.664,0.015714774018300456
15.668000000000001,0.0157414590209475
15.672,0.01572525569501587
15.676,0.015705398206559605
15.68,0.015709749544829076
15.684000000000001,0.015715086545358484
15.688,0.01571556735621699
15.692,0.015698666854540532
15.696,0.015697873516623998
15.700000000000001,0.015708379233882335
15.704,0.0157051097200445
15.708,0.015687896691310012
15.712,0.015694387637899834
15.716000000000001,0.015709316815056423
15.72,0.015720062937744014
15.724,0.0157051097200445
15.728,0.01570268162520905
15.732000000000001,0.015710663085460236
15.736,0.01572063991077422
15.74,0.01570450870647137
15.744,0.01569998908440142
15.748000000000001,0.015709845707000777
15.752,0.01572104860000395
15.756,0.015715086545358484
15.76,0.01570936489614227
15.764000000000001,0.01570607134176151
15.768,0.015717538680736862
15.772,0.01572465468144274
15.776,0.015699243827570736
15.780000000000001,0.015714725937214607
15.784,0.015718981113312377
15.788,0.015715735640017468
15.792,0.01570450870647137
15.796000000000001,0.015708956206912542
15.8,0.01573941557479885
15.804,0.015737324047564352
15.808,0.015700614138517477
15.812000000000001,0.015704989517329876
15.816,0.0157140528020127
15.82,0.015711504504462622
15.824,0.015709196612341797
15.828000000000001,0.015709196612341797
15.832,0.015704027895612864
15.836,0.015719510005256735
15.84,0.015701503638605712
15.844000000000001,0.015691935502521456
15.848,0.015700253530373597
15.852,0.015700734341232103
15.856,0.01569602239481875
15.860000000000001,0.015697825435538146
15.864,0.0157049173957011
15.868,0.015713019058666913
15.872,0.015703955773984087
15.876,0.01569683977327821
15.88,0.01570775417976628
15.884,0.015713620072240045
15.888,0.015716360694133524
15.892,0.01571287481540936
15.896,0.015720615870231297
15.9,0.015720928397289325
15.904,0.015726794289763087
15.908,0.015719822532314763
15.912,0.015718548383539723
15.916,0.015738526074710615
15.92,0.015733525641782164
15.924,0.01570256142249442
15.928,0.01569400298921303
15.932,0.01570760993650873
15.936,0.015712129558578678
15.94,0.01570660023370587
15.944,0.015689555488771857
15.948,0.01570131131426231
15.952,0.01570474911190062
15.956,0.015699291908656588
15.96,0.01570167192240619
15.964,0.01571063904491731
15.968,0.01571155258554847
15.972,0.01570770609868043
15.976,0.015692656718809216
15.98,0.015706311747190765
15.984,0.015727106816821115
15.988,0.015704773152443546
15.992,0.015696046435361675
15.996,0.015698546651825903
16.0,0.015708331152796486
16.004,0.015715134626444336
16.008,0.015703354760410956
16.012,0.015691598934920503
16.016000000000002,0.01570684063913512
16.02,0.015700469895259927
16.024,0.015692536516094587
16.028,0.015696214719162153
16.032,0.015706768517506343
16.036,0.015716456856305225
16.04,0.015704316382127968
16.044,0.01569683977327821
16.048000000000002,0.0157096774232003
16.052,0.015726505803247984
16.056,0.01571441341015658
16.06,0.015708234990624785
16.064,0.0157142451263561
16.068,0.01571491826155801
16.072,0.01571172086934895
16.076,0.015707393571622402
16.080000000000002,0.015701022827747206
16.084,0.015710879450346563
16.088,0.015700974746661357
16.092,0.015685949407333068
16.096,0.01569936403028536
16.1,0.015715711599474543
16.104,0.015695902192104125
16.108,0.015683304947611287
16.112000000000002,0.015690685394289344
16.116,0.01571063904491731
16.12,0.01571039863948806
16.124,0.01569542138124562
16.128,0.015692897124238468
16.132,0.015703859611812386
16.136,0.015710230355687582
16.14,0.01570693680130682
16.144000000000002,0.015707898423023833
16.148,0.01571349986952542
16.152,0.01572511145175832
16.156,0.01569897938159856
16.16,0.01570551840927423
16.164,0.015725135492301246
16.168,0.01570405193615579
16.172,0.01568871406976947
16.176000000000002,0.015690565191574718
16.18,0.015695565624503173
16.184,0.01569760907065182
16.188,0.01569167105654928
16.192,0.015680107555402226
16.196,0.015691695097092204
16.2,0.015703066273895852
16.204,0.01570568669307471
16.208000000000002,0.01570227293597932
16.212,0.015705302044387904
16.216,0.015719149397112855
16.22,0.015712249761293304
16.224,0.015698330286939576
16.228,0.015708739842026215
16.232,0.015734535344585025
16.236,0.01570597517958981
16.240000000000002,0.01569989292222972
16.244,0.015700782422317955
16.248,0.015701936368378366
16.252,0.01572145728923368
16.256,0.01570922065288472
16.26,0.015706864679678044
16.264,0.01571725019422176
16.268,0.015704364463213816
16.272000000000002,0.01569477228658664
16.276,0.01570587901741811
16.28,0.01571592796436087
16.284,0.01573196300649202
16.288,0.01572790015473765
16.292,0.015715447153502364
16.296,0.01571674534282033
16.3,0.01573592969607469
16.304000000000002,0.015717370396936384
16.308,0.01570744165270825
16.312,0.015697585030108895
16.316,0.015705951139046884
16.32,0.01571232188292208
16.324,0.015712514207265483
16.328,0.015693017326953093
16.332,0.015723620938096955
16.336000000000002,0.015724366194927637
16.34,0.015730159965772626
16.344,0.015738574155796468
16.348,0.015718788788968974
16.352,0.015734823831100125
16.356,0.015709725504286152
16.36,0.01570121515209061
16.364,0.015728068438538127
16.368000000000002,0.015725375897730497
16.372,0.0156980658409674
16.376,0.015697488867937193
16.38,0.0157119612747782
16.384,0.01571532695078774
16.388,0.015718884951140676
16.392,0.015702705665751975
16.396,0.015717971410509516
16.4,0.015729102181883912
16.404,0.01570835519333941
16.408,0.015707369531079474
16.412,0.01571374027495467
16.416,0.01570679255804927
16.42,0.015694820367672488
16.424,0.015703931733441163
16.428,0.015711240058490443
16.432,0.015727178938449892
16.436,0.015704701030814772
16.44,0.01568460313692925
16.444,0.01569724846250794
16.448,0.015706311747190765
16.452,0.015710158234058805
16.456,0.015707321449993625
16.46,0.01568820921836804
16.464,0.01571876474842605
16.468,0.015718404140282173
16.472,0.01571977445122891
16.476,0.015693113489124794
16.48,0.015715855842732093
16.484,0.015713932599298073
16.488,0.015703715368554836
16.492,0.015695854111018273
16.496,0.015704075976698716
16.5,0.015718740707883126
16.504,0.015702537381951497
16.508,0.0156865504209062
16.512,0.015694027029755954
16.516000000000002,0.015711240058490443
16.52,0.015699820800600943
16.524,0.015706960841849745
16.528,0.015696310881333855
16.532,0.01571018227460173
16.536,0.015713956639840997
16.54,0.015702849909009525
16.544,0.015698162003139098
16.548000000000002,0.015717923329423667
16.552,0.01571323542355324
16.556,0.015708090747367235
16.56,0.015690733475375192
16.564,0.015713187342467388
16.568,0.015712105518035754
16.572,0.01569669553002066
16.576,0.015703787490183613
16.580000000000002,0.015708403274425263
16.584,0.01571744251856516
16.588,0.01570390769289824
16.592,0.015687680326423686
16.596,0.015695661786674874
16.6,0.015698089881510325
16.604,0.015697681192280596
16.608,0.015695301178530994
16.612000000000002,0.015696719570563584
16.616,0.015710110152972957
16.62,0.015696262800248006
16.624,0.015699267868113664
16.628,0.015702897990095378
16.632,0.015712033396406977
16.636,0.015716625140105703
16.64,0.015695060773101743
16.644000000000002,0.015692776921523842
16.648,0.015706143463390287
16.652,0.015712033396406977
16.656,0.01570373940909776
16.66,0.01569441167844276
16.664,0.015702537381951497
16.668,0.01571729827530761
16.672,0.01569633492187678
16.676000000000002,0.015685805164075514
16.68,0.01571049480165976
16.684,0.015701647881863262
16.688,0.015682030798836247
16.692,0.015671477000492057
16.696,0.015689916096915734
16.7,0.015716120288704272
16.704,0.015706311747190765
16.708000000000002,0.01569455592170031
16.712,0.015698666854540532
16.716,0.015704436584842593
16.72,0.01570157576023449
16.724,0.015706864679678044
16.728,0.01570359516584021
16.732,0.015717370396936384
16.736,0.015741338818232874
16.740000000000002,0.015692536516094587
16.744,0.01568130958254849
16.748,0.015712802693780586
16.752,0.015708547517682813
16.756,0.01570196040892129
16.76,0.015697536949023042
16.764,0.015715807761646244
16.768,0.015717682923994412
16.772000000000002,0.015721264964890277
16.776,0.01569460400278616
16.78,0.01571821181593877
16.784,0.015714437450699503
16.788,0.015707273368907773
16.792,0.01569989292222972
16.796,0.015696142597533377
16.8,0.015704989517329876
16.804000000000002,0.015694027029755954
