time,channel3
0.0,0.008444360905213465
0.004,0.008443711810554482
0.008,0.008446813040591842
0.012,0.008447197689278645
0.016,0.00844626010810456
0.02,0.008447870824480553
0.024,0.008442654026665771
0.028,0.00843159537692015
0.032,0.008437365107222213
0.036000000000000004,0.008441403918433657
0.04,0.008443591607839855
0.044,0.0084476304190513
0.048,0.008451068216689613
0.052000000000000005,0.008453953081840644
0.056,0.00846037190680169
0.06,0.008442870391552098
0.064,0.008427219998107752
0.068,0.008453784798040168
0.07200000000000001,0.008452727014151456
0.076,0.008462223028606934
0.08,0.008451765392434446
0.084,0.008437749755909017
0.088,0.008444817675529044
0.092,0.00844626010810456
0.096,0.008446789000048915
0.1,0.00844580333778898
0.10400000000000001,0.008448976689455115
0.108,0.008447029405478168
0.112,0.008448784365111713
0.116,0.008449962351715051
0.12,0.008448664162397087
0.124,0.008443110796981351
0.128,0.008441163513004404
0.132,0.008433302255467843
0.136,0.008434119633927302
0.14,0.008438302688396298
0.14400000000000002,0.008442798269923323
0.148,0.008444384945756389
0.152,0.008447317891993272
0.156,0.008448784365111713
0.16,0.008447774662308852
0.164,0.008463016366523468
0.168,0.008446356270276262
0.17200000000000001,0.008427869092766735
0.176,0.008441500080605359
0.18,0.008440298053459095
0.184,0.008434600444785808
0.188,0.008439889364229366
0.192,0.00844575525670313
0.196,0.00844712556764987
0.2,0.008446885162220617
0.20400000000000001,0.008449697905742872
0.20800000000000002,0.008454602176499626
0.212,0.00844448110792809
0.216,0.008444577270099791
0.22,0.008439745120971814
0.224,0.008430850120089466
0.228,0.008433614782525871
0.232,0.008447462135250824
0.23600000000000002,0.008448519919139535
0.24,0.008437076620707109
0.244,0.008441500080605359
0.248,0.008444577270099791
0.252,0.008446524554076738
0.256,0.008446909202763543
0.26,0.00844671687842014
0.264,0.008444793634986118
0.268,0.00844397625652666
0.272,0.008434215796099003
0.276,0.008427340200822378
0.28,0.008439480674999635
0.28400000000000003,0.008449072851626816
0.28800000000000003,0.00844900072999804
0.292,0.008449745986828723
0.296,0.00845027487877308
0.3,0.008445995662132381
0.304,0.008446596675705513
0.308,0.008446837081134766
0.312,0.008445154243129999
0.316,0.00844164432386291
0.32,0.008444769594443194
0.324,0.00844900072999804
0.328,0.008449433459770695
0.332,0.00844767850013715
0.336,0.008450996095060836
0.34,0.008449433459770695
0.34400000000000003,0.00845123650049009
0.34800000000000003,0.00844758233796545
0.352,0.008443495445668156
0.356,0.008452366406007578
0.36,0.00846174221774843
0.364,0.008450899932889135
0.368,0.00844808718936688
0.372,0.008445586972902652
0.376,0.008448832446197563
0.38,0.008450491243659406
0.384,0.008446885162220617
0.388,0.008440658661602974
0.392,0.00844301463480965
0.396,0.008445635053988503
0.4,0.008447822743394702
0.404,0.00844671687842014
0.40800000000000003,0.008433278214924919
0.41200000000000003,0.008435081255644314
0.41600000000000004,0.008444336864670538
0.42,0.008450202757144303
0.424,0.00844539464855925
0.428,0.008443856053812034
0.432,0.00844758233796545
0.436,0.008452390446550502
0.44,0.008447870824480553
0.444,0.00844301463480965
0.448,0.008444505148471016
0.452,0.008443495445668156
0.456,0.008444577270099791
0.46,0.008444457067385166
0.464,0.008451188419404239
0.468,0.008453712676411393
0.47200000000000003,0.008447317891993272
0.47600000000000003,0.008446981324392318
0.48,0.008446813040591842
0.484,0.008447317891993272
0.488,0.008446861121677692
0.492,0.0084452504053017
0.496,0.008437292985593437
0.5,0.008427460403537004
0.504,0.008433614782525871
0.508,0.008446067783761158
0.512,0.008451188419404239
0.516,0.008450226797687229
0.52,0.008458953514769099
0.524,0.008467103258820764
0.528,0.008440658661602974
0.532,0.008436331363876427
0.536,0.008442702107751622
0.54,0.00844154816169121
0.544,0.008440850985946376
0.548,0.008440442296716647
0.552,0.0084476304190513
0.556,0.0084498181084575
0.56,0.008450226797687229
0.5640000000000001,0.008451044176146687
0.5680000000000001,0.00845681390644875
0.5720000000000001,0.008458881393140324
0.5760000000000001,0.00845580420364589
0.58,0.008454265608898674
0.584,0.00844986618954335
0.588,0.008443856053812034
0.592,0.008441764526577536
0.596,0.008442629986122845
0.6,0.008440442296716647
0.604,0.008438759458711878
0.608,0.008442173215807265
0.612,0.008445875459417756
0.616,0.008447774662308852
0.62,0.00844493787824367
0.624,0.008440754823774675
0.628,0.008441187553547329
0.632,0.00844205301309264
0.636,0.008442533823951144
0.64,0.008442750188837472
0.644,0.008441307756261956
0.648,0.00844210109417849
0.652,0.008444793634986118
0.656,0.008443711810554482
0.66,0.00844397625652666
0.664,0.008441932810378012
0.668,0.00844214917526434
0.672,0.008443832013269108
0.676,0.008443351202410604
0.68,0.008446139905389933
0.684,0.008446452432447963
0.6880000000000001,0.008443495445668156
0.6920000000000001,0.008444697472814419
0.6960000000000001,0.008451356703204717
0.7000000000000001,0.008450539324745257
0.704,0.00843940855337086
0.708,0.008445274445844624
0.712,0.00844113947246148
0.716,0.008442341499607743
0.72,0.00843580247193207
0.724,0.008425128470873254
0.728,0.008433614782525871
0.732,0.008432484877008385
0.736,0.008441451999519508
0.74,0.008446644756791364
0.744,0.008448351635339059
0.748,0.008448111229909806
0.752,0.008441307756261956
0.756,0.008434937012386762
0.76,0.008434119633927302
0.764,0.008430850120089466
0.768,0.008421161781290586
0.772,0.008425513119560059
0.776,0.008432941647323965
0.78,0.008439312391199159
0.784,0.008440730783231749
0.788,0.00843885562088358
0.792,0.008437893999166569
0.796,0.008437845918080718
0.8,0.008437773796451942
0.804,0.00843945663445671
0.808,0.008448880527283414
0.812,0.008442317459064817
0.8160000000000001,0.008436018836818398
0.8200000000000001,0.00844133179680488
0.8240000000000001,0.008445827378331905
0.8280000000000001,0.008441980891463863
0.8320000000000001,0.00843895178305528
0.836,0.008438543093825551
0.84,0.008436018836818398
0.844,0.008441932810378012
0.848,0.008443423324039379
0.852,0.008442629986122845
0.856,0.008432196390493281
0.86,0.008426402619648292
0.864,0.008436331363876427
0.868,0.008445178283672923
0.872,0.008446380310819186
0.876,0.00844133179680488
0.88,0.008439264310113308
0.884,0.008440081688572767
0.888,0.00844570717561728
0.892,0.008453616514239691
0.896,0.008441764526577536
0.9,0.008433446498725395
0.904,0.008447462135250824
0.908,0.008448568000225386
0.912,0.008442221296893116
0.916,0.00842940768751395
0.92,0.008436908336906633
0.924,0.008439216229027458
0.928,0.008441668364405835
0.932,0.008443375242953528
0.936,0.008443038675352574
0.9400000000000001,0.008442870391552098
0.9440000000000001,0.00844109139137563
0.9480000000000001,0.008436018836818398
0.9520000000000001,0.008435610147588668
0.9560000000000001,0.008435441863788192
0.96,0.0084407788643176
0.964,0.008443495445668156
0.968,0.008443759891640333
0.972,0.008443255040238903
0.976,0.008446548594619664
0.98,0.00844529848638755
0.984,0.008444216661955913
0.988,0.008442774229380397
0.992,0.008441187553547329
0.996,0.008442629986122845
1.0,0.008443832013269108
1.004,0.008444192621412987
1.008,0.008441476040062432
1.012,0.008448015067738105
1.016,0.008455684000931264
1.02,0.008439528756085486
1.024,0.00842483998435815
1.028,0.008439264310113308
1.032,0.008437341066679288
1.036,0.00844082694540345
1.04,0.008440057648029842
1.044,0.008437341066679288
1.048,0.00844032209400202
1.052,0.00843986532368644
1.056,0.008437653593737316
1.06,0.008438134404595822
1.064,0.008437341066679288
1.068,0.008438062282967045
1.072,0.008439120066855757
1.076,0.008435994796275473
1.08,0.008432388714836684
1.084,0.008433614782525871
1.088,0.008436812174734932
1.092,0.00844037017508787
1.096,0.008443447364582305
1.1,0.008439168147941607
1.104,0.00843397539066975
1.108,0.008438374810025073
1.112,0.008442822310466247
1.116,0.008442197256350191
1.12,0.008437893999166569
1.124,0.00843986532368644
1.1280000000000001,0.008431835782349403
1.1320000000000001,0.00843255699863716
1.1360000000000001,0.008441379877890731
1.1400000000000001,0.008445058080958297
1.1440000000000001,0.008445995662132381
1.1480000000000001,0.008443663729468632
1.1520000000000001,0.008445082121501222
1.156,0.008443255040238903
1.16,0.008445106162044148
1.164,0.008445827378331905
1.168,0.00843712470179296
1.172,0.008436812174734932
1.176,0.008443327161867678
1.18,0.008444336864670538
1.184,0.008446548594619664
1.188,0.00844205301309264
1.192,0.008439576837171336
1.196,0.008441211594090255
1.2,0.008445947581046533
1.204,0.008443206959153052
1.208,0.00843803824242412
1.212,0.008434720647500433
1.216,0.00842890283611252
1.22,0.00843306185003859
1.224,0.008436884296363708
1.228,0.008440850985946376
1.232,0.008442702107751622
1.236,0.008438687337083103
1.24,0.008439480674999635
1.244,0.008442028972549713
1.248,0.008443158878067202
1.252,0.008443904134897885
1.256,0.008442389580693592
1.26,0.008434071552841451
1.264,0.008433230133839068
1.268,0.008442990594266724
1.272,0.008449072851626816
1.276,0.00845077973017451
1.28,0.008448183351538581
1.284,0.00844154816169121
1.288,0.008438927742512354
1.292,0.008448471838053685
1.296,0.008450298919316004
1.3,0.008441860688749237
1.304,0.008435778431389145
1.308,0.008436090958447174
1.312,0.008438567134368476
1.316,0.008443711810554482
1.32,0.00844178856712046
1.324,0.008443351202410604
1.328,0.008447341932536196
1.332,0.008446981324392318
1.336,0.008442894432095024
1.34,0.008441500080605359
1.344,0.008441524121148283
1.348,0.008436884296363708
1.352,0.008436139039533025
1.356,0.008442293418521893
1.36,0.008443255040238903
1.364,0.008446572635162589
1.368,0.008452678933065606
1.372,0.008453953081840644
1.3760000000000001,0.008452991460123634
1.3800000000000001,0.008451428824833492
1.3840000000000001,0.00845032295985893
1.3880000000000001,0.00844986618954335
1.3920000000000001,0.008445106162044148
1.3960000000000001,0.008434648525871658
1.4000000000000001,0.008442389580693592
1.4040000000000001,0.008442341499607743
1.408,0.008444288783584688
1.412,0.008436018836818398
1.416,0.008444288783584688
1.42,0.008442942513180875
1.424,0.008443495445668156
1.428,0.008441500080605359
1.432,0.008438975823598205
1.436,0.008436691972020306
1.44,0.008422700376037802
1.444,0.008412170618236535
1.448,0.008425176551959105
1.452,0.008435225498901864
1.456,0.0084407788643176
1.46,0.008441187553547329
1.464,0.008440129769658617
1.468,0.008440418256173721
1.472,0.008441884729292162
1.476,0.008442028972549713
1.48,0.008438182485681671
1.484,0.008436090958447174
1.488,0.008442365540150668
1.492,0.008437893999166569
1.496,0.008436283282790577
1.5,0.00844178856712046
1.504,0.008442581905036994
1.508,0.008442173215807265
1.512,0.008437100661250035
1.516,0.008440009566943992
1.52,0.008450178716601378
1.524,0.00844626010810456
1.528,0.008441379877890731
1.532,0.008432244471579132
1.536,0.008438783499254802
1.54,0.008439576837171336
1.544,0.008441067350832703
1.548,0.008440971188661002
1.552,0.008443134837524275
1.556,0.008442028972549713
1.56,0.008442918472637949
1.564,0.008444360905213465
1.568,0.008441451999519508
1.572,0.008440562499431273
1.576,0.008436090958447174
1.58,0.008440514418345422
1.584,0.008446740918963065
1.588,0.008435057215101387
1.592,0.00843580247193207
1.596,0.008441067350832703
1.6,0.008440971188661002
1.604,0.008437653593737316
1.608,0.00844493787824367
1.612,0.008445827378331905
1.616,0.008439264310113308
1.62,0.008435826512474995
1.624,0.00843890370196943
1.6280000000000001,0.008442750188837472
1.6320000000000001,0.008441620283319984
1.6360000000000001,0.008431931944521104
1.6400000000000001,0.008440298053459095
1.6440000000000001,0.008452390446550502
1.6480000000000001,0.008454722379214253
1.6520000000000001,0.008448688202940011
1.6560000000000001,0.008443182918610126
1.6600000000000001,0.008443615648382781
1.6640000000000001,0.00843332629601077
1.668,0.008421378146176913
1.672,0.008431018403889943
1.676,0.008440201891287394
1.68,0.008445995662132381
1.684,0.008447918905566404
1.688,0.008450996095060836
1.692,0.008445779297246055
1.696,0.008446115864847009
1.7,0.008453087622295335
1.704,0.008448255473167358
1.708,0.008441500080605359
1.712,0.008429239403713474
1.716,0.008439096026312832
1.72,0.008442413621236518
1.724,0.008434985093472612
1.728,0.008442822310466247
1.732,0.00844712556764987
1.736,0.008447702540680077
1.74,0.008449697905742872
1.744,0.00845402520346942
1.748,0.008451068216689613
1.752,0.008446837081134766
1.756,0.008442822310466247
1.76,0.008444144540327138
1.764,0.008448471838053685
1.768,0.008450515284202332
1.772,0.008448111229909806
1.776,0.008448495878596609
1.78,0.008451765392434446
1.784,0.00845128458157594
1.788,0.008450154676058454
1.792,0.00846128544743285
1.796,0.008455587838759562
1.8,0.00844301463480965
1.804,0.008443110796981351
1.808,0.008442341499607743
1.812,0.00844666879733429
1.816,0.008450082554429677
1.82,0.008450467203116482
1.824,0.008445058080958297
1.828,0.008442173215807265
1.832,0.008449481540856545
1.836,0.008452318324921727
1.84,0.00845123650049009
1.844,0.008437365107222213
1.848,0.008434696606957509
1.852,0.008450659527459884
1.856,0.00845087589234621
1.86,0.008445899499960682
1.864,0.008439264310113308
1.868,0.008433374377096618
1.872,0.008442461702322369
1.8760000000000001,0.008454962784643506
1.8800000000000001,0.008455924406360516
1.8840000000000001,0.008447750621765927
1.8880000000000001,0.008443158878067202
1.8920000000000001,0.00844854395968246
1.8960000000000001,0.008450755689631585
1.9000000000000001,0.008445971621589457
1.9040000000000001,0.008448159310995657
1.9080000000000001,0.008454626217042552
1.9120000000000001,0.00845082781126036
1.9160000000000001,0.008436595809848605
1.92,0.008436860255820782
1.924,0.008446115864847009
1.928,0.008451068216689613
1.932,0.008442750188837472
1.936,0.008427123835936051
1.94,0.008436499647676904
1.944,0.008447390013622047
1.948,0.008446764959505991
1.952,0.00844539464855925
1.956,0.008451837514063221
1.96,0.0084476304190513
1.964,0.00844154816169121
1.968,0.008443591607839855
1.972,0.008446644756791364
1.976,0.008446837081134766
1.98,0.008443206959153052
1.984,0.00843758147210854
1.988,0.008438182485681671
1.992,0.008437100661250035
1.996,0.008437701674823167
2.0,0.008443615648382781
2.004,0.008456453298304871
2.008,0.008456453298304871
2.012,0.008447462135250824
2.016,0.008447438094707898
2.02,0.008447149608192796
2.024,0.008446332229733336
2.028,0.008446909202763543
2.032,0.008446187986475784
2.036,0.008447774662308852
2.04,0.0084430627158955
2.044,0.008441908769835088
2.048,0.008443375242953528
2.052,0.008447462135250824
2.056,0.0084452504053017
2.06,0.008447942946109328
2.064,0.008444769594443194
2.068,0.008436643890934455
2.072,0.008429840417286606
2.076,0.008436139039533025
2.08,0.00843895178305528
2.084,0.008444625351185642
2.088,0.008442413621236518
2.092,0.008438735418168954
2.096,0.00843524953944479
2.1,0.008438759458711878
2.104,0.008451428824833492
2.108,0.008448664162397087
2.112,0.008442726148294546
2.116,0.0084384950127397
2.12,0.008442028972549713
2.124,0.008441379877890731
2.128,0.008444865756614895
2.132,0.008441572202234134
2.136,0.008441956850920938
2.14,0.008445635053988503
2.144,0.008449193054341442
2.148,0.008446236067561634
2.152,0.008441692404948761
2.156,0.008435826512474995
2.16,0.00843743722885099
2.164,0.008441860688749237
2.168,0.008436860255820782
2.172,0.008436764093649081
2.176,0.008439288350656235
2.18,0.00844133179680488
2.184,0.008443110796981351
2.188,0.00844205301309264
2.192,0.008448928608369264
2.196,0.008454241568355747
2.2,0.008447462135250824
2.204,0.008432364674293757
2.208,0.008437821877537792
2.212,0.008446187986475784
2.216,0.00845251064926513
2.22,0.008452799135780231
2.224,0.008450491243659406
2.228,0.008452438527636353
2.232,0.00845347227098214
2.236,0.008440346134544946
2.24,0.008446139905389933
2.244,0.008447991027195179
2.248,0.008440971188661002
2.2520000000000002,0.00844159624277706
2.2560000000000002,0.008441043310289779
2.2600000000000002,0.008443735851097407
2.2640000000000002,0.008446548594619664
2.2680000000000002,0.008445875459417756
2.2720000000000002,0.008451164378861314
2.2760000000000002,0.008448279513710282
2.2800000000000002,0.008445466770188027
2.2840000000000003,0.008444192621412987
2.2880000000000003,0.008437317026136362
2.2920000000000003,0.008436980458535408
2.2960000000000003,0.00843210022832158
2.3000000000000003,0.008438663296540177
2.3040000000000003,0.008441500080605359
2.308,0.008448303554253208
2.312,0.008445106162044148
2.316,0.008442798269923323
2.32,0.008445034040415371
2.324,0.008443832013269108
2.328,0.008442269377978966
2.332,0.00844767850013715
2.336,0.008451957716777848
2.34,0.008436499647676904
2.344,0.008434480242071182
2.348,0.008443543526754006
2.352,0.008448423756967834
2.356,0.008450443162573556
2.36,0.008444913837700746
2.364,0.008439144107398683
2.368,0.00843570630976037
2.372,0.008441019269746853
2.376,0.008440298053459095
2.38,0.008432220431036206
2.384,0.008440802904860526
2.388,0.008448279513710282
2.392,0.008446404351362112
2.396,0.00844214917526434
2.4,0.008442341499607743
2.404,0.008442341499607743
2.408,0.008444048378155437
2.412,0.008443663729468632
2.416,0.00844443302684224
2.42,0.008445178283672923
2.424,0.008439552796628412
2.428,0.00842798929548136
2.432,0.008430465471402662
2.436,0.008436331363876427
2.44,0.00843671601256323
2.444,0.008436018836818398
2.448,0.008440418256173721
2.452,0.008441860688749237
2.456,0.008442822310466247
2.46,0.008445514851273877
2.464,0.008440442296716647
2.468,0.008439552796628412
2.472,0.008440899067032227
2.476,0.008440346134544946
2.48,0.008439432593913785
2.484,0.00844154816169121
2.488,0.008445226364758774
2.492,0.008448111229909806
2.496,0.00844722172982157
2.5,0.008442581905036994
2.504,0.008445178283672923
2.508,0.008446500513533814
2.512,0.008449385378684844
2.516,0.00845082781126036
2.52,0.008437244904507587
2.524,0.008445586972902652
2.528,0.008449794067914573
2.532,0.008444072418698361
2.536,0.008443351202410604
2.54,0.008447942946109328
2.544,0.008445178283672923
2.548,0.008444793634986118
2.552,0.008445106162044148
2.556,0.008445490810730951
2.56,0.008444865756614895
2.564,0.00842798929548136
2.568,0.008416185388905054
2.572,0.008437268945050511
2.576,0.008450467203116482
2.58,0.008444192621412987
2.584,0.008445490810730951
2.588,0.00845275105469438
2.592,0.00845352035206799
2.596,0.008449193054341442
2.6,0.008439504715542561
2.604,0.008442798269923323
2.608,0.008449024770540966
2.612,0.008449625784114097
2.616,0.008441692404948761
2.62,0.008441500080605359
2.624,0.008446740918963065
2.628,0.008447317891993272
2.632,0.00844900072999804
2.636,0.008450202757144303
2.64,0.00844808718936688
2.644,0.008451428824833492
2.648,0.0084476304190513
2.652,0.008428806673940819
2.656,0.008425440997931282
2.66,0.008436114998990099
2.664,0.008452150041121249
2.668,0.008457246636221405
2.672,0.008451212459947165
2.676,0.008447702540680077
2.68,0.008452366406007578
2.684,0.008444192621412987
2.688,0.008443591607839855
2.692,0.008453712676411393
2.696,0.00846078059603142
2.7,0.008452919338494859
2.704,0.008450851851803285
2.708,0.008444144540327138
2.712,0.008435057215101387
2.716,0.00843169153909185
2.72,0.00843945663445671
2.724,0.008442221296893116
2.728,0.008438062282967045
2.732,0.00844803910828103
2.736,0.008448568000225386
2.74,0.008446981324392318
2.744,0.008447870824480553
2.748,0.008449986392257976
2.7520000000000002,0.008447774662308852
2.7560000000000002,0.008451020135603763
2.7600000000000002,0.008449337297598994
2.7640000000000002,0.008443110796981351
2.7680000000000002,0.008450707608545735
2.7720000000000002,0.008451068216689613
2.7760000000000002,0.008452029838406623
2.7800000000000002,0.0084476304190513
2.7840000000000003,0.008440586539974197
2.7880000000000003,0.008429095160455922
2.7920000000000003,0.008435826512474995
2.7960000000000003,0.008437365107222213
2.8000000000000003,0.008443543526754006
2.8040000000000003,0.008449577703028247
2.8080000000000003,0.008450683568002808
2.8120000000000003,0.008447438094707898
2.816,0.008437869958623643
2.82,0.00844662071624844
2.824,0.008441812607663387
2.828,0.00844493787824367
2.832,0.00844205301309264
2.836,0.008441884729292162
2.84,0.008448351635339059
2.844,0.008448279513710282
2.848,0.008447702540680077
2.852,0.008438062282967045
2.856,0.008444817675529044
2.86,0.008445370608016325
2.864,0.008436884296363708
2.868,0.008437076620707109
2.872,0.00843945663445671
2.876,0.008441403918433657
2.88,0.008437461269393914
2.884,0.00843520145835894
2.888,0.008439288350656235
2.892,0.00844260594557992
2.896,0.008442485742865293
2.9,0.008444408986299315
2.904,0.008439528756085486
2.908,0.008441716445491685
2.912,0.008436066917904248
2.916,0.008437653593737316
2.92,0.008441476040062432
2.924,0.008433278214924919
2.928,0.00844570717561728
2.932,0.008435658228674519
2.936,0.008433037809495666
2.94,0.008432124268864506
2.944,0.008440850985946376
2.948,0.008443351202410604
2.952,0.008446644756791364
2.956,0.008446380310819186
2.96,0.00844493787824367
2.964,0.008438086323509971
2.968,0.008426186254761965
2.972,0.00842890283611252
2.976,0.008439336431742085
2.98,0.008441620283319984
2.984,0.00844250978340822
2.988,0.008443303121324753
2.992,0.008444505148471016
2.996,0.008452919338494859
3.0,0.008443423324039379
3.004,0.008435129336730164
3.008,0.008436283282790577
3.012,0.008437773796451942
3.016,0.008431523255291375
3.02,0.008426498781819993
3.024,0.00843767763428024
3.028,0.008433374377096618
3.032,0.008436643890934455
3.036,0.008443952215983735
3.04,0.008443543526754006
3.044,0.008439264310113308
3.048,0.008440225931830319
3.052,0.00844758233796545
3.056,0.008444216661955913
3.06,0.008443351202410604
3.064,0.008452150041121249
3.068,0.008443423324039379
3.072,0.00844250978340822
3.076,0.008450250838230153
3.08,0.008449505581399471
3.084,0.008445514851273877
3.088,0.00844037017508787
3.092,0.008430802039003616
3.096,0.008434696606957509
3.1,0.008445322526930475
3.104,0.008444625351185642
3.108,0.008441908769835088
3.112,0.008438615215454326
3.116,0.008441908769835088
3.12,0.008450443162573556
3.124,0.008457559163279433
3.128,0.008444096459241287
3.132,0.008429527890228578
3.136,0.008432773363523487
3.14,0.008434167715013152
3.144,0.00843387922849805
3.148,0.008417002767364512
3.152,0.008417411456594243
3.156,0.008440009566943992
3.16,0.008448351635339059
3.164,0.008432653160808861
3.168,0.008422676335494877
3.172,0.008429624052400279
3.176,0.008435033174558463
3.18,0.00844250978340822
3.184,0.008438278647853372
3.188,0.008439144107398683
3.192,0.008438086323509971
3.196,0.008441019269746853
3.2,0.008434167715013152
3.204,0.008434432160985331
3.208,0.008433999431212676
3.212,0.008435778431389145
3.216,0.00844178856712046
3.22,0.008449721946285798
3.224,0.00843387922849805
3.228,0.008429696174029054
3.232,0.008439264310113308
3.236,0.008430417390316811
3.24,0.00842027228120235
3.244,0.008429167282084697
3.248,0.008440442296716647
3.2520000000000002,0.008439023904684055
3.2560000000000002,0.008427748890052107
3.2600000000000002,0.008434720647500433
3.2640000000000002,0.008436451566591053
3.2680000000000002,0.008441524121148283
3.2720000000000002,0.008434888931300911
3.2760000000000002,0.008431042444432869
3.2800000000000002,0.008415175686102193
3.2840000000000003,0.00841301203723892
3.2880000000000003,0.00842803737656721
3.2920000000000003,0.008423661997754813
3.2960000000000003,0.008432965687866889
3.3000000000000003,0.0084499142706292
3.3040000000000003,0.008455515717130787
3.3080000000000003,0.008434816809672134
3.3120000000000003,0.008428277781996464
3.3160000000000003,0.008427508484622854
3.3200000000000003,0.008432989728409815
3.3240000000000003,0.008432532958094235
3.3280000000000003,0.008431811741806476
3.332,0.00842986445782953
3.336,0.00843616308007595
3.34,0.008438086323509971
3.344,0.008436595809848605
3.348,0.008444961918786596
3.352,0.008441500080605359
3.356,0.008432244471579132
3.36,0.00843981724260059
3.364,0.0084407788643176
3.368,0.008432845485152263
3.372,0.008417603780937644
3.376,0.008417050848450363
3.38,0.008427099795393125
3.384,0.00843433599881363
3.388,0.008435345701616491
3.392,0.008439264310113308
3.396,0.008446187986475784
3.4,0.008444072418698361
3.404,0.008429119200998848
3.408,0.008430393349773887
3.412,0.008440634621060048
3.416,0.00843712470179296
3.42,0.008441668364405835
3.424,0.00843890370196943
3.428,0.008437749755909017
3.432,0.008437461269393914
3.436,0.008439168147941607
3.44,0.008437268945050511
3.444,0.008435033174558463
3.448,0.008438278647853372
3.452,0.008440730783231749
3.456,0.008434576404242881
3.46,0.008428998998284221
3.464,0.008436860255820782
3.468,0.00843794208025242
3.472,0.008440899067032227
3.476,0.008441379877890731
3.48,0.0084384950127397
3.484,0.008446356270276262
3.488,0.008444120499784212
3.492,0.00844210109417849
3.496,0.008437749755909017
3.5,0.008428277781996464
3.504,0.008420392483916976
3.508,0.008405847955447191
3.512,0.008417844186366897
3.516,0.008424551497843047
3.52,0.00842798929548136
3.524,0.008435369742159415
3.528,0.008443110796981351
3.532,0.008438206526224597
3.536,0.00842991253891538
3.54,0.008435898634103772
3.544,0.008435417823245266
3.548,0.008435177417816013
3.552,0.008436187120618876
3.556,0.00843890370196943
3.56,0.008438062282967045
3.564,0.008439144107398683
3.568,0.008438975823598205
3.572,0.008433855187955124
3.576,0.00843758147210854
3.58,0.008450226797687229
3.584,0.008455251271158608
3.588,0.008445514851273877
3.592,0.00844255786449407
3.596,0.008425320795216656
3.6,0.008428181619824763
3.604,0.008434528323157033
3.608,0.008431571336377224
3.612,0.008433759025783423
3.616,0.00843717278287881
3.62,0.00843671601256323
3.624,0.008433927309583901
3.628,0.008435682269217445
3.632,0.008437918039709493
3.636,0.008436331363876427
3.64,0.00842342159232556
3.644,0.008423012903095831
3.648,0.008425104430330328
3.652,0.008436090958447174
3.656,0.008434576404242881
3.66,0.00844301463480965
3.664,0.008444072418698361
3.668,0.008435850553017921
3.672,0.008431763660720626
3.676,0.008432076187778656
3.68,0.008436836215277858
3.684,0.008442028972549713
3.688,0.008438062282967045
3.692,0.008435730350303296
3.696,0.00843356670144002
3.7,0.008421882997578343
3.704,0.008427171917021902
3.708,0.008430802039003616
3.712,0.00843387922849805
3.716,0.008438927742512354
3.72,0.008435970755732547
3.724,0.00843347053926832
3.728,0.008430080822715858
3.732,0.008416570037591858
3.736,0.008427965254938434
3.74,0.008417603780937644
3.744,0.008425416957388358
3.748,0.008437100661250035
3.7520000000000002,0.008435489944874043
3.7560000000000002,0.008427845052223808
3.7600000000000002,0.008439576837171336
3.7640000000000002,0.008442341499607743
3.7680000000000002,0.008444961918786596
3.7720000000000002,0.008436355404419352
3.7760000000000002,0.008425513119560059
3.7800000000000002,0.008431018403889943
3.7840000000000003,0.008431282849862122
3.7880000000000003,0.008436427526048127
3.7920000000000003,0.008438254607310448
3.7960000000000003,0.00844133179680488
3.8000000000000003,0.008443615648382781
3.8040000000000003,0.008438663296540177
3.8080000000000003,0.008436619850391529
3.8120000000000003,0.008429936579458307
3.8160000000000003,0.008419887632515546
3.8200000000000003,0.008420560767717454
3.8240000000000003,0.008425416957388358
3.8280000000000003,0.00843169153909185
3.8320000000000003,0.008431114566061644
3.8360000000000003,0.008414190023842257
3.84,0.008427388281908229
3.844,0.008442774229380397
3.848,0.008440850985946376
3.852,0.008446236067561634
3.856,0.008449673865199948
3.86,0.008452222162750026
3.864,0.008441451999519508
3.868,0.00842849414688279
3.872,0.008430273147059261
3.876,0.008425873727703937
3.88,0.008427316160279454
3.884,0.008429479809142727
3.888,0.00843113860660457
3.892,0.008434648525871658
3.896,0.008437100661250035
3.9,0.008435441863788192
3.904,0.008438927742512354
3.908,0.008436643890934455
3.912,0.008430201025430484
3.916,0.008430826079546542
3.92,0.008426667065620471
3.924,0.008434480242071182
3.928,0.008455107027901056
3.932,0.00844255786449407
3.936,0.00843205214723573
3.94,0.008423397551782634
3.944,0.0084270757548502
3.948,0.008428085457653061
3.952,0.008427123835936051
3.956,0.008421858957035419
3.96,0.00842483998435815
3.964,0.008433662863611722
3.968,0.008435369742159415
3.972,0.008423133105810457
3.976,0.008427748890052107
3.98,0.008431715579634775
3.984,0.008432004066149879
3.988,0.00843109052551872
3.992,0.008429888498372456
3.996,0.008427796971137958
4.0,0.008416473875420157
4.0040000000000004,0.008418445199940028
4.008,0.008422508051694401
4.0120000000000005,0.008424359173499645
4.016,0.008445635053988503
4.0200000000000005,0.008438326728939223
4.024,0.008423782200469439
4.0280000000000005,0.00843397539066975
4.032,0.008437461269393914
4.0360000000000005,0.008434672566414583
4.04,0.008427724849509183
4.0440000000000005,0.0084224118895227
4.048,0.008426498781819993
4.0520000000000005,0.008431042444432869
4.056,0.008429888498372456
4.0600000000000005,0.00842803737656721
4.064,0.008429287484799325
4.0680000000000005,0.008434480242071182
4.072,0.00843575439084622
4.0760000000000005,0.008432701241894712
4.08,0.00843799016133827
4.0840000000000005,0.00845347227098214
4.088,0.008433254174381993
4.0920000000000005,0.008400799441432885
4.096,0.008394621021901093
4.1,0.008422652294951951
4.104,0.008423950484269915
4.108,0.008420440565002827
4.112,0.008423469673411411
4.116,0.008428205660367687
4.12,0.008429047079370072
4.124,0.008423397551782634
4.128,0.00842387836264114
4.132,0.008424190889699168
4.136,0.008424022605898692
4.14,0.008424575538385973
4.144,0.008427388281908229
4.148,0.0084247919032723
4.152,0.008425921808789788
4.156,0.008435610147588668
4.16,0.008434552363699957
4.164,0.00842611413313319
4.168,0.008422508051694401
4.172,0.0084247919032723
4.176,0.008420825213689632
4.18,0.008427003633221424
4.184,0.008423950484269915
4.188,0.008429575971314428
4.192,0.008431234768776271
4.196,0.008427965254938434
4.2,0.00842849414688279
4.204,0.008428325863082314
4.208,0.008428998998284221
4.212,0.008432268512122056
4.216,0.008432581039180086
4.22,0.008431258809319195
4.224,0.008433759025783423
4.228,0.008446332229733336
4.232,0.008443399283496454
4.236,0.00843986532368644
4.24,0.008430008701087082
4.244,0.008418445199940028
4.248,0.008419382781114116
4.252,0.008424671700557674
4.256,0.008425609281731758
4.26,0.008424070686984543
4.264,0.008432124268864506
4.268,0.00843017698488756
4.272,0.008430850120089466
4.276,0.008426186254761965
4.28,0.008433590741982947
4.284,0.008431571336377224
4.288,0.008428277781996464
4.292,0.008429840417286606
4.296,0.00843387922849805
4.3,0.00843616308007595
4.304,0.008434408120442405
4.308,0.008435129336730164
4.312,0.008433999431212676
4.316,0.00843616308007595
4.32,0.008436812174734932
4.324,0.008435081255644314
4.328,0.008439384512827934
4.332,0.008451597108633968
4.336,0.008429768295657829
4.34,0.008417940348538598
4.344,0.008414742956329537
4.348,0.008415007402301717
4.352,0.008431499214748448
4.356,0.008449529621942396
4.36,0.008443255040238903
4.364,0.008427268079193603
4.368,0.008433710944697572
4.372,0.008428542227968641
4.376,0.00843433599881363
4.38,0.008437004499078334
4.384,0.008436764093649081
4.388,0.008434095593384377
4.392,0.008433807106869274
4.396,0.008435513985416967
4.4,0.008437004499078334
4.404,0.00843671601256323
4.408,0.00843378306632635
4.412,0.0084338311474122
4.416,0.008432004066149879
4.42,0.008427772930595033
4.424,0.008425729484446386
4.428,0.008436499647676904
4.432,0.00843799016133827
4.436,0.008434576404242881
4.44,0.0084294557685998
4.444,0.008420584808260379
4.448,0.008409478077428905
4.452,0.008411353239777077
4.456,0.008420512686631604
4.46,0.00843109052551872
4.464,0.008443687770011556
4.468,0.008452823176323157
4.472,0.008428205660367687
4.476,0.00841620942944798
4.48,0.008433254174381993
4.484,0.008438206526224597
4.488,0.008431282849862122
4.492,0.008433855187955124
4.496,0.008432292552664982
4.5,0.008417291253879616
4.5040000000000004,0.00843109052551872
4.508,0.00843580247193207
4.5120000000000005,0.008428758592854968
4.516,0.008424214930242094
4.5200000000000005,0.008433903269040975
4.524,0.008434720647500433
4.5280000000000005,0.008432028106692805
4.532,0.008431234768776271
4.5360000000000005,0.008425873727703937
4.54,0.008426402619648292
4.5440000000000005,0.008429768295657829
4.548,0.008432244471579132
4.5520000000000005,0.00842844606579694
4.556,0.008430826079546542
4.5600000000000005,0.00843017698488756
4.564,0.008431282849862122
4.5680000000000005,0.008437292985593437
4.572,0.00841498336175879
4.5760000000000005,0.008424190889699168
4.58,0.00843356670144002
4.5840000000000005,0.008434937012386762
4.588,0.008442870391552098
4.5920000000000005,0.008437966120795344
4.596,0.008428085457653061
4.6000000000000005,0.008423613916668963
4.604,0.00842286865983828
4.6080000000000005,0.008417892267452747
4.612,0.008406448969020323
4.616,0.008427316160279454
4.62,0.008429792336200755
4.624,0.008429431728056876
4.628,0.008430417390316811
4.632,0.008428229700910613
4.636,0.008430537593031438
4.64,0.008432677201351787
4.644,0.008430994363347018
4.648,0.008429551930771502
4.652,0.008431763660720626
4.656,0.008435009134015537
4.66,0.008435586107045744
4.664,0.00843387922849805
4.668,0.008430489511945588
4.672,0.008430032741630008
4.676,0.008432484877008385
4.68,0.00843310993112444
4.684,0.008437509350479764
4.688,0.008438422891110924
4.692,0.008431931944521104
4.696,0.00842753252516578
4.7,0.008445034040415371
4.704,0.008440177850744468
4.708,0.00842524867358788
4.712,0.008432725282437638
4.716,0.008420248240659425
4.72,0.008414550631986135
4.724,0.008428782633397894
4.728,0.008420079956858948
4.732,0.008417195091707914
4.736,0.00842575352498931
4.74,0.008431523255291375
4.744,0.008432244471579132
4.748,0.008434360039356555
4.752,0.008439168147941607
4.756,0.008439504715542561
4.76,0.008437244904507587
4.764,0.008435610147588668
4.768,0.008430152944344634
4.772,0.008423734119383589
4.776,0.008424022605898692
4.78,0.008429960620001231
4.784,0.00843260507972301
4.788,0.00843748530993684
4.792,0.00842575352498931
4.796,0.008417699943109345
4.8,0.008428638390140342
4.804,0.008434263877184853
4.808,0.008433855187955124
4.812,0.00843022506597341
4.816,0.008432196390493281
4.82,0.008425633322274684
4.824,0.008425873727703937
4.828,0.008411497483034627
4.832,0.008407530793451959
4.836,0.008416786402478185
4.84,0.008427316160279454
4.844,0.008430465471402662
4.848,0.008430201025430484
4.852,0.008422700376037802
4.856,0.008424407254585495
4.86,0.008426282416933667
4.864,0.008432484877008385
4.868,0.00843397539066975
4.872,0.00843169153909185
4.876,0.00843397539066975
4.88,0.00842616221421904
4.884,0.00843616308007595
4.888,0.008430946282261167
4.892,0.008433807106869274
4.896,0.00843936047228501
4.9,0.008425416957388358
4.904,0.00841717105116499
4.908,0.008424864024901077
4.912,0.008421714713777867
4.916,0.00842063288934623
4.92,0.008427171917021902
4.924,0.008427965254938434
4.928,0.008423613916668963
4.932,0.0084270757548502
4.936,0.008422844619295353
4.94,0.008417050848450363
4.944,0.008414839118501239
4.948,0.008418661564826357
4.952,0.008425392916845431
4.956,0.008429744255114904
4.96,0.008431571336377224
4.964,0.008428157579281836
4.968,0.008418661564826357
4.972,0.008418108632339074
4.976,0.008435345701616491
4.98,0.008444192621412987
4.984,0.008434624485328732
4.988,0.008423060984181682
4.992,0.008427316160279454
4.996,0.008427219998107752
5.0,0.008431379012033823
5.0040000000000004,0.008434239836641929
5.008,0.008426186254761965
5.0120000000000005,0.008426378579105368
5.016,0.008430850120089466
5.0200000000000005,0.008428133538738912
5.024,0.00842895091719837
5.0280000000000005,0.008433686904154648
5.032,0.008433422458182469
5.0360000000000005,0.008417026807907438
5.04,0.008417339334965466
5.0440000000000005,0.00842895091719837
5.048,0.008422820578752429
5.0520000000000005,0.008406232604133994
5.056,0.008407530793451959
5.0600000000000005,0.0084112811181483
5.064,0.00842063288934623
5.0680000000000005,0.008431330930947972
5.072,0.008433398417639544
5.0760000000000005,0.008436090958447174
5.08,0.008432220431036206
5.0840000000000005,0.008429479809142727
5.088,0.008436066917904248
5.0920000000000005,0.008435610147588668
5.096,0.008429768295657829
5.1000000000000005,0.00843433599881363
5.104,0.008446572635162589
5.1080000000000005,0.008452174081664175
5.112,0.00844260594557992
5.1160000000000005,0.008412819712895517
5.12,0.008410680104575168
5.124,0.008426234335847816
5.128,0.008432821444609337
5.132,0.008434528323157033
5.136,0.008436451566591053
5.14,0.008432773363523487
5.144,0.008426042011504414
5.148,0.00842798929548136
5.152,0.008429239403713474
5.156,0.008429311525342249
5.16,0.008433999431212676
5.164,0.008420536727174528
5.168,0.008408227969196791
5.172,0.008425152511416178
5.176,0.008428806673940819
5.18,0.008441427958976582
5.184,0.008442654026665771
5.188,0.008421041578575959
5.192,0.008421354105633987
5.196,0.008430080822715858
5.2,0.008434215796099003
5.204,0.008438158445138746
5.208,0.008431042444432869
5.212,0.008425272714130806
5.216,0.008428566268511566
5.22,0.008430273147059261
5.224,0.00842580160607516
5.228,0.008427171917021902
5.232,0.008428085457653061
5.236,0.008427219998107752
5.24,0.008424263011327945
5.244,0.008425200592502029
5.248,0.00843616308007595
5.252,0.008438783499254802
5.256,0.008435634188131595
5.26,0.008435970755732547
5.264,0.008431379012033823
5.268,0.008427508484622854
5.272,0.008427796971137958
5.276,0.008417531659308869
5.28,0.00841854136211173
5.284,0.008433686904154648
5.288,0.008431571336377224
5.292,0.008429479809142727
5.296,0.008436523688219828
5.3,0.008438663296540177
5.304,0.008440418256173721
5.308,0.008447606378508376
5.312,0.008436379444962276
5.316,0.00841767590256642
5.32,0.008412579307466264
5.324,0.008419887632515546
5.328,0.008428229700910613
5.332,0.008427604646794555
5.336,0.008424190889699168
5.34,0.00843109052551872
5.344,0.008426931511592649
5.348,0.00841488719958709
5.352,0.008418012470167375
5.356,0.008424888065444001
5.36,0.008428638390140342
5.364,0.008426811308878021
5.368,0.008426955552135573
5.372,0.008433398417639544
5.376,0.008421618551606166
5.38,0.008427412322451153
5.384,0.008439168147941607
5.388,0.008433374377096618
5.392,0.008432532958094235
5.396,0.008427508484622854
5.4,0.008425465038474208
5.404,0.008419430862199966
5.408,0.008424190889699168
5.412,0.00841909429459901
5.416,0.00841863752428343
5.42,0.008420945416404257
5.424,0.008412026374978983
5.428,0.00842702767376435
5.432,0.008427051714307274
5.436,0.008428109498195986
5.44,0.008429792336200755
5.444,0.008431403052576747
5.448,0.008428109498195986
5.452,0.008426859389963872
5.456,0.00843255699863716
5.46,0.008432172349950355
5.464,0.00843109052551872
5.468,0.008442437661779443
5.472,0.0084407788643176
5.476,0.008439288350656235
5.48,0.008425561200645908
5.484,0.00843351862035417
5.488,0.008442870391552098
5.492,0.008437605512651465
5.496,0.00842885475502667
5.5,0.008424238970785019
5.5040000000000004,0.00842580160607516
5.508,0.008430080822715858
5.5120000000000005,0.00843378306632635
5.516,0.00843986532368644
5.5200000000000005,0.008436788134192007
5.524,0.008420440565002827
5.5280000000000005,0.00841077626674687
5.532,0.008419142375684861
5.5360000000000005,0.008438062282967045
5.54,0.00843986532368644
5.5440000000000005,0.008437317026136362
5.548,0.008431715579634775
5.5520000000000005,0.008431523255291375
5.556,0.008432412755379608
5.5600000000000005,0.008434191755556078
5.564,0.008433903269040975
5.5680000000000005,0.008429600011857353
5.572,0.008430609714660213
5.5760000000000005,0.008435009134015537
5.58,0.008444553229556867
5.5840000000000005,0.008439047945226982
5.588,0.008436187120618876
5.5920000000000005,0.00843580247193207
5.596,0.008441427958976582
5.6000000000000005,0.008447991027195179
5.604,0.008445538891816802
5.6080000000000005,0.008439600877714263
5.612,0.008440057648029842
5.6160000000000005,0.008450034473343826
5.62,0.008444048378155437
5.6240000000000006,0.008420416524459903
5.628,0.008420007835230173
5.632,0.008438807539797729
5.636,0.008446428391905037
5.64,0.008430802039003616
5.644,0.008426715146706322
5.648,0.008428590309054492
5.652,0.00843387922849805
5.656,0.008431499214748448
5.66,0.008418324997225403
5.664,0.00842433513295672
5.668,0.008431715579634775
5.672,0.008432797404066413
5.676,0.008430489511945588
5.68,0.00842803737656721
5.684,0.008431162647147494
5.688,0.008433614782525871
5.692,0.00843433599881363
5.696,0.008435610147588668
5.7,0.008432629120265937
5.704,0.008430561633574363
5.708,0.008432797404066413
5.712,0.008439889364229366
5.716,0.008441427958976582
5.72,0.008434696606957509
5.724,0.008434696606957509
5.728,0.008430513552488512
5.732,0.00843885562088358
5.736,0.008448015067738105
5.74,0.008437701674823167
5.744,0.008431547295834299
5.748,0.008428974957741297
5.752,0.008428590309054492
5.756,0.008427772930595033
5.76,0.008432917606781038
5.764,0.008439023904684055
5.768,0.008437821877537792
5.772,0.008417820145823972
5.776,0.008415223767188043
5.78,0.008423758159926513
5.784,0.008432965687866889
5.788,0.008441211594090255
5.792,0.008426354538562442
5.796,0.008421474308348614
5.8,0.008440586539974197
5.804,0.008451308622118866
5.808,0.008437797836994868
5.812,0.008420969456947184
5.816,0.00842849414688279
5.82,0.00842474382218645
5.824,0.00843063375520314
5.828,0.008435225498901864
5.832,0.008436018836818398
5.836,0.00843580247193207
5.84,0.008436090958447174
5.844,0.008434961052929686
5.848,0.008434672566414583
5.852,0.008434600444785808
5.856,0.008437701674823167
5.86,0.008438158445138746
5.864,0.008444697472814419
5.868,0.008449938311172125
5.872,0.008437461269393914
5.876,0.008435441863788192
5.88,0.00843332629601077
5.884,0.008407939482681688
5.888,0.008412507185837489
5.892,0.008423301389610933
5.896,0.008432893566238114
5.9,0.008441500080605359
5.904,0.008426354538562442
5.908,0.008431282849862122
5.912,0.008434071552841451
5.916,0.008420753092060855
5.92,0.00843255699863716
5.924,0.008436114998990099
5.928,0.008433614782525871
5.932,0.0084408750264893
5.936,0.00843301376895274
5.94,0.00842616221421904
5.944,0.008434576404242881
5.948,0.008444312824127614
5.952,0.008443399283496454
5.956,0.008427316160279454
5.96,0.008419166416227787
5.964,0.008421666632692016
5.968,0.008424455335671346
5.972,0.008427099795393125
5.976,0.008424142808613318
5.98,0.008427388281908229
5.984,0.008429600011857353
5.988,0.008429696174029054
5.992,0.008428325863082314
5.996,0.008425440997931282
6.0,0.00842803737656721
6.0040000000000004,0.00843036930923096
6.008,0.008425320795216656
6.0120000000000005,0.008431763660720626
6.016,0.008431210728233345
6.0200000000000005,0.008416089226733352
6.024,0.00842342159232556
6.0280000000000005,0.00843118668769042
6.032,0.008433903269040975
6.0360000000000005,0.008436571769305679
6.04,0.008438567134368476
6.0440000000000005,0.008444817675529044
6.048,0.008444553229556867
6.0520000000000005,0.008444096459241287
6.056,0.008450010432800902
6.0600000000000005,0.008443206959153052
6.064,0.008407314428565632
6.0680000000000005,0.008414310226556884
6.072,0.008425416957388358
6.0760000000000005,0.008428013336024285
6.08,0.008426667065620471
6.0840000000000005,0.008430393349773887
6.088,0.00843159537692015
6.0920000000000005,0.008433807106869274
6.096,0.008433422458182469
6.1000000000000005,0.00843255699863716
6.104,0.008430705876831915
6.1080000000000005,0.00843072991737484
6.112,0.008437773796451942
6.1160000000000005,0.008435369742159415
6.12,0.008433085890581516
6.1240000000000006,0.008437244904507587
6.128,0.008434864890757985
6.132000000000001,0.008437389147765139
6.136,0.008436764093649081
6.140000000000001,0.008443735851097407
6.144,0.00843625924224765
6.148,0.008436884296363708
6.152,0.00843524953944479
6.156,0.00842991253891538
6.16,0.008429575971314428
6.164,0.008432701241894712
6.168,0.00843570630976037
6.172,0.008436018836818398
6.176,0.008429624052400279
6.18,0.008439240269570384
6.184,0.008440586539974197
6.188,0.008416810443021111
6.192,0.008420873294775482
6.196,0.00842895091719837
6.2,0.008427965254938434
6.204,0.008438470972196774
6.208,0.008441956850920938
6.212,0.008433254174381993
6.216,0.008441572202234134
6.22,0.00844109139137563
6.224,0.008434937012386762
6.228,0.008436475607133977
6.232,0.008435369742159415
6.236,0.008435009134015537
6.24,0.008438230566767521
6.244,0.008434047512298527
6.248,0.008437605512651465
6.252,0.008442269377978966
6.256,0.008441836648206311
6.26,0.008435994796275473
6.264,0.00842616221421904
6.268,0.008418300956682476
6.272,0.008427604646794555
6.276,0.008433422458182469
6.28,0.008435465904331117
6.284,0.008434480242071182
6.288,0.008434768728586284
6.292,0.008437605512651465
6.296,0.008440995229203928
6.3,0.008447005364935244
6.304,0.008440057648029842
6.308,0.008446428391905037
6.312,0.008453832879126018
6.316,0.00843885562088358
6.32,0.008421810875949568
6.324,0.008432004066149879
6.328,0.008424695741100599
6.332,0.008430128903801709
6.336,0.008436788134192007
6.34,0.008442317459064817
6.344,0.008437268945050511
6.348,0.008435586107045744
6.352,0.008441668364405835
6.356,0.008438783499254802
6.36,0.00844082694540345
6.364,0.008442798269923323
6.368,0.00844443302684224
6.372,0.008445562932359728
6.376,0.00843895178305528
6.38,0.00842209936246467
6.384,0.008428470106339866
6.388,0.008440610580517123
6.392,0.008435898634103772
6.396,0.008435874593560846
6.4,0.008437292985593437
6.404,0.008421498348891538
6.408,0.008436691972020306
6.412,0.008454217527812823
6.416,0.00844529848638755
6.42,0.008440682702145898
6.424,0.008443206959153052
6.428,0.008442461702322369
6.432,0.008447029405478168
6.436,0.008443880094354959
6.44,0.008444264743041763
6.444,0.008441716445491685
6.448,0.008443639688925706
6.452,0.008441716445491685
6.456,0.008442437661779443
6.46,0.008440706742688825
6.464,0.00844037017508787
6.468,0.00844570717561728
6.472,0.00845082781126036
6.476,0.008435730350303296
6.48,0.008431042444432869
6.484,0.008430898201175317
6.488,0.008425272714130806
6.492,0.008432292552664982
6.496,0.008440105729115693
6.5,0.008446957283849393
6.5040000000000004,0.008448303554253208
6.508,0.008435009134015537
6.5120000000000005,0.008423517754497262
6.516,0.00841931065948534
6.5200000000000005,0.00842657090344877
6.524,0.008429551930771502
6.5280000000000005,0.008436139039533025
6.532,0.008440177850744468
6.5360000000000005,0.008430393349773887
6.54,0.00843356670144002
6.5440000000000005,0.008445538891816802
6.548,0.008449673865199948
6.5520000000000005,0.008444048378155437
6.556,0.00842652282236292
6.5600000000000005,0.008426643025077545
6.564,0.008437725715366091
6.5680000000000005,0.008428830714483745
6.572,0.00843520145835894
6.5760000000000005,0.008438350769482149
6.58,0.00843844693165385
6.5840000000000005,0.008449673865199948
6.588,0.00844808718936688
6.5920000000000005,0.00842991253891538
6.596,0.00843109052551872
6.6000000000000005,0.008436908336906633
6.604,0.008437196823421736
6.6080000000000005,0.008440225931830319
6.612,0.008445418689102176
6.6160000000000005,0.008442389580693592
6.62,0.008439144107398683
6.6240000000000006,0.008436283282790577
6.628,0.008441884729292162
6.632000000000001,0.008440490377802498
6.636,0.008432821444609337
6.640000000000001,0.008436475607133977
6.644,0.008436042877361324
6.648000000000001,0.008439384512827934
6.652,0.008449024770540966
6.656000000000001,0.008451212459947165
6.66,0.008447053446021095
6.664,0.008445538891816802
6.668,0.008441764526577536
6.672,0.008440442296716647
6.676,0.008445562932359728
6.68,0.008452342365464651
6.684,0.008458953514769099
6.688,0.008457991893052089
6.692,0.008452991460123634
6.696,0.008440418256173721
6.7,0.008446380310819186
6.704,0.008442894432095024
6.708,0.00843529762053064
6.712,0.008447558297422525
6.716,0.008452919338494859
6.72,0.00845356843315384
6.724,0.008442702107751622
6.728,0.008441019269746853
6.732,0.00844666879733429
6.736,0.00843717278287881
6.74,0.008433206093296142
6.744,0.00844214917526434
6.748,0.008439504715542561
6.752,0.008454650257585477
6.756,0.008464867488328713
6.76,0.008455659960388337
6.764,0.008447293851450346
6.768,0.00844250978340822
6.772,0.008447991027195179
6.776,0.008461910501548906
6.78,0.008444793634986118
6.784,0.00844529848638755
6.788,0.008451549027548117
6.792,0.008451909635691998
6.796,0.008451380743747641
6.8,0.008452005797863697
6.804,0.008451765392434446
6.808,0.008442966553723799
6.812,0.008447822743394702
6.816,0.008452029838406623
6.82,0.008443735851097407
6.824,0.008445635053988503
6.828,0.008447558297422525
6.832,0.008456381176676096
6.836,0.008457030271335078
6.84,0.008453448230439213
6.844,0.008453808838583092
6.848,0.008435562066502818
6.852,0.008434528323157033
6.856,0.008445659094531429
6.86,0.008449938311172125
6.864,0.00845251064926513
6.868,0.00844864012185416
6.872,0.008447101527106945
6.876,0.00844154816169121
6.88,0.008439961485858141
6.884,0.008444264743041763
6.888,0.008446596675705513
6.892,0.008447077486564019
6.896,0.008446861121677692
6.9,0.008448063148823955
6.904,0.008449649824657022
6.908,0.008444312824127614
6.912,0.008443110796981351
6.916,0.008445611013445578
6.92,0.008450563365288183
6.924,0.0084499142706292
6.928,0.008458520784996445
6.932,0.008447606378508376
6.936,0.008457366838936033
6.94,0.008469242867141112
6.944,0.008465276177558443
6.948,0.008454409852156224
6.952,0.00844397625652666
6.956,0.008441620283319984
6.96,0.008445875459417756
6.964,0.008450563365288183
6.968,0.008452366406007578
6.972,0.008453352068267512
6.976,0.008454409852156224
6.98,0.008451957716777848
6.984,0.008441067350832703
6.988,0.008439120066855757
6.992,0.00845255873035098
6.996,0.008462006663720607
7.0,0.008457895730880387
7.0040000000000004,0.008444216661955913
7.008,0.008439047945226982
7.0120000000000005,0.008445538891816802
7.016,0.008441211594090255
7.0200000000000005,0.008444913837700746
7.024,0.00845717451459263
7.0280000000000005,0.008448183351538581
7.032,0.008456212892875618
7.0360000000000005,0.008466141637103753
7.04,0.008446909202763543
7.0440000000000005,0.008441980891463863
7.048,0.008446332229733336
7.0520000000000005,0.008448303554253208
7.056,0.008451452865376416
7.0600000000000005,0.008457919771423314
7.064,0.008460996960917747
7.0680000000000005,0.008455034906272281
7.072,0.008448063148823955
7.0760000000000005,0.008444697472814419
7.08,0.008451308622118866
7.0840000000000005,0.008463905866611703
7.088,0.008460564231145091
7.0920000000000005,0.00844498595932952
7.096,0.008428061417110135
7.1000000000000005,0.00842342159232556
7.104,0.008437725715366091
7.1080000000000005,0.008452318324921727
7.112,0.008458304420110117
7.1160000000000005,0.008457607244365284
7.12,0.008451044176146687
7.1240000000000006,0.008446861121677692
7.128,0.008449385378684844
7.132000000000001,0.008454409852156224
7.136,0.008456501379390722
7.140000000000001,0.008452727014151456
7.144,0.008450154676058454
7.148000000000001,0.008462367271864486
7.152,0.008460612312230942
7.156000000000001,0.008450178716601378
7.16,0.00844758233796545
7.164000000000001,0.008444096459241287
7.168,0.008454337730527449
7.172,0.008465588704616472
7.176,0.008462463434036187
7.18,0.008453592473696765
7.184,0.00843753339102269
7.188,0.00844027401291617
7.192,0.008450563365288183
7.196,0.008454289649441598
7.2,0.00845493874410058
7.204,0.008452318324921727
7.208,0.008439769161514739
7.212,0.008441307756261956
7.216,0.008449505581399471
7.22,0.008447798702851776
7.224,0.008454698338671327
7.228,0.008462174947521085
7.232,0.00845082781126036
7.236,0.008445514851273877
7.24,0.008447341932536196
7.244,0.008452390446550502
7.248,0.00844864012185416
7.252,0.008460492109516316
7.256,0.008464603042356536
7.26,0.008446789000048915
7.264,0.008447702540680077
7.268,0.008461886461005982
7.272,0.008456477338847797
7.276,0.008449601743571171
7.28,0.00845255873035098
7.284,0.008465252137015518
7.288,0.008463593339553675
7.292,0.008451044176146687
7.296,0.00844570717561728
7.3,0.00844493787824367
7.304,0.008447870824480553
7.308,0.008442702107751622
7.312,0.00844909689216974
7.316,0.008455371473873236
7.32,0.008462054744806458
7.324,0.008451885595149072
7.328,0.008442173215807265
7.332,0.008445586972902652
7.336,0.008457967852509164
7.34,0.008459338163455904
7.344,0.008444673432271493
7.348,0.008435778431389145
7.352,0.008444360905213465
7.356,0.008447293851450346
7.36,0.008436643890934455
7.364,0.008445586972902652
7.368,0.008441956850920938
7.372,0.008444793634986118
7.376,0.008437653593737316
7.38,0.008446596675705513
7.384,0.008450563365288183
7.388,0.008447918905566404
7.392,0.008448688202940011
7.396,0.008452366406007578
7.4,0.008462054744806458
7.404,0.008470156407772272
7.408,0.008444216661955913
7.412,0.008440009566943992
7.416,0.008448279513710282
7.42,0.008451621149176894
7.424,0.008463809704440002
7.428,0.008461862420463056
7.432,0.008455203190072758
7.436,0.008445995662132381
7.44,0.008445034040415371
7.444,0.00844854395968246
7.448,0.008450491243659406
7.452,0.008445106162044148
7.456,0.008430008701087082
7.46,0.008435153377273089
7.464,0.008446837081134766
7.468,0.00844890456782634
7.472,0.008450443162573556
7.476,0.00845356843315384
7.48,0.008453544392610915
7.484,0.008457054311878003
7.488,0.008458256339024266
7.492,0.008455251271158608
7.496,0.008463641420639526
7.5,0.008455828244188815
7.5040000000000004,0.008451308622118866
7.508,0.00845320782500996
7.5120000000000005,0.008454602176499626
7.516,0.008464651123442387
7.5200000000000005,0.008457727447079911
7.524,0.008452150041121249
7.5280000000000005,0.008451933676234922
7.532,0.008448616081311236
7.5360000000000005,0.008455515717130787
7.54,0.008455082987358132
7.5440000000000005,0.008453352068267512
7.548,0.008457775528165762
7.5520000000000005,0.008456549460476573
7.556,0.008453039541209484
7.5600000000000005,0.008453592473696765
7.564,0.008460107460829511
7.5680000000000005,0.008459650690513932
7.572,0.00844474555390027
7.5760000000000005,0.008442173215807265
7.58,0.008459290082370053
7.5840000000000005,0.00846366546118245
7.588,0.008458665028253995
7.5920000000000005,0.008447991027195179
7.596,0.008462968285437618
7.6000000000000005,0.00845087589234621
7.604,0.00844803910828103
7.6080000000000005,0.008462511515122038
7.612,0.008458689068796921
7.6160000000000005,0.008448063148823955
7.62,0.008457318757850182
7.6240000000000006,0.008460227663544139
7.628,0.008454962784643506
7.632000000000001,0.00845945836617053
7.636,0.008455635919845413
7.640000000000001,0.008454169446726972
7.644,0.008459217960741276
7.648000000000001,0.00846722346153539
7.652,0.008454409852156224
7.656000000000001,0.008450996095060836
7.66,0.008455563798216638
7.664000000000001,0.00846073251494557
7.668,0.008464579001813612
7.672000000000001,0.008451260541033016
7.676,0.008443591607839855
7.68,0.00844671687842014
7.684,0.008451116297775464
7.688,0.008455539757673712
7.692,0.008456910068620451
7.696,0.008456645622648274
7.7,0.008458015933595013
7.704,0.008434167715013152
7.708,0.008439264310113308
7.712,0.008461573933947954
7.716,0.008458184217395491
7.72,0.008459602609428081
7.724,0.008462006663720607
7.728,0.008460083420286587
7.732,0.008447702540680077
7.736,0.008453640554782616
7.74,0.008463833744982928
7.744,0.008462968285437618
7.748,0.008437605512651465
7.752,0.008446957283849393
7.756,0.00844986618954335
7.76,0.008453039541209484
7.764,0.008455467636044937
7.768,0.008447486175793748
7.772,0.008446500513533814
7.776,0.008453039541209484
7.78,0.0084543858116133
7.784,0.008449842149000424
7.788,0.008453303987181662
7.792,0.008464747285614088
7.796,0.008463497177381974
7.8,0.008456741784819975
7.804,0.008449673865199948
7.808,0.008438519053282625
7.812,0.008441500080605359
7.816,0.008443639688925706
7.82,0.008451428824833492
7.824,0.008440129769658617
7.828,0.008447654459594226
7.832,0.008452270243835876
7.836,0.008453712676411393
7.84,0.008456092690160993
7.844,0.008451909635691998
7.848,0.008447317891993272
7.852,0.008449745986828723
7.856,0.008450683568002808
7.86,0.008451621149176894
7.864,0.00844895264891219
7.868,0.008452606811436829
7.872,0.008454650257585477
7.876,0.008468906299540158
7.88,0.008458761190425696
7.884,0.008437749755909017
7.888,0.008445538891816802
7.892,0.008457967852509164
7.896,0.008469266907684037
7.9,0.008455010865729355
7.904,0.008434095593384377
7.908,0.008440418256173721
7.912,0.008446139905389933
7.916,0.00845265489252268
7.92,0.00844890456782634
7.924,0.008440947148118078
7.928,0.008430657795746064
7.932,0.008434504282614106
7.936,0.008445082121501222
7.94,0.008451909635691998
7.944,0.008451140338318388
7.948,0.008443279080781827
7.952,0.00844722172982157
7.956,0.008457366838936033
7.96,0.008468978421168933
7.964,0.008466742650676885
7.968,0.008453448230439213
7.972,0.008451861554606147
7.976,0.008457006230792152
7.98,0.008457727447079911
7.984,0.008440490377802498
7.988,0.00844474555390027
7.992,0.0084498181084575
7.996,0.008455082987358132
8.0,0.008454481973785
8.004,0.008454578135956702
8.008000000000001,0.008465540623530622
8.012,0.008452366406007578
8.016,0.00844854395968246
8.02,0.008454602176499626
8.024000000000001,0.008454121365641122
8.028,0.008454530054870851
8.032,0.008455419554959086
8.036,0.008459410285084679
8.040000000000001,0.00844351948621108
8.044,0.008444192621412987
8.048,0.008447149608192796
8.052,0.008456525419933648
8.056000000000001,0.008457198555135555
8.06,0.008436018836818398
8.064,0.008423517754497262
8.068,0.00843570630976037
8.072000000000001,0.008448568000225386
8.076,0.008451044176146687
8.08,0.008459025636397876
8.084,0.00845275105469438
8.088000000000001,0.008453784798040168
8.092,0.00845251064926513
8.096,0.008454794500843028
8.1,0.00845681390644875
8.104000000000001,0.00846001129865781
8.108,0.008466141637103753
8.112,0.008457943811966238
8.116,0.008462415352950337
8.120000000000001,0.008459770893228559
8.124,0.008451164378861314
8.128,0.008444505148471016
8.132,0.008448760324568788
8.136000000000001,0.008453255906095811
8.14,0.008456910068620451
8.144,0.008453688635868466
8.148,0.008449481540856545
8.152000000000001,0.008448111229909806
8.156,0.008449553662485322
8.16,0.008440129769658617
8.164,0.00844813527045273
8.168000000000001,0.008449217094884368
8.172,0.008448784365111713
8.176,0.008450250838230153
8.18,0.008440899067032227
8.184000000000001,0.008446957283849393
8.188,0.008466742650676885
8.192,0.008462126866435235
8.196,0.008423493713954336
8.2,0.008426691106163396
8.204,0.008440249972373245
8.208,0.008449842149000424
8.212,0.008454313689984524
8.216,0.008457895730880387
8.22,0.008447317891993272
8.224,0.008449649824657022
8.228,0.008450010432800902
8.232,0.008453592473696765
8.236,0.00845813613630964
8.24,0.008456958149706302
8.244,0.008445538891816802
8.248,0.008444913837700746
8.252,0.008452005797863697
8.256,0.00846316060978102
8.26,0.008455563798216638
8.264,0.008444505148471016
8.268,0.0084476304190513
8.272,0.008445466770188027
8.276,0.008442654026665771
8.28,0.00844250978340822
8.284,0.008442269377978966
8.288,0.008435489944874043
8.292,0.008438807539797729
8.296,0.008450683568002808
8.3,0.008450058513886752
8.304,0.008449120932712667
8.308,0.008447798702851776
8.312,0.008448808405654639
8.316,0.00845169327080567
8.32,0.008458256339024266
8.324,0.008466213758732528
8.328,0.008469795799628393
8.332,0.008466237799275455
8.336,0.008431018403889943
8.34,0.00841498336175879
8.344,0.008444216661955913
8.348,0.00844940941922777
8.352,0.008444408986299315
8.356,0.00844402433761251
8.36,0.008453616514239691
8.364,0.008458809271511547
8.368,0.00845803997413794
8.372,0.008457775528165762
8.376,0.0084590496769408
8.38,0.008461261406889924
8.384,0.008457366838936033
8.388,0.008449842149000424
8.392,0.008456765825362901
8.396,0.008464771326157012
8.4,0.008464458799098984
8.404,0.008446861121677692
8.408,0.0084430627158955
8.412,0.008457919771423314
8.416,0.008463497177381974
8.42,0.008442990594266724
8.424,0.008435922674646696
8.428,0.00844474555390027
8.432,0.008447510216336674
8.436,0.008444000297069586
8.44,0.008459121798569577
8.444,0.008453279946638737
8.448,0.008444625351185642
8.452,0.008463689501725376
8.456,0.008463689501725376
8.46,0.008464771326157012
8.464,0.00845950644725638
8.468,0.008447702540680077
8.472,0.008444817675529044
8.476,0.008449072851626816
8.48,0.008448255473167358
8.484,0.008451909635691998
8.488,0.008462126866435235
8.492,0.008472512380978948
8.496,0.008444553229556867
8.5,0.008439648958800113
8.504,0.008447197689278645
8.508000000000001,0.008445875459417756
8.512,0.00844890456782634
8.516,0.008452534689808054
8.52,0.008454049244012345
8.524000000000001,0.008451909635691998
8.528,0.008454313689984524
8.532,0.008448231432624432
8.536,0.008438326728939223
8.540000000000001,0.008444865756614895
8.544,0.008436788134192007
8.548,0.008452366406007578
8.552,0.008465180015386743
8.556000000000001,0.008462727880008366
8.56,0.008462463434036187
8.564,0.00846316060978102
8.568,0.00845590036581759
8.572000000000001,0.008449794067914573
8.576,0.008449553662485322
8.58,0.008456477338847797
8.584,0.008464915569414564
8.588000000000001,0.008457318757850182
8.592,0.00844864012185416
8.596,0.008454001162926494
8.6,0.008462319190778635
8.604000000000001,0.008456236933418545
8.608,0.008448616081311236
8.612,0.00845251064926513
8.616,0.008454265608898674
8.620000000000001,0.008460227663544139
8.624,0.00845580420364589
8.628,0.00845443389269915
8.632,0.008464579001813612
8.636000000000001,0.008464098190955106
8.64,0.00845128458157594
8.644,0.008451981757320773
8.648,0.008434600444785808
8.652000000000001,0.008439504715542561
8.656,0.008451164378861314
8.66,0.008456765825362901
8.664,0.008456910068620451
8.668000000000001,0.008454722379214253
8.672,0.008454193487269897
8.676,0.008457847649794537
8.68,0.00846174221774843
8.684000000000001,0.008463593339553675
8.688,0.008465588704616472
8.692,0.008469218826598186
8.696,0.008455082987358132
8.700000000000001,0.008449120932712667
8.704,0.008454842581928879
8.708,0.008448111229909806
8.712,0.008448375675881983
8.716,0.008461958582634757
8.72,0.00846630992090423
8.724,0.008466189718189604
8.728,0.00845803997413794
8.732,0.008464747285614088
8.736,0.008461261406889924
8.74,0.008458496744453519
8.744,0.00846311252869517
8.748,0.008460852717660195
8.752,0.008462030704263534
8.756,0.008461982623177683
8.76,0.008458616947168145
8.764,0.008458977555312025
8.768,0.008467896596737298
8.772,0.008462535555664964
8.776,0.00846676669121981
8.78,0.008453544392610915
8.784,0.008458881393140324
8.788,0.008462150906978159
8.792,0.008457054311878003
8.796,0.008454241568355747
8.8,0.008466790731762736
8.804,0.008459242001284202
8.808,0.00846392990715463
8.812,0.008468016799451923
8.816,0.008455179149529833
8.82,0.00845544359550201
8.824,0.008454193487269897
8.828,0.008453159743924112
8.832,0.008459121798569577
8.836,0.00846311252869517
8.84,0.008460588271688017
8.844,0.008462343231321562
8.848,0.00846539638027307
8.852,0.008476479070561616
8.856,0.008457487041650658
8.86,0.008446861121677692
8.864,0.008449986392257976
8.868,0.008458713109339846
8.872,0.008460996960917747
8.876,0.008461405650147476
8.88,0.008465997393846202
8.884,0.008454361771070375
8.888,0.008453303987181662
8.892,0.008451957716777848
8.896,0.008447149608192796
8.9,0.00845275105469438
8.904,0.008463040407066394
8.908,0.00846032382571584
8.912,0.00845854482553937
8.916,0.008464747285614088
8.92,0.008470781461888328
8.924,0.008476527151647466
8.928,0.008475108759614877
8.932,0.008456477338847797
8.936,0.008462968285437618
8.94,0.008454049244012345
8.944,0.0084568619875346
8.948,0.008468810137368457
8.952,0.008467343664250017
8.956,0.008472392178264322
8.96,0.008470300651029824
8.964,0.00846179029883428
8.968,0.008461622015033803
8.972,0.00846909862388356
8.976,0.008471310353832685
8.98,0.008465877191131574
8.984,0.008463785663897078
8.988,0.008472488340436022
8.992,0.00847965242222775
8.996,0.008461814339377205
9.0,0.008463304853038572
9.004,0.008458713109339846
9.008000000000001,0.008426354538562442
9.012,0.008443375242953528
9.016,0.008461213325804073
9.02,0.008461525852862103
9.024000000000001,0.008459217960741276
9.028,0.008452462568179279
9.032,0.008454049244012345
9.036,0.008466333961447156
9.040000000000001,0.008460299785172914
9.044,0.008456597541562423
9.048,0.008453880960211869
9.052,0.008462126866435235
9.056000000000001,0.008469218826598186
9.06,0.008466694569591034
9.064,0.008465588704616472
9.068,0.008461309487975775
9.072000000000001,0.008461573933947954
9.076,0.008464098190955106
9.08,0.008472464299893097
9.084,0.008464290515298508
9.088000000000001,0.00845585228473174
9.092,0.008467535988593419
9.096,0.008455972487446367
9.1,0.008452606811436829
9.104000000000001,0.008465973353303275
9.108,0.008461453731233326
9.112,0.008464579001813612
9.116,0.008467632150765118
9.120000000000001,0.008465204055929668
9.124,0.008460852717660195
9.128,0.008459939177029035
9.132,0.008455155108986907
9.136000000000001,0.00846275192055129
9.14,0.008468954380626009
9.144,0.008468834177911382
9.148,0.008469579434742065
9.152000000000001,0.008466574366876407
9.156,0.008455948446903441
9.16,0.008466886893934437
9.164,0.008466622447962258
9.168000000000001,0.008452005797863697
9.172,0.008455611879302487
9.176,0.008465131934300893
9.18,0.00846585315058865
9.184000000000001,0.008455323392787385
9.188,0.008450467203116482
9.192,0.00845585228473174
9.196,0.008463809704440002
9.200000000000001,0.008470637218630776
9.204,0.008467175380449539
9.208,0.008467415785878792
9.212,0.0084704689348303
9.216000000000001,0.00846731962370709
9.22,0.008466069515474977
9.224,0.00846758406967927
9.228,0.008472993191837454
9.232,0.008483090219866063
9.236,0.008487297314877984
9.24,0.008472728745865275
9.244,0.00845763128490821
9.248,0.008453328027724588
9.252,0.008457246636221405
9.256,0.008462727880008366
9.26,0.008465035772129191
9.264,0.008466285880361305
9.268,0.008469435191484513
9.272,0.008459362203998828
9.276,0.008458929474226174
9.28,0.008462583636750814
9.284,0.0084659012316745
9.288,0.008461453731233326
9.292,0.00846686285339151
9.296,0.008464458799098984
9.3,0.008452462568179279
9.304,0.008449265175970219
9.308,0.008450587405831107
9.312,0.008476551192190393
9.316,0.00847270470532235
9.32,0.00845712643350678
9.324,0.008469074583340635
9.328,0.008463953947697554
9.332,0.008456212892875618
9.336,0.00846585315058865
9.34,0.008467944677823148
9.344,0.008469723677999617
9.348,0.008471021867317581
9.352,0.008470949745688806
9.356,0.008472296016092621
9.36,0.008474507746041745
9.364,0.00846169413666258
9.368,0.008440802904860526
9.372,0.008458833312054473
9.376,0.008473305718895482
9.38,0.008470685299716627
9.384,0.00846686285339151
9.388,0.008464843447785789
9.392,0.008462727880008366
9.396,0.00845301550066656
9.4,0.00847087762406003
9.404,0.008482272841406605
9.408,0.008469940042885945
9.412,0.00845945836617053
9.416,0.008465011731586265
9.42,0.008467031137191987
9.424,0.008466430123618855
9.428,0.008462968285437618
9.432,0.008463473136839048
9.436,0.008463857785525853
9.44,0.008459145839112501
9.444,0.008462174947521085
9.448,0.008462174947521085
9.452,0.008463737582811227
9.456,0.00847051701591615
9.46,0.008471190151118059
9.464,0.008479436057341423
9.468,0.008453856919668943
9.472,0.00845635713613317
9.476,0.008465131934300893
9.48,0.008467535988593419
9.484,0.008472512380978948
9.488,0.008473762489211062
9.492,0.008473978854097388
9.496,0.008471550759261938
9.5,0.008456837946991676
9.504,0.008458280379567192
9.508000000000001,0.008463689501725376
9.512,0.008472945110751603
9.516,0.008472320056635545
9.52,0.008467391745335867
9.524000000000001,0.008465372339730144
9.528,0.008466934975020287
9.532,0.008465155974843817
9.536,0.008475878056988484
9.540000000000001,0.008497202018563193
9.544,0.008459939177029035
9.548,0.00843895178305528
9.552,0.008455082987358132
9.556000000000001,0.008462006663720607
9.56,0.008469411150941589
9.564,0.008473906732468613
9.568,0.0084797005033136
9.572000000000001,0.008472584502607723
9.576,0.00846681477230566
9.58,0.00846859377248213
9.584,0.008465877191131574
9.588000000000001,0.008465468501901845
9.592,0.00847097378623173
9.596,0.008469940042885945
9.6,0.008463857785525853
9.604000000000001,0.00846630992090423
9.608,0.008469194786055262
9.612,0.008454914703557656
9.616,0.008467920637280222
9.620000000000001,0.00848722519324921
9.624,0.008456525419933648
9.628,0.008455563798216638
9.632,0.008454409852156224
9.636000000000001,0.008463881826068779
9.64,0.008467079218277837
9.644,0.00846366546118245
9.648,0.008468257204881176
9.652000000000001,0.008470613178087852
9.656,0.008462006663720607
9.66,0.008462343231321562
9.664,0.008470685299716627
9.668000000000001,0.008476647354362092
9.672,0.008474676029842221
9.676,0.00846950731311329
9.68,0.008464506880184835
9.684000000000001,0.008465372339730144
9.688,0.008462487474579113
9.692,0.008469916002343019
9.696,0.008474026935183239
9.700000000000001,0.008459650690513932
9.704,0.00846078059603142
9.708,0.008460588271688017
9.712,0.008468858218454308
9.716000000000001,0.008478258070738086
9.72,0.008468161042709475
9.724,0.008464819407242863
9.728,0.00846051615005924
9.732,0.008464771326157012
9.736,0.008464314555841432
9.74,0.00846782447510852
9.744,0.008474026935183239
9.748,0.0084566696631912
9.752,0.008443856053812034
9.756,0.008454289649441598
9.76,0.008465829110045724
9.764,0.00846392990715463
9.768,0.008466646488505184
9.772,0.008474099056812016
9.776,0.008481191016974967
9.78,0.008486936706734106
9.784,0.008477705138250805
9.788,0.00847777725987958
9.792,0.008478306151823937
9.796,0.008469266907684037
9.8,0.008465564664073546
9.804,0.00846777639402267
9.808,0.008468786096825533
9.812,0.008466141637103753
9.816,0.008467656191308045
9.82,0.008466382042533006
9.824,0.008463328893581498
9.828,0.008464699204528237
9.832,0.008463184650323946
9.836,0.008459362203998828
9.84,0.008463304853038572
9.844,0.008476959881420122
9.848,0.008475180881243652
9.852,0.008475108759614877
9.856,0.00846758406967927
9.86,0.008470108326686421
9.864,0.008470949745688806
9.868,0.008474651989299297
9.872,0.008473978854097388
9.876,0.008468377407595802
9.88,0.008455371473873236
9.884,0.008448231432624432
9.888,0.0084659012316745
9.892,0.00847270470532235
9.896,0.00845909775802665
9.9,0.008459482406713455
9.904,0.008464410718013134
9.908,0.008467175380449539
9.912,0.00846854569139628
9.916,0.008475998259703112
9.92,0.00849006197731439
9.924,0.008470276610486898
9.928,0.00845534743333031
9.932,0.008462295150235711
9.936,0.008470276610486898
9.94,0.008470733380802477
9.944,0.00846823316433825
9.948,0.008468713975196756
9.952,0.008456645622648274
9.956,0.008464050109869255
9.96,0.008466454164161781
9.964,0.008464723245071162
9.968,0.008463184650323946
9.972,0.00846772831293682
9.976,0.008469531353656214
9.98,0.008471670961976563
9.984,0.008468473569767503
9.988,0.008465708907331098
9.992,0.008465468501901845
9.996,0.008457366838936033
10.0,0.00846489152887164
10.004,0.008465468501901845
10.008000000000001,0.00847087762406003
10.012,0.008467391745335867
10.016,0.008455876325274666
10.02,0.008458881393140324
10.024000000000001,0.008469411150941589
10.028,0.008456453298304871
10.032,0.008461597974490878
10.036,0.008469026502254784
10.040000000000001,0.00846727154262124
10.044,0.008468617813025055
10.048,0.008464242434212657
10.052,0.008465468501901845
10.056000000000001,0.00847219985392092
10.06,0.008474603908213446
10.064,0.008485830841759544
10.068,0.008467367704792941
10.072000000000001,0.008450082554429677
10.076,0.008464819407242863
10.08,0.008480397679058433
10.084,0.00847042085374445
10.088000000000001,0.008476166543503588
10.092,0.00846169413666258
10.096,0.008461237366347
10.1,0.008465636785702323
10.104000000000001,0.008460924839288972
10.108,0.008455756122560039
10.112,0.008464290515298508
10.116,0.008468954380626009
10.120000000000001,0.008476070381331887
10.124,0.00846635800199008
10.128,0.008471286313289758
10.132,0.008470396813201525
10.136000000000001,0.008473474002695958
10.14,0.008465468501901845
10.144,0.00846169413666258
10.148,0.008470180448315196
10.152000000000001,0.00846782447510852
10.156,0.008471166110575133
10.16,0.008471550759261938
10.164,0.008470997826774657
10.168000000000001,0.008474435624412968
10.172,0.008471286313289758
10.176,0.008478306151823937
10.18,0.008466934975020287
10.184000000000001,0.008461573933947954
10.188,0.00847169500251949
10.192,0.008470132367229346
10.196,0.0084613335285187
10.200000000000001,0.008459674731056858
10.204,0.008475445327215829
10.208,0.008486359733703899
10.212,0.008458064014680864
10.216000000000001,0.008447149608192796
10.22,0.008437557431565615
10.224,0.008453087622295335
10.228,0.008466983056106138
10.232000000000001,0.008461622015033803
10.236,0.008464819407242863
10.24,0.008470180448315196
10.244,0.008469074583340635
10.248,0.00846493960995749
10.252,0.00846955539419914
10.256,0.00848042171960136
10.26,0.008484941341671309
10.264,0.008459818974314408
10.268,0.008454650257585477
10.272,0.008462150906978159
10.276,0.00846224706914986
10.28,0.008473065313466229
10.284,0.008486744382390703
10.288,0.00846804083999485
10.292,0.008468112961623624
10.296,0.008465276177558443
10.3,0.008451885595149072
10.304,0.008464530920727761
10.308,0.008474147137897866
10.312,0.008465468501901845
10.316,0.008464579001813612
10.32,0.008470372772658599
10.324,0.008463425055753197
10.328,0.00844347140512523
10.332,0.008439697039885964
10.336,0.00844936133814192
10.34,0.008469146704969411
10.344,0.00848087848991694
10.348,0.00846777639402267
10.352,0.00847219985392092
10.356,0.00847635886784699
10.36,0.008457438960564808
10.364,0.008460179582458288
10.368,0.008461117163632372
10.372,0.008465228096472592
10.376,0.008469579434742065
10.38,0.008467391745335867
10.384,0.00846900246171186
10.388,0.008465925272217425
10.392,0.008472103691749219
10.396,0.008470084286143495
10.4,0.008467511948050493
10.404,0.008466526285790556
10.408,0.008466550326333483
10.412,0.008466790731762736
10.416,0.008459674731056858
10.42,0.00846493960995749
10.424,0.00849193713966256
10.428,0.008485253868729337
10.432,0.008444120499784212
10.436,0.008454193487269897
10.44,0.008464314555841432
10.444,0.008462727880008366
10.448,0.008466333961447156
10.452,0.008461982623177683
10.456,0.0084659012316745
10.46,0.00847138247546146
10.464,0.008474724110928072
10.468,0.008472560462064798
10.472,0.00846392990715463
10.476,0.008469146704969411
10.48,0.00847169500251949
10.484,0.008470997826774657
10.488,0.008448279513710282
10.492,0.008459121798569577
10.496,0.00847270470532235
10.5,0.008476791597619644
10.504,0.008462415352950337
10.508000000000001,0.008463857785525853
10.512,0.008473498043238884
10.516,0.008491480369346981
10.52,0.008478762922139517
10.524000000000001,0.008455107027901056
10.528,0.008464050109869255
10.532,0.008466502245247632
10.536,0.008468882258997232
10.540000000000001,0.008472488340436022
10.544,0.008471190151118059
10.548,0.00846407415041218
10.552,0.008468425488681652
10.556000000000001,0.008474387543327118
10.56,0.00847955626005605
10.564,0.008481647787290547
10.568,0.008480037070914555
10.572000000000001,0.008475132800157801
10.576,0.008454554095413775
10.58,0.0084590496769408
10.584,0.008467944677823148
10.588000000000001,0.008470589137544927
10.592,0.00848087848991694
10.596,0.008455082987358132
10.6,0.008461477771776253
10.604000000000001,0.008472536421521872
10.608,0.00846758406967927
10.612,0.008469146704969411
10.616,0.008467055177734913
10.620000000000001,0.008471646921433639
10.624,0.008474050975726165
10.628,0.008479532219513124
10.632,0.008479171611369246
10.636000000000001,0.008470853583517105
10.64,0.008472608543150649
10.644,0.008472512380978948
10.648,0.008473594205410585
10.652000000000001,0.008472632583693573
10.656,0.008478618678881965
10.66,0.008478113827480534
10.664,0.008465131934300893
10.668000000000001,0.008458568866082296
10.672,0.008462415352950337
10.676,0.008468353367052877
10.68,0.00848357103072457
10.684000000000001,0.008465877191131574
10.688,0.008451092257232538
10.692,0.008446019702675308
10.696,0.008459073717483726
10.700000000000001,0.008465300218101369
10.704,0.008466622447962258
10.708,0.008473906732468613
10.712,0.008473858651382763
10.716000000000001,0.008469146704969411
10.72,0.008466574366876407
10.724,0.008463352934124422
10.728,0.008464651123442387
10.732000000000001,0.008465180015386743
10.736,0.008463521217924899
10.74,0.008461862420463056
10.744,0.008467007096649062
10.748000000000001,0.008469531353656214
10.752,0.008468906299540158
10.756,0.008470396813201525
10.76,0.008474796232556848
10.764,0.008473449962153034
10.768,0.008465204055929668
10.772,0.008477056043591823
10.776,0.008473281678352556
10.78,0.008466790731762736
10.784,0.008477464732821552
10.788,0.00847534916504413
10.792,0.0084522942843788
10.796,0.008466622447962258
10.8,0.008474916435271474
10.804,0.008466069515474977
10.808,0.008465949312760351
10.812,0.008471262272746834
10.816,0.008469218826598186
10.82,0.008460972920374822
10.824,0.008461934542091832
10.828,0.008463905866611703
10.832,0.00846397798824048
10.836,0.008464579001813612
10.84,0.00846407415041218
10.844,0.008463304853038572
10.848,0.008455155108986907
10.852,0.008460107460829511
10.856,0.008455491676587861
10.86,0.008457246636221405
10.864,0.008474315421698343
10.868,0.008485662557959066
10.872,0.00846174221774843
10.876,0.008449794067914573
10.88,0.008456765825362901
10.884,0.008463641420639526
10.888,0.008461477771776253
10.892,0.00845320782500996
10.896,0.008459578568885157
10.9,0.008475325124501203
10.904,0.008470637218630776
10.908,0.008466790731762736
10.912,0.008466141637103753
10.916,0.008465180015386743
10.92,0.008470084286143495
10.924,0.008472175813377994
10.928,0.008469387110398664
10.932,0.008465997393846202
10.936,0.008451597108633968
10.94,0.008456453298304871
10.944,0.008480710206116463
10.948,0.008485013463300085
10.952,0.0084636173800966
10.956,0.008446115864847009
10.96,0.008448712243482938
10.964,0.008449673865199948
10.968,0.008460155541915362
10.972,0.008457967852509164
10.976,0.008471118029489282
10.98,0.008471622880890713
10.984,0.008461165244718223
10.988,0.008469795799628393
10.992,0.008470324691572748
10.996,0.008468786096825533
11.0,0.008470252569943973
11.004,0.00846407415041218
11.008000000000001,0.008464795366699938
11.012,0.008471767124148264
11.016,0.008470276610486898
11.02,0.00846417031258388
11.024000000000001,0.008463785663897078
11.028,0.00847873888159659
11.032,0.00848357103072457
11.036,0.008462775961094217
11.040000000000001,0.00845489066301473
11.044,0.008446957283849393
11.048,0.008445178283672923
11.052,0.008449721946285798
11.056000000000001,0.008460492109516316
11.06,0.008469026502254784
11.064,0.00846909862388356
11.068,0.008456837946991676
11.072000000000001,0.008451717311348595
11.076,0.008462896163808842
11.08,0.008464699204528237
11.084,0.008459602609428081
11.088000000000001,0.008463857785525853
11.092,0.008464050109869255
11.096,0.008471550759261938
11.1,0.008468353367052877
11.104000000000001,0.008453808838583092
11.108,0.008465781028959875
11.112,0.00847534916504413
11.116,0.00845859290662522
11.120000000000001,0.008457438960564808
11.124,0.008470396813201525
11.128,0.008469314988769888
11.132,0.008458520784996445
11.136000000000001,0.00845712643350678
11.14,0.008455635919845413
11.144,0.008459338163455904
11.148,0.008459987258114886
11.152000000000001,0.008454722379214253
11.156,0.008458520784996445
11.16,0.008462102825892309
11.164,0.008473834610839837
11.168000000000001,0.008477681097707879
11.172,0.00847311339455208
11.176,0.008473305718895482
11.18,0.00846493960995749
11.184000000000001,0.008450347000401854
11.188,0.008462487474579113
11.192,0.008459121798569577
11.196,0.008453592473696765
11.200000000000001,0.008464867488328713
11.204,0.008468016799451923
11.208,0.008456333095590246
11.212,0.008453111662838261
11.216000000000001,0.00846311252869517
11.22,0.008467031137191987
11.224,0.008465708907331098
11.228,0.008464290515298508
11.232000000000001,0.008466622447962258
11.236,0.008462415352950337
11.24,0.008464410718013134
11.244,0.008467295583164166
11.248000000000001,0.008460179582458288
11.252,0.008462054744806458
11.256,0.008471983489034591
11.26,0.008476887759791345
11.264,0.008475277043415353
11.268,0.008471142070032208
11.272,0.008466886893934437
11.276,0.008475829975902634
11.28,0.008466959015563212
11.284,0.008474026935183239
11.288,0.008480758287202314
11.292,0.008472632583693573
11.296,0.008457967852509164
11.3,0.00844895264891219
11.304,0.008455996527989292
11.308,0.00846169413666258
11.312,0.008466165677646678
11.316,0.008463785663897078
11.32,0.00846320869086687
11.324,0.008459290082370053
11.328,0.008466790731762736
11.332,0.008469867921257168
11.336,0.008470180448315196
11.34,0.008461838379920131
11.344,0.0084590496769408
11.348,0.008464194353126807
11.352,0.00846635800199008
11.356,0.008477152205763524
11.36,0.008480253435800882
11.364,0.00846270383946544
11.368,0.008460636352773868
11.372,0.008471863286319966
11.376,0.00847508471907195
11.38,0.008462102825892309
11.384,0.008462992325980544
11.388,0.00846316060978102
11.392,0.00846417031258388
11.396,0.008469940042885945
11.4,0.008470276610486898
11.404,0.008470324691572748
11.408,0.00846320869086687
11.412,0.008460636352773868
11.416,0.00845270297360853
11.42,0.008460347866258764
11.424,0.00846585315058865
11.428,0.008467656191308045
11.432,0.008470661259173702
11.436,0.008471454597090236
11.44,0.008473425921610107
11.444,0.008472680664779424
11.448,0.00846900246171186
11.452,0.00846265575837959
11.456,0.008479436057341423
11.46,0.008491865018033784
11.464,0.008468185083252401
11.468,0.00845585228473174
11.472,0.008459722812142708
11.476,0.008467535988593419
11.48,0.008472271975549695
11.484,0.008473089354009153
11.488,0.00847417117844079
11.492,0.008477392611192775
11.496,0.008478450395081487
11.5,0.008479171611369246
11.504,0.008481359300775445
11.508000000000001,0.008475565529930456
11.512,0.008467920637280222
11.516,0.008453688635868466
11.52,0.008463905866611703
11.524000000000001,0.008469603475284991
11.528,0.008470637218630776
11.532,0.008474916435271474
11.536,0.0084658050695028
11.540000000000001,0.008459698771599782
11.544,0.008452005797863697
11.548,0.00845493874410058
11.552,0.008464675163985311
11.556000000000001,0.00847147863763316
11.56,0.008468305285967027
11.564,0.008468112961623624
11.568,0.008465781028959875
11.572000000000001,0.008472872989122826
11.576,0.008489989855685614
11.58,0.00849696161313394
11.584,0.008461093123089448
11.588000000000001,0.008448616081311236
11.592,0.008456477338847797
11.596,0.0084613335285187
11.6,0.008468665894110905
11.604000000000001,0.008467463866964642
11.608,0.008460852717660195
11.612,0.008462415352950337
11.616,0.008463256771952721
11.620000000000001,0.008468834177911382
11.624,0.00847138247546146
11.628,0.008474507746041745
11.632,0.008464699204528237
11.636000000000001,0.008454914703557656
11.64,0.008466141637103753
11.644,0.008477080084134747
11.648,0.008474555827127596
11.652000000000001,0.008470637218630776
11.656,0.008463761623354151
11.66,0.008453231865552887
11.664,0.008462535555664964
11.668000000000001,0.008466934975020287
11.672,0.008469699637456692
11.676,0.00846945923202744
11.68,0.008478714841053666
11.684000000000001,0.008478907165397068
11.688,0.00845996321757196
11.692,0.00846174221774843
11.696,0.008461093123089448
11.700000000000001,0.008456958149706302
11.704,0.00845443389269915
11.708,0.008456092690160993
11.712,0.008465660826245247
11.716000000000001,0.008472223894463844
11.72,0.008477200286849375
11.724,0.00847828211128101
11.728,0.008465468501901845
11.732000000000001,0.008464314555841432
11.736,0.008476118462417737
11.74,0.008476743516533793
11.744,0.008463953947697554
11.748000000000001,0.008472103691749219
11.752,0.008476719475990869
11.756,0.008471550759261938
11.76,0.008471502678176087
11.764000000000001,0.00847001216451472
11.768,0.008455611879302487
11.772,0.00846224706914986
11.776,0.008474748151470998
11.78,0.008478330192366861
11.784,0.008475060678529026
11.788,0.008467175380449539
11.792,0.008468064880537774
11.796,0.008471646921433639
11.8,0.008469266907684037
11.804,0.008472007529577517
11.808,0.008489965815142688
11.812,0.008489821571885138
11.816,0.00846417031258388
11.82,0.008470709340259553
11.824,0.008477200286849375
11.828,0.00847051701591615
11.832,0.008482561327921708
11.836,0.00848143142240422
11.84,0.008468810137368457
11.844,0.008472969151294528
11.848,0.008473978854097388
11.852,0.008469266907684037
11.856,0.00847138247546146
11.86,0.008477801300422506
11.864,0.008472945110751603
11.868,0.008467487907507568
11.872,0.008471142070032208
11.876,0.00847087762406003
11.88,0.008472824908036976
11.884,0.008481792030548099
11.888,0.008469242867141112
11.892,0.008473257637809631
11.896,0.008481118895346192
11.9,0.008470132367229346
11.904,0.008460900798746045
11.908,0.008469483272570364
11.912,0.00846731962370709
11.916,0.008471021867317581
11.92,0.008487898328451116
11.924,0.008482176679234904
11.928,0.008471021867317581
11.932,0.00847169500251949
11.936,0.008467391745335867
11.94,0.008473882691925687
11.944,0.008468978421168933
11.948,0.008467055177734913
11.952,0.008471142070032208
11.956,0.008472223894463844
11.96,0.008465877191131574
11.964,0.008473401881067183
11.968,0.008487177112163359
11.972,0.008472079651206292
11.976,0.00846955539419914
11.98,0.00847965242222775
11.984,0.008473954813554464
11.988,0.008475517448844606
11.992,0.00847991686819993
11.996,0.008469026502254784
12.0,0.008462487474579113
12.004,0.008469387110398664
12.008000000000001,0.008467848515651447
12.012,0.00846823316433825
12.016,0.008459770893228559
12.02,0.008462968285437618
12.024000000000001,0.00846804083999485
12.028,0.008471502678176087
12.032,0.008475445327215829
12.036,0.008469747718542543
12.040000000000001,0.008472632583693573
12.044,0.008474507746041745
12.048,0.008479748584399451
12.052,0.008481215057517894
12.056000000000001,0.00847631078676114
12.06,0.008483402746924091
12.064,0.008491215923374802
12.068,0.00846900246171186
12.072000000000001,0.008474195218983717
12.076,0.00848960520699881
12.08,0.008476695435447943
12.084,0.008465420420815994
12.088000000000001,0.008471959448491667
12.092,0.008477344530106925
12.096,0.008478209989652236
12.1,0.008473498043238884
12.104000000000001,0.008466598407419333
12.108,0.008470156407772272
12.112,0.008474555827127596
12.116,0.008477681097707879
12.120000000000001,0.008477128165220598
12.124,0.008473594205410585
12.128,0.00846078059603142
12.132,0.008455539757673712
12.136000000000001,0.008474363502784193
12.14,0.008492706437036169
12.144,0.008481792030548099
12.148,0.008481527584575922
12.152000000000001,0.0084887397474535
12.156,0.00846782447510852
12.16,0.008471093988946358
12.164,0.008477873422051281
12.168000000000001,0.008483090219866063
12.172,0.008476238665132363
12.176,0.008470829542974179
12.18,0.00846635800199008
12.184000000000001,0.008471502678176087
12.188,0.008477152205763524
12.192,0.008469988123971796
12.196,0.008473522083781809
12.200000000000001,0.008484364368641103
12.204,0.00849239390997814
12.208,0.0084750366379861
12.212,0.008475469367758755
12.216000000000001,0.008477921503137132
12.22,0.008484244165926476
12.224,0.008470180448315196
12.228,0.008478330192366861
12.232000000000001,0.008486528017504377
12.236,0.008484652855156205
12.24,0.008477320489564
12.244,0.00847138247546146
12.248000000000001,0.008472392178264322
12.252,0.008476455030018691
12.256,0.008472127732292143
12.26,0.008460612312230942
12.264000000000001,0.008460900798746045
12.268,0.008469819840171318
12.272,0.008473834610839837
12.276,0.008484051841583073
12.280000000000001,0.008486167409360498
12.284,0.008467103258820764
12.288,0.008467511948050493
12.292,0.008472512380978948
12.296,0.008471526718719011
12.3,0.008488379139309622
12.304,0.008498788694396261
12.308,0.008481359300775445
12.312,0.008471238232203908
12.316,0.008476070381331887
12.32,0.008475445327215829
12.324,0.008473425921610107
12.328,0.00847407501626909
12.332,0.008480061111457481
12.336,0.008481719908919324
12.34,0.008480638084487686
12.344,0.008488763787996425
12.348,0.008478474435624413
12.352,0.008476070381331887
12.356,0.008481239098060818
12.36,0.008484893260585458
12.364,0.008483643152353344
12.368,0.008489965815142688
12.372,0.008470901664602955
12.376,0.008461405650147476
12.38,0.008470156407772272
12.384,0.008475565529930456
12.388,0.008474555827127596
12.392,0.00846681477230566
12.396,0.0084704689348303
12.4,0.008471670961976563
12.404,0.00846270383946544
12.408,0.008463425055753197
12.412,0.008471045907860507
12.416,0.008474267340612492
12.42,0.008472223894463844
12.424,0.008471959448491667
12.428,0.008475709773188008
12.432,0.008477200286849375
12.436,0.008476599273276243
12.44,0.008480157273629182
12.444,0.008478330192366861
12.448,0.008467656191308045
12.452,0.008468497610310429
12.456,0.008469819840171318
12.46,0.008469411150941589
12.464,0.008467295583164166
12.468,0.008471262272746834
12.472,0.00848462881461328
12.476,0.00849011005840024
12.48,0.008469411150941589
12.484,0.008470781461888328
12.488,0.008464218393669731
12.492,0.008464843447785789
12.496,0.008462054744806458
12.5,0.008465131934300893
12.504,0.008470637218630776
12.508000000000001,0.00847087762406003
12.512,0.0084726566242365
12.516,0.008474315421698343
12.52,0.008475156840700727
12.524000000000001,0.008474844313642697
12.528,0.008473954813554464
12.532,0.008471262272746834
12.536,0.00847097378623173
12.540000000000001,0.008474651989299297
12.544,0.008478883124854142
12.548,0.008476430989475765
12.552,0.00847092570514588
12.556000000000001,0.008479363935712648
12.56,0.008475277043415353
12.564,0.008474363502784193
12.568,0.008473594205410585
12.572000000000001,0.008477248367935224
12.576,0.008459722812142708
12.58,0.008453953081840644
12.584,0.008465973353303275
12.588000000000001,0.008468305285967027
12.592,0.008468930340083083
12.596,0.00846996408342887
12.6,0.008471142070032208
12.604000000000001,0.008472824908036976
12.608,0.008476142502960662
12.612,0.008473714408125211
12.616,0.008466718610133959
12.620000000000001,0.00845489066301473
12.624,0.00845347227098214
12.628,0.008467872556194371
12.632,0.008474363502784193
12.636000000000001,0.008468713975196756
12.64,0.008465252137015518
12.644,0.008472824908036976
12.648,0.008479363935712648
12.652000000000001,0.008483522949638719
12.656,0.00847183924577704
12.66,0.008468834177911382
12.664,0.00847311339455208
12.668000000000001,0.008486335693160974
12.672,0.008488859950168126
12.676,0.008466983056106138
12.68,0.008464338596384359
12.684000000000001,0.00846772831293682
12.688,0.008465540623530622
12.692,0.008474002894640315
12.696,0.00848092657100279
12.700000000000001,0.00847215177283507
12.704,0.008463689501725376
12.708,0.00846493960995749
12.712,0.008467656191308045
12.716000000000001,0.008471118029489282
12.72,0.008476190584046512
12.724,0.008469675596913766
12.728,0.00846772831293682
12.732000000000001,0.008464819407242863
12.736,0.008464819407242863
12.74,0.008474435624412968
12.744,0.008481239098060818
12.748000000000001,0.008482994057694362
12.752,0.008475108759614877
12.756,0.008452799135780231
12.76,0.008449433459770695
12.764000000000001,0.008460924839288972
12.768,0.008461934542091832
12.772,0.008466069515474977
12.776,0.008469699637456692
12.780000000000001,0.008476430989475765
12.784,0.008478209989652236
12.788,0.008480854449374013
12.792,0.008478786962682441
12.796000000000001,0.008482056476520276
12.8,0.008476839678705494
12.804,0.008480998692631565
12.808,0.008479772624942377
12.812,0.00847823403019516
12.816,0.008481407381861296
12.82,0.008481792030548099
12.824,0.008484652855156205
12.828,0.008491023599031401
12.832,0.008484003760497223
12.836,0.008477657057164955
12.84,0.008459073717483726
12.844,0.008466526285790556
12.848,0.008471142070032208
12.852,0.008479724543856527
12.856,0.008479075449197545
12.86,0.008477464732821552
12.864,0.00846859377248213
12.868,0.00845996321757196
12.872,0.008460636352773868
12.876,0.008470589137544927
12.88,0.008477753219336656
12.884,0.008480037070914555
12.888,0.008477993624765907
12.892,0.008479820706028228
12.896,0.008481816071091025
12.9,0.008485710639044916
12.904,0.008492466031606916
12.908,0.008485734679587843
12.912,0.00847508471907195
12.916,0.008476527151647466
12.92,0.008471093988946358
12.924,0.00846412223149803
12.928,0.008474411583870044
12.932,0.008470997826774657
12.936,0.008482681530636334
12.94,0.008490735112516298
12.944,0.008475829975902634
12.948,0.008475685732645082
12.952,0.00847914757082632
12.956,0.00847676755707672
12.96,0.0084750366379861
12.964,0.008478113827480534
12.968,0.008489533085370034
12.972,0.008480397679058433
12.976,0.008473738448668135
12.98,0.00847174308360534
12.984,0.008474387543327118
12.988,0.008465252137015518
12.992,0.008465756988416949
12.996,0.008468786096825533
13.0,0.008471863286319966
13.004,0.008475517448844606
13.008000000000001,0.008476983921963046
13.012,0.008477440692278626
13.016,0.008480734246659388
13.02,0.008479580300598975
13.024000000000001,0.008472680664779424
13.028,0.00848046980068721
13.032,0.008473281678352556
13.036,0.008467031137191987
13.040000000000001,0.008483691233439195
13.044,0.008485902963388319
13.048,0.008480493841230135
13.052,0.008478762922139517
13.056000000000001,0.008476839678705494
13.06,0.008484965382214235
13.064,0.008482008395434427
13.068,0.008468617813025055
13.072000000000001,0.008474724110928072
13.076,0.008480806368288164
13.08,0.008476527151647466
13.084,0.008467752353479746
13.088000000000001,0.008473041272923303
13.092,0.008461453731233326
13.096,0.008463905866611703
13.1,0.008472440259350171
13.104000000000001,0.008480325557429658
13.108,0.008483643152353344
13.112,0.008478498476167337
13.116,0.008475661692102157
13.120000000000001,0.008481960314348577
13.124,0.008482176679234904
13.128,0.008475469367758755
13.132,0.008474219259526641
13.136000000000001,0.008486119328274647
13.14,0.008482056476520276
13.144,0.008493379572238077
13.148,0.008484724976784982
13.152000000000001,0.008461934542091832
13.156,0.008472055610663368
13.16,0.008481359300775445
13.164,0.008485374071443964
13.168000000000001,0.008493427653323928
13.172,0.008489436923198333
13.176,0.00848549427415859
13.18,0.008468978421168933
13.184000000000001,0.008478041705851758
13.188,0.00849133612608943
13.192,0.008492610274864467
13.196,0.008480541922315985
13.200000000000001,0.00848700882836288
13.204,0.008469074583340635
13.208,0.00846128544743285
13.212,0.008474651989299297
13.216000000000001,0.008473714408125211
13.22,0.008477392611192775
13.224,0.00847554148938753
13.228,0.008474147137897866
13.232000000000001,0.008477248367935224
13.236,0.008474267340612492
13.24,0.008482008395434427
13.244,0.008493091085722973
13.248000000000001,0.008486095287731721
13.252,0.008489388842112483
13.256,0.008483330625295316
13.26,0.008466430123618855
13.264000000000001,0.008474820273099773
13.268,0.008473474002695958
13.272,0.008474339462241267
13.276,0.008472824908036976
13.280000000000001,0.008475878056988484
13.284,0.008475950178617261
13.288,0.008471334394375609
13.292,0.008477464732821552
13.296000000000001,0.008477080084134747
13.3,0.008472776826951125
13.304,0.008481118895346192
13.308,0.008481647787290547
13.312000000000001,0.008481287179146669
13.316,0.008482320922492455
13.32,0.008478714841053666
13.324,0.008486263571532197
13.328,0.00849792323485095
13.332,0.008494797964270667
13.336,0.008485422152529815
13.34,0.00847955626005605
13.344,0.008466261839818379
13.348,0.008470781461888328
13.352,0.008479748584399451
13.356,0.008476286746218213
13.36,0.008466790731762736
13.364,0.008480253435800882
13.368,0.008476887759791345
13.372,0.00847590209753141
13.376,0.008478570597796114
13.38,0.008482537287378782
13.384,0.00847320955672378
13.388,0.008461525852862103
13.392,0.008465636785702323
13.396,0.008473425921610107
13.4,0.008482176679234904
13.404,0.008482729611722185
13.408,0.008479027368111694
13.412,0.00847869080051074
13.416,0.008484244165926476
13.42,0.008475998259703112
13.424,0.008475733813730933
13.428,0.008487826206822341
13.432,0.008500014762085449
13.436,0.0085000628431713
13.44,0.00847087762406003
13.444,0.00847179116469119
13.448,0.008476238665132363
13.452,0.008475445327215829
13.456,0.008483691233439195
13.46,0.008495302815672097
13.464,0.008475829975902634
13.468,0.008468161042709475
13.472,0.008476959881420122
13.476,0.008489629247541736
13.48,0.00848554235524444
13.484,0.00847996494928578
13.488,0.008477849381508355
13.492,0.008479436057341423
13.496,0.008472007529577517
13.5,0.008467343664250017
13.504,0.008475156840700727
13.508000000000001,0.008484412449726954
13.512,0.008489581166455885
13.516,0.00848325850366654
13.52,0.00847558957047338
13.524000000000001,0.008484484571355729
13.528,0.008518141331451099
13.532,0.008504919032842203
13.536,0.008474267340612492
13.540000000000001,0.008473137435095004
13.544,0.008477320489564
13.548,0.008454049244012345
13.552,0.008475950178617261
13.556000000000001,0.00849229774780644
13.56,0.008485902963388319
13.564,0.00847919565191217
13.568,0.008480373638515509
13.572000000000001,0.008482056476520276
13.576,0.008482681530636334
13.58,0.008487080949991658
13.584,0.008480253435800882
13.588000000000001,0.008474267340612492
13.592,0.008480301516886732
13.596,0.008480301516886732
13.6,0.008476887759791345
13.604000000000001,0.00847991686819993
13.608,0.00848458073352743
13.612,0.008493595937124404
13.616,0.008502370735292124
13.620000000000001,0.008495831707616454
13.624,0.008477248367935224
13.628,0.008460347866258764
13.632,0.008449673865199948
13.636000000000001,0.008467608110222194
13.64,0.008482585368464633
13.644,0.008479580300598975
13.648,0.008482128598149053
13.652000000000001,0.008484003760497223
13.656,0.008484436490269878
13.66,0.008483811436153822
13.664,0.008486552058047301
13.668000000000001,0.008494389275040938
13.672,0.008493884423639507
13.676,0.008489004193425678
13.68,0.008490134098943166
13.684000000000001,0.008493379572238077
13.688,0.008494653721013115
13.692,0.008493956545268282
13.696,0.008493595937124404
13.700000000000001,0.008492466031606916
13.704,0.008488258936594995
13.708,0.008471118029489282
13.712,0.00847828211128101
13.716000000000001,0.00848559043633029
13.72,0.008488258936594995
13.724,0.008484099922668924
13.728,0.0084841720442977
13.732000000000001,0.008481695868376398
13.736,0.008490687031430447
13.74,0.008489460963741258
13.744,0.008475685732645082
13.748000000000001,0.008482128598149053
13.752,0.008491913099119635
13.756,0.008486792463476554
13.76,0.00848640781478975
13.764000000000001,0.008505976816730914
13.768,0.008501697600090218
13.772,0.008484340328098177
13.776,0.008481311219689595
13.780000000000001,0.008472536421521872
13.784,0.008475950178617261
13.788,0.008479628381684826
13.792,0.008485013463300085
13.796000000000001,0.00848458073352743
13.8,0.008493403612781001
13.804,0.008485854882302468
13.808,0.008490687031430447
13.812000000000001,0.008492634315407394
13.816,0.008489989855685614
13.82,0.008492874720836645
13.824,0.008496745248247613
13.828,0.008497634748335849
13.832,0.008499125261997214
13.836,0.008497682829421697
13.84,0.008484917301128384
13.844,0.008487585801393088
13.848,0.008510183911742835
13.852,0.008496072113045705
13.856,0.00846032382571584
13.86,0.008473690367582285
13.864,0.008491312085546503
13.868,0.008488066612251592
13.872,0.008478041705851758
13.876,0.008484364368641103
13.88,0.008488042571708668
13.884,0.008492874720836645
13.888,0.00849914930254014
13.892,0.00849696161313394
13.896,0.00849599999141693
13.9,0.008488475301481323
13.904,0.008491792896405009
13.908,0.008493908464182432
13.912,0.008491913099119635
13.916,0.008493211288437599
13.92,0.008494148869611685
13.924,0.00849229774780644
13.928,0.008506072978902615
13.932,0.008504125694925669
13.936,0.008509943506313582
13.94,0.008503188113751583
13.944,0.008482104557606127
13.948,0.008468161042709475
13.952,0.008467391745335867
13.956,0.008479171611369246
13.96,0.008487657923021863
13.964,0.00849066299088752
13.968,0.008492658355950318
13.972,0.008496288477932034
13.976,0.008492514112692766
13.98,0.00849011005840024
13.984,0.008484244165926476
13.988,0.008484652855156205
13.992,0.00849006197731439
13.996,0.008491744815319158
14.0,0.008494052707439984
14.004,0.008509174208939974
14.008000000000001,0.008517756682764294
14.012,0.008497346261820745
14.016,0.008488667625824724
14.02,0.008494701802098966
14.024000000000001,0.008502563059635527
14.028,0.008500207086428851
14.032,0.00849970223502742
14.036,0.008495423018386723
14.040000000000001,0.008490446626001194
14.044,0.008486383774246825
14.048,0.008487970450079893
14.052,0.008491528450432832
14.056000000000001,0.008484724976784982
14.06,0.008475204921786578
14.064,0.008487537720307237
14.068,0.008492490072149842
14.072000000000001,0.008485374071443964
14.076,0.008494605639927265
14.08,0.008501312951403413
14.084,0.008496721207704687
14.088000000000001,0.00849874061331041
14.092,0.008469795799628393
14.096,0.008476887759791345
14.1,0.00848640781478975
14.104000000000001,0.00848595104447417
14.108,0.00848823489605207
14.112,0.008495663423815976
14.116,0.008494413315583862
14.120000000000001,0.008491696734233308
14.124,0.008492417950521065
14.128,0.00849371613983903
14.132,0.008492514112692766
14.136000000000001,0.008493740180381956
14.14,0.008494822004813591
14.144,0.00849640868064666
14.148,0.008494870085899442
14.152000000000001,0.008498139599737279
14.156,0.008498764653853335
14.16,0.008496336559017884
14.164,0.008491768855862083
14.168000000000001,0.008488499342024248
14.172,0.008483883557782597
14.176,0.008487609841936012
14.18,0.008482272841406605
14.184000000000001,0.008475998259703112
14.188,0.00848650397696145
14.192,0.008484316287555253
14.196,0.008490302382743642
14.200000000000001,0.008493860383096581
14.204,0.008493547856038553
14.208,0.008495182612957472
14.212,0.008493475734409776
14.216000000000001,0.008493187247894675
14.22,0.00849640868064666
14.224,0.00849006197731439
14.228,0.008492946842465422
14.232000000000001,0.008492994923551272
14.236,0.008487032868905807
14.24,0.008491456328804055
14.244,0.00849864445113871
14.248000000000001,0.008496745248247613
14.252,0.008490494707087045
14.256,0.008488066612251592
14.26,0.008492514112692766
14.264000000000001,0.008487994490622817
14.268,0.00849462968047019
14.272,0.00849782707267925
14.276,0.00848676842293363
14.280000000000001,0.008485446193072739
14.284,0.008480325557429658
14.288,0.008490230261114867
14.292,0.00849499028861407
14.296000000000001,0.00850280346506478
14.3,0.008501168708145861
14.304,0.008476839678705494
14.308,0.008484412449726954
14.312000000000001,0.008485518314701516
14.316,0.00848554235524444
14.32,0.008492562193778617
14.324,0.008492273707263513
14.328000000000001,0.008490542788172895
14.332,0.008499317586340616
14.336,0.008497995356479727
14.34,0.00849554322110135
14.344,0.008494100788525834
14.348,0.008494100788525834
14.352,0.008489821571885138
14.356,0.008509823303598956
14.36,0.0085137659526387
14.364,0.00848970136917051
14.368,0.008482513246835858
14.372,0.00848727327433506
14.376,0.008489100355597379
14.38,0.008492682396493244
14.384,0.008496096153588631
14.388,0.008499942640456674
14.392,0.008505015195013904
14.396,0.008496697167161763
14.4,0.008490470666544118
14.404,0.008500159005343
14.408,0.008493235328980525
14.412,0.008489917734056837
14.416,0.00848311426040899
14.42,0.00848412396321185
14.424,0.008494701802098966
14.428,0.008492562193778617
14.432,0.008502514978549676
14.436,0.008498908897110887
14.44,0.008495230694043322
14.444,0.008497033734762717
14.448,0.00849061490980167
14.452,0.008504991154470978
14.456,0.008507539452021056
14.46,0.008492946842465422
14.464,0.008482128598149053
14.468,0.00849188905857671
14.472,0.00849965415394157
14.476,0.008502875586693555
14.48,0.008502082248777021
14.484,0.00849746646453537
14.488,0.008494749883184816
14.492,0.008490783193602148
14.496,0.008494148869611685
14.5,0.008495134531871621
14.504,0.008495182612957472
14.508000000000001,0.008492057342377186
14.512,0.008495326856215022
14.516,0.008491792896405009
14.52,0.008497995356479727
14.524000000000001,0.008497562626707072
14.528,0.008489485004284184
14.532,0.008491360166632354
14.536,0.008489869652970987
14.540000000000001,0.008488619544738875
14.544,0.008495975950874004
14.548,0.00849426907232631
14.552,0.00849143228826113
14.556000000000001,0.00849371613983903
14.56,0.008506770154647448
14.564,0.008508981884596572
14.568,0.008488571463653024
14.572000000000001,0.008502250532577499
14.576,0.00850381316786764
14.58,0.008497033734762717
14.584,0.008495423018386723
14.588000000000001,0.00850107254597416
14.592,0.008501264870317563
14.596,0.008496528883361285
14.6,0.008500231126971776
14.604000000000001,0.008496937572591016
14.608,0.008498668491681634
14.612,0.008497442423992446
14.616,0.008503741046238864
14.620000000000001,0.008506217222160167
14.624,0.008514751614898635
14.628,0.008514054439153802
14.632,0.008508597235909767
14.636000000000001,0.008497490505078297
14.64,0.008495182612957472
14.644,0.008494822004813591
14.648,0.00850112062706001
14.652000000000001,0.008513982317525027
14.656,0.008513838074267475
14.66,0.008481527584575922
14.664,0.008487898328451116
14.668000000000001,0.008494461396669713
14.672,0.00849696161313394
14.676,0.008498115559194353
14.68,0.008496192315760332
14.684000000000001,0.008495134531871621
14.688,0.008493403612781001
14.692,0.008505279640986081
14.696,0.008513789993181625
14.700000000000001,0.008510592600972564
14.704,0.008505375803157782
14.708,0.008506529749218195
14.712,0.00848321042258069
14.716000000000001,0.008491408247718204
14.72,0.008503548721895463
14.724,0.008500399410772254
14.728,0.00849325936952345
14.732000000000001,0.008501409113575114
14.736,0.008507010560076701
14.74,0.008503212154294509
14.744,0.00850275538397893
14.748000000000001,0.008512780290378764
14.752,0.00851326110123727
14.756,0.008495230694043322
14.76,0.008494196950697535
14.764000000000001,0.008497346261820745
14.768,0.008501288910860487
14.772,0.008498476167338231
14.776,0.008502202451491648
14.780000000000001,0.00850650570867527
14.784,0.008503981451668117
14.788,0.008506121059988466
14.792,0.008507755816907384
14.796000000000001,0.008504486303069547
14.8,0.008496384640103735
14.804,0.008496793329333464
14.808,0.008499461829598168
14.812000000000001,0.00850371700569594
14.816,0.008505616208587035
14.82,0.008502514978549676
14.824,0.008505111357185605
14.828000000000001,0.008508765519710245
14.832,0.008513285141780194
14.836,0.008507226924963028
14.84,0.00850381316786764
14.844000000000001,0.008505327722071932
14.848,0.008512010993005156
14.852,0.008514054439153802
14.856,0.00851107341183107
14.86,0.0085115782632325
14.864,0.008504101654382744
14.868,0.008514487168926457
14.872,0.008511217655088622
14.876,0.008516915263761908
14.88,0.00852523329161405
14.884,0.008506722073561597
14.888,0.00849503836969992
14.892,0.008485325990358113
14.896,0.008493547856038553
14.9,0.008501649519004367
14.904,0.008507491370935205
14.908,0.008501361032489264
14.912,0.00851244372277781
14.916,0.00851655465561803
14.92,0.008513597668838222
14.924,0.008501288910860487
14.928,0.008495903829245229
14.932,0.008498548288967008
14.936,0.008503091951579882
14.94,0.008516242128560001
14.944,0.008509366533283377
14.948,0.008491624612604533
14.952,0.008498716572767484
14.956,0.008502827505607704
14.96,0.008504462262526623
14.964,0.008498860816025036
14.968,0.00850878956025317
14.972,0.008514318885125981
14.976,0.008511770587575903
14.98,0.00850650570867527
14.984,0.008521747412889889
14.988,0.008507755816907384
14.992,0.00849462968047019
14.996,0.008500832140544907
15.0,0.00850417377601152
15.004,0.008511409979432024
15.008000000000001,0.008516746979961432
15.012,0.00850984734414188
15.016,0.008504654586870025
15.02,0.00850523155990023
15.024000000000001,0.008490855315230923
15.028,0.008493475734409776
15.032,0.008504630546327099
15.036,0.00850564024912996
15.040000000000001,0.008515424750100543
15.044,0.008504654586870025
15.048,0.008487970450079893
15.052,0.008511458060517875
15.056000000000001,0.008510183911742835
15.06,0.008504149735468595
15.064,0.0085205213452007
15.068,0.008509005925139498
15.072000000000001,0.00851061664151549
15.076,0.008517900926021846
15.08,0.008514078479696728
15.084,0.008508573195366843
15.088000000000001,0.008498788694396261
15.092,0.008499966680999598
15.096,0.008497105856391492
15.1,0.008502923667779405
15.104000000000001,0.008517179709734087
15.108,0.008509078046768273
15.112,0.008496120194131556
15.116,0.008502202451491648
15.120000000000001,0.008501312951403413
15.124,0.008493235328980525
15.128,0.008506481668132344
15.132,0.008503284275923284
15.136000000000001,0.008483138300951914
15.14,0.008499293545797692
15.144,0.008522588831892271
15.148,0.008519920331627568
15.152000000000001,0.008520208818142671
15.156,0.008511361898346174
15.16,0.00850741924930643
15.164,0.008505880654559213
15.168000000000001,0.008500808100001983
15.172,0.008501721640633142
15.176,0.008507323087134729
15.18,0.008505039235556828
15.184000000000001,0.00850600085727384
15.188,0.008511385938889098
15.192,0.008520088615428044
15.196,0.008516386371817553
15.200000000000001,0.008510039668485283
15.204,0.00850467862741295
15.208,0.00850614510053139
15.212,0.0084954951400155
15.216000000000001,0.008502322654206274
15.22,0.008513188979608493
15.224,0.008510808965858893
15.228,0.008521242561488456
15.232000000000001,0.008524560156412144
15.236,0.008507635614192757
15.24,0.008509727141427255
15.244,0.008506072978902615
15.248000000000001,0.00849234582889229
15.252,0.008499317586340616
15.256,0.008513213020151419
15.26,0.008510256033371612
15.264000000000001,0.00850604893835969
15.268,0.008504558424698324
15.272,0.00850838087102344
15.276,0.008511289776717397
15.280000000000001,0.008513285141780194
15.284,0.008522228223748393
15.288,0.008515280506842991
15.292,0.00849960607285572
15.296000000000001,0.008507178843877177
15.3,0.008514439087840607
15.304,0.008515352628471766
15.308,0.008510183911742835
15.312000000000001,0.00851249180386366
15.316,0.008506072978902615
15.32,0.008511866749747604
15.324,0.008513789993181625
15.328000000000001,0.00850335639755206
15.332,0.008509919465770658
15.336,0.008509005925139498
15.34,0.008512227357891483
15.344000000000001,0.00852179549397574
15.348,0.008517396074620414
15.352,0.00851874234502423
15.356,0.008515857479873197
15.36,0.008502178410948722
15.364,0.008508356830480516
15.368,0.008508068343965412
15.372,0.008511049371288144
15.376,0.008510135830656984
15.38,0.008494076747982908
15.384,0.008487633882478939
15.388,0.00851559303390102
15.392,0.008517684561135518
15.396,0.008505351762614858
15.4,0.008509462695455078
15.404,0.008506794195190372
15.408,0.008514967979784963
15.412,0.008515424750100543
15.416,0.008511962911919305
15.42,0.00851523242575714
15.424,0.00851523242575714
15.428,0.008512876452550465
15.432,0.00851381403372455
15.436,0.008519800128912942
15.44,0.008533935968152996
15.444,0.008509029965682422
15.448,0.00849042258545827
15.452,0.008499509910684018
15.456,0.00850696247899085
15.46,0.008511866749747604
15.464,0.008519223155882735
15.468,0.008524992886184798
15.472,0.008503548721895463
15.476,0.00849746646453537
15.48,0.00850975118197018
15.484,0.00851249180386366
15.488,0.008515617074443945
15.492,0.008503524681352537
15.496,0.008497586667249998
15.5,0.008504318019269071
15.504,0.008506818235733299
15.508000000000001,0.008509703100884329
15.512,0.008516987385390685
15.516,0.008531820400375574
15.52,0.008528094116222157
15.524000000000001,0.008507178843877177
15.528,0.00850604893835969
15.532,0.008506481668132344
15.536,0.008514631412184009
15.540000000000001,0.008509630979255554
15.544,0.008511626344318351
15.548,0.008513309182323119
15.552,0.00851052047934379
15.556000000000001,0.008514895858156186
15.56,0.008519703966741241
15.564,0.008507539452021056
15.568,0.008505976816730914
15.572000000000001,0.008513645749924073
15.576,0.008515208385214214
15.58,0.00850960693871263
15.584,0.008510135830656984
15.588000000000001,0.008512828371464614
15.592,0.008520881953344578
15.596,0.008525281372699901
15.6,0.008510256033371612
15.604000000000001,0.008511626344318351
15.608,0.008497081815848566
15.612,0.00849838000516653
15.616,0.008507539452021056
15.620000000000001,0.008516674858332657
15.624,0.008515761317701495
15.628,0.008514775655441561
15.632,0.00851619404747415
15.636000000000001,0.008498860816025036
15.64,0.008508236627765889
15.644,0.008529632710969374
15.648,0.00851030411445746
15.652000000000001,0.008505616208587035
15.656,0.008515280506842991
15.66,0.00852275711569275
15.664,0.008518141331451099
15.668000000000001,0.008508765519710245
15.672,0.008517492236792115
15.676,0.008518237493622799
15.68,0.008515352628471766
15.684000000000001,0.008523526413066357
15.688,0.008527396940477324
15.692,0.008526050670073509
15.696,0.008525329453785752
15.700000000000001,0.00852148296691771
15.704,0.008511337857803248
15.708,0.00851742011516334
15.712,0.008524488034783367
15.716000000000001,0.008514102520239653
15.72,0.008493644018210254
15.724,0.008504606505784175
15.728,0.008522468629177646
15.732000000000001,0.008523141764379552
15.736,0.008514655452726934
15.74,0.008518165371994024
15.744,0.008508164506137113
15.748000000000001,0.00851705950701946
15.752,0.008519679926198315
15.756,0.00851746819624919
15.76,0.00851061664151549
15.764000000000001,0.008513429385037746
15.768,0.008518069209822322
15.772,0.008521675291261112
15.776,0.008525834305187182
15.780000000000001,0.00852249266972057
15.784,0.008515472831186394
15.788,0.008512275438977333
15.792,0.008515496871729318
15.796000000000001,0.00852102619660213
15.8,0.008523887021210236
15.804,0.00851742011516334
15.808,0.008496120194131556
15.812000000000001,0.00851102533074522
15.816,0.008511722506490052
15.82,0.008504654586870025
15.824,0.008509895425227731
15.828000000000001,0.008503981451668117
15.832,0.008508669357538544
15.836,0.008514054439153802
15.84,0.008513789993181625
15.844000000000001,0.008519800128912942
15.848,0.008501096586517086
15.852,0.008503885289496416
15.856,0.008498836775482112
15.860000000000001,0.008503452559723762
15.864,0.008512708168749987
15.868,0.008515665155529796
15.872,0.008515208385214214
15.876,0.008516242128560001
15.88,0.008514751614898635
15.884,0.00851742011516334
15.888,0.008513621709381148
15.892,0.008500639816201506
15.896,0.008504606505784175
15.9,0.008505928735645063
15.904,0.008516578696160956
15.908,0.00851838173688035
15.912,0.008513501506666521
15.916,0.008510784925315967
15.92,0.008509366533283377
15.924,0.008513020695808017
15.928,0.008513789993181625
15.932,0.008518910628824707
15.936,0.008509991587399433
15.94,0.008509414614369227
15.944,0.008510207952285761
15.948,0.008517756682764294
15.952,0.008524439953697517
15.956,0.008510039668485283
15.96,0.008512323520063184
15.964,0.008513020695808017
15.968,0.00850838087102344
15.972,0.008507130762791327
15.976,0.008493788261467806
15.98,0.008498716572767484
15.984,0.008514078479696728
15.988,0.008512251398434407
15.992,0.00851011179011406
15.996,0.008509895425227731
16.0,0.008513381303951895
16.004,0.00851864618285253
16.008,0.008512419682234885
16.012,0.008507563492563982
16.016000000000002,0.008517227790819938
16.02,0.008529416346083047
16.024,0.00851523242575714
16.028,0.008511650384861276
16.032,0.008509510776540928
16.036,0.008511385938889098
16.04,0.00851960780456954
16.044,0.008521867615604514
16.048000000000002,0.0085320367652619
16.052,0.008524488034783367
16.056,0.008500351329686403
16.06,0.008498404045709456
16.064,0.008500014762085449
16.068,0.008507106722248402
16.072,0.008514943939242037
16.076,0.008514703533812784
16.080000000000002,0.008512059074091007
16.084,0.008513068776893867
16.088,0.008511434019974949
16.092,0.008514943939242037
16.096,0.008515617074443945
16.1,0.008506673992475747
16.104,0.008501000424345385
16.108,0.008506313384331868
16.112000000000002,0.008511650384861276
16.116,0.008518141331451099
16.12,0.008524608237497995
16.124,0.008516963344847759
16.128,0.008508741479167319
16.132,0.008516025763673675
16.136,0.008520593466829476
16.14,0.008504486303069547
16.144000000000002,0.008507250965505954
16.148,0.008509126127854124
16.152,0.008515737277158571
16.156,0.00851513626358544
16.16,0.008510424317172088
16.164,0.008514919898699113
16.168,0.008513549587752372
16.172,0.008514583331098158
16.176000000000002,0.008519391439683213
16.18,0.008526435318760314
16.184,0.008514992020327888
16.188,0.008509414614369227
16.192,0.008521146399316757
16.196,0.008519703966741241
16.2,0.008506938438447924
16.204,0.008514030398610878
16.208000000000002,0.0085342244546681
16.212,0.008507611573649832
16.216,0.008485446193072739
16.22,0.008496817369876388
16.224,0.008499341626883542
16.228,0.00851253988494951
16.232,0.008512203317348557
16.236,0.008504630546327099
16.240000000000002,0.008508404911566366
16.244,0.008516458493446328
16.248,0.008518501939594978
16.252,0.008516626777246806
16.256,0.0085114821010608
16.26,0.008510736844230116
16.264,0.008512972614722166
16.268,0.008509679060341405
16.272000000000002,0.00851345342558067
16.276,0.008520040534342193
16.28,0.008520641547915325
16.284,0.00852102619660213
16.288,0.008518670223395454
16.292,0.008518501939594978
16.296,0.008518021128736472
16.3,0.008484388409184028
16.304000000000002,0.008501769721718993
16.308,0.008514366966211832
16.312,0.008512299479520258
16.316,0.008513068776893867
16.32,0.008509270371111675
16.324,0.008502971748865256
16.328,0.00849193713966256
16.332,0.008504414181440772
16.336000000000002,0.008516073844759525
16.34,0.008512419682234885
16.344,0.008514775655441561
16.348,0.008514703533812784
16.352,0.008521819534518664
16.356,0.008538215184793693
16.36,0.008523382169808805
16.364,0.008517636480049667
16.368000000000002,0.00851381403372455
16.372,0.008505423884243633
16.376,0.008507034600619625
16.38,0.008504919032842203
16.384,0.008508525114280992
16.388,0.008514415047297682
16.392,0.008513237060694344
16.396,0.008515833439330272
16.4,0.008516314250188776
16.404,0.00851751627733504
16.408,0.008517780723307219
16.412,0.00851742011516334
16.416,0.00851874234502423
16.42,0.008522877318407375
16.424,0.00851619404747415
16.428,0.00851427080404013
16.432,0.008518357696337426
16.436,0.008533839805981295
16.44,0.00852929614336842
16.444,0.00851828557470865
16.448,0.008515857479873197
16.452,0.008519487601854912
16.456,0.008515665155529796
16.46,0.00850924633056875
16.464,0.008505327722071932
16.468,0.008514775655441561
16.472,0.008513213020151419
16.476,0.008518117290908173
16.48,0.008519175074796884
16.484,0.008515833439330272
16.488,0.008514583331098158
16.492,0.00850056769457273
16.496,0.00849842808625238
16.5,0.008518598101766679
16.504,0.008520040534342193
16.508,0.008523286007637104
16.512,0.008522324385920094
16.516000000000002,0.008517347993534563
16.52,0.008515088182499589
16.524,0.00852463227804092
16.528,0.00852833452165141
16.532,0.008530738575943936
16.536,0.008526315116045688
16.54,0.008529728873141075
16.544,0.008531387670602918
16.548000000000002,0.008524824602384322
16.552,0.008519415480226137
16.556,0.008523165804922479
16.56,0.008532806062635508
16.564,0.00851609788530245
16.568,0.008504967113928053
16.572,0.008502010127148246
16.576,0.008500303248600552
16.580000000000002,0.008502274573120423
16.584,0.008498115559194353
16.588,0.008505544086958259
16.592,0.008508621276452693
16.596,0.008515881520416123
16.6,0.008526771886361268
16.604,0.008513838074267475
16.608,0.008512876452550465
16.612000000000002,0.008512563925492437
16.616,0.008508477033195141
16.62,0.00851467949326986
16.624,0.008513573628295298
16.628,0.008504077613839818
16.632,0.008515713236615645
16.636,0.00851883850719593
16.64,0.008503284275923284
16.644000000000002,0.008517636480049667
16.648,0.008521242561488456
16.652,0.008508597235909767
16.656,0.008498836775482112
16.66,0.008496360599560809
16.664,0.008508356830480516
16.668,0.008516795061047282
16.672,0.008522108021033767
16.676000000000002,0.008515905560959047
16.68,0.00850934249274045
16.684,0.008503019829951107
16.688,0.008501649519004367
16.692,0.008498716572767484
