time,channel2
0.0,-0.011296338593523336
0.004,-0.01129631455298041
0.008,-0.011295184647462923
0.012,-0.011297708904470075
0.016,-0.011295977985379457
0.02,-0.011297612742298374
0.024,-0.01129946386410362
0.028,-0.011301627512966893
0.032,-0.011302420850883427
0.036000000000000004,-0.011300449526363556
0.04,-0.011301146702108389
0.044,-0.011300665891249883
0.048,-0.01130270933739853
0.052000000000000005,-0.011302541053598054
0.056,-0.011300401445277705
0.06,-0.011299439823560695
0.064,-0.011299704269532872
0.068,-0.01130124286428009
0.07200000000000001,-0.011303743080744317
0.076,-0.01130508935114813
0.08,-0.011303286310428736
0.084,-0.011304824905175953
0.088,-0.01130544995929201
0.092,-0.011304271972688672
0.096,-0.011302108323825399
0.1,-0.011304680661918401
0.10400000000000001,-0.011307829973041611
0.108,-0.011309224324531277
0.112,-0.01130992150027611
0.116,-0.011311171608508223
0.12,-0.01130996958136196
0.124,-0.011307493405440657
0.128,-0.011307012594582153
0.132,-0.011307998256842089
0.136,-0.011308959878559099
0.14,-0.011311051405793596
0.14400000000000002,-0.011313046770856393
0.148,-0.011312061108596458
0.152,-0.011309248365074201
0.156,-0.011308166540642565
0.16,-0.01131194090588183
0.164,-0.011311484135566251
0.168,-0.011309128162359575
0.17200000000000001,-0.011309176243445426
0.176,-0.01131321505465687
0.18,-0.01131357566280075
0.184,-0.011313479500629048
0.188,-0.01131194090588183
0.192,-0.011311820703167205
0.196,-0.01131184474371013
0.2,-0.011310955243621896
0.20400000000000001,-0.011312181311311084
0.20800000000000002,-0.011313816068230002
0.212,-0.011313527581714899
0.216,-0.011311964946424757
0.22,-0.011313647784429524
0.224,-0.011313551622257823
0.228,-0.011315426784605995
0.232,-0.011316099919807901
0.23600000000000002,-0.011316172041436678
0.24,-0.011316556690123481
0.244,-0.011321629244680713
0.248,-0.011319345393102812
0.252,-0.011312061108596458
0.256,-0.01131093120307897
0.26,-0.01131403243311633
0.264,-0.011316652852295182
0.268,-0.011316700933381033
0.272,-0.011317590433469268
0.276,-0.011318431852471653
0.28,-0.011316676892838108
0.28400000000000003,-0.01131910498767356
0.28800000000000003,-0.011320619541877852
0.292,-0.011319297312016962
0.296,-0.011316244163065453
0.3,-0.011314729608861162
0.304,-0.011314561325060686
0.308,-0.011319297312016962
0.312,-0.011322230258253844
0.316,-0.011320667622963701
0.32,-0.011319826203961318
0.324,-0.011319465595817438
0.328,-0.011319754082332541
0.332,-0.011318215487585326
0.336,-0.011319177109302336
0.34,-0.011319754082332541
0.34400000000000003,-0.011318624176815055
0.34800000000000003,-0.011317061541524912
0.352,-0.011317758717269744
0.356,-0.011321749447395339
0.36,-0.011322061974453367
0.364,-0.011325018961233174
0.368,-0.01132737493443985
0.372,-0.011329442421131423
0.376,-0.011325115123404875
0.38,-0.011322903393455751
0.384,-0.011323047636713303
0.388,-0.01132372077191521
0.392,-0.011325018961233174
0.396,-0.011322037933910442
0.4,-0.011327495137154477
0.404,-0.01132453815037467
0.40800000000000003,-0.011322951474541602
0.41200000000000003,-0.011325860380235558
0.41600000000000004,-0.011328576961586113
0.42,-0.011328024029098832
0.424,-0.011327350893896925
0.428,-0.011326485434351616
0.432,-0.011326846042495495
0.436,-0.011327350893896925
0.44,-0.011326389272179915
0.444,-0.011329129894073394
0.448,-0.011331101218593266
0.452,-0.011328673123757814
0.456,-0.011329490502217274
0.46,-0.011329394340045573
0.464,-0.011326846042495495
0.468,-0.01132605270457896
0.47200000000000003,-0.0113250430017761
0.47600000000000003,-0.011326822001952569
0.48,-0.011326725839780867
0.484,-0.01132412946114494
0.488,-0.011328625042671963
0.492,-0.011334322651345251
0.496,-0.011335741043377841
0.5,-0.01133518811089056
0.504,-0.011332134961939052
0.508,-0.011332687894426333
0.512,-0.011335164070347636
0.516,-0.011336125692064646
0.52,-0.011335620840663216
0.524,-0.011332832137683884
0.528,-0.011333505272885793
0.532,-0.011334539016231578
0.536,-0.01133376971885797
0.54,-0.011335212151433486
0.544,-0.011334154367544775
0.548,-0.011334947705461309
0.552,-0.011336534381294375
0.556,-0.011336534381294375
0.56,-0.011335260232519337
0.5640000000000001,-0.011332038799767352
0.5680000000000001,-0.011332928299855586
0.5720000000000001,-0.011335596800120291
0.5760000000000001,-0.01133595740826417
0.58,-0.011338601867985949
0.584,-0.01133696711106703
0.588,-0.011336197813693423
0.592,-0.011336101651521721
0.596,-0.011338217219299144
0.6,-0.01133788065169819
0.604,-0.011337736408440638
0.608,-0.011337544084097236
0.612,-0.011339058638301529
0.616,-0.011338217219299144
0.62,-0.011340741476306296
0.624,-0.011340861679020924
0.628,-0.011340308746533643
0.632,-0.011343193611684673
0.636,-0.011344395638830936
0.64,-0.011342256030510589
0.644,-0.01134153481422283
0.648,-0.011342881084626645
0.652,-0.011343938868515356
0.656,-0.011343121490055898
0.66,-0.011342135827795962
0.664,-0.011341895422366709
0.668,-0.01134417927394461
0.672,-0.011343866746886581
0.676,-0.011342231989967663
0.68,-0.011340813597935073
0.684,-0.011341703098023306
0.6880000000000001,-0.011343097449512972
0.6920000000000001,-0.011342784922454944
0.6960000000000001,-0.011343073408970047
0.7000000000000001,-0.011340549151962894
0.704,-0.011340861679020924
0.708,-0.011339226922102005
0.712,-0.011340428949248268
0.716,-0.011347184341810267
0.72,-0.011348001720269726
0.724,-0.011347857477012174
0.728,-0.011346342922807883
0.732,-0.011346751612037612
0.736,-0.011349684558274495
0.74,-0.011350670220534431
0.744,-0.011348458490585306
0.748,-0.011348362328413604
0.752,-0.011348121922984353
0.756,-0.011347857477012174
0.76,-0.011353194477541583
0.764,-0.011349997085332523
0.768,-0.011348698896014559
0.772,-0.011347520909411222
0.776,-0.011347256463439042
0.78,-0.011346270801179108
0.784,-0.011346174639007407
0.788,-0.011348506571671156
0.792,-0.011352569423425525
0.796,-0.011352088612567021
0.8,-0.01134929990958769
0.804,-0.011349588396102794
0.808,-0.011347737274297548
0.812,-0.01134783343646925
0.8160000000000001,-0.011348314247327754
0.8200000000000001,-0.01135057405836273
0.8240000000000001,-0.011352184774738722
0.8280000000000001,-0.011354564788488323
0.8320000000000001,-0.011353603166771312
0.836,-0.011354132058715669
0.84,-0.011355165802061454
0.844,-0.01135052597727688
0.848,-0.011351343355736338
0.852,-0.011355165802061454
0.856,-0.011356872680609148
0.86,-0.011357906423954935
0.864,-0.011355814896720436
0.868,-0.011355887018349213
0.872,-0.011355574491291183
0.876,-0.011355526410205333
0.88,-0.011354540747945398
0.884,-0.011353266599170358
0.888,-0.011352425180167975
0.892,-0.011355261964233155
0.896,-0.011356127423778464
0.9,-0.011357690059068608
0.904,-0.01136021431607576
0.908,-0.011359156532187048
0.912,-0.01135838723481344
0.916,-0.011358242991555889
0.92,-0.011356415910293568
0.924,-0.011358675721328542
0.928,-0.011360598964762565
0.932,-0.011362233721681481
0.936,-0.011364181005658428
0.9400000000000001,-0.011362305843310258
0.9440000000000001,-0.011359420978159226
0.9480000000000001,-0.011358819964586094
0.9520000000000001,-0.011359973910646507
0.9560000000000001,-0.011361464424307873
0.96,-0.011360310478247461
0.964,-0.011359733505217254
0.968,-0.011362257762224407
0.972,-0.011361464424307873
0.976,-0.011358651680785618
0.98,-0.011356127423778464
0.984,-0.011362065437881005
0.988,-0.011361055735078144
0.992,-0.01136249816765366
0.996,-0.01136163270810835
1.0,-0.011361464424307873
1.004,-0.011362618370368286
1.008,-0.011362978978512165
1.012,-0.011365863843663197
1.016,-0.01136706587080946
1.02,-0.011365479194976392
1.024,-0.011363027059598015
1.028,-0.011364036762400876
1.032,-0.011364036762400876
1.036,-0.0113660561680066
1.04,-0.011367258195152862
1.044,-0.011367594762753815
1.048,-0.011366464857236329
1.052,-0.011365262830090065
1.056,-0.011365310911175916
1.06,-0.011365863843663197
1.064,-0.011367426478953339
1.068,-0.011369229519672733
1.072,-0.011369181438586883
1.076,-0.011368340019584498
1.08,-0.011373268330884178
1.084,-0.011369878614331716
1.088,-0.011374710763459694
1.092,-0.01137848512869896
1.096,-0.011378388966527259
1.1,-0.01137752350698195
1.104,-0.01137624935820691
1.108,-0.011378268763812633
1.112,-0.01137889381792869
1.116,-0.011378364925984333
1.12,-0.01137939866933012
1.124,-0.0113774754258961
1.1280000000000001,-0.011375648344633778
1.1320000000000001,-0.011378605331413586
1.1360000000000001,-0.011381562318193393
1.1400000000000001,-0.011378965939557464
1.1440000000000001,-0.011377956236754604
1.1480000000000001,-0.011378340885441408
1.1520000000000001,-0.011378124520555082
1.156,-0.011378244723269707
1.16,-0.01137894189901454
1.164,-0.011381538277650469
1.168,-0.011385000115831706
1.172,-0.011381778683079722
1.176,-0.011377836034039978
1.18,-0.011378797655756988
1.184,-0.011378917858471616
1.188,-0.011377403304267323
1.192,-0.011376129155492284
1.196,-0.011378076439469231
1.2,-0.01137894189901454
1.204,-0.011376946533951743
1.208,-0.011375768547348406
1.212,-0.0113798554396457
1.216,-0.011379302507158419
1.22,-0.011377235020466846
1.224,-0.011382283534481152
1.228,-0.011383437480541565
1.232,-0.011383365358912788
1.236,-0.011382812426425507
1.24,-0.011384807791488304
1.244,-0.011384254859001023
1.248,-0.011384038494114696
1.252,-0.011380793020819785
1.256,-0.011379975642360327
1.26,-0.011382932629140134
1.264,-0.011384110615743471
1.268,-0.011385529007776063
1.272,-0.011388029224240289
1.276,-0.011386370426778446
1.28,-0.011385120318546332
1.284,-0.0113843269806298
1.288,-0.011385553048318987
1.292,-0.011385889615919942
1.296,-0.0113867069943794
1.3,-0.011389062967586076
1.304,-0.011385216480718033
1.308,-0.011381394034392917
1.312,-0.011382307575024076
1.316,-0.011381874845251423
1.32,-0.011382764345339656
1.324,-0.011384615467144902
1.328,-0.01138533668343266
1.332,-0.01138721184578083
1.336,-0.011385529007776063
1.34,-0.011385000115831706
1.344,-0.011387572453924709
1.348,-0.01138944761627288
1.352,-0.011386370426778446
1.356,-0.011387139724152055
1.36,-0.011388101345869065
1.364,-0.011385168399632183
1.368,-0.011385673251033613
1.372,-0.011387788818811037
1.3760000000000001,-0.011388654278356346
1.3800000000000001,-0.011389111048671926
1.3840000000000001,-0.01139173146785078
1.3880000000000001,-0.011393414305855548
1.3920000000000001,-0.011394784616802288
1.3960000000000001,-0.01139259692739609
1.4000000000000001,-0.011393438346398473
1.4040000000000001,-0.0113957462385193
1.408,-0.011394303805943784
1.412,-0.011392861373368268
1.416,-0.011392741170653642
1.42,-0.011389062967586076
1.424,-0.011389712062245058
1.428,-0.011394039359971605
1.432,-0.011395361589832495
1.436,-0.011394808657345214
1.44,-0.011393342184226773
1.444,-0.011390457319075741
1.448,-0.01139447208974426
1.452,-0.011393847035628204
1.456,-0.011395265427660794
1.46,-0.011396828062950936
1.464,-0.011397188671094814
1.468,-0.011395241387117868
1.472,-0.011393943197799905
1.476,-0.011396275130463655
1.48,-0.01139452017083011
1.484,-0.011395962603405627
1.488,-0.011394255724857933
1.492,-0.01139502502223154
1.496,-0.011398727265842032
1.5,-0.011397068468380189
1.504,-0.011396828062950936
1.508,-0.011398054130640125
1.512,-0.011394592292458885
1.516,-0.011394568251915961
1.52,-0.011399712928101968
1.524,-0.0114003139416751
1.528,-0.011400482225475576
1.532,-0.011396900184579712
1.536,-0.011398751306384958
1.54,-0.011400890914705305
1.544,-0.011400890914705305
1.548,-0.011399761009187818
1.552,-0.011397597360324543
1.556,-0.011398655144213257
1.56,-0.011397453117066993
1.564,-0.011397693522496245
1.568,-0.011401972739136942
1.572,-0.01140182849587939
1.576,-0.01139959272538734
1.58,-0.011398607063127406
1.584,-0.011404545077229945
1.588,-0.011404569117772871
1.592,-0.011403775779856337
1.596,-0.011402453549995447
1.6,-0.011401395766106735
1.604,-0.01140319880682613
1.608,-0.011405578820575732
1.612,-0.011405987509805461
1.616,-0.011405578820575732
1.62,-0.01140324688791198
1.624,-0.011402717995967626
1.6280000000000001,-0.01140680488826492
1.6320000000000001,-0.011407189536951724
1.6360000000000001,-0.011402573752710074
1.6400000000000001,-0.011404136388000216
1.6440000000000001,-0.011404857604287973
1.6480000000000001,-0.011405098009717226
1.6520000000000001,-0.011406083671977162
1.6560000000000001,-0.011406973172065397
1.6600000000000001,-0.011407766509981931
1.6640000000000001,-0.011406155793605937
1.668,-0.011404112347457291
1.672,-0.011404761442116274
1.676,-0.011404496996144094
1.68,-0.011405506698946955
1.684,-0.01140711741532295
1.688,-0.011406035590891312
1.692,-0.011404400833972393
1.696,-0.011403727698770487
1.7,-0.01140492972591675
1.704,-0.011404448915058244
1.708,-0.011405218212431853
1.712,-0.011401684252621839
1.716,-0.011402982441939803
1.72,-0.011407502064009752
1.724,-0.011408487726269689
1.728,-0.011406251955777639
1.732,-0.01140908873984282
1.736,-0.011410819658933438
1.74,-0.01141146875359242
1.744,-0.011410579253504187
1.748,-0.011410891780562215
1.752,-0.011410699456218813
1.756,-0.011411492794135347
1.76,-0.011412935226710863
1.764,-0.011411108145448542
1.768,-0.011410266726446157
1.772,-0.011410098442645681
1.776,-0.011407934793782408
1.78,-0.011408054996497033
1.784,-0.01141315159159719
1.788,-0.011410867740019289
1.792,-0.011408944496585268
1.796,-0.011411348550877795
1.8,-0.011410314807532008
1.804,-0.011406251955777639
1.808,-0.011412839064539161
1.812,-0.011413295834854741
1.816,-0.011412839064539161
1.82,-0.01141269482128161
1.824,-0.011413584321369845
1.828,-0.011416108578376997
1.832,-0.01141589221349067
1.836,-0.011415988375662371
1.84,-0.011414858470144883
1.844,-0.011416324943263324
1.848,-0.011416156659462847
1.852,-0.01141735868660911
1.856,-0.011416276862177473
1.86,-0.011413464118655217
1.864,-0.01141142067250657
1.868,-0.011413103510511339
1.872,-0.011413127551054265
1.8760000000000001,-0.011411084104905617
1.8800000000000001,-0.011413968970056648
1.8840000000000001,-0.01141690191629353
1.8880000000000001,-0.011414353618743453
1.8920000000000001,-0.011412983307796713
1.8960000000000001,-0.011417551010952513
1.9000000000000001,-0.011416974037922306
1.9040000000000001,-0.01141771929475299
1.9080000000000001,-0.011419474254386533
1.9120000000000001,-0.011419618497644085
1.9160000000000001,-0.011421253254563004
1.92,-0.011423344781797502
1.924,-0.011420700322075723
1.928,-0.011420243551760143
1.932,-0.011418945362442178
1.936,-0.011414065132228349
1.94,-0.011415916254033594
1.944,-0.011421397497820555
1.948,-0.011420219511217217
1.952,-0.011418632835384149
1.956,-0.011417863538010541
1.96,-0.011418945362442178
1.964,-0.01141781545692469
1.968,-0.011415820091861893
1.972,-0.011414185334942976
1.976,-0.01141690191629353
1.98,-0.011422022551936611
1.984,-0.011422599524966819
1.988,-0.011423921754827707
1.992,-0.011422575484423892
1.996,-0.011421637903249807
2.0,-0.01141959445710116
2.004,-0.011419931024702113
2.008,-0.011420411835560619
2.012,-0.011424811254915943
2.016,-0.011427022984865066
2.02,-0.011424787214373016
2.024,-0.011423537106140903
2.028,-0.011423945795370634
2.032,-0.011423633268312604
2.036,-0.011424354484600363
2.04,-0.01142507570088812
2.044,-0.01142416216025696
2.048,-0.011423753471027231
2.052,-0.011422912052024847
2.056,-0.011420868605876199
2.06,-0.011423104376368249
2.064,-0.011424931457630568
2.068,-0.0114231524574541
2.072,-0.01142000314633089
2.076,-0.011425965200976355
2.08,-0.011427672079524049
2.084,-0.011426157525319757
2.088,-0.011425652673918327
2.092,-0.011425364187403224
2.096,-0.01142558055228955
2.1,-0.011425965200976355
2.104,-0.011424522768400839
2.108,-0.011425484390117849
2.112,-0.01142973956621562
2.116,-0.011430316539245828
2.12,-0.011429523201329294
2.124,-0.011430052093273649
2.128,-0.011430989674447735
2.132,-0.011430388660874603
2.136,-0.011428585620155208
2.14,-0.011429378958071742
2.144,-0.011430725228475557
2.148,-0.011431446444763314
2.152,-0.011429162593185415
2.156,-0.011430244417617051
2.16,-0.011429306836442967
2.164,-0.01142644601183486
2.168,-0.0114301001743595
2.172,-0.01142735955246602
2.176,-0.011427047025407991
2.18,-0.01142995593110195
2.184,-0.011432167661051073
2.188,-0.011431999377250595
2.192,-0.011429979971644874
2.196,-0.011433465850369038
2.2,-0.011436302634434218
2.204,-0.011436831526378574
2.208,-0.011433369688197336
2.212,-0.011432191701593998
2.216,-0.011433057161139307
2.22,-0.01143461979642945
2.224,-0.0114345717153436
2.228,-0.011433489890911962
2.232,-0.011434451512628972
2.236,-0.011433706255798289
2.24,-0.011432552309737876
2.244,-0.011430340579788752
2.248,-0.011432624431366653
2.2520000000000002,-0.011433970701770468
2.2560000000000002,-0.011436158391176666
2.2600000000000002,-0.011437528702123407
2.2640000000000002,-0.011437600823752182
2.2680000000000002,-0.011436398796605919
2.2720000000000002,-0.01143868264818382
2.2760000000000002,-0.011437552742666331
2.2800000000000002,-0.011433273526025635
2.2840000000000003,-0.011434018782856319
2.2880000000000003,-0.011434764039687002
2.2920000000000003,-0.011432985039510532
2.2960000000000003,-0.011430484823046304
2.3000000000000003,-0.01143329756656856
2.3040000000000003,-0.011438899013070146
2.308,-0.011439259621214025
2.312,-0.011440221242931037
2.316,-0.011439283661756951
2.32,-0.011437937391353136
2.324,-0.011438634567097969
2.328,-0.011440509729446139
2.332,-0.011440221242931037
2.336,-0.011436014147919116
2.34,-0.011435725661404012
2.344,-0.011435966066833265
2.348,-0.011436807485835648
2.352,-0.011435845864118638
2.356,-0.011434547674800673
2.36,-0.011435653539775235
2.364,-0.011438153756239463
2.368,-0.011438874972527222
2.372,-0.011437216175065379
2.376,-0.011435605458689385
2.38,-0.011436422837148845
2.384,-0.011436663242578096
2.388,-0.0114369517290932
2.392,-0.011438634567097969
2.396,-0.011440581851074915
2.4,-0.011439860634787156
2.404,-0.01143964426990083
2.408,-0.01144115882410512
2.412,-0.011442625297223563
2.416,-0.01144284166210989
2.42,-0.01144183195930703
2.424,-0.011443586918940573
2.428,-0.011439956796958858
2.432,-0.011436470918234696
2.436,-0.01144188004039288
2.44,-0.011441254986276822
2.444,-0.011443923486541526
2.448,-0.011443947527084452
2.452,-0.011443009945910366
2.456,-0.011444332175771257
2.46,-0.011442144486365057
2.464,-0.011441134783562196
2.468,-0.011441807918764103
2.472,-0.011442625297223563
2.476,-0.011441279026819748
2.48,-0.011442985905367442
2.484,-0.0114438032838269
2.488,-0.01144502935151609
2.492,-0.011444380256857107
2.496,-0.011442865702652814
2.5,-0.011442240648536758
2.504,-0.011441182864648047
2.508,-0.011444957229887313
2.512,-0.011445630365089221
2.516,-0.01144603905431895
2.52,-0.011446183297576502
2.524,-0.011446279459748201
2.528,-0.01144526975694534
2.532,-0.0114460871354048
2.536,-0.011446231378662353
2.54,-0.011446159257033576
2.544,-0.011446015013776024
2.548,-0.011446760270606707
2.552,-0.011444812986629761
2.556,-0.011447529567980315
2.56,-0.011446688148977932
2.564,-0.011443707121655199
2.568,-0.011440750134875392
2.572,-0.011448731595126578
2.576,-0.011449212405985084
2.58,-0.01144964513575774
2.584,-0.011450799081818152
2.588,-0.011449669176300664
2.592,-0.011447938257210046
2.596,-0.011450366352045497
2.6,-0.011450895243989853
2.604,-0.011448515230240252
2.608,-0.011446760270606707
2.612,-0.011448467149154401
2.616,-0.011452337676565368
2.62,-0.01145111160887618
2.624,-0.011452001108964415
2.628,-0.01145279444688095
2.632,-0.01144928452761386
2.636,-0.011448611392411953
2.64,-0.011451039487247405
2.644,-0.011450534635845973
2.648,-0.0114528425279668
2.652,-0.011448779676212429
2.656,-0.011443635000026424
2.66,-0.011449765338472365
2.664,-0.0114506548385606
2.668,-0.011450919284532778
2.672,-0.011449717257386515
2.676,-0.011450702919646451
2.68,-0.011454068595655988
2.684,-0.011452169392764892
2.688,-0.011448010378838821
2.692,-0.011451207771047881
2.696,-0.011455775474203681
2.7,-0.011455919717461233
2.704,-0.01145618416343341
2.708,-0.011454405163256942
2.712,-0.011454861933572522
2.716,-0.011458251650124984
2.72,-0.011456328406690962
2.724,-0.011453010811767276
2.728,-0.011454405163256942
2.732,-0.01145618416343341
2.736,-0.011457674677094777
2.74,-0.011458443974468385
2.744,-0.011455462947145653
2.748,-0.011454284960542314
2.7520000000000002,-0.011455486987688578
2.7560000000000002,-0.011456376487776813
2.7600000000000002,-0.011459165190756144
2.7640000000000002,-0.011456809217549468
2.7680000000000002,-0.011456496690491438
2.7720000000000002,-0.011458179528496207
2.7760000000000002,-0.011461088434190164
2.7800000000000002,-0.011461352880162342
2.7840000000000003,-0.011456568812120215
2.7880000000000003,-0.01145349162262578
2.7920000000000003,-0.011447553608523241
2.7960000000000003,-0.011455294663345175
2.8000000000000003,-0.011456472649948514
2.8040000000000003,-0.01145608800126171
2.8080000000000003,-0.011454813852486671
2.8120000000000003,-0.011457770839266478
2.816,-0.011458804582612265
2.82,-0.011457818920352329
2.824,-0.011458131447410357
2.828,-0.01145928539347077
2.832,-0.011459814285415126
2.836,-0.011455799514746607
2.84,-0.011452890609052649
2.844,-0.011453443541539932
2.848,-0.011454934055201297
2.852,-0.011458780542069339
2.856,-0.011461833691020848
2.86,-0.011461376920705268
2.864,-0.011459069028584443
2.868,-0.011460631663874584
2.872,-0.011459213271841994
2.876,-0.011458347812296684
2.88,-0.011457987204152805
2.884,-0.011460150853016078
2.888,-0.011461737528849146
2.892,-0.011464430069656776
2.896,-0.011464117542598748
2.9,-0.01146029509627363
2.904,-0.011459934488129752
2.908,-0.01145887670424104
2.912,-0.011462843393823708
2.916,-0.011465824421146442
2.92,-0.011466064826575695
2.924,-0.011461352880162342
2.928,-0.01145974216378635
2.932,-0.011466016745489844
2.936,-0.011463877137169495
2.94,-0.011462747231652007
2.944,-0.01146111247473309
2.948,-0.011462410664051055
2.952,-0.011462290461336427
2.956,-0.011465319569745011
2.96,-0.011465968664403994
2.964,-0.011465199367030384
2.968,-0.011462963596538336
2.972,-0.011460535501702883
2.976,-0.011460150853016078
2.98,-0.011461232677447716
2.984,-0.011465487853545488
2.988,-0.011468204434896042
2.992,-0.011467627461865837
2.996,-0.011464814718343581
3.0,-0.011466545637434199
3.004,-0.011467194732093181
3.008,-0.011466473515805424
3.012,-0.011466353313090797
3.016,-0.011460391258445331
3.02,-0.011465656137345964
3.024,-0.011468733326840399
3.028,-0.011468444840325295
3.032,-0.011467915948380938
3.036,-0.011466233110376171
3.04,-0.011464309866942149
3.044,-0.011464309866942149
3.048,-0.011466473515805424
3.052,-0.011468492921411146
3.056,-0.01147125758384755
3.06,-0.011471185462218775
3.064,-0.011468084232181416
3.068,-0.011467435137522434
3.072,-0.011468685245754548
3.076,-0.011470488286473943
3.08,-0.011470896975703672
3.084,-0.011473397192167901
3.088,-0.011473325070539126
3.092,-0.011470127678330064
3.096,-0.011467435137522434
3.1,-0.011467627461865837
3.104,-0.011469454543128156
3.108,-0.01147116142167585
3.112,-0.011470320002673465
3.116,-0.011471281624390477
3.12,-0.011474358813884911
3.124,-0.011471041218961224
3.128,-0.011470945056789522
3.132,-0.011472603854251367
3.136,-0.011471810516334833
3.14,-0.01147289234076647
3.144,-0.01147284425968062
3.148,-0.011470151718872989
3.152,-0.011464526231828477
3.156,-0.01147284425968062
3.16,-0.011474382854427837
3.164,-0.01147512811125852
3.168,-0.011474815584200491
3.172,-0.011474479016599539
3.176,-0.011473373151624977
3.18,-0.011471858597420684
3.184,-0.011472748097508919
3.188,-0.011472026881221162
3.192,-0.011472315367736265
3.196,-0.011471401827105102
3.2,-0.011472820219137696
3.204,-0.011473829921940557
3.208,-0.01147416648954151
3.212,-0.01147512811125852
3.216,-0.011474767503114642
3.22,-0.011473733759768855
3.224,-0.011472435570450891
3.228,-0.011473373151624977
3.232,-0.011476474381662336
3.236,-0.0114754887194024
3.24,-0.011474695381485866
3.244,-0.01147695519252084
3.248,-0.011478806314326085
3.2520000000000002,-0.011478373584553432
3.2560000000000002,-0.01147791681423785
3.2600000000000002,-0.011478589949439759
3.2640000000000002,-0.0114800564225582
3.2680000000000002,-0.011479215003555815
3.2720000000000002,-0.01147649842220526
3.2760000000000002,-0.011474935786915118
3.2800000000000002,-0.011473589516511304
3.2840000000000003,-0.011470368083759315
3.2880000000000003,-0.011472074962307012
3.2920000000000003,-0.011477267719578868
3.2960000000000003,-0.011475296395058997
3.3000000000000003,-0.011476690746548663
3.3040000000000003,-0.011477099435778392
3.3080000000000003,-0.011477676408808599
3.3120000000000003,-0.011477484084465197
3.3160000000000003,-0.011478589949439759
3.3200000000000003,-0.011479166922469964
3.3240000000000003,-0.011478133179124179
3.3280000000000003,-0.011477099435778392
3.332,-0.011481667138934191
3.336,-0.011482244111964399
3.34,-0.011478037016952478
3.344,-0.011476979233063766
3.348,-0.0114779648953237
3.352,-0.011477940854780776
3.356,-0.011478565908896832
3.36,-0.011478349544010506
3.364,-0.01148188350382052
3.368,-0.01148431159865597
3.372,-0.011482821084994604
3.376,-0.011477339841207645
3.38,-0.011484503922999373
3.384,-0.011483325936396034
3.388,-0.011480777638845958
3.392,-0.011483133612052634
3.396,-0.011481546936219566
3.4,-0.011481907544363444
3.404,-0.011481138246989837
3.408,-0.011477339841207645
3.412,-0.011478157219667103
3.416,-0.011476762868177438
3.42,-0.011474935786915118
3.424,-0.011479215003555815
3.428,-0.011482316233593174
3.432,-0.011481282490247388
3.436,-0.011481739260562968
3.44,-0.01148152289567664
3.444,-0.011485874233946113
3.448,-0.011487989801723537
3.452,-0.011485153017658355
3.456,-0.011481979665992221
3.46,-0.011481162287532761
3.464,-0.0114800564225582
3.468,-0.011484744328428626
3.472,-0.011486258882632917
3.476,-0.011486859896206049
3.48,-0.011485345342001758
3.484,-0.011484071193226718
3.488,-0.011486739693491423
3.492,-0.011487292625978704
3.496,-0.011486835855663123
3.5,-0.011486403125890469
3.504,-0.0114891918288698
3.508,-0.0114869079772919
3.512,-0.011480344909073303
3.516,-0.011485201098744206
3.52,-0.011486258882632917
3.524,-0.011485754031231487
3.528,-0.011485778071774411
3.532,-0.011487653234122583
3.536,-0.011485104936572505
3.54,-0.011486234842089991
3.544,-0.0114893841532132
3.548,-0.011489624558642454
3.552,-0.011488398490953266
3.556,-0.011489119707241023
3.56,-0.011486715652948497
3.564,-0.01148786959900891
3.568,-0.011489480315384902
3.572,-0.011487557071950882
3.576,-0.011489023545069322
3.58,-0.011489312031584426
3.584,-0.011489720720814155
3.588,-0.011488398490953266
3.592,-0.011488542734210818
3.596,-0.01148887930181177
3.6,-0.011487076261092376
3.604,-0.011489744761357081
3.608,-0.011488134044981087
3.612,-0.011486619490776796
3.616,-0.011488110004438163
3.62,-0.011489480315384902
3.624,-0.011490321734387287
3.628,-0.0114891918288698
3.632,-0.01148832636932449
3.636,-0.011488302328781565
3.64,-0.011489119707241023
3.644,-0.011488254247695714
3.648,-0.011490225572215585
3.652,-0.01149243730216471
3.656,-0.011491403558818924
3.66,-0.011495250045686965
3.664,-0.01149563469437377
3.668,-0.011494288423969955
3.672,-0.011492677707593962
3.676,-0.011491595883162327
3.68,-0.011492317099450084
3.684,-0.011493519126596347
3.688,-0.011492605585965187
3.692,-0.011494889437543086
3.696,-0.011496812680977108
3.7,-0.01149472115374261
3.704,-0.011492701748136889
3.708,-0.01149243730216471
3.712,-0.011493110437366618
3.716,-0.011494697113199684
3.72,-0.011495009640257714
3.724,-0.011494023977997777
3.728,-0.01149421630234118
3.732,-0.011493230640081243
3.736,-0.011494528829399208
3.74,-0.011499913911014467
3.744,-0.01149984178938569
3.748,-0.011498567640610653
3.7520000000000002,-0.011499168654183784
3.7560000000000002,-0.011500322600244197
3.7600000000000002,-0.011498928248754531
3.7640000000000002,-0.011496235707946901
3.7680000000000002,-0.011494600951027984
3.7720000000000002,-0.011493855694197301
3.7760000000000002,-0.011495610653830845
3.7800000000000002,-0.011494649032113833
3.7840000000000003,-0.011496019343060574
3.7880000000000003,-0.011494432667227506
3.7920000000000003,-0.01149609146468935
3.7960000000000003,-0.01149695692423466
3.8000000000000003,-0.011497798343237043
3.8040000000000003,-0.011497894505408744
3.8080000000000003,-0.011498134910837997
3.8120000000000003,-0.011498567640610653
3.8160000000000003,-0.011496812680977108
3.8200000000000003,-0.011496235707946901
3.8240000000000003,-0.011494576910485058
3.8280000000000003,-0.011498495518981876
3.8320000000000003,-0.011500587046216374
3.8360000000000003,-0.011502342005849918
3.84,-0.011500827451645627
3.844,-0.011496860762062959
3.848,-0.011497606018893642
3.852,-0.011499529262327663
3.856,-0.011500659167845149
3.86,-0.011499120573097934
3.864,-0.011500274519158346
3.868,-0.011499529262327663
3.872,-0.011497798343237043
3.876,-0.011502678573450872
3.88,-0.01150248624910747
3.884,-0.0115006110867593
3.888,-0.011500827451645627
3.892,-0.011499360978527186
3.896,-0.01149705308640636
3.9,-0.011498976329840382
3.904,-0.01150294301942305
3.908,-0.01150385656005421
3.912,-0.011502462208564544
3.916,-0.01150101977598903
3.92,-0.01150390464114006
3.924,-0.011505467276430202
3.928,-0.011507077992806196
3.932,-0.011505707681859455
3.936,-0.011502101600420665
3.94,-0.011501043816531954
3.944,-0.011504048884397612
3.948,-0.011504794141228295
3.952,-0.011502221803135293
3.956,-0.011502678573450872
3.96,-0.011504265249283939
3.964,-0.011503087262680602
3.968,-0.01150020239752957
3.972,-0.011500707248931
3.976,-0.011500490884044673
3.98,-0.011498976329840382
3.984,-0.011500394721872972
3.988,-0.011499601383956438
3.992,-0.0115006110867593
3.996,-0.011501139978703655
4.0,-0.01149984178938569
4.0040000000000004,-0.011498808046039906
4.008,-0.01150253433019332
4.0120000000000005,-0.011501933316620189
4.016,-0.011502654532907946
4.0200000000000005,-0.011503303627566928
4.024,-0.011501692911190936
4.0280000000000005,-0.011501139978703655
4.032,-0.011501164019246581
4.0360000000000005,-0.01150157270847631
4.04,-0.011501885235534338
4.0440000000000005,-0.01150243816802162
4.048,-0.011497654099979491
4.0520000000000005,-0.01150111593816073
4.056,-0.01150933780384117
4.0600000000000005,-0.011509145479497768
4.064,-0.011507150114434971
4.0680000000000005,-0.011503784438425434
4.072,-0.01150390464114006
4.0760000000000005,-0.01150751072257885
4.08,-0.011507246276606672
4.0840000000000005,-0.01150568364131653
4.088,-0.011507654965836401
4.0920000000000005,-0.011504096965483462
4.096,-0.011500538965130523
4.1,-0.011506837587376943
4.104,-0.01150751072257885
4.108,-0.01150842426321001
4.112,-0.011508664668639262
4.116,-0.011505659600773604
4.12,-0.011504121006026389
4.124,-0.011504289289826865
4.128,-0.011505298992629726
4.132,-0.011507534763121776
4.136,-0.011506837587376943
4.14,-0.011508760830810963
4.144,-0.011511116804017639
4.148,-0.011510419628272806
4.152,-0.011509458006555796
4.156,-0.011509698411985049
4.16,-0.011509674371442123
4.164,-0.011509409925469945
4.168,-0.01150796749289443
4.172,-0.011510996601303013
4.176,-0.01151116488510349
4.18,-0.011511597614876145
4.184,-0.011510852358045462
4.188,-0.011513040047451661
4.192,-0.011514482480027175
4.196,-0.01151395358808282
4.2,-0.011511237006732266
4.204,-0.011511188925646416
4.208,-0.011511645695961996
4.212,-0.011512006304105874
4.216,-0.011512799642022408
4.22,-0.011514025709711596
4.224,-0.011516213399117795
4.228,-0.011510876398588386
4.232,-0.011512775601479482
4.236,-0.01151243903387853
4.24,-0.01151126104727519
4.244,-0.011511789939219547
4.248,-0.011511020641845938
4.252,-0.011511333168903968
4.256,-0.01151162165541907
4.26,-0.011513881466454044
4.264,-0.011514698844913504
4.268,-0.011512390952792679
4.272,-0.011512198628449277
4.276,-0.011515203696314934
4.28,-0.01151486712871398
4.284,-0.011512511155507305
4.288,-0.011511525493247368
4.292,-0.01151436227731255
4.296,-0.011514722885456428
4.3,-0.011513160250166287
4.304,-0.011512318831163902
4.308,-0.011513040047451661
4.312,-0.011514049750254522
4.316,-0.011510587912073284
4.32,-0.011510587912073284
4.324,-0.011513376615052614
4.328,-0.011512054385191725
4.332,-0.011512871763651183
4.336,-0.011512847723108259
4.34,-0.011512270750078052
4.344,-0.011513737223196494
4.348,-0.011514554601655952
4.352,-0.011517920277665489
4.356,-0.01151760775060746
4.36,-0.01151609319640317
4.364,-0.011513785304282344
4.368,-0.011515492182830038
4.372,-0.01151664612889045
4.376,-0.011517703912779162
4.38,-0.011515948953145618
4.384,-0.011514097831340372
4.388,-0.01151563642608759
4.392,-0.011513040047451661
4.396,-0.01151558834500174
4.4,-0.011519194426440529
4.404,-0.011514554601655952
4.408,-0.011512799642022408
4.412,-0.01151563642608759
4.416,-0.011516574007261674
4.42,-0.011516958655948479
4.424,-0.011518112602008891
4.428,-0.011518641493953248
4.432,-0.011520276250872164
4.436,-0.01151892998046835
4.44,-0.01151948291295563
4.444,-0.011517751993865013
4.448,-0.011514386317855476
4.452,-0.011515251777400785
4.456,-0.011515131574686158
4.46,-0.011517247142463582
4.464,-0.011520829183359445
4.468,-0.011521646561818906
4.472,-0.01152121383204625
4.476,-0.01151924250752638
4.48,-0.011517896237122564
4.484,-0.011517992399294266
4.488,-0.011518737656124947
4.492,-0.011519819480556585
4.496,-0.011521117669874549
4.5,-0.011522776467336392
4.5040000000000004,-0.011519915642728286
4.508,-0.011518809777753724
4.5120000000000005,-0.011523185156566121
4.516,-0.01152268030516469
4.5200000000000005,-0.01152030029141509
4.524,-0.011518954021011276
4.5280000000000005,-0.01152025221032924
4.532,-0.011522247575392037
4.5360000000000005,-0.011524603548598713
4.54,-0.011525420927058171
4.5440000000000005,-0.011523641926881701
4.548,-0.011521814845619382
4.5520000000000005,-0.011522343737563737
4.556,-0.011524291021540683
4.5600000000000005,-0.01152359384579585
4.564,-0.011522103332134485
4.5680000000000005,-0.01151943483186978
4.572,-0.011518112602008891
4.5760000000000005,-0.011523113034937346
4.58,-0.01152628638660348
4.5840000000000005,-0.01152395445393973
4.588,-0.011522367778106663
4.5920000000000005,-0.011521598480733055
4.596,-0.011520492615758491
4.6000000000000005,-0.011521959088876934
4.604,-0.011521766764533531
4.6080000000000005,-0.01152212737267741
4.612,-0.01152217545376326
4.616,-0.01152121383204625
4.62,-0.01152207929159156
4.624,-0.011527440332663893
4.628,-0.011525973859545452
4.632,-0.011523641926881701
4.636,-0.011524146778283131
4.64,-0.011524242940454833
4.644,-0.011525084359457217
4.648,-0.011527849021893622
4.652,-0.0115280173056941
4.656,-0.011525853656830827
4.66,-0.011525925778459602
4.664,-0.011527728819178996
4.668,-0.011530541562701252
4.672,-0.011529507819355465
4.676,-0.011528546197638455
4.68,-0.011527344170492192
4.684,-0.011528594278724305
4.688,-0.011529099130125736
4.692,-0.011526454670403958
4.696,-0.011526839319090761
4.7,-0.011530709846501728
4.704,-0.011531695508761665
4.708,-0.011529507819355465
4.712,-0.01152943569772669
4.716,-0.011530373278900776
4.72,-0.011531815711476292
4.724,-0.011530036711299822
4.728,-0.011529002967954035
4.732,-0.011527584575921445
4.736,-0.011535157346942902
4.74,-0.011531527224961188
4.744,-0.011530108832928597
4.748,-0.011529123170668662
4.752,-0.011529796305870569
4.756,-0.011531334900617786
4.76,-0.011529507819355465
4.764,-0.011527103765062939
4.768,-0.011528401954380903
4.772,-0.011527945184065323
4.776,-0.011525973859545452
4.78,-0.011527656697550221
4.784,-0.011531599346589963
4.788,-0.011530132873471523
4.792,-0.011528618319267232
4.796,-0.011529147211211586
4.8,-0.011530204995100298
4.804,-0.011530950251930981
4.808,-0.011530733887044654
4.812,-0.011532705211564525
4.816,-0.011534844819884874
4.82,-0.011531695508761665
4.824,-0.0115348688604278
4.828,-0.01153313794133718
4.832,-0.011528209630037502
4.836,-0.011529531859898391
4.84,-0.011534195725225892
4.844,-0.01153349854948106
4.848,-0.01153354663056691
4.852,-0.011533426427852284
4.856,-0.011528906805782333
4.86,-0.011529315495012064
4.864,-0.011526310427146406
4.868,-0.011528810643610634
4.872,-0.011533666833281537
4.876,-0.011532969657536704
4.88,-0.01153304177916548
4.884,-0.011531262778989011
4.888,-0.011530180954557373
4.892,-0.011533690873824462
4.896,-0.011531959954733842
4.9,-0.011534147644140041
4.904,-0.011534989063142426
4.908,-0.011534844819884874
4.912,-0.0115372488741774
4.916,-0.011538811509467542
4.92,-0.011535421792915081
4.924,-0.011534532292826846
4.928,-0.011534339968483444
4.932,-0.011531334900617786
4.936,-0.01153313794133718
4.94,-0.011535229468571679
4.944,-0.011536311293003315
4.948,-0.011535614117258482
4.952,-0.011532032076362619
4.956,-0.011533955319796639
4.96,-0.011537369076892026
4.964,-0.011535541995629707
4.968,-0.011535662198344333
4.972,-0.011535950684859436
4.976,-0.011533859157624938
4.98,-0.011534147644140041
4.984,-0.011540638590729863
4.988,-0.011538715347295841
4.992,-0.011538859590553393
4.996,-0.011537585441778355
5.0,-0.011536479576803793
5.0040000000000004,-0.011537873928293458
5.008,-0.011540205860957208
5.0120000000000005,-0.011540470306929385
5.016,-0.011537080590376924
5.0200000000000005,-0.011535806441601884
5.024,-0.011539628887927002
5.0280000000000005,-0.011541455969189322
5.032,-0.01153847494186659
5.0360000000000005,-0.011537272914720327
5.04,-0.011538042212093935
5.0440000000000005,-0.011536118968659912
5.048,-0.011533354306223507
5.0520000000000005,-0.011533282184594732
5.056,-0.011537369076892026
5.0600000000000005,-0.011539628887927002
5.064,-0.011539508685212375
5.0680000000000005,-0.011536335333546241
5.072,-0.01154359557750967
5.0760000000000005,-0.011544100428911101
5.08,-0.011540566469101086
5.0840000000000005,-0.011537224833634476
5.088,-0.011536912306576446
5.0920000000000005,-0.011539244239240198
5.096,-0.011541167482674218
5.1000000000000005,-0.011539797171727479
5.104,-0.011537104630919849
5.1080000000000005,-0.011536359374089165
5.112,-0.011539580806841152
5.1160000000000005,-0.011541888698961977
5.12,-0.011539508685212375
5.124,-0.011538306658066112
5.128,-0.011538402820237813
5.132,-0.011538498982409514
5.136,-0.011537633522864205
5.14,-0.011540109698785507
5.144,-0.011541552131361023
5.148,-0.011540518388015236
5.152,-0.011540782833987415
5.156,-0.011539628887927002
5.16,-0.011539556766298226
5.164,-0.011540181820414283
5.168,-0.011541840617876126
5.172,-0.011539508685212375
5.176,-0.011539412523040674
5.18,-0.011537681603950056
5.184,-0.01154597559125927
5.188,-0.011546672767004103
5.192,-0.011546720848089954
5.196,-0.011548331564465946
5.2,-0.011545639023658318
5.204,-0.011544533158683755
5.208,-0.011542994563936539
5.212,-0.011545158212799812
5.216,-0.011545206293885663
5.22,-0.01154263395579266
5.224,-0.011542465671992182
5.228,-0.01154455719922668
5.232,-0.01154597559125927
5.236,-0.011541407888103471
5.24,-0.01154176849624735
5.244,-0.011542826280136061
5.248,-0.011542297388191706
5.252,-0.011542682036878511
5.256,-0.011544797604655934
5.26,-0.011546961253519207
5.264,-0.011547081456233833
5.268,-0.01154547073985784
5.272,-0.011547538226549412
5.276,-0.01154720165894846
5.28,-0.011550182686271192
5.284,-0.011547369942748936
5.288,-0.0115461919561456
5.292,-0.011547682469806964
5.296,-0.011547802672521592
5.3,-0.011548091159036695
5.304,-0.011547129537319683
5.308,-0.011547898834693293
5.312,-0.011549773997041463
5.316,-0.011547177618405534
5.32,-0.011552105929705214
5.324,-0.011550134605185341
5.328,-0.011548812375324452
5.332,-0.011547562267092339
5.336,-0.011546552564289478
5.34,-0.011546456402117777
5.344,-0.011545855388544645
5.348,-0.011546360239946075
5.352,-0.011546143875059749
5.356,-0.011546889131890432
5.36,-0.01154592751017342
5.364,-0.01154643236157485
5.368,-0.011547442064377713
5.372,-0.011547562267092339
5.376,-0.011549052780753705
5.38,-0.011546720848089954
5.384,-0.011548019037407918
5.388,-0.01155222613241984
5.392,-0.01154989419975609
5.396,-0.011548331564465946
5.4,-0.011549341267268807
5.404,-0.011546889131890432
5.408,-0.011548019037407918
5.412,-0.011550687537672622
5.416,-0.011549870159213164
5.42,-0.011547730550892815
5.424,-0.011547369942748936
5.428,-0.011548259442837171
5.432,-0.011549822078127313
5.436,-0.011551577037760857
5.44,-0.011551528956675007
5.444,-0.011551577037760857
5.448,-0.011550254807899969
5.452,-0.011549485510526359
5.456,-0.011550927943101875
5.46,-0.011552586740563718
5.464,-0.011551168348531128
5.468,-0.011548692172609827
5.472,-0.011547273780577235
5.476,-0.011550423091700445
5.48,-0.011550326929528744
5.484,-0.011548884496953227
5.488,-0.011548379645551797
5.492,-0.01154592751017342
5.496,-0.011545663064201243
5.5,-0.011546480442660701
5.5040000000000004,-0.011547778631978665
5.508,-0.011547850753607442
5.5120000000000005,-0.011548932578039078
5.516,-0.01154984611867024
5.5200000000000005,-0.011549461469983435
5.524,-0.011548499848266424
5.5280000000000005,-0.011547922875236217
5.532,-0.011547442064377713
5.5360000000000005,-0.01154770651034989
5.54,-0.011546408321031926
5.5440000000000005,-0.011553812808252907
5.548,-0.011553211794679776
5.5520000000000005,-0.011550302888985819
5.556,-0.011552394416220316
5.5600000000000005,-0.011553259875765626
5.564,-0.011553307956851477
5.5680000000000005,-0.01155222613241984
5.572,-0.011554534024540665
5.5760000000000005,-0.011556240903088358
5.58,-0.011553812808252907
5.5840000000000005,-0.011553476240651953
5.588,-0.011552899267621748
5.5920000000000005,-0.011552851186535897
5.596,-0.011553428159566103
5.6000000000000005,-0.011551577037760857
5.604,-0.011552346335134465
5.6080000000000005,-0.01155597645711618
5.612,-0.011559486376383269
5.6160000000000005,-0.011558260308694081
5.62,-0.01155775545729265
5.6240000000000006,-0.011558452633037482
5.628,-0.011555447565171824
5.632,-0.011553836848795832
5.636,-0.011553668564995356
5.64,-0.01155414937585386
5.644,-0.011554269578568487
5.648,-0.011554582105626515
5.652,-0.011551793402647184
5.656,-0.011559005565524763
5.66,-0.011560423957557355
5.664,-0.011561746187418244
5.668,-0.011559846984527148
5.672,-0.011555159078656722
5.676,-0.011557466970777548
5.68,-0.01155963061964082
5.684,-0.011559197889868165
5.688,-0.011558356470865781
5.692,-0.011556817876118565
5.696,-0.011558380511408707
5.7,-0.011559390214211568
5.704,-0.011557587173492173
5.708,-0.011559342133125717
5.712,-0.011562347200991375
5.716,-0.011562828011849881
5.72,-0.011561553863074841
5.724,-0.01155902960606769
5.728,-0.01155643322743176
5.732,-0.011556673632861014
5.736,-0.01155862091683796
5.74,-0.011558861322267213
5.744,-0.01155633706526006
5.748,-0.01155537544354305
5.752,-0.011558476673580408
5.756,-0.01155963061964082
5.76,-0.011557875660007277
5.764,-0.011554341700197262
5.768,-0.011558596876295034
5.772,-0.011560664362986608
5.776,-0.01155902960606769
5.78,-0.011558765160095512
5.784,-0.011561121133302188
5.788,-0.011564174282253696
5.792,-0.0115668427825184
5.796,-0.011564895498541453
5.8,-0.01156172214687532
5.804,-0.011563212660536684
5.808,-0.01156268376859233
5.812,-0.011559438295297418
5.816,-0.011558140105979454
5.82,-0.011558548795209183
5.824,-0.01156126537655974
5.828,-0.011560279714299803
5.832,-0.011558380511408707
5.836,-0.011560111430499327
5.84,-0.011561241336016813
5.844,-0.011562491444248927
5.848,-0.011561601944160692
5.852,-0.011559798903441297
5.856,-0.011559294052039867
5.86,-0.011559654660183745
5.864,-0.011561625984703618
5.868,-0.011561601944160692
5.872,-0.011562010633390421
5.876,-0.011559871025070074
5.88,-0.011558717079009661
5.884,-0.011562635687506479
5.888,-0.011563573268680565
5.892,-0.011563957917367368
5.896,-0.011563597309223489
5.9,-0.011558981524981839
5.904,-0.01156318861999376
5.908,-0.011565520552657511
5.912,-0.011565760958086762
5.916,-0.01156679470143255
5.92,-0.011564390647140023
5.924,-0.01156785248532126
5.928,-0.011570016134184534
5.932,-0.011569246836810926
5.936,-0.011567900566407111
5.94,-0.011564414687682947
5.944,-0.011560279714299803
5.948,-0.011562443363163076
5.952,-0.01156232316044845
5.956,-0.011560976890044636
5.96,-0.011562347200991375
5.964,-0.01156323670107961
5.968,-0.011562900133478656
5.972,-0.011564895498541453
5.976,-0.011564558930940499
5.98,-0.011562443363163076
5.984,-0.011561024971130486
5.988,-0.011561842349589945
5.992,-0.011564967620170228
5.996,-0.011568501579980243
6.0,-0.0115668427825184
6.0040000000000004,-0.011563909836281517
6.008,-0.011563308822708385
6.0120000000000005,-0.011562803971306955
6.016,-0.011571650891103454
6.0200000000000005,-0.011572876958792644
6.024,-0.011572324026305363
6.0280000000000005,-0.01156876602595242
6.032,-0.011564054079539069
6.0360000000000005,-0.011568237134008065
6.04,-0.01157085755318692
6.0440000000000005,-0.011568453498894392
6.048,-0.011568453498894392
6.0520000000000005,-0.011568285215093916
6.056,-0.01156907855301045
6.0600000000000005,-0.011570737350472295
6.064,-0.011568910269209972
6.0680000000000005,-0.011567684201520784
6.072,-0.011567636120434934
6.0760000000000005,-0.011565400349942884
6.08,-0.011565953282430165
6.0840000000000005,-0.011567539958263233
6.088,-0.011572348066848287
6.0920000000000005,-0.011574944445484216
6.096,-0.011571482607302978
6.1000000000000005,-0.011568958350295823
6.104,-0.011570737350472295
6.1080000000000005,-0.011569318958439701
6.112,-0.011569463201697253
6.1160000000000005,-0.011570136336899161
6.12,-0.011567155309576428
6.1240000000000006,-0.011561481741446066
6.128,-0.011567948647492962
6.132000000000001,-0.011567996728578812
6.136,-0.011569246836810926
6.140000000000001,-0.011569294917896777
6.144,-0.011568934309752898
6.148,-0.011571843215446857
6.152,-0.011573670296709176
6.156,-0.011574655958969112
6.16,-0.011574728080597889
6.164,-0.011572420188477062
6.168,-0.011568429458351468
6.172,-0.011567491877177382
6.176,-0.011571554728931753
6.18,-0.011571915337075632
6.184,-0.01156917471518215
6.188,-0.01157004017472746
6.192,-0.011571025836987398
6.196,-0.011574896364398365
6.2,-0.011572973120964345
6.204,-0.01157085755318692
6.208,-0.011571963418161482
6.212,-0.011572299985762436
6.216,-0.01157501656711299
6.22,-0.0115735020129087
6.224,-0.011572372107391213
6.228,-0.011574343431911084
6.232,-0.01157573778340075
6.236,-0.011575088688741767
6.24,-0.011578213959322051
6.244,-0.011576483040231433
6.248,-0.011574127067024757
6.252,-0.01157080947210107
6.256,-0.011568693904323645
6.26,-0.011570761391015219
6.264,-0.011575593540143198
6.268,-0.011573574134537476
6.272,-0.011573526053451626
6.276,-0.01157619455371633
6.28,-0.011575064648198841
6.284,-0.011575857986115375
6.288,-0.01157496848602714
6.292,-0.011572804837163867
6.296,-0.011573838580509654
6.3,-0.011569655526040655
6.304,-0.011568910269209972
6.308,-0.011573285648022373
6.312,-0.011572444229019988
6.316,-0.011573285648022373
6.32,-0.011574896364398365
6.324,-0.011574343431911084
6.328,-0.01157501656711299
6.332,-0.01157888709452396
6.336,-0.011579800635155119
6.34,-0.01157811779715035
6.344,-0.011577733148463547
6.348,-0.01157761294574892
6.352,-0.011578694770180557
6.356,-0.011577516783577218
6.36,-0.011576266675345104
6.364,-0.011573910702138429
6.368,-0.011572708674992166
6.372,-0.011575305053628094
6.376,-0.011582493175962749
6.38,-0.011581796000217916
6.384,-0.01157898325669566
6.388,-0.011580137202756073
6.392,-0.011576795567289461
6.396,-0.011574535756254486
6.4,-0.011573886661595504
6.404,-0.011577060013261638
6.408,-0.011579151540496137
6.412,-0.011582469135419823
6.416,-0.011581098824473083
6.42,-0.011579319824296613
6.424,-0.01157994487841267
6.428,-0.01158258933813445
6.432,-0.011582925905735402
6.436,-0.011579872756783894
6.44,-0.011579992959498521
6.444,-0.011579295783753689
6.448,-0.011579103459410286
6.452,-0.011582180648904719
6.456,-0.011579656391897567
6.46,-0.011573670296709176
6.464,-0.011576218594259254
6.468,-0.011578550526923005
6.472,-0.011579223662124912
6.476,-0.01157934386483954
6.48,-0.011578839013438109
6.484,-0.011577276378147965
6.488,-0.011580834378500904
6.492,-0.011578358202579603
6.496,-0.011579103459410286
6.5,-0.011580738216329205
6.5040000000000004,-0.011579656391897567
6.508,-0.01157939194592539
6.5120000000000005,-0.01157766102683477
6.516,-0.011574583837340337
6.5200000000000005,-0.01157492040494129
6.524,-0.011577011932175788
6.5280000000000005,-0.011577372540319666
6.532,-0.01157912749995321
6.5360000000000005,-0.011580233364927773
6.54,-0.011581146905558934
6.5440000000000005,-0.011580377608185324
6.548,-0.011578959216152734
6.5520000000000005,-0.011582613378677374
6.556,-0.011586243500659088
6.5600000000000005,-0.011587493608891202
6.564,-0.011585065514055751
6.5680000000000005,-0.011585354000570855
6.572,-0.011583454797679759
6.5760000000000005,-0.011581146905558934
6.58,-0.01157944002701124
6.5840000000000005,-0.01158350287876561
6.588,-0.011584200054510442
6.5920000000000005,-0.011582829743563701
6.596,-0.011582060446190093
6.6000000000000005,-0.011581507513702812
6.604,-0.011580473770357026
6.6080000000000005,-0.011584320257225068
6.612,-0.011583478838222683
6.6160000000000005,-0.011578189918779127
6.62,-0.01157903133778151
6.6240000000000006,-0.011584344297767994
6.628,-0.011582445094876898
6.632000000000001,-0.01158446450048262
6.636,-0.011586267541202015
6.640000000000001,-0.011584320257225068
6.644,-0.011582372973248121
6.648000000000001,-0.011584945311341126
6.652,-0.011583983689624114
6.656000000000001,-0.011584584703197245
6.66,-0.01158451258156847
6.664,-0.011582421054333972
6.668,-0.011585065514055751
6.672,-0.011584801068083574
6.676,-0.011585281878942078
6.68,-0.011586027135772762
6.684,-0.01158684451423222
6.688,-0.011587469568348278
6.692,-0.011585113595141602
6.696,-0.011584320257225068
6.7,-0.011587445527805352
6.704,-0.011587854217035082
6.708,-0.011585281878942078
6.712,-0.011584897230255275
6.716,-0.01158761381160583
6.72,-0.01158674835206052
6.724,-0.011586964716946847
6.728,-0.011587084919661473
6.732,-0.011588863919837943
6.736,-0.011594321123081978
6.74,-0.011588839879295017
6.744,-0.011589320690153523
6.748,-0.01158903220363842
6.752,-0.011586988757489772
6.756,-0.011588479271151138
6.76,-0.011586267541202015
6.764,-0.011585354000570855
6.768,-0.011585666527628883
6.772,-0.011586099257401538
6.776,-0.011583815405823638
6.78,-0.011584777027540648
6.784,-0.011586243500659088
6.788,-0.011588839879295017
6.792,-0.011589272609067672
6.796,-0.011588695636037465
6.8,-0.011587830176492156
6.804,-0.011592061312047004
6.808,-0.011591796866074824
6.812,-0.011587878257578007
6.816,-0.011589561095582776
6.82,-0.011588407149522363
6.824,-0.01158451258156847
6.828,-0.011585570365457182
6.832,-0.011587349365633652
6.836,-0.011586772392603445
6.84,-0.011584392378853845
6.844,-0.011583911567995339
6.848,-0.011591243933587543
6.852,-0.011588094622464334
6.856,-0.011587517649434128
6.86,-0.011589392811782298
6.864,-0.011589513014496925
6.868,-0.011589176446895971
6.872,-0.011589729379383252
6.876,-0.011591171811958768
6.88,-0.011594801933940482
6.884,-0.011594561528511231
6.888,-0.011593359501364968
6.892,-0.0115917728255319
6.896,-0.011589176446895971
6.9,-0.01158441641939677
6.904,-0.011585594406000108
6.908,-0.011588695636037465
6.912,-0.011590642920014412
6.916,-0.01159035443349931
6.92,-0.011588815838752093
6.924,-0.011590666960557338
6.928,-0.011590234230784683
6.932,-0.011589248568524746
6.936,-0.01159054675784271
6.94,-0.01158912836581012
6.944,-0.011589969784812505
6.948,-0.011590570798385637
6.952,-0.011591051609244141
6.956,-0.0115917728255319
6.96,-0.01159136413630217
6.964,-0.011591796866074824
6.968,-0.011592037271504077
6.972,-0.011590594838928561
6.976,-0.011588767757666242
6.98,-0.011593095055392789
6.984,-0.011598504177550973
6.988,-0.011597398312576411
6.992,-0.011596580934116953
6.996,-0.011595402947513614
7.0,-0.01159268636616306
7.0040000000000004,-0.01159359990679422
7.008,-0.01159323929865034
7.0120000000000005,-0.011591965149875302
7.016,-0.011591532420102647
7.0200000000000005,-0.011589729379383252
7.024,-0.011592566163448434
7.0280000000000005,-0.01159359990679422
7.032,-0.011591508379559723
7.0360000000000005,-0.011595210623170213
7.04,-0.011596556893574026
7.0440000000000005,-0.0115939605149381
7.048,-0.011595066379912661
7.0520000000000005,-0.011596003961086745
7.056,-0.011594561528511231
7.0600000000000005,-0.01159319121756449
7.064,-0.01159136413630217
7.0680000000000005,-0.011592325758019181
7.072,-0.011592590203991358
7.0760000000000005,-0.011593527785165444
7.08,-0.011592037271504077
7.0840000000000005,-0.011591965149875302
7.088,-0.011594801933940482
7.0920000000000005,-0.011596821339546206
7.096,-0.011594994258283885
7.1000000000000005,-0.011594441325796604
7.104,-0.011595210623170213
7.1080000000000005,-0.01159547506914239
7.112,-0.011595114460998512
7.1160000000000005,-0.011596484771945251
7.12,-0.01159831185320757
7.1240000000000006,-0.011598672461351451
7.128,-0.011596148204344297
7.132000000000001,-0.011591965149875302
7.136,-0.01159008998752713
7.140000000000001,-0.01159857629917975
7.144,-0.011599417718182134
7.148000000000001,-0.011598840745151927
7.152,-0.011596172244887223
7.156000000000001,-0.011593551825708369
7.16,-0.011596484771945251
7.164000000000001,-0.0115963405286877
7.168,-0.011598432055922198
7.172,-0.011597422353119337
7.176,-0.011596580934116953
7.18,-0.011597374272033487
7.184,-0.011596965582803757
7.188,-0.011595691434028717
7.192,-0.011596100123258447
7.196,-0.011597085785518383
7.2,-0.011598696501894375
7.204,-0.011601220758901529
7.208,-0.011600211056098667
7.212,-0.011598456096465122
7.216,-0.011596220325973074
7.22,-0.011596100123258447
7.224,-0.011593503744622518
7.228,-0.011601365002159079
7.232,-0.011603504610479428
7.236,-0.011600667826414246
7.24,-0.011598480137008049
7.244,-0.011597710839634439
7.248,-0.011598768623523152
7.252,-0.011600018731755266
7.256,-0.011599057110038254
7.26,-0.011598023366692469
7.264,-0.011600138934469892
7.268,-0.011598408015379272
7.272,-0.011600331258813294
7.276,-0.011599393677639208
7.28,-0.011596244366515998
7.284,-0.01159547506914239
7.288,-0.011593888393309323
7.292,-0.011597590636919813
7.296,-0.01160278339419167
7.3,-0.011602831475277521
7.304,-0.01160054762369962
7.308,-0.011601389042702005
7.312,-0.011597927204520768
7.316,-0.011599393677639208
7.32,-0.011600187015555742
7.324,-0.011599634083068461
7.328,-0.011600235096641593
7.332,-0.011601701569760033
7.336,-0.011594273041996127
7.34,-0.011597927204520768
7.344,-0.011602326623876091
7.348,-0.011601533285959557
7.352,-0.0116010043940152
7.356,-0.011601148637272752
7.36,-0.01160583654314318
7.364,-0.011606533718888012
7.368,-0.011606197151287058
7.372,-0.0116031920834214
7.376,-0.01160223046170439
7.38,-0.011602422786047792
7.384,-0.011601653488674183
7.388,-0.011602374704961942
7.392,-0.011605716340428552
7.396,-0.011605355732284673
7.4,-0.011603023799620924
7.404,-0.011603312286136026
7.408,-0.011607663624405498
7.412,-0.011605572097171
7.416,-0.011604129664595486
7.42,-0.011604297948395962
7.424,-0.011601990056275137
7.428,-0.011598432055922198
7.432,-0.011596965582803757
7.436,-0.011601581367045408
7.44,-0.01160583654314318
7.444,-0.011604514313282289
7.448,-0.011596532853031102
7.452,-0.011601941975189286
7.456,-0.01160917817860979
7.46,-0.011611173543672587
7.464,-0.011610524449013605
7.468,-0.011605307651198823
7.472,-0.011603624813194055
7.476,-0.011605403813370524
7.48,-0.01160735109734747
7.484,-0.011608168475806929
7.488,-0.011611750516702794
7.492,-0.011611798597788645
7.496,-0.011608697367751285
7.5,-0.011607687664948425
7.5040000000000004,-0.011606702002688488
7.508,-0.011607062610832367
7.5120000000000005,-0.011608793529922987
7.516,-0.011606653921602638
7.5200000000000005,-0.011606605840516787
7.524,-0.011607110691918218
7.5280000000000005,-0.011606052908029506
7.532,-0.011605499975542225
7.5360000000000005,-0.01160227854279024
7.54,-0.011602591069848268
7.5440000000000005,-0.011606317354001684
7.548,-0.011607639583862574
7.5520000000000005,-0.01160903393535224
7.556,-0.0116053797728276
7.5600000000000005,-0.011603071880706773
7.564,-0.011605716340428552
7.5680000000000005,-0.01160922625969564
7.572,-0.011608841611008837
7.5760000000000005,-0.011607591502776723
7.58,-0.011607062610832367
7.5840000000000005,-0.01160223046170439
7.588,-0.011608985854266389
7.5920000000000005,-0.011609755151639997
7.596,-0.0116099474759834
7.6000000000000005,-0.011610235962498503
7.604,-0.011607158773004068
7.6080000000000005,-0.011607278975718694
7.612,-0.011607038570289442
7.6160000000000005,-0.011607038570289442
7.62,-0.011609442624581969
7.6240000000000006,-0.011608865651551762
7.628,-0.011609082016438088
7.632000000000001,-0.011611077381500886
7.636,-0.011611149503129662
7.640000000000001,-0.011610332124670202
7.644,-0.011611486070730615
7.648000000000001,-0.011609610908382445
7.652,-0.011610476367927754
7.656000000000001,-0.011610764854442858
7.66,-0.011607591502776723
7.664000000000001,-0.011605668259342701
7.668,-0.01160999555706925
7.672000000000001,-0.011611942841046196
7.676,-0.011611678395074017
7.68,-0.011611029300415035
7.684,-0.011610067678698025
7.688,-0.011613818003394366
7.692,-0.011614370935881647
7.696,-0.011609009894809313
7.7,-0.01161278426004858
7.704,-0.011612159205932523
7.708,-0.011606990489203592
7.712,-0.011607783827120126
7.716,-0.01160780786766305
7.72,-0.01161191880050327
7.724,-0.011611774557245718
7.728,-0.011610163840869726
7.732,-0.011612087084303746
7.736,-0.011612207287018374
7.74,-0.011607615543319648
7.744,-0.011610428286841903
7.748,-0.011612039003217898
7.752,-0.011612039003217898
7.756,-0.01161278426004858
7.76,-0.011611774557245718
7.764,-0.011610284043584352
7.768,-0.011610716773357007
7.772,-0.011610260003041427
7.776,-0.011610211921955577
7.78,-0.011613072746563683
7.784,-0.01161278426004858
7.788,-0.011613914165566067
7.792,-0.01161598165225764
7.796,-0.011616606706373697
7.8,-0.011614034368280693
7.804,-0.011609082016438088
7.808,-0.011604706637625691
7.812,-0.011611293746387214
7.816,-0.011614875787283077
7.82,-0.01161511619271233
7.824,-0.011612640016791029
7.828,-0.01160999555706925
7.832,-0.011612327489733
7.836,-0.011614250733167021
7.84,-0.01161364971959389
7.844,-0.011614010327737768
7.848,-0.011611558192359392
7.852,-0.011611197584215513
7.856,-0.011615861449543014
7.86,-0.011614058408823619
7.864,-0.011615332557598657
7.868,-0.011619611774239355
7.872,-0.011617640449719482
7.876,-0.011615140233255255
7.88,-0.011615356598141583
7.884,-0.011616270138772743
7.888,-0.011615693165742536
7.892,-0.011613721841222665
7.896,-0.011612495773533477
7.9,-0.011615452760313285
7.904,-0.011613914165566067
7.908,-0.011611750516702794
7.912,-0.011614587300767974
7.916,-0.011615548922484986
7.92,-0.011613048706020758
7.924,-0.01161196688158912
7.928,-0.0116124236519047
7.932,-0.011613673760136814
7.936,-0.011614875787283077
7.94,-0.011615741246828386
7.944,-0.011613553557422189
7.948,-0.011619852179668608
7.952,-0.011621727342016778
7.956,-0.011618938639037447
7.96,-0.011618289544378465
7.964,-0.011614779625111376
7.968,-0.011615404679227434
7.972,-0.0116169913550605
7.976,-0.011619299247181325
7.98,-0.011615452760313285
7.984,-0.011614010327737768
7.988,-0.011619467530981803
7.992,-0.011620693598670991
7.996,-0.011620236828355411
8.0,-0.011618578030893568
8.004,-0.01161749620646193
8.008000000000001,-0.01161821742274969
8.012,-0.011617640449719482
8.016,-0.011617977017320437
8.02,-0.011619972382383234
8.024000000000001,-0.011619852179668608
8.028,-0.011618001057863363
8.032,-0.011617616409176558
8.036,-0.011618529949807718
8.040000000000001,-0.011621390774415824
8.044,-0.011620405112155889
8.048,-0.01161826550383554
8.052,-0.01161420265208117
8.056000000000001,-0.011611582232902316
8.06,-0.01162100612572902
8.064,-0.011623217855678145
8.068,-0.01162232835558991
8.072000000000001,-0.01162338613947862
8.076,-0.0116237467476225
8.08,-0.011623001490791816
8.084,-0.011619611774239355
8.088000000000001,-0.011618650152522345
8.092,-0.011620861882471469
8.096,-0.011623265936763995
8.1,-0.011620044504012009
8.104000000000001,-0.011620934004100244
8.108,-0.011621583098759226
8.112,-0.011620861882471469
8.116,-0.011620669558128066
8.120000000000001,-0.011619659855325206
8.124,-0.011620405112155889
8.128,-0.011618433787636016
8.132,-0.011618746314694044
8.136000000000001,-0.011618553990350644
8.14,-0.01162100612572902
8.144,-0.011621775423102628
8.148,-0.011621607139302152
8.152000000000001,-0.011621390774415824
8.156,-0.01162196774744603
8.16,-0.011620885923014393
8.164,-0.011619419449895953
8.168000000000001,-0.011615212354884032
8.172,-0.011624780490968286
8.176,-0.011626463328973055
8.18,-0.011623434220564471
8.184000000000001,-0.011618842476865746
8.188,-0.011618001057863363
8.192,-0.011619082882294999
8.196,-0.01162064551758514
8.2,-0.011620669558128066
8.204,-0.011623890990880051
8.208,-0.011623193815135218
8.212,-0.011622664923190864
8.216,-0.011620813801385618
8.22,-0.011620260868898337
8.224,-0.01162237643667576
8.228,-0.011622929369163041
8.232,-0.011624516044996109
8.236,-0.011625597869427745
8.24,-0.011624516044996109
8.244,-0.011625669991056522
8.248,-0.011623506342193246
8.252,-0.011622977450248892
8.256,-0.01162278512590549
8.26,-0.011623506342193246
8.264,-0.011623626544907874
8.268,-0.011624684328796585
8.272,-0.011625261301826792
8.276,-0.011625213220740942
8.28,-0.011621823504188479
8.284,-0.011622063909617732
8.288,-0.011623145734049368
8.292,-0.01162333805839277
8.296,-0.011628602937293403
8.3,-0.011626295045172578
8.304,-0.011622280274504059
8.308,-0.011627040302003261
8.312,-0.01162643928843013
8.316,-0.01162643928843013
8.32,-0.011626751815488157
8.324,-0.011626415247887205
8.328,-0.011629949207697218
8.332,-0.011629660721182114
8.336,-0.011629564559010413
8.34,-0.011629348194124086
8.344,-0.011625934437028699
8.348,-0.011621655220388003
8.352,-0.011624011193594679
8.356,-0.011626271004629653
8.36,-0.011627112423632036
8.364,-0.011625381504541418
8.368,-0.011623722707079575
8.372,-0.011623578463822023
8.376,-0.011624924734225838
8.38,-0.011627136464174962
8.384,-0.011628434653492926
8.388,-0.01162466028825366
8.392,-0.011624179477395155
8.396,-0.011625141099112165
8.4,-0.011625766153228223
8.404,-0.011627737477748094
8.408,-0.011628819302179731
8.412,-0.011628314450778299
8.416,-0.011625718072142372
8.42,-0.01163105507267178
8.424,-0.011629372234667012
8.428,-0.011629252031952385
8.432,-0.011628699099465104
8.436,-0.011628626977836329
8.44,-0.011629516477924562
8.444,-0.011629949207697218
8.448,-0.01162867505892218
8.452,-0.01162973284281089
8.456,-0.011630526180727425
8.46,-0.01162795384263442
8.464,-0.011627977883177347
8.468,-0.011629107788694833
8.472,-0.011628290410235375
8.476,-0.011626920099288635
8.48,-0.011626583531687681
8.484,-0.01162867505892218
8.488,-0.011629059707608982
8.492,-0.011627641315576392
8.496,-0.011631079113214706
8.5,-0.011633362964792605
8.504,-0.011632281140360969
8.508000000000001,-0.01163384377565111
8.512,-0.011629997288783068
8.516,-0.01162968476172504
8.52,-0.011631728207873688
8.524000000000001,-0.011629708802267965
8.528,-0.011626246964086727
8.532,-0.011629997288783068
8.536,-0.011628578896750478
8.540000000000001,-0.011630478099641574
8.544,-0.011630261734755246
8.548,-0.011629396275209937
8.552,-0.011628578896750478
8.556000000000001,-0.011625718072142372
8.56,-0.011626703734402307
8.564,-0.011627184545260813
8.568,-0.011631391640272734
8.572000000000001,-0.011632906194477025
8.576,-0.011631944572760015
8.58,-0.011628554856207552
8.584,-0.011630790626699602
8.588000000000001,-0.011631439721358584
8.592,-0.011634444789224242
8.596,-0.011631992653845865
8.6,-0.01163018961312647
8.604000000000001,-0.011627737477748094
8.608,-0.011629107788694833
8.612,-0.011630381937469873
8.616,-0.011630718505070825
8.620000000000001,-0.011632088816017567
8.624,-0.011630982951043005
8.628,-0.011627569193947617
8.632,-0.011629300113038235
8.636000000000001,-0.011630069410411845
8.64,-0.011632353261989744
8.644,-0.011635911262342683
8.648,-0.011632737910676549
8.652000000000001,-0.011631752248416612
8.656,-0.01163384377565111
8.66,-0.011635069843340298
8.664,-0.011637041167860171
8.668000000000001,-0.01163571893799928
8.672,-0.011634444789224242
8.676,-0.011634108221623288
8.68,-0.01163237730253267
8.684000000000001,-0.011634781356825196
8.688,-0.011637089248946022
8.692,-0.011635815100170982
8.696,-0.011635141964969075
8.700000000000001,-0.011636392073201189
8.704,-0.011631271437558108
8.708,-0.011628987585980207
8.712,-0.01163603146505731
8.716,-0.011636392073201189
8.72,-0.011636969046231394
8.724,-0.011635334289312477
8.728,-0.011631728207873688
8.732,-0.011628554856207552
8.736,-0.011630237694212321
8.74,-0.01163018961312647
8.744,-0.011629949207697218
8.748,-0.011627809599376869
8.752,-0.01162913182923776
8.756,-0.011633026397191652
8.76,-0.011632858113391174
8.764,-0.011632858113391174
8.768,-0.011629540518467488
8.772,-0.011632353261989744
8.776,-0.011637257532746498
8.78,-0.011638243195006434
8.784,-0.01163607954614316
8.788,-0.011634468829767167
8.792,-0.011634829437911047
8.796,-0.011635310248769551
8.8,-0.01163831531663521
8.804,-0.011637377735461123
8.808,-0.011635550654198804
8.812,-0.011635045802797374
8.816,-0.011636007424514384
8.82,-0.011632305180903893
8.824,-0.011636824802973842
8.828,-0.011633507208050156
8.832,-0.011632689829590698
8.836,-0.011636632478630442
8.84,-0.011637209451660647
8.844,-0.011640118357354604
8.848,-0.011637642181433303
8.852,-0.011634324586509615
8.856,-0.011633771654022334
8.86,-0.0116328821539341
8.864,-0.011633507208050156
8.868,-0.011638050870663032
8.872,-0.01163886824912249
8.876,-0.011637329654375273
8.88,-0.011637233492203573
8.884,-0.011635190046054926
8.888,-0.011636608438087516
8.892,-0.011639252897809295
8.896,-0.011639397141066847
8.9,-0.011636656519173366
8.904,-0.011637666221976227
8.908,-0.011636848843516769
8.912,-0.011637810465233779
8.916,-0.011639805830296576
8.92,-0.011640959776356988
8.924,-0.011641272303415016
8.928,-0.011638339357178135
8.932,-0.011633483167507232
8.936,-0.011639926033011202
8.94,-0.011641801195359373
8.944,-0.011635911262342683
8.948,-0.0116327859917624
8.952,-0.011634276505423766
8.956,-0.011638579762607387
8.96,-0.011640430884412632
8.964,-0.011639517343781472
8.968,-0.011640575127670184
8.972,-0.011641296343957943
8.976,-0.011636728640802141
8.98,-0.011636920965145544
8.984,-0.01163740177600405
8.988,-0.011639060573465893
8.992,-0.011638892289665416
8.996,-0.011638291276092285
9.0,-0.01164151270884427
9.004,-0.01164151270884427
9.008000000000001,-0.011639517343781472
9.012,-0.011642402208932505
9.016,-0.01164425333073775
9.02,-0.011644085046937272
9.024000000000001,-0.011643676357707543
9.028,-0.011641200181786241
9.032,-0.011638796127493715
9.036,-0.011639805830296576
9.040000000000001,-0.011643892722593871
9.044,-0.011640767452013586
9.048,-0.011643051303591487
9.052,-0.011641849276445224
9.056000000000001,-0.01164156078993012
9.06,-0.011643003222505636
9.064,-0.011639589465410249
9.068,-0.01163927693835222
9.072000000000001,-0.01163648823537289
9.076,-0.011638675924779088
9.08,-0.011640791492556512
9.084,-0.011639926033011202
9.088000000000001,-0.011639349059980996
9.092,-0.011639853911382426
9.096,-0.0116420175602457
9.1,-0.011640791492556512
9.104000000000001,-0.011639445222152697
9.108,-0.01163968562758195
9.112,-0.011639805830296576
9.116,-0.01164425333073775
9.120000000000001,-0.011645888087656667
9.124,-0.011643772519879244
9.128,-0.011641368465586718
9.132,-0.011637113289488946
9.136000000000001,-0.0116398298708395
9.14,-0.011646080412000069
9.144,-0.011643580195535842
9.148,-0.011643267668477814
9.152000000000001,-0.011640935735814062
9.156,-0.0116396375464961
9.16,-0.011642330087303728
9.164,-0.01164247433056128
9.168000000000001,-0.011644325452366525
9.172,-0.011644541817252852
9.176,-0.011642209884589102
9.18,-0.011642041600788626
9.184000000000001,-0.011641031897985763
9.188,-0.011638267235549359
9.192,-0.011639132695094668
9.196,-0.011640358762783857
9.200000000000001,-0.01163785854631963
9.204,-0.01164348403336414
9.208,-0.011645767884942041
9.212,-0.011646224655257621
9.216000000000001,-0.011644734141596254
9.22,-0.011641993519702775
9.224,-0.011638050870663032
9.228,-0.011639613505953173
9.232,-0.011642402208932505
9.236,-0.011643628276621692
9.24,-0.011644349492909451
9.244,-0.011641368465586718
9.248,-0.011640118357354604
9.252,-0.01164425333073775
9.256,-0.011643652317164618
9.26,-0.011642883019791009
9.264,-0.011645022628111358
9.268,-0.011647186276974631
9.272,-0.011649470128552532
9.276,-0.011648099817605792
9.28,-0.011644637979424553
9.284,-0.01164324362793489
9.288,-0.011643363830649515
9.292,-0.011645335155169386
9.296,-0.011645912128199593
9.3,-0.011643916763136796
9.304,-0.011642883019791009
9.308,-0.011644902425396732
9.312,-0.011644493736167003
9.316,-0.011646224655257621
9.32,-0.011647619006747286
9.324,-0.011645575560598639
9.328,-0.011647667087833137
9.332,-0.011647811331090689
9.336,-0.011645984249828368
9.34,-0.011645503438969864
9.344,-0.011647619006747286
9.348,-0.011648195979777492
9.352,-0.011646392939058097
9.356,-0.011644830303767955
9.36,-0.011646248695800547
9.364,-0.011646224655257621
9.368,-0.011648099817605792
9.372,-0.011649542250181307
9.376,-0.011649590331267157
9.38,-0.011644133128023123
9.384,-0.011647378601318033
9.388,-0.01164612849308592
9.392,-0.011644854344310882
9.396,-0.011644613938881629
9.4,-0.011646056371457145
9.404,-0.011645190911911834
9.408,-0.011646248695800547
9.412,-0.01164689779045953
9.416,-0.011645407276798162
9.42,-0.011648051736519942
9.424,-0.011648147898691641
9.428,-0.01164709011480293
9.432,-0.011646465060686874
9.436,-0.011645767884942041
9.44,-0.011644085046937272
9.444,-0.011646296776886398
9.448,-0.011646705466116127
9.452,-0.011649758615067635
9.456,-0.011651850142302132
9.46,-0.011653557020849825
9.464,-0.011648292141949193
9.468,-0.011646224655257621
9.472,-0.011647811331090689
9.476,-0.011649494169095456
9.48,-0.011648508506835522
9.484,-0.011649710533981785
9.488,-0.011649349925837904
9.492,-0.01164521495245476
9.496,-0.011649181642037428
9.5,-0.011652859845104994
9.504,-0.011653244493791797
9.508000000000001,-0.011651826101759208
9.512,-0.01164841234466382
9.516,-0.011648772952807699
9.52,-0.011648724871721848
9.524000000000001,-0.011647979614891165
9.528,-0.011648748912264773
9.532,-0.011651273169271927
9.536,-0.01165023942592614
9.540000000000001,-0.01165069619624172
9.544,-0.011651922263930909
9.548,-0.011651850142302132
9.552,-0.011652619439675741
9.556000000000001,-0.011652595399132815
9.56,-0.011647715168918988
9.564,-0.011649301844752056
9.568,-0.011653052169448395
9.572000000000001,-0.011654783088539015
9.576,-0.011652715601847443
9.58,-0.011653148331620096
9.584,-0.01165293196673377
9.588000000000001,-0.011652691561304516
9.592,-0.0116511529665573
9.596,-0.011648556587921372
9.6,-0.01164754688511851
9.604000000000001,-0.011642810898162234
9.608,-0.011646224655257621
9.612,-0.011655456223740921
9.616,-0.011654109953337108
9.620000000000001,-0.011653508939763977
9.624,-0.01165439843985221
9.628,-0.01165110488547145
9.632,-0.011654686926367314
9.636000000000001,-0.011655744710256025
9.64,-0.011652835804562068
9.644,-0.011647979614891165
9.648,-0.011647330520232183
9.652000000000001,-0.011648532547378446
9.656,-0.011651874182845058
9.66,-0.011651705899044582
9.664,-0.01165120104764315
9.668000000000001,-0.01165110488547145
9.672,-0.011650672155698795
9.676,-0.011650575993527094
9.68,-0.011650143263754438
9.684000000000001,-0.011650768317870496
9.688,-0.011652114588274311
9.692,-0.01165521581831167
9.696,-0.01165536006156922
9.700000000000001,-0.011654302277680509
9.704,-0.011653845507364929
9.708,-0.01165439843985221
9.712,-0.011654999453425342
9.716000000000001,-0.011654566723652688
9.72,-0.011653148331620096
9.724,-0.011655191777768744
9.728,-0.011655888953513577
9.732,-0.011655985115685278
9.736,-0.011656946737402288
9.74,-0.011656874615773513
9.744,-0.011655047534511192
9.748,-0.011655840872427726
9.752,-0.01165567258862725
9.756,-0.011654686926367314
9.76,-0.011650551952984168
9.764,-0.01164754688511851
9.768,-0.011656874615773513
9.772,-0.011655888953513577
9.776,-0.011656441886000858
9.78,-0.01165831704834903
9.784,-0.011657066940116916
9.788,-0.011657980480748075
9.792,-0.011655744710256025
9.796,-0.01165663421034426
9.8,-0.011657307345546167
9.804,-0.011657523710432495
9.808,-0.011655937034599427
9.812,-0.011656465926543784
9.816,-0.011655937034599427
9.82,-0.011655985115685278
9.824,-0.01165485521016779
9.828,-0.011653220453248873
9.832,-0.011653629142478602
9.836,-0.011653292574877648
9.84,-0.011651633777415805
9.844,-0.01165490329125364
9.848,-0.011655912994056503
9.852,-0.011649662452895934
9.856,-0.0116534368181352
9.86,-0.011659038264636786
9.864,-0.011655912994056503
9.868,-0.011655432183197997
9.872,-0.011653629142478602
9.876,-0.011651681858501656
9.88,-0.01165444652093806
9.884,-0.011656946737402288
9.888,-0.01165536006156922
9.892,-0.011655287939940445
9.896,-0.011652379034246488
9.9,-0.01165439843985221
9.904,-0.011656393804915007
9.908,-0.011654879250710716
9.912,-0.011656273602200382
9.916,-0.011657235223917392
9.92,-0.0116557206697131
9.924,-0.011656225521114531
9.928,-0.011658004521291
9.932,-0.011656922696859364
9.936,-0.01165901422409386
9.94,-0.011659567156581141
9.944,-0.011661682724358566
9.948,-0.011660865345899106
9.952,-0.011658773818664609
9.956,-0.0116581006834627
9.96,-0.011653076209991321
9.964,-0.011648989317694026
9.968,-0.011650503871898319
9.972,-0.011654638845281463
9.976,-0.01166069706209863
9.98,-0.01166115383241421
9.984,-0.011658797859207534
9.988,-0.01165536006156922
9.992,-0.011656994818488139
9.996,-0.011658244926720253
10.0,-0.011660480697212303
10.004,-0.011659759480924544
10.008000000000001,-0.011657307345546167
10.012,-0.01165846129160658
10.016,-0.011654278237137584
10.02,-0.01165302812890547
10.024000000000001,-0.011653869547907855
10.028,-0.011655504304826772
10.032,-0.011657667953690047
10.036,-0.011661826967616118
10.040000000000001,-0.011662764548790202
10.044,-0.01165983160255332
10.048,-0.011658533413235356
10.052,-0.01165891806192216
10.056000000000001,-0.011660721102641556
10.06,-0.0116624760622751
10.064,-0.011662091413588295
10.068,-0.011661057670242508
10.072000000000001,-0.011659927764725022
10.076,-0.011660144129611348
10.08,-0.011661923129787819
10.084,-0.011661971210873668
10.088000000000001,-0.01166124999458591
10.092,-0.01165973544038162
10.096,-0.011658894021379235
10.1,-0.01165471096691024
10.104000000000001,-0.01165805260237685
10.108,-0.011660456656669376
10.112,-0.011661514440558088
10.116,-0.011661370197300536
10.120000000000001,-0.011659038264636786
10.124,-0.0116556245075414
10.128,-0.011656345723829157
10.132,-0.011655768750798951
10.136000000000001,-0.011656225521114531
10.14,-0.011657235223917392
10.144,-0.011657355426632017
10.148,-0.01166348576507796
10.152000000000001,-0.011664423346252045
10.156,-0.011665048400368102
10.16,-0.011663413643449184
10.164,-0.011662187575759996
10.168000000000001,-0.011663654048878437
10.172,-0.011664182940822793
10.176,-0.011662259697388771
10.18,-0.01166394253539354
10.184000000000001,-0.011665745576112935
10.188,-0.011665409008511981
10.192,-0.011667933265519135
10.196,-0.011667740941175732
10.200000000000001,-0.011663726170507214
10.204,-0.011660648981012779
10.208,-0.011657379467174944
10.212,-0.01165298004781962
10.216000000000001,-0.011658845940293384
10.22,-0.01166211545413122
10.224,-0.011665000319282252
10.228,-0.01166348576507796
10.232000000000001,-0.011661129791871285
10.236,-0.011659927764725022
10.24,-0.01166439930570912
10.244,-0.011666418711314842
10.248,-0.011664711832767148
10.252,-0.011664928197653477
10.256,-0.01166389445430769
10.26,-0.01166211545413122
10.264,-0.011663125156934082
10.268,-0.011661802927073191
10.272,-0.011661274035128837
10.276,-0.011661490400015163
10.28,-0.011662379900103399
10.284,-0.011666298508600216
10.288,-0.011665697495027084
10.292,-0.011661802927073191
10.296,-0.011661899089244893
10.3,-0.011662452021732174
10.304,-0.011664976278739326
10.308,-0.011665529211226608
10.312,-0.011665433049054907
10.316,-0.011665553251769533
10.32,-0.011664687792224224
10.324,-0.011659615237666992
10.328,-0.011664759913852999
10.332,-0.011666731238372871
10.336,-0.011664976278739326
10.34,-0.011664110819194017
10.344,-0.011662908792047753
10.348,-0.011662956873133604
10.352,-0.011664182940822793
10.356,-0.011667644779004031
10.36,-0.011666490832943618
10.364,-0.011668414076377639
10.368,-0.01166846215746349
10.372,-0.011668582360178115
10.376,-0.011667933265519135
10.38,-0.011668942968321995
10.384,-0.011670505603612137
10.388,-0.011667764981718657
10.392,-0.011665481130140758
10.396,-0.011667380333031852
10.4,-0.011668870846693219
10.404,-0.011667789022261583
10.408,-0.011665721535570009
10.412,-0.011664639711138373
10.416,-0.011663726170507214
10.42,-0.011666178305885589
10.424,-0.011666490832943618
10.428,-0.011664976278739326
10.432,-0.01166343768399211
10.436,-0.01166262030553265
10.44,-0.01166317323801993
10.444,-0.011664038697565242
10.448,-0.011663918494850614
10.452,-0.011665216684168579
10.456,-0.011664327184080345
10.46,-0.011658749778121683
10.464,-0.01166536092742613
10.468,-0.01166810154931961
10.472,-0.011668293873663013
10.476,-0.011666923562716272
10.48,-0.011668245792577163
10.484,-0.011668414076377639
10.488,-0.011665961940999262
10.492,-0.011667404373574778
10.496,-0.011668245792577163
10.5,-0.011666995684345049
10.504,-0.011662956873133604
10.508000000000001,-0.011665721535570009
10.512,-0.011670217117097034
10.516,-0.011668197711491312
10.52,-0.011668341954748864
10.524000000000001,-0.011667789022261583
10.528,-0.011667957306062059
10.532,-0.011671419144243297
10.536,-0.011672284603788606
10.540000000000001,-0.01166805346823376
10.544,-0.011665168603082728
10.548,-0.01166800538714791
10.552,-0.011673366428220243
10.556000000000001,-0.011671899955101803
10.56,-0.01166988054949608
10.564,-0.011669303576465874
10.568,-0.011666562954572393
10.572000000000001,-0.011661826967616118
10.576,-0.011672885617361737
10.58,-0.01167723695563121
10.584,-0.011673150063333916
10.588000000000001,-0.01167165954967255
10.592,-0.011667740941175732
10.596,-0.011669495900809276
10.6,-0.011670721968498464
10.604000000000001,-0.011669543981895127
10.608,-0.011668702562892742
10.612,-0.01166608214371389
10.616,-0.011665288805797355
10.620000000000001,-0.011669135292665398
10.624,-0.011668245792577163
10.628,-0.011666202346428515
10.632,-0.011666202346428515
10.636000000000001,-0.011669327617008798
10.64,-0.01167363087419242
10.644,-0.011674929063510385
10.648,-0.011671443184786223
10.652000000000001,-0.01167074600904139
10.656,-0.011672092279445205
10.66,-0.0116717076307584
10.664,-0.011672428847046157
10.668000000000001,-0.011671563387500848
10.672,-0.011670481563069211
10.676,-0.011668390035834714
10.68,-0.01166252414336095
10.684000000000001,-0.011663053035305305
10.688,-0.01167317410387684
10.692,-0.011672428847046157
10.696,-0.0116694237791805
10.700000000000001,-0.011667813062804507
10.704,-0.011667524576289404
10.708,-0.011668486198006416
10.712,-0.011670409441440436
10.716000000000001,-0.011672428847046157
10.72,-0.011676179171742499
10.724,-0.01167480886079576
10.728,-0.011673438549849018
10.732000000000001,-0.01167165954967255
10.736,-0.011668029427690834
10.74,-0.011667716900632806
10.744,-0.011667524576289404
10.748000000000001,-0.011666875481630421
10.752,-0.011668726603435667
10.756,-0.011669135292665398
10.76,-0.011669640144066828
10.764,-0.01167262117138956
10.768,-0.011672645211932486
10.772,-0.011668726603435667
10.776,-0.011670601765783838
10.78,-0.011674111685050927
10.784,-0.011675914725770321
10.788,-0.011677477361060463
10.792,-0.011676659982601005
10.796,-0.011673775117449972
10.8,-0.011674784820252833
10.804,-0.011676299374457126
10.808,-0.011674183806679702
10.812,-0.011670457522526287
10.816,-0.011668173670948386
10.82,-0.011668726603435667
10.824,-0.011676563820429304
10.828,-0.011673462590391944
10.832,-0.011671539346957924
10.836,-0.01167120277935697
10.84,-0.011669327617008798
10.844,-0.011672741374104187
10.848,-0.01167586664468447
10.852,-0.01167459249590943
10.856,-0.011674424212108955
10.86,-0.011673654914735347
10.864,-0.01167526563111134
10.868,-0.011676155131199574
10.872,-0.011675962806856172
10.876,-0.011675097347310863
10.88,-0.011673270266048542
10.884,-0.01167211631998813
10.888,-0.011670169036011183
10.892,-0.011668774684521517
10.896,-0.011671851874015952
10.9,-0.011673366428220243
10.904,-0.011671827833473026
10.908,-0.01167125086044282
10.912,-0.011676539779886377
10.916,-0.01167678018531563
10.92,-0.011677862009747268
10.924,-0.011674616536452357
10.928,-0.0116717076307584
10.932,-0.011675433914911815
10.936,-0.011677958171918969
10.94,-0.011677789888118491
10.944,-0.011676659982601005
10.948,-0.011677381198888762
10.952,-0.01167718887454536
10.956,-0.011675073306767937
10.96,-0.011674977144596236
10.964,-0.011676659982601005
10.968,-0.011674664617538208
10.972,-0.011672428847046157
10.976,-0.011669303576465874
10.98,-0.01167668402314393
10.984,-0.011680987280327551
10.988,-0.01168170849661531
10.992,-0.01168267011833232
10.996,-0.011682357591274293
11.0,-0.011681107483042179
11.004,-0.011678150496262371
11.008000000000001,-0.011677477361060463
11.012,-0.011679352523408635
11.016,-0.01167805433409067
11.02,-0.011675794523055694
11.024000000000001,-0.011675938766313246
11.028,-0.011676948469116108
11.032,-0.011678991915264754
11.036,-0.011678222617891146
11.040000000000001,-0.011677212915088286
11.044,-0.011673294306591468
11.048,-0.011681371929014356
11.052,-0.011680915158698776
11.056000000000001,-0.01167942464503741
11.06,-0.011679568888294961
11.064,-0.01167952080720911
11.068,-0.011681275766842655
11.072000000000001,-0.011682862442675723
11.076,-0.01167952080720911
11.08,-0.011675193509482562
11.084,-0.011675554117626443
11.088000000000001,-0.011680314145125645
11.092,-0.01168166041552946
11.096,-0.011679376563951559
11.1,-0.011677573523232164
11.104000000000001,-0.011675193509482562
11.108,-0.01167673210422978
11.112,-0.011677958171918969
11.116,-0.011680193942411017
11.120000000000001,-0.011680674753269523
11.124,-0.011679160199065232
11.128,-0.011678679388206726
11.132,-0.011676659982601005
11.136000000000001,-0.011674231887765552
11.14,-0.01167435209048018
11.144,-0.011675001185139162
11.148,-0.011677116752916585
11.152000000000001,-0.01167947272612326
11.156,-0.011677958171918969
11.16,-0.011678342820605772
11.164,-0.011677765847575567
11.168000000000001,-0.011676515739343453
11.172,-0.011674784820252833
11.176,-0.011671755711844251
11.18,-0.011671948036187653
11.184000000000001,-0.011679232320694007
11.188,-0.011680626672183673
11.192,-0.011680554550554898
11.196,-0.011682069104759189
11.200000000000001,-0.011682189307473815
11.204,-0.01168399234819321
11.208,-0.011682886483218647
11.212,-0.011682958604847424
11.216000000000001,-0.011683487496791779
11.22,-0.011682045064216263
11.224,-0.01168089111815585
11.228,-0.011678318780062848
11.232000000000001,-0.01167819857734822
11.236,-0.011678799590921352
11.24,-0.011677862009747268
11.244,-0.011674760779709909
11.248000000000001,-0.011676299374457126
11.252,-0.01168038626675442
11.256,-0.011683824064392733
11.26,-0.011682069104759189
11.264,-0.011682237388559665
11.268,-0.01168115556412803
11.272,-0.011682237388559665
11.276,-0.011683848104935658
11.28,-0.011681636374986534
11.284,-0.011683727902221032
11.288,-0.011680722834355374
11.292,-0.011679448685580334
11.296,-0.011682862442675723
11.3,-0.011680674753269523
11.304,-0.011679352523408635
11.308,-0.011681275766842655
11.312,-0.011682549915617693
11.316,-0.011680867077612926
11.32,-0.011679544847752035
11.324,-0.011681924861501637
11.328,-0.011681972942587488
11.332,-0.011678583226035025
11.336,-0.011679496766666185
11.34,-0.011683247091362526
11.344,-0.011684160631993687
11.348,-0.011684473159051715
11.352,-0.011681684456072384
11.356,-0.011679184239608157
11.36,-0.011682525875074769
11.364,-0.011684449118508789
11.368,-0.011684665483395118
11.372,-0.011683199010276675
11.376,-0.011686372361942811
11.38,-0.011686877213344242
11.384,-0.0116854107402258
11.388,-0.011683319212991303
11.392,-0.011682790321046946
11.396,-0.011682694158875245
11.4,-0.011682453753445992
11.404,-0.011676659982601005
11.408,-0.011682285469645516
11.412,-0.0116831268886479
11.416,-0.011684232753622462
11.42,-0.0116831268886479
11.424,-0.011681107483042179
11.428,-0.011681227685756804
11.432,-0.011682405672360141
11.436,-0.011684665483395118
11.44,-0.011684689523938042
11.444,-0.011684521240137566
11.448,-0.011686180037599409
11.452,-0.011688247524290981
11.456,-0.011689521673066021
11.46,-0.011689593794694796
11.464,-0.01168718974040227
11.468,-0.01168170849661531
11.472,-0.011681684456072384
11.476,-0.011683271131905452
11.48,-0.011686155997056483
11.484,-0.011687454186374447
11.488,-0.01168673297008669
11.492,-0.01168545882131165
11.496,-0.011684256794165387
11.5,-0.011685675186197978
11.504,-0.011687093578230568
11.508000000000001,-0.01168668488900084
11.512,-0.011686348321399885
11.516,-0.011686155997056483
11.52,-0.011687790753975401
11.524000000000001,-0.011687959037775877
11.528,-0.011686997416058867
11.532,-0.011687309943116895
11.536,-0.011683751942763956
11.540000000000001,-0.011685795388912604
11.544,-0.011687814794518326
11.548,-0.011687670551260776
11.552,-0.01168718974040227
11.556000000000001,-0.011687430145831523
11.56,-0.01168892065949289
11.564,-0.011687886916147102
11.568,-0.011684881848281444
11.572000000000001,-0.011685074172624847
11.576,-0.011686829132258391
11.58,-0.011686564686286214
11.584,-0.011688415808091457
11.588000000000001,-0.011687526308003224
11.592,-0.011686853172801315
11.596,-0.01168678105117254
11.6,-0.011683896186021508
11.604000000000001,-0.011683824064392733
11.608,-0.011686396402485736
11.612,-0.011687574389089074
11.616,-0.011683824064392733
11.620000000000001,-0.011685194375339472
11.624,-0.011687959037775877
11.628,-0.011688776416235338
11.632,-0.011687959037775877
11.636000000000001,-0.011686083875427708
11.64,-0.011683727902221032
11.644,-0.01168221334801674
11.648,-0.011682453753445992
11.652000000000001,-0.01168673297008669
11.656,-0.011690170767725003
11.66,-0.011688223483748057
11.664,-0.011687309943116895
11.668000000000001,-0.011686516605200363
11.672,-0.011684328915794163
11.676,-0.011683944267107359
11.68,-0.011686059834884781
11.684000000000001,-0.011689593794694796
11.688,-0.011689689956866497
11.692,-0.01168892065949289
11.696,-0.011691084308356163
11.700000000000001,-0.011691733403015145
11.704,-0.011689209146007991
11.708,-0.0116855069023975
11.712,-0.011685675186197978
11.716000000000001,-0.01168627619977111
11.72,-0.01168947359198017
11.724,-0.01168678105117254
11.728,-0.011684473159051715
11.732000000000001,-0.011687790753975401
11.736,-0.011688415808091457
11.74,-0.011686516605200363
11.744,-0.011685579024026277
11.748000000000001,-0.01168896874057874
11.752,-0.011691084308356163
11.756,-0.011690675619126433
11.76,-0.011688728335149487
11.764000000000001,-0.011688439848634383
11.768,-0.011690579456954732
11.772,-0.011691324713785416
11.776,-0.011691252592156639
11.78,-0.011690771781298135
11.784,-0.011686925294430092
11.788,-0.011693704727535016
11.792,-0.011692334416588276
11.796,-0.011689185105465067
11.8,-0.011689521673066021
11.804,-0.0116854107402258
11.808,-0.011682982645390349
11.812,-0.01168577134836968
11.816,-0.011686444483571586
11.82,-0.011685939632170156
11.824,-0.011687117618773495
11.828,-0.01168495396991022
11.832,-0.011685915591627231
11.836,-0.011689329348722619
11.84,-0.011692839267989707
11.844,-0.011692526740931679
11.848,-0.011689569754151872
11.852,-0.011690459254240105
11.856,-0.01169084390292691
11.86,-0.011691637240843444
11.864,-0.011694738470880803
11.868,-0.01169449806545155
11.872,-0.011693175835590661
11.876,-0.011694762511423727
11.88,-0.011695627970969036
11.884,-0.011693608565363315
11.888,-0.011691589159757593
11.892,-0.011692791186903856
11.896,-0.011690988146184461
11.9,-0.011691565119214667
11.904,-0.011693151795047735
11.908,-0.01169139683541419
11.912,-0.011688824497321188
11.916,-0.011688584091891935
11.92,-0.011690603497497657
11.924,-0.011688680254063636
11.928,-0.011690459254240105
11.932,-0.0116899784433816
11.936,-0.011692526740931679
11.94,-0.011692166132787798
11.944,-0.01169327199776236
11.948,-0.011691372794871266
11.952,-0.011690795821841059
11.956,-0.011692406538217051
11.96,-0.01169257482201753
11.964,-0.011694978876310056
11.968,-0.0116967338359436
11.972,-0.011693464322105763
11.976,-0.01169404129513597
11.98,-0.011690651578583507
11.984,-0.01168632428085696
11.988,-0.011686155997056483
11.992,-0.011687213780945194
11.996,-0.011687526308003224
12.0,-0.011690940065098611
12.004,-0.011691036227270312
12.008000000000001,-0.011686612767372062
12.012,-0.011688560051349009
12.016,-0.011691060267813237
12.02,-0.011690146727182077
12.024000000000001,-0.011691420875957115
12.028,-0.011691036227270312
12.032,-0.0116922622949595
12.036,-0.01169586837639829
12.040000000000001,-0.01169637322779972
12.044,-0.011695267362825158
12.048,-0.01169281522744678
12.052,-0.011693344119391137
12.056000000000001,-0.011694065335678894
12.06,-0.011694858673595428
12.064,-0.01169404129513597
12.068,-0.011694209578936446
12.072000000000001,-0.011691132389442013
12.076,-0.011690651578583507
12.08,-0.011694305741108147
12.084,-0.011695627970969036
12.088000000000001,-0.011695363524996859
12.092,-0.011694690389794952
12.096,-0.011690651578583507
12.1,-0.011692646943646304
12.104000000000001,-0.011696613633228973
12.108,-0.011695627970969036
12.112,-0.011697142525173329
12.116,-0.011695940498027066
12.120000000000001,-0.011693440281562838
12.124,-0.011696060700741692
12.128,-0.011698032025261563
12.132,-0.011697863741461086
12.136000000000001,-0.01169764737657476
12.14,-0.011695700092597813
12.144,-0.011693175835590661
12.148,-0.011700868809326744
12.152000000000001,-0.011702888214932466
12.156,-0.011699955268695585
12.16,-0.011697431011688431
12.164,-0.01169449806545155
12.168000000000001,-0.01169449806545155
12.172,-0.011696637673771899
12.176,-0.01169764737657476
12.18,-0.011698272430690815
12.184000000000001,-0.011696950200829927
12.188,-0.011694570187080325
12.192,-0.011695940498027066
12.196,-0.011699402336208304
12.200000000000001,-0.011700460120097015
12.204,-0.011699306174036602
12.208,-0.011697166565716254
12.212,-0.011696589592686048
12.216000000000001,-0.011697911822546937
12.22,-0.011696661714314823
12.224,-0.011695387565539785
12.228,-0.011698536876662995
12.232000000000001,-0.011696228984542168
12.236,-0.011695339484453934
12.24,-0.011697310808973805
12.244,-0.011696805957572375
12.248000000000001,-0.011698344552319592
12.252,-0.011696950200829927
12.256,-0.011693897051878418
12.26,-0.011700820728240894
12.264000000000001,-0.011699931228152658
12.268,-0.011695772214226588
12.272,-0.011693776849163793
12.276,-0.011694786551966653
12.280000000000001,-0.011695627970969036
12.284,-0.011697791619832311
12.288,-0.011698080106347413
12.292,-0.011697382930602582
12.296,-0.011698873444263947
12.3,-0.011698272430690815
12.304,-0.011697575254945983
12.308,-0.01169870516046347
12.312,-0.011697310808973805
12.316,-0.011694474024908624
12.32,-0.011694762511423727
12.324,-0.011694185538393522
12.328,-0.011693848970792568
12.332,-0.011696132822370468
12.336,-0.01169550776825441
12.34,-0.011694185538393522
12.344,-0.011692286335502426
12.348,-0.011694425943822773
12.352,-0.01169586837639829
12.356,-0.011695748173683664
12.36,-0.011696253025085094
12.364,-0.011697575254945983
12.368,-0.011693824930249641
12.372,-0.011697142525173329
12.376,-0.011698993646978574
12.38,-0.011698176268519114
12.384,-0.01169810414689034
12.388,-0.011696613633228973
12.392,-0.011697455052231357
12.396,-0.011699859106523883
12.4,-0.011697431011688431
12.404,-0.01169764737657476
12.408,-0.011696180903456319
12.412,-0.011694666349252026
12.416,-0.0116968299981153
12.42,-0.011698248390147891
12.424,-0.011700508201182866
12.428,-0.011699907187609734
12.432,-0.011698224349604965
12.436,-0.011700099511953136
12.44,-0.011701926593215456
12.444,-0.011699426376751228
12.448,-0.011697575254945983
12.452,-0.011698224349604965
12.456,-0.01169637322779972
12.46,-0.011697142525173329
12.464,-0.01169815222797619
12.468,-0.011700315876839463
12.472,-0.011701638106700352
12.476,-0.011701013052584296
12.48,-0.011697767579289385
12.484,-0.011694305741108147
12.488,-0.011693416241019912
12.492,-0.011698849403721023
12.496,-0.011702359322988111
12.5,-0.011704042160992878
12.504,-0.01170053224172579
12.508000000000001,-0.011705244188139141
12.512,-0.011700652444440417
12.516,-0.011699955268695585
12.52,-0.011701181336384772
12.524000000000001,-0.01170007547141021
12.528,-0.011699786984895108
12.532,-0.011699883147066808
12.536,-0.01169952253892293
12.540000000000001,-0.011700772647155043
12.544,-0.011702239120273484
12.548,-0.011701229417470623
12.552,-0.011702455485159812
12.556000000000001,-0.01170180639050083
12.56,-0.01169961870109463
12.564,-0.011699306174036602
12.568,-0.011699354255122453
12.572000000000001,-0.011700604363354567
12.576,-0.011698392633405443
12.58,-0.011695892416941215
12.584,-0.01169774353874646
12.588000000000001,-0.01169820030906204
12.592,-0.011696854038658226
12.596,-0.011696757876486524
12.6,-0.011698224349604965
12.604000000000001,-0.011701782349957904
12.608,-0.01170271993113199
12.612,-0.011701950633758382
12.616,-0.011699306174036602
12.620000000000001,-0.011705700958454723
12.624,-0.011706350053113705
12.628,-0.011705749039540574
12.632,-0.011704595093480161
12.636000000000001,-0.011703945998821179
12.64,-0.011706205809856153
12.644,-0.011705532674654245
12.648,-0.011700748606612119
12.652000000000001,-0.01169860899829177
12.656,-0.011699378295665377
12.66,-0.011697455052231357
12.664,-0.011699258092950752
12.668000000000001,-0.011701109214755997
12.672,-0.011700243755210688
12.676,-0.011701421741814025
12.68,-0.011701421741814025
12.684000000000001,-0.01170226316081641
12.688,-0.011704090242078729
12.692,-0.011701638106700352
12.696,-0.011701926593215456
12.700000000000001,-0.011702191039187635
12.704,-0.011701277498556473
12.708,-0.011703393066333898
12.712,-0.01170271993113199
12.716000000000001,-0.011700989012041372
12.72,-0.011699498498380005
12.724,-0.011702623768960288
12.728,-0.011704619134023085
12.732000000000001,-0.011704282566422131
12.736,-0.01170399407990703
12.74,-0.011704667215108936
12.744,-0.011703921958278253
12.748000000000001,-0.01170418640425043
12.752,-0.011703585390677299
12.756,-0.011706951066686837
12.76,-0.011707431877545341
12.764000000000001,-0.011705845201712273
12.768,-0.01170495570162404
12.772,-0.011706109647684452
12.776,-0.011706518336914181
12.780000000000001,-0.011704114282621655
12.784,-0.0117013015390994
12.788,-0.011701205376927698
12.792,-0.01170103709312722
12.796000000000001,-0.011702503566245663
12.8,-0.011706326012570779
12.804,-0.01170647025582833
12.808,-0.011706398134199556
12.812,-0.01170784056677507
12.816,-0.01170683086397221
12.82,-0.01170637409365663
12.824,-0.01170500378270989
12.828,-0.011703441147419747
12.832,-0.011704715296194787
12.836,-0.01170454701239431
12.84,-0.011705148025967442
12.844,-0.011706205809856153
12.848,-0.0117059654044269
12.852,-0.011706686620714658
12.856,-0.011707359755916566
12.86,-0.011704042160992878
12.864,-0.011701998714844232
12.868,-0.011708898350663782
12.872,-0.011705123985424516
12.876,-0.011700604363354567
12.88,-0.011702142958101784
12.884,-0.011703393066333898
12.888,-0.01170399407990703
12.892,-0.01170647025582833
12.896,-0.011705196107053293
12.9,-0.011705436512482544
12.904,-0.011706109647684452
12.908,-0.011706542377457106
12.912,-0.011707720364060445
12.916,-0.011706157728770303
12.92,-0.011707720364060445
12.924,-0.011710605229211477
12.928,-0.011708633904691604
12.932,-0.011708778147949156
12.936,-0.011706638539628807
12.94,-0.011705989444969825
12.944,-0.011706566418000032
12.948,-0.011708225215461875
12.952,-0.011705652877368872
12.956,-0.01170788864786092
12.96,-0.011710821594097804
12.964,-0.011709595526408614
12.968,-0.011707672282974594
12.972,-0.011705388431396693
12.976,-0.011702503566245663
12.98,-0.011708561783062829
12.984,-0.011707912688403847
12.988,-0.011708273296547726
12.992,-0.011706758742343434
12.996,-0.011703777715020701
13.0,-0.011704426809679683
13.004,-0.011706157728770303
13.008000000000001,-0.011708273296547726
13.012,-0.011706566418000032
13.016,-0.011701421741814025
13.02,-0.011701590025614503
13.024000000000001,-0.011707407837002417
13.028,-0.011709475323693989
13.032,-0.011710292702153447
13.036,-0.011712143823958692
13.040000000000001,-0.011710677350840252
13.044,-0.011712143823958692
13.048,-0.0117151008107385
13.052,-0.011714619999879996
13.056000000000001,-0.011710412904868074
13.06,-0.011707191472116088
13.064,-0.011706638539628807
13.068,-0.011710773513011953
13.072000000000001,-0.011712937161875226
13.076,-0.011712552513188422
13.08,-0.011710917756269505
13.084,-0.011707023188315612
13.088000000000001,-0.011701565985071577
13.092,-0.01170829733709065
13.096,-0.011711374526585085
13.1,-0.011711398567128009
13.104000000000001,-0.011708754107406232
13.108,-0.01170692702614391
13.112,-0.011708561783062829
13.116,-0.011711158161698758
13.120000000000001,-0.011711566850928487
13.124,-0.011709691688580316
13.128,-0.011709884012923718
13.132,-0.011709475323693989
13.136000000000001,-0.011710124418352971
13.14,-0.011708970472292558
13.144,-0.011708802188492082
13.148,-0.011709884012923718
13.152000000000001,-0.011708032891118473
13.156,-0.01170916279663596
13.16,-0.011710773513011953
13.164,-0.011710244621067597
13.168000000000001,-0.011712119783415768
13.172,-0.011711013918441206
13.176,-0.011708489661434052
13.18,-0.011706999147772687
13.184000000000001,-0.011708489661434052
13.188,-0.011709475323693989
13.192,-0.011706326012570779
13.196,-0.01170637409365663
13.200000000000001,-0.011709331080436437
13.204,-0.011712552513188422
13.208,-0.011712360188845021
13.212,-0.011712889080789376
13.216000000000001,-0.011711975540158216
13.22,-0.011708633904691604
13.224,-0.011708441580348202
13.228,-0.011709258958807662
13.232000000000001,-0.011709691688580316
13.236,-0.011710004215638345
13.24,-0.01171103795898413
13.244,-0.011710388864325148
13.248000000000001,-0.011709307039893513
13.252,-0.011710821594097804
13.256,-0.01171541333779653
13.26,-0.011716038391912586
13.264000000000001,-0.011713442013276657
13.268,-0.011707960769489698
13.272,-0.01171199958070114
13.276,-0.011712840999703525
13.280000000000001,-0.011712648675360123
13.284,-0.011713826661963462
13.288,-0.011713658378162984
13.292,-0.011713850702506386
13.296000000000001,-0.01171363433762006
13.3,-0.011711735134728963
13.304,-0.01171094179681243
13.308,-0.01171276887807475
13.312000000000001,-0.011710845634640728
13.316,-0.011711134121155832
13.32,-0.01171144664821386
13.324,-0.011710509067039776
13.328,-0.011708585823605754
13.332,-0.011711013918441206
13.336,-0.01171368241870591
13.34,-0.011713802621420535
13.344,-0.01171221594558747
13.348,-0.011712552513188422
13.352,-0.01171226402667332
13.356,-0.011710412904868074
13.36,-0.011709787850752017
13.364,-0.011706734701800508
13.368,-0.011705027823252815
13.372,-0.011707528039717042
13.376,-0.011708032891118473
13.38,-0.011707576120802893
13.384,-0.011714764243137547
13.388,-0.011714908486395097
13.392,-0.011713562215991284
13.396,-0.011714331513364892
13.4,-0.011712961202418153
13.404,-0.011713057364589852
13.408,-0.011713994945763938
13.412,-0.011713802621420535
13.416,-0.011710845634640728
13.42,-0.011709811891294943
13.424,-0.011710821594097804
13.428,-0.011715461418882378
13.432,-0.011714764243137547
13.436,-0.011711663013100188
13.44,-0.011711158161698758
13.444,-0.011709908053466644
13.448,-0.01170916279663596
13.452,-0.011715725864854558
13.456,-0.011715341216167753
13.46,-0.011713586256534209
13.464,-0.011713778580877611
13.468,-0.011713201607847404
13.472,-0.011713369891647882
13.476,-0.011712528472645497
13.48,-0.011714668080965846
13.484,-0.011715846067569183
13.488,-0.011713249688933254
13.492,-0.011711134121155832
13.496,-0.011715437378339454
13.5,-0.011718658811091439
13.504,-0.011718658811091439
13.508000000000001,-0.011717576986659803
13.512,-0.011716086472998436
13.516,-0.011717745270460279
13.52,-0.01171834628403341
13.524000000000001,-0.011715677783768707
13.528,-0.011716639405485717
13.532,-0.011716783648743269
13.536,-0.011710749472469027
13.540000000000001,-0.011712288067216244
13.544,-0.011713610297077135
13.548,-0.011714619999879996
13.552,-0.01171587010811211
13.556000000000001,-0.01171541333779653
13.56,-0.011714764243137547
13.564,-0.011711302404956308
13.568,-0.011714163229564416
13.572000000000001,-0.011713994945763938
13.576,-0.01171505272965265
13.58,-0.011715701824311631
13.584,-0.011719404067922122
13.588000000000001,-0.011722505297959481
13.592,-0.011720846500497638
13.596,-0.011719067500321168
13.6,-0.011718226081318785
13.604000000000001,-0.0117173846623164
13.608,-0.01171925982466457
13.612,-0.011718610730005588
13.616,-0.011716495162228165
13.620000000000001,-0.011715533540511155
13.624,-0.011716014351369661
13.628,-0.011716711527114492
13.632,-0.011718827094891917
13.636000000000001,-0.011723274595333089
13.64,-0.011720221446381582
13.644,-0.011717432743402251
13.648,-0.011713490094362507
13.652000000000001,-0.011715485459425305
13.656,-0.01171642304059939
13.66,-0.011717264459601773
13.664,-0.011716447081142315
13.668000000000001,-0.011714403634993667
13.672,-0.011715629702682856
13.676,-0.011717817392089056
13.68,-0.011718202040775859
13.684000000000001,-0.011719235784121646
13.688,-0.011719428108465048
13.692,-0.01171505272965265
13.696,-0.011713321810562031
13.700000000000001,-0.01171921174357872
13.704,-0.011718057797518307
13.708,-0.01171825012186171
13.712,-0.011718586689462664
13.716000000000001,-0.011717504865031026
13.72,-0.011718875175977767
13.724,-0.011716447081142315
13.728,-0.011715293135081902
13.732000000000001,-0.011714403634993667
13.736,-0.011716134554084287
13.74,-0.011717697189374428
13.744,-0.011719812757151851
13.748000000000001,-0.011719115581407018
13.752,-0.0117195723517226
13.756,-0.011719500230093823
13.76,-0.011719812757151851
13.764000000000001,-0.011724091973792549
13.768,-0.011722072568186826
13.772,-0.011721159027555666
13.776,-0.011721519635699545
13.780000000000001,-0.011717144256887147
13.784,-0.011716302837884763
13.788,-0.011719043459778243
13.792,-0.011717432743402251
13.796000000000001,-0.011715725864854558
13.8,-0.011716302837884763
13.804,-0.01171541333779653
13.808,-0.011717096175801297
13.812000000000001,-0.01172606329831242
13.816,-0.011724957433337858
13.82,-0.011721255189727367
13.824,-0.011718538608376813
13.828,-0.011718226081318785
13.832,-0.011719067500321168
13.836,-0.01172058205452546
13.84,-0.011720293568010357
13.844,-0.01172002912203818
13.848,-0.01171925982466457
13.852,-0.011719428108465048
13.856,-0.011720173365295732
13.86,-0.011721303270813218
13.864,-0.01172094266266934
13.868,-0.011719331946293347
13.872,-0.01171930790575042
13.876,-0.011721639838414172
13.88,-0.01172341883859064
13.884,-0.01172341883859064
13.888,-0.011718610730005588
13.892,-0.011717528905573952
13.896,-0.01171825012186171
13.9,-0.01172058205452546
13.904,-0.011721231149184443
13.908,-0.011719476189550899
13.912,-0.01171829820294756
13.916,-0.011718586689462664
13.92,-0.011720293568010357
13.924,-0.011722649541217033
13.928,-0.011721760041128798
13.932,-0.01172048589235376
13.936,-0.011720750338325937
13.94,-0.011717312540687624
13.944,-0.011722938027732136
13.948,-0.011725991176683645
13.952,-0.011722962068275061
13.956,-0.011721832162757575
13.96,-0.011721014784298114
13.964,-0.011718682851634365
13.968,-0.011720101243666955
13.972,-0.01171962043280845
13.976,-0.0117195723517226
13.98,-0.011718490527290962
13.984,-0.011716855770372044
13.988,-0.01171788951371783
13.992,-0.011718538608376813
13.996,-0.011719452149007973
14.0,-0.011721303270813218
14.004,-0.011722673581759957
14.008000000000001,-0.011720630135611311
14.012,-0.011721736000585873
14.016,-0.011720293568010357
14.02,-0.011722841865560435
14.024000000000001,-0.011723515000762342
14.028,-0.011721784081671724
14.032,-0.011720894581583489
14.036,-0.011720702257240086
14.040000000000001,-0.01171971659498015
14.044,-0.011722072568186826
14.048,-0.011725029554966635
14.052,-0.011718971338149468
14.056000000000001,-0.011720750338325937
14.06,-0.011724981473880784
14.064,-0.011724212176507175
14.068,-0.011723034189903838
14.072000000000001,-0.011722841865560435
14.076,-0.01172190428438635
14.08,-0.011721591757328322
14.084,-0.011720389730182058
14.088000000000001,-0.011721279230270294
14.092,-0.011725197838767111
14.096,-0.011724981473880784
14.1,-0.011724043892706698
14.104000000000001,-0.011725197838767111
14.108,-0.01172510167659541
14.112,-0.011725438244196364
14.116,-0.011721736000585873
14.120000000000001,-0.011720630135611311
14.124,-0.01172647198754215
14.128,-0.011728827960748825
14.132,-0.011726520068628
14.136000000000001,-0.011725462284739288
14.14,-0.01172565460908269
14.144,-0.011724212176507175
14.148,-0.01172245721687363
14.152000000000001,-0.011722938027732136
14.156,-0.011722745703388734
14.16,-0.011722938027732136
14.164,-0.011720221446381582
14.168000000000001,-0.011719452149007973
14.172,-0.011722938027732136
14.176,-0.011718057797518307
14.18,-0.011715533540511155
14.184000000000001,-0.01171829820294756
14.188,-0.01172245721687363
14.192,-0.011723995811620848
14.196,-0.011724043892706698
14.200000000000001,-0.011722240851987304
14.204,-0.0117241400548784
14.208,-0.011723827527820372
14.212,-0.011721303270813218
14.216000000000001,-0.011722024487100977
14.22,-0.011723755406191595
14.224,-0.011722745703388734
14.228,-0.011724308338678876
14.232000000000001,-0.011723274595333089
14.236,-0.011724116014335473
14.24,-0.01172418813596425
14.244,-0.011724356419764726
14.248000000000001,-0.011723947730534997
14.252,-0.011723587122391119
14.256,-0.011723851568363296
14.26,-0.011724452581936428
14.264000000000001,-0.011726880676771878
14.268,-0.011728587555319574
14.272,-0.011728900082377602
14.276,-0.011726183501027047
14.280000000000001,-0.011723971771077922
14.284,-0.01172464490627983
14.288,-0.011722481257416557
14.292,-0.011723274595333089
14.296000000000001,-0.011725269960395886
14.3,-0.01171971659498015
14.304,-0.011723539041305268
14.308,-0.011729356852693181
14.312000000000001,-0.011731857069157409
14.316,-0.011729477055407807
14.32,-0.011727770176860114
14.324,-0.011725510365825139
14.328000000000001,-0.011728683717491273
14.332,-0.01173063100146822
14.336,-0.011730847366354548
14.34,-0.01172825098771862
14.344,-0.011725919055054868
14.348,-0.011727914420117665
14.352,-0.011731592623185232
14.356,-0.0117310877717838
14.36,-0.011728275028261544
14.364,-0.011723659244019894
14.368,-0.011724741068451531
14.372,-0.011727577852516711
14.376,-0.011727698055231339
14.38,-0.011726327744284597
14.384,-0.011726279663198747
14.388,-0.011724428541393503
14.392,-0.011724789149537382
14.396,-0.011727241284915759
14.4,-0.01172829906880447
14.404,-0.011727674014688412
14.408,-0.011724572784651053
14.412,-0.011721856203300499
14.416,-0.011728876041834676
14.42,-0.011729789582465837
14.424,-0.011727722095774263
14.428,-0.011725678649625615
14.432,-0.011724981473880784
14.436,-0.0117287077580342
14.44,-0.01173103969069795
14.444,-0.011729332812150255
14.448,-0.011728827960748825
14.452,-0.011730366555496042
14.456,-0.011728731798577124
14.46,-0.011724837230623232
14.464,-0.011725173798224185
14.468,-0.011728563514776648
14.472,-0.011729188568892705
14.476,-0.011728106744461068
14.48,-0.011729308771607331
14.484,-0.011729933825723387
14.488,-0.01173067908255407
14.492,-0.011728948163463452
14.496,-0.011729597258122434
14.5,-0.0117288039202059
14.504,-0.011728034622832293
14.508000000000001,-0.011729044325635153
14.512,-0.011730318474410192
14.516,-0.011728611595862498
14.52,-0.01172738552817331
14.524000000000001,-0.011726231582112898
14.528,-0.011728948163463452
14.532,-0.011730029987895088
14.536,-0.01172752977143086
14.540000000000001,-0.011727674014688412
14.544,-0.011729164528349779
14.548,-0.011728202906632769
14.552,-0.011728443312062022
14.556000000000001,-0.011728827960748825
14.56,-0.01172966937975121
14.564,-0.01172921260943563
14.568,-0.011729044325635153
14.572000000000001,-0.011729597258122434
14.576,-0.011729164528349779
14.58,-0.011729621298665359
14.584,-0.011730606960925295
14.588000000000001,-0.011728275028261544
14.592,-0.011728587555319574
14.596,-0.011732962934131971
14.6,-0.01173423708290701
14.604000000000001,-0.011735799718197153
14.608,-0.011730150190609715
14.612,-0.011726640271342627
14.616,-0.01172779421740304
14.620000000000001,-0.011728779879662974
14.624,-0.011732193636758363
14.628,-0.01173241000164469
14.632,-0.01173195323132911
14.636000000000001,-0.011728034622832293
14.64,-0.011726712392971402
14.644,-0.011728082703918142
14.648,-0.011728659676948349
14.652000000000001,-0.011726231582112898
14.656,-0.011726399865913374
14.66,-0.01172373136564867
14.664,-0.011728852001291751
14.668000000000001,-0.011729477055407807
14.672,-0.011730462717667743
14.676,-0.0117309916096121
14.68,-0.011729525136493658
14.684000000000001,-0.011728587555319574
14.688,-0.011730823325811622
14.692,-0.011729549177036584
14.696,-0.011730438677124819
14.700000000000001,-0.011733347582818776
14.704,-0.011730005947352164
14.708,-0.011729909785180462
14.712,-0.011730799285268698
14.716000000000001,-0.011734910218108918
14.72,-0.01173748255620192
14.724,-0.011733203339561224
14.728,-0.011729837663551687
14.732000000000001,-0.011729909785180462
14.736,-0.011729236649978556
14.74,-0.011729428974321957
14.744,-0.011730919487983323
14.748000000000001,-0.011729741501379986
14.752,-0.011733347582818776
14.756,-0.011736617096656611
14.76,-0.011734381326164561
14.764000000000001,-0.011733996677477758
14.768,-0.011732289798930063
14.772,-0.011732842731417345
14.776,-0.011733636069333878
14.780000000000001,-0.011732097474586662
14.784,-0.011731857069157409
14.788,-0.011732578285445166
14.792,-0.011729837663551687
14.796000000000001,-0.011726520068628
14.8,-0.011733491826076326
14.804,-0.011733563947705103
14.808,-0.011732482123273465
14.812000000000001,-0.011731207974498427
14.816,-0.011730294433867267
14.82,-0.011733035055760746
14.824,-0.011736184366883956
14.828000000000001,-0.01173606416416933
14.832,-0.011735655474939601
14.836,-0.011734261123449935
14.84,-0.011731280096127202
14.844000000000001,-0.01173382839367728
14.848,-0.011735078501909394
14.852,-0.011732097474586662
14.856,-0.011732578285445166
14.86,-0.011732722528702718
14.864,-0.011734429407250412
14.868,-0.011733636069333878
14.872,-0.01173236192055884
14.876,-0.011734765974851366
14.88,-0.011734525569422113
14.884,-0.011728948163463452
14.888,-0.011732674447616867
14.892,-0.011731472420470604
14.896,-0.011731304136670128
14.9,-0.011734044758563609
14.904,-0.01173529486679572
14.908,-0.011735679515482525
14.912,-0.011734549609965039
14.916,-0.011732169596215437
14.92,-0.01173332354227585
14.924,-0.011735919920911778
14.928,-0.01173601608308348
14.932,-0.011737049826429266
14.936,-0.011734381326164561
14.94,-0.011734573650507963
14.944,-0.01173601608308348
14.948,-0.011734357285621637
14.952,-0.011733636069333878
14.956,-0.011734116880192384
14.96,-0.011733515866619252
14.964,-0.011733251420647075
14.968,-0.011735006380280619
14.972,-0.011734164961278234
14.976,-0.011735415069510348
14.98,-0.011738083569775052
14.984,-0.011736737299371237
14.988,-0.011732746569245644
14.992,-0.011732049393500811
14.996,-0.011733107177389523
15.0,-0.011731929190786184
15.004,-0.011733395663904626
15.008000000000001,-0.011734261123449935
15.012,-0.011735727596568376
15.016,-0.011732890812503194
15.02,-0.011733251420647075
15.024000000000001,-0.011742651272930851
15.028,-0.011739814488865671
15.032,-0.011736761339914163
15.036,-0.011736088204712255
15.040000000000001,-0.011736328610141507
15.044,-0.011738299934661378
15.048,-0.011736352650684434
15.052,-0.01173341970444755
15.056000000000001,-0.011735246785709872
15.06,-0.011734405366707487
15.064,-0.011730029987895088
15.068,-0.011733636069333878
15.072000000000001,-0.011735535272224974
15.076,-0.011733636069333878
15.08,-0.011733972636934832
15.084,-0.011734501528879188
15.088000000000001,-0.011734910218108918
15.092,-0.011737097907515115
15.096,-0.011735487191139123
15.1,-0.011737698921088247
15.104000000000001,-0.011740054894294924
15.108,-0.011737698921088247
15.112,-0.011737458515658996
15.116,-0.011735222745166946
15.120000000000001,-0.011737771042717024
15.124,-0.011737362353487294
15.128,-0.011739141353663763
15.132,-0.011737001745343416
15.136000000000001,-0.011738540340090631
15.14,-0.011736184366883956
15.144,-0.011736424772313209
15.148,-0.011736881542628788
15.152000000000001,-0.011737578718373621
15.156,-0.011738924988777436
15.16,-0.011738876907691586
15.164,-0.011737602758916547
15.168000000000001,-0.011737097907515115
15.172,-0.011736304569598583
15.176,-0.011735679515482525
15.18,-0.011736304569598583
15.184000000000001,-0.011735366988424497
15.188,-0.011737001745343416
15.192,-0.011735968001997629
15.196,-0.011733804353134356
15.200000000000001,-0.011733660109876804
15.204,-0.011732746569245644
15.208,-0.011735174664081095
15.212,-0.011737650840002398
15.216000000000001,-0.011740415502438803
15.22,-0.011738203772489679
15.224,-0.011737578718373621
15.228,-0.011738636502262333
15.232000000000001,-0.01173870862389111
15.236,-0.011736641137199536
15.24,-0.011731352217755979
15.244,-0.011727409568716235
15.248000000000001,-0.011739886610494446
15.252,-0.011743588854104937
15.256,-0.011737266191315593
15.26,-0.011736040123626404
15.264000000000001,-0.011734453447793338
15.268,-0.011736833461542938
15.272,-0.011738179731946753
15.276,-0.011737650840002398
15.280000000000001,-0.011738059529232127
15.284,-0.011734862137023067
15.288,-0.011734092839649457
15.292,-0.01173510254245232
15.296000000000001,-0.01173601608308348
15.3,-0.011736208407426882
15.304,-0.011735895880368852
15.308,-0.011737242150772667
15.312000000000001,-0.011740487624067578
15.316,-0.011741016516011935
15.32,-0.011741353083612887
15.324,-0.011741064597097785
15.328000000000001,-0.011740054894294924
15.332,-0.011740391461895877
15.336,-0.011740247218638325
15.34,-0.01174205025935772
15.344000000000001,-0.011744310070392694
15.348,-0.011743228245961058
15.352,-0.011740463583524654
15.356,-0.01173825185357553
15.36,-0.011739381759093016
15.364,-0.011738323975204305
15.368,-0.011739333678007165
15.372,-0.011738011448146277
15.376,-0.011735439110053272
15.38,-0.01173505446136647
15.384,-0.011743516732476162
15.388,-0.011743757137905413
15.392,-0.01174209834044357
15.396,-0.011741425205241664
15.4,-0.011740367421352952
15.404,-0.011739598123979343
15.408,-0.011740295299724176
15.412,-0.011743396529761535
15.416,-0.01174342057030446
15.42,-0.011740992475469008
15.424,-0.011737819123802874
15.428,-0.011740896313297307
15.432,-0.011741160759269486
15.436,-0.011741857935014319
15.44,-0.011739405799635942
15.444,-0.011735919920911778
15.448,-0.011738299934661378
15.452,-0.01173875670497696
15.456,-0.01173926155637839
15.46,-0.011740607826782205
15.464,-0.011737915285974575
15.468,-0.011740006813209074
15.472,-0.011742987840531805
15.476,-0.011740535705153429
15.48,-0.011739405799635942
15.484,-0.011738468218461856
15.488,-0.011735919920911778
15.492,-0.011730558879839445
15.496,-0.011741064597097785
15.5,-0.011741689651213841
15.504,-0.011740487624067578
15.508000000000001,-0.011736208407426882
15.512,-0.011733395663904626
15.516,-0.011737650840002398
15.52,-0.01174108863764071
15.524000000000001,-0.011743276327046909
15.528,-0.011743180164875208
15.532,-0.01174255511075915
15.536,-0.011743636935190788
15.540000000000001,-0.011744141786592218
15.544,-0.011741329043069963
15.548,-0.011739622164522269
15.552,-0.01173849225900478
15.556000000000001,-0.011738203772489679
15.56,-0.011743204205418132
15.564,-0.01174428602984977
15.568,-0.01174616119219794
15.572000000000001,-0.011744478354193172
15.576,-0.011742531070216226
15.58,-0.011740463583524654
15.584,-0.011742146421529421
15.588000000000001,-0.01174433411093562
15.592,-0.011741208840355337
15.596,-0.011742434908044524
15.6,-0.011742699354016702
15.604000000000001,-0.011737001745343416
15.608,-0.011744021583877592
15.612,-0.011743973502791742
15.616,-0.011740295299724176
15.620000000000001,-0.011741305002527036
15.624,-0.011740703988953905
15.628,-0.011741906016100168
15.632,-0.011739742367236895
15.636000000000001,-0.01174108863764071
15.64,-0.011741329043069963
15.644,-0.01173844417791893
15.648,-0.011738732664434034
15.652000000000001,-0.011741881975557244
15.656,-0.011743252286503983
15.66,-0.011744694719079499
15.664,-0.011742338745872823
15.668000000000001,-0.011741857935014319
15.672,-0.011740896313297307
15.676,-0.011743588854104937
15.68,-0.011747002611200324
15.684000000000001,-0.011746040989483314
15.688,-0.01174616119219794
15.692,-0.011744622597450724
15.696,-0.011743492691933236
15.700000000000001,-0.011742531070216226
15.704,-0.011741305002527036
15.708,-0.011742771475645479
15.712,-0.011745271692109706
15.716000000000001,-0.011744165827135144
15.72,-0.011743492691933236
15.724,-0.011742579151302076
15.728,-0.011744935124508752
15.732000000000001,-0.011745776543511137
15.736,-0.011740728029496831
15.74,-0.01173967024560812
15.744,-0.011747170895000802
15.748000000000001,-0.011747555543687605
15.752,-0.011746858367942772
15.756,-0.011744406232564395
15.76,-0.011741016516011935
15.764000000000001,-0.011744430273107322
15.768,-0.011748252719432438
15.772,-0.01174743534097298
15.776,-0.011745439975910182
15.780000000000001,-0.011743300367589833
15.784,-0.01174378117844834
15.788,-0.011743468651390311
15.792,-0.0117425070296733
15.796000000000001,-0.01174236278641575
15.8,-0.011744310070392694
15.804,-0.011743564813562013
15.808,-0.011744814921794126
15.812000000000001,-0.011746401597627193
15.816,-0.011745896746225762
15.82,-0.011744526435279023
15.824,-0.011746329475998418
15.828000000000001,-0.011747627665316382
15.832,-0.01174671412468522
15.836,-0.011744694719079499
15.84,-0.011743516732476162
15.844000000000001,-0.01174652180034182
15.848,-0.011744358151478545
15.852,-0.011740415502438803
15.856,-0.01174529573265263
15.860000000000001,-0.011744670678536575
15.864,-0.011745512097538957
15.868,-0.011744959165051676
15.872,-0.01174474280016535
15.876,-0.011744718759622425
15.88,-0.011742531070216226
15.884,-0.01174286763781718
15.888,-0.011743444610847385
15.892,-0.011745584219167734
15.896,-0.01174693048957155
15.9,-0.011750488489924488
15.904,-0.01174839696268999
15.908,-0.011748132516717812
15.912,-0.011747675746402233
15.916,-0.0117469785706574
15.92,-0.011747771908573934
15.924,-0.011747747868031008
15.928,-0.011748060395089036
15.932,-0.011747122813914952
15.936,-0.011746593921970595
15.94,-0.011744887043422901
15.944,-0.011743709056819563
15.948,-0.011744935124508752
15.952,-0.01174159348904214
15.956,-0.0117425070296733
15.96,-0.011743252286503983
15.964,-0.01174205025935772
15.968,-0.011748973935720197
15.972,-0.011748084435631962
15.976,-0.011745488056996033
15.98,-0.011746593921970595
15.984,-0.011745055327223378
15.988,-0.011741737732299692
15.992,-0.011742579151302076
15.996,-0.01174753150314468
16.0,-0.011749238381692374
16.004,-0.011748973935720197
16.008,-0.011748733530290944
16.012,-0.011746738165228147
16.016000000000002,-0.011745512097538957
16.02,-0.011747459381515904
16.024,-0.011749743233093805
16.028,-0.011746353516541342
16.032,-0.01174601694894039
16.036,-0.011747844030202709
16.04,-0.01174986343580843
16.044,-0.011751979003585855
16.048000000000002,-0.011750897179154217
16.052,-0.011749238381692374
16.056,-0.011747194935543727
16.06,-0.011745560178624808
16.064,-0.01174671412468522
16.068,-0.01175012788178061
16.072,-0.011751570314356124
16.076,-0.011752075165757556
16.080000000000002,-0.011749262422235299
16.084,-0.0117469785706574
16.088,-0.011746593921970595
16.092,-0.011746642003056446
16.096,-0.011744454313650246
16.1,-0.011745776543511137
16.104,-0.011749526868207478
16.108,-0.011748589287033392
16.112000000000002,-0.01175063273318204
16.116,-0.011750416368295711
16.12,-0.011744983205594603
16.124,-0.011752195368472182
16.128,-0.011750752935896665
16.132,-0.011748661408662167
