time,channel4
0.0,1.831648965475833E-4
0.004,1.8032811248240222E-4
0.008,1.7515939575347056E-4
0.012,1.767941526723885E-4
0.016,1.7477474706666633E-4
0.02,1.6729813821690938E-4
0.024,1.666730841008525E-4
0.028,1.7186584137270945E-4
0.032,1.7316403069067367E-4
0.036000000000000004,1.7237069277413998E-4
0.04,1.6914926002215464E-4
0.044,1.6751450310323673E-4
0.048,1.70639773683521E-4
0.052000000000000005,1.714811926859052E-4
0.056,1.729476658043463E-4
0.06,1.7602485529878004E-4
0.064,1.7640950398558426E-4
0.068,1.7717880135919268E-4
0.07200000000000001,1.757123282407516E-4
0.076,1.7823658524790428E-4
0.08,1.7780385547524954E-4
0.084,1.7520747683932107E-4
0.088,1.7640950398558426E-4
0.092,1.7484686869544212E-4
0.096,1.7145715214297993E-4
0.1,1.7112058454202625E-4
0.10400000000000001,1.7472666598081582E-4
0.108,1.7426989566523578E-4
0.112,1.700387601103894E-4
0.116,1.722264495165884E-4
0.12,1.7953477456586852E-4
0.124,1.7845295013423166E-4
0.128,1.757123282407516E-4
0.132,1.7407757132183367E-4
0.136,1.7342847666285157E-4
0.14,1.7648162561436005E-4
0.14400000000000002,1.7580849041245265E-4
0.148,1.7511131466762002E-4
0.152,1.7840486904838112E-4
0.156,1.8506409943867914E-4
0.16,1.8679501852929812E-4
0.164,1.7352463883455263E-4
0.168,1.6619227324234722E-4
0.17200000000000001,1.709523007415494E-4
0.176,1.7455838218033892E-4
0.18,1.7621717964218218E-4
0.184,1.740535307789084E-4
0.188,1.714331116000547E-4
0.192,1.7583253095537792E-4
0.196,1.7508727412469477E-4
0.2,1.7515939575347056E-4
0.20400000000000001,1.775634500459969E-4
0.20800000000000002,1.7583253095537792E-4
0.212,1.7301978743312208E-4
0.216,1.6797127341881674E-4
0.22,1.6715389495935778E-4
0.224,1.639084216644472E-4
0.228,1.6518257043948614E-4
0.232,1.6631247595697354E-4
0.23600000000000002,1.720822062590368E-4
0.24,1.721543278878126E-4
0.244,1.7155331431468101E-4
0.248,1.6624035432819776E-4
0.252,1.6782703016126515E-4
0.256,1.7174563865808313E-4
0.26,1.6763470581786306E-4
0.264,1.635718540634935E-4
0.268,1.634997324347177E-4
0.272,1.633074080913156E-4
0.276,1.6220154311675345E-4
0.28,1.6261023234648297E-4
0.28400000000000003,1.6515852989656087E-4
0.28800000000000003,1.647498406668314E-4
0.292,1.6782703016126515E-4
0.296,1.6910117893630412E-4
0.3,1.6619227324234722E-4
0.304,1.652787326111872E-4
0.308,1.6547105695458933E-4
0.312,1.6388438112152192E-4
0.316,1.658316650984683E-4
0.32,1.6886077350705147E-4
0.324,1.7059169259767045E-4
0.328,1.7164947648638207E-4
0.332,1.6578358401261775E-4
0.336,1.6121588085681767E-4
0.34,1.605908267407608E-4
0.34400000000000003,1.6273043506110927E-4
0.34800000000000003,1.6698561115888094E-4
0.352,1.68908854592902E-4
0.356,1.6847612482024727E-4
0.36,1.6643267867159984E-4
0.364,1.6741834093153568E-4
0.368,1.679231923329662E-4
0.372,1.69822395224062E-4
0.376,1.6674520572962828E-4
0.38,1.6446135415172823E-4
0.384,1.6645671921452511E-4
0.388,1.6801935450466726E-4
0.392,1.6960603033773465E-4
0.396,1.7277938200386945E-4
0.4,1.6979835468113676E-4
0.404,1.6085527271293872E-4
0.40800000000000003,1.6270639451818403E-4
0.41200000000000003,1.6710581387350726E-4
0.41600000000000004,1.6208134040212715E-4
0.42,1.608071916270882E-4
0.424,1.662163137852725E-4
0.428,1.7054361151181994E-4
0.432,1.6628843541404827E-4
0.436,1.6102355651341556E-4
0.44,1.6099951597049029E-4
0.444,1.5717706964537336E-4
0.448,1.5585483978448387E-4
0.452,1.578982859331313E-4
0.456,1.6104759705634083E-4
0.46,1.6215346203090293E-4
0.464,1.584271778774871E-4
0.468,1.6015809696810605E-4
0.47200000000000003,1.6277851614695981E-4
0.47600000000000003,1.613841646572945E-4
0.48,1.6039850239735868E-4
0.484,1.594609212232734E-4
0.488,1.6116779977096713E-4
0.492,1.6318720537668928E-4
0.496,1.6378821894982086E-4
0.5,1.6018213751103132E-4
0.504,1.5996577262470394E-4
0.508,1.6345165134886718E-4
0.512,1.6256215126063243E-4
0.516,1.6102355651341556E-4
0.52,1.602542591398071E-4
0.524,1.6128800248559346E-4
0.528,1.5960516448082498E-4
0.532,1.5936475905157236E-4
0.536,1.6200921877335136E-4
0.54,1.6482196229560718E-4
0.544,1.6597590835601986E-4
0.548,1.6662500301500196E-4
0.552,1.6515852989656087E-4
0.556,1.6309104320498823E-4
0.56,1.6585570564139353E-4
0.5640000000000001,1.67081773330582E-4
0.5680000000000001,1.634276108059419E-4
0.5720000000000001,1.6234578637430507E-4
0.5760000000000001,1.6090335379878923E-4
0.58,1.611197186851166E-4
0.584,1.6246598908893137E-4
0.588,1.6116779977096713E-4
0.592,1.5801848864775762E-4
0.596,1.5905223199354394E-4
0.6,1.6160052954362187E-4
0.604,1.6131204302851873E-4
0.608,1.5684050204441968E-4
0.612,1.5441240720896805E-4
0.616,1.5773000213265445E-4
0.62,1.6174477280117347E-4
0.624,1.6297084049036193E-4
0.628,1.634997324347177E-4
0.632,1.6655288138622617E-4
0.636,1.6946178708018305E-4
0.64,1.673462193027599E-4
0.644,1.614562862860703E-4
0.648,1.613841646572945E-4
0.652,1.6123992139974294E-4
0.656,1.6116779977096713E-4
0.66,1.6157648900069662E-4
0.664,1.6306700266206296E-4
0.668,1.5984556991007764E-4
0.672,1.5662413715809232E-4
0.676,1.5681646150149443E-4
0.68,1.5996577262470394E-4
0.684,1.6023021859688184E-4
0.6880000000000001,1.564318128146902E-4
0.6920000000000001,1.586195022208892E-4
0.6960000000000001,1.621053809450524E-4
0.7000000000000001,1.6648075975745039E-4
0.704,1.650623677248598E-4
0.708,1.6018213751103132E-4
0.712,1.5736939398877547E-4
0.716,1.5611928575666177E-4
0.72,1.5732131290292496E-4
0.724,1.603263807685829E-4
0.728,1.6152840791484608E-4
0.732,1.6306700266206296E-4
0.736,1.6354781352056824E-4
0.74,1.5881182656429132E-4
0.744,1.5919647525109552E-4
0.748,1.5955708339497447E-4
0.752,1.5628756955713864E-4
0.756,1.4960429862391535E-4
0.76,1.528016908329754E-4
0.764,1.5681646150149443E-4
0.768,1.6049466456905973E-4
0.772,1.623938674601556E-4
0.776,1.5934071850864709E-4
0.78,1.5825889407701025E-4
0.784,1.634997324347177E-4
0.788,1.6852420590609778E-4
0.792,1.6775490853248936E-4
0.796,1.6763470581786306E-4
0.8,1.5241704214617117E-4
0.804,1.2491466103966962E-4
0.808,9.827773947847756E-5
0.812,7.575175075750557E-5
0.8160000000000001,6.082257360091689E-5
0.8200000000000001,6.825110136482335E-5
0.8240000000000001,8.818071144986687E-5
0.8280000000000001,1.1032205148403464E-4
0.8320000000000001,1.386658515929204E-4
0.836,1.6049466456905973E-4
0.84,1.658316650984683E-4
0.844,1.6876461133535044E-4
0.848,1.6799531396174201E-4
0.852,1.6739430038861043E-4
0.856,1.689809762216778E-4
0.86,1.712888683425031E-4
0.864,1.7496707141006844E-4
0.868,1.7520747683932107E-4
0.872,1.7213028734488735E-4
0.876,1.6441327306587772E-4
0.88,1.6782703016126515E-4
0.884,1.7434201729401157E-4
0.888,1.7188988191563473E-4
0.892,1.7306786851897262E-4
0.896,1.7443817946571262E-4
0.9,1.7027916553964204E-4
0.904,1.6811551667636831E-4
0.908,1.7025512499671677E-4
0.912,1.6965411142358516E-4
0.916,1.6847612482024727E-4
0.92,1.6852420590609778E-4
0.924,1.7150523322883047E-4
0.928,1.7566424715490108E-4
0.932,1.737890848067305E-4
0.936,1.7263513874631788E-4
0.9400000000000001,1.737169631779547E-4
0.9440000000000001,1.744622200086379E-4
0.9480000000000001,1.7489494978129266E-4
0.9520000000000001,1.742458551223105E-4
0.9560000000000001,1.7376504426380525E-4
0.96,1.694377465372578E-4
0.964,1.6869248970657462E-4
0.968,1.7162543594345683E-4
0.972,1.724187738599905E-4
0.976,1.7390928752135683E-4
0.98,1.7364484154917893E-4
0.984,1.7335635503407576E-4
0.988,1.7051957096889467E-4
0.992,1.659518678130946E-4
0.996,1.6619227324234722E-4
1.0,1.6886077350705147E-4
1.004,1.7184180082978418E-4
1.008,1.7112058454202625E-4
1.012,1.7434201729401157E-4
1.016,1.747987876095916E-4
1.02,1.7689031484408954E-4
1.024,1.7612101747048107E-4
1.028,1.7739516624552007E-4
1.032,1.7523151738224634E-4
1.036,1.7323615231944946E-4
1.04,1.7304382797604735E-4
1.044,1.7330827394822524E-4
1.048,1.7184180082978418E-4
1.052,1.7155331431468101E-4
1.056,1.7066381422644626E-4
1.06,1.6984643576698727E-4
1.064,1.7035128716841783E-4
1.068,1.7191392245855997E-4
1.072,1.7131290888542836E-4
1.076,1.7414969295060945E-4
1.08,1.7463050380911476E-4
1.084,1.7237069277413998E-4
1.088,1.6797127341881674E-4
1.092,1.6352377297764297E-4
1.096,1.6200921877335136E-4
1.1,1.650623677248598E-4
1.104,1.6352377297764297E-4
1.108,1.669615706159557E-4
1.112,1.7198604408733575E-4
1.116,1.7225049005951365E-4
1.12,1.6857228699194832E-4
1.124,1.6607207052772092E-4
1.1280000000000001,1.6090335379878923E-4
1.1320000000000001,1.6155244845777135E-4
1.1360000000000001,1.64437313608803E-4
1.1400000000000001,1.6547105695458933E-4
1.1440000000000001,1.6496620555315876E-4
1.1480000000000001,1.6530277315411244E-4
1.1520000000000001,1.683799626485462E-4
1.156,1.7027916553964204E-4
1.16,1.7119270617080203E-4
1.164,1.7330827394822524E-4
1.168,1.7078401694107256E-4
1.172,1.6470175958098086E-4
1.176,1.6085527271293872E-4
1.18,1.6515852989656087E-4
1.184,1.6739430038861043E-4
1.188,1.6850016536317254E-4
1.192,1.7032724662549258E-4
1.196,1.6922138165093042E-4
1.2,1.6907713839337885E-4
1.204,1.697743141382115E-4
1.208,1.6854824644902305E-4
1.212,1.6580762455554302E-4
1.216,1.651344893536356E-4
1.22,1.6876461133535044E-4
1.224,1.7484686869544212E-4
1.228,1.7075997639814732E-4
1.232,1.6085527271293872E-4
1.236,1.58691623849665E-4
1.24,1.6602398944187037E-4
1.244,1.67081773330582E-4
1.248,1.6895693567875252E-4
1.252,1.7025512499671677E-4
1.256,1.67081773330582E-4
1.26,1.6289871886158611E-4
1.264,1.634276108059419E-4
1.268,1.6662500301500196E-4
1.272,1.6883673296412622E-4
1.276,1.6907713839337885E-4
1.28,1.6809147613344304E-4
1.284,1.6609611107064616E-4
1.288,1.649421650102335E-4
1.292,1.6703369224473148E-4
1.296,1.706878547693715E-4
1.3,1.7167351702930734E-4
1.304,1.6739430038861043E-4
1.308,1.6328336754839034E-4
1.312,1.6854824644902305E-4
1.316,1.7441413892278735E-4
1.32,1.7347655774870209E-4
1.324,1.6910117893630412E-4
1.328,1.6645671921452511E-4
1.332,1.6876461133535044E-4
1.336,1.701108817391652E-4
1.34,1.6729813821690938E-4
1.344,1.6571146238384196E-4
1.348,1.640286243790735E-4
1.352,1.647498406668314E-4
1.356,1.683799626485462E-4
1.36,1.7167351702930734E-4
1.364,1.7338039557700103E-4
1.368,1.6636055704282406E-4
1.372,1.6720197604520832E-4
1.3760000000000001,1.709523007415494E-4
1.3800000000000001,1.7172159811515788E-4
1.3840000000000001,1.6698561115888094E-4
1.3880000000000001,1.6662500301500196E-4
1.3920000000000001,1.6825975993391989E-4
1.3960000000000001,1.6842804373439673E-4
1.4000000000000001,1.6645671921452511E-4
1.4040000000000001,1.6703369224473148E-4
1.408,1.667932868154788E-4
1.412,1.6650480030037566E-4
1.416,1.6751450310323673E-4
1.42,1.654229758687388E-4
1.424,1.611197186851166E-4
1.428,1.6215346203090293E-4
1.432,1.6491812446730824E-4
1.436,1.704234087971936E-4
1.44,1.7100038182739995E-4
1.444,1.6869248970657462E-4
1.448,1.6366801623519454E-4
1.452,1.622977052884545E-4
1.456,1.678751112471157E-4
1.46,1.6799531396174201E-4
1.464,1.6597590835601986E-4
1.468,1.6398054329322298E-4
1.472,1.6643267867159984E-4
1.476,1.6703369224473148E-4
1.48,1.6987047630991254E-4
1.484,1.6953390870895886E-4
1.488,1.6946178708018305E-4
1.492,1.692935032797062E-4
1.496,1.6828380047684516E-4
1.5,1.6866844916364938E-4
1.504,1.687165302494999E-4
1.508,1.695098681660336E-4
1.512,1.7463050380911476E-4
1.516,1.739814091501326E-4
1.52,1.6746642201738622E-4
1.524,1.599898131676292E-4
1.528,1.636439756922693E-4
1.532,1.7027916553964204E-4
1.536,1.666730841008525E-4
1.54,1.6301892157621244E-4
1.544,1.6371609732104508E-4
1.548,1.666009624720767E-4
1.552,1.654229758687388E-4
1.556,1.6477388120975667E-4
1.56,1.681876383051441E-4
1.564,1.6852420590609778E-4
1.568,1.6850016536317254E-4
1.572,1.7306786851897262E-4
1.576,1.7347655774870209E-4
1.58,1.739333280642821E-4
1.584,1.714811926859052E-4
1.588,1.686444086207241E-4
1.592,1.7047148988304415E-4
1.596,1.678751112471157E-4
1.6,1.7059169259767045E-4
1.604,1.7186584137270945E-4
1.608,1.6931754382263148E-4
1.612,1.6883673296412622E-4
1.616,1.6975027359528622E-4
1.62,1.7484686869544212E-4
1.624,1.7027916553964204E-4
1.6280000000000001,1.6325932700546507E-4
1.6320000000000001,1.6489408392438297E-4
1.6360000000000001,1.7027916553964204E-4
1.6400000000000001,1.730919090618979E-4
1.6440000000000001,1.7761153113184742E-4
1.6480000000000001,1.751834362963958E-4
1.6520000000000001,1.5751363724632707E-4
1.6560000000000001,1.326557158616045E-4
1.6600000000000001,1.081584026207609E-4
1.6640000000000001,8.618534638706999E-5
1.668,7.830004830758353E-5
1.672,8.671423833142579E-5
1.676,1.02148266889445E-4
1.68,1.1974594431073796E-4
1.684,1.4808974441962372E-4
1.688,1.714811926859052E-4
1.692,1.7910204479321376E-4
1.696,1.8374186957778962E-4
1.7,1.845592480372486E-4
1.704,1.7648162561436005E-4
1.708,1.717696792010084E-4
1.712,1.7499111195299372E-4
1.716,1.785491123059327E-4
1.72,1.7984730162389696E-4
1.724,1.814820585428149E-4
1.728,1.7833274741960533E-4
1.732,1.776355716747727E-4
1.736,1.7845295013423166E-4
1.74,1.737169631779547E-4
1.744,1.7616909855633163E-4
1.748,1.76842233758239E-4
1.752,1.7463050380911476E-4
1.756,1.7607293638463055E-4
1.76,1.7624122018510742E-4
1.764,1.7749132841722112E-4
1.768,1.7823658524790428E-4
1.772,1.7775577438939902E-4
1.776,1.7814042307620322E-4
1.78,1.7746728787429585E-4
1.784,1.7326019286237473E-4
1.788,1.730919090618979E-4
1.792,1.7818850416205376E-4
1.796,1.8006366651022432E-4
1.8,1.8169842342914225E-4
1.804,1.80400234111178E-4
1.808,1.8032811248240222E-4
1.812,1.842467209792202E-4
1.816,1.8633824821371814E-4
1.82,1.8124165311356224E-4
1.824,1.813378152852633E-4
1.828,1.810012476843096E-4
1.832,1.767941526723885E-4
1.836,1.786933555634843E-4
1.84,1.8273216677492857E-4
1.844,1.872037077590276E-4
1.848,1.851602616103802E-4
1.852,1.7792405818987586E-4
1.856,1.7802022036157692E-4
1.86,1.7660182832898637E-4
1.864,1.779000176469506E-4
1.868,1.797511394521959E-4
1.872,1.7907800425028848E-4
1.8760000000000001,1.7898184207858743E-4
1.8800000000000001,1.8169842342914225E-4
1.8840000000000001,1.8025599085362643E-4
1.8880000000000001,1.793424502224664E-4
1.8920000000000001,1.8393419392119176E-4
1.8960000000000001,1.784769906771569E-4
1.9000000000000001,1.7568828769782635E-4
1.9040000000000001,1.7931840967954117E-4
1.9080000000000001,1.7775577438939902E-4
1.9120000000000001,1.7407757132183367E-4
1.9160000000000001,1.7484686869544212E-4
1.92,1.7638546344265902E-4
1.924,1.7364484154917893E-4
1.928,1.7578444986952738E-4
1.932,1.8076084225505696E-4
1.936,1.837659101207149E-4
1.94,1.7806830144742743E-4
1.944,1.7059169259767045E-4
1.948,1.7328423340529997E-4
1.952,1.7607293638463055E-4
1.956,1.7489494978129266E-4
1.96,1.732121117765242E-4
1.964,1.7342847666285157E-4
1.968,1.756402066119758E-4
1.972,1.7402949023598315E-4
1.976,1.721543278878126E-4
1.98,1.701108817391652E-4
1.984,1.709523007415494E-4
1.988,1.721543278878126E-4
1.992,1.7001471956746414E-4
1.996,1.7172159811515788E-4
2.0,1.7342847666285157E-4
2.004,1.7251493603169155E-4
2.008,1.7167351702930734E-4
2.012,1.7066381422644626E-4
2.016,1.7131290888542836E-4
2.02,1.709523007415494E-4
2.024,1.6801935450466726E-4
2.028,1.6756258418908727E-4
2.032,1.721543278878126E-4
2.036,1.7174563865808313E-4
2.04,1.7054361151181994E-4
2.044,1.6984643576698727E-4
2.048,1.717696792010084E-4
2.052,1.740535307789084E-4
2.056,1.7660182832898637E-4
2.06,1.7650566615728532E-4
2.064,1.7785193656110008E-4
2.068,1.7888567990688637E-4
2.072,1.7744324733137058E-4
2.076,1.7395736860720734E-4
2.08,1.7352463883455263E-4
2.084,1.7777981493232427E-4
2.088,1.790058826215127E-4
2.092,1.81217612570637E-4
2.096,1.801357881390001E-4
2.1,1.7299574689019683E-4
2.104,1.68908854592902E-4
2.108,1.6636055704282406E-4
2.112,1.6710581387350726E-4
2.116,1.6975027359528622E-4
2.12,1.7475070652374106E-4
2.124,1.755921255261253E-4
2.128,1.7417373349353472E-4
2.132,1.7145715214297993E-4
2.136,1.7251493603169155E-4
2.14,1.7463050380911476E-4
2.144,1.7607293638463055E-4
2.148,1.7720284190211796E-4
2.152,1.7681819321531376E-4
2.156,1.7155331431468101E-4
2.16,1.7167351702930734E-4
2.164,1.764575850714348E-4
2.168,1.7655374724313586E-4
2.172,1.726110982033926E-4
2.176,1.720822062590368E-4
2.18,1.704234087971936E-4
2.184,1.6975027359528622E-4
2.188,1.7270726037509366E-4
2.192,1.7751536896014637E-4
2.196,1.7578444986952738E-4
2.2,1.711686656278768E-4
2.204,1.6967815196651043E-4
2.208,1.7051957096889467E-4
2.212,1.7323615231944946E-4
2.216,1.748709092383674E-4
2.22,1.7097634128447468E-4
2.224,1.738612064355063E-4
2.228,1.7376504426380525E-4
2.232,1.7554404444027476E-4
2.236,1.7770769330354848E-4
2.24,1.7895780153566218E-4
2.244,1.735967604633284E-4
2.248,1.7217836843073787E-4
2.2520000000000002,1.735967604633284E-4
2.2560000000000002,1.7576040932660214E-4
2.2600000000000002,1.7441413892278735E-4
2.2640000000000002,1.7035128716841783E-4
2.2680000000000002,1.6681732735840407E-4
2.2720000000000002,1.6066294836953658E-4
2.2760000000000002,1.613841646572945E-4
2.2800000000000002,1.6850016536317254E-4
2.2840000000000003,1.6926946273678096E-4
2.2880000000000003,1.6607207052772092E-4
2.2920000000000003,1.6491812446730824E-4
2.2960000000000003,1.6821167884806937E-4
2.3000000000000003,1.6741834093153568E-4
2.3040000000000003,1.7035128716841783E-4
2.308,1.7470262543789055E-4
2.312,1.7407757132183367E-4
2.316,1.7732304461674428E-4
2.32,1.7588061204122844E-4
2.324,1.7419777403646E-4
2.328,1.742458551223105E-4
2.332,1.7465454435204003E-4
2.336,1.654229758687388E-4
2.34,1.6280255668988508E-4
2.344,1.6393246220737243E-4
2.348,1.5996577262470394E-4
2.352,1.5970132665252604E-4
2.356,1.6325932700546507E-4
2.36,1.6676924627255355E-4
2.364,1.6910117893630412E-4
2.368,1.690290573075283E-4
2.372,1.6162457008654714E-4
2.376,1.608071916270882E-4
2.38,1.6566338129799142E-4
2.384,1.6518257043948614E-4
2.388,1.6763470581786306E-4
2.392,1.7155331431468101E-4
2.396,1.6922138165093042E-4
2.4,1.704234087971936E-4
2.404,1.71096543999101E-4
2.408,1.6931754382263148E-4
2.412,1.6722601658813356E-4
2.416,1.6525469206826192E-4
2.42,1.658797461843188E-4
2.424,1.6763470581786306E-4
2.428,1.6886077350705147E-4
2.432,1.7244281440291577E-4
2.436,1.7316403069067367E-4
2.44,1.7496707141006844E-4
2.444,1.724908954887663E-4
2.448,1.6847612482024727E-4
2.452,1.647498406668314E-4
2.456,1.6438923252295245E-4
2.46,1.64437313608803E-4
2.464,1.7239473331706525E-4
2.468,1.7400544969305788E-4
2.472,1.6912521947922936E-4
2.476,1.7282746308972E-4
2.48,1.732121117765242E-4
2.484,1.7220240897366314E-4
2.488,1.714331116000547E-4
2.492,1.5912435362231973E-4
2.496,1.2924195876621707E-4
2.5,1.0296564534890397E-4
2.504,8.582473824319104E-5
2.508,7.676145356036667E-5
2.512,8.952698185368162E-5
2.516,1.0825456479246196E-4
2.52,1.2657345850151282E-4
2.524,1.5371523146413544E-4
2.528,1.719620035444105E-4
2.532,1.7383716589258104E-4
2.536,1.7097634128447468E-4
2.54,1.6994259793868833E-4
2.544,1.712888683425031E-4
2.548,1.7588061204122844E-4
2.552,1.7338039557700103E-4
2.556,1.7088017911277362E-4
2.56,1.7306786851897262E-4
2.564,1.7419777403646E-4
2.568,1.741256524076842E-4
2.572,1.7131290888542836E-4
2.576,1.7097634128447468E-4
2.58,1.7131290888542836E-4
2.584,1.7527959846809686E-4
2.588,1.7225049005951365E-4
2.592,1.6789915179004096E-4
2.596,1.7162543594345683E-4
2.6,1.7436605783693684E-4
2.604,1.7643354452850953E-4
2.608,1.7523151738224634E-4
2.612,1.757123282407516E-4
2.616,1.7513535521054529E-4
2.62,1.678751112471157E-4
2.624,1.6374013786397035E-4
2.628,1.7174563865808313E-4
2.632,1.739814091501326E-4
2.636,1.6758662473201252E-4
2.64,1.6268235397525876E-4
2.644,1.6712985441643254E-4
2.648,1.7244281440291577E-4
2.652,1.735967604633284E-4
2.656,1.720341251731863E-4
2.66,1.723466522312147E-4
2.664,1.7220240897366314E-4
2.668,1.7414969295060945E-4
2.672,1.7604889584170528E-4
2.676,1.7520747683932107E-4
2.68,1.773711257025948E-4
2.684,1.8162630180036646E-4
2.688,1.8189074777254436E-4
2.692,1.8015982868192537E-4
2.696,1.7965497728049485E-4
2.7,1.7898184207858743E-4
2.704,1.7227453060243892E-4
2.708,1.7297170634727156E-4
2.712,1.772509229879685E-4
2.716,1.7895780153566218E-4
2.72,1.797511394521959E-4
2.724,1.8177054505791803E-4
2.728,1.8366974794901383E-4
2.732,1.8573723464058656E-4
2.736,1.8169842342914225E-4
2.74,1.7527959846809686E-4
2.744,1.786212339347085E-4
2.748,1.8085700442675804E-4
2.7520000000000002,1.8032811248240222E-4
2.7560000000000002,1.725630171175421E-4
2.7600000000000002,1.7100038182739995E-4
2.7640000000000002,1.7578444986952738E-4
2.7680000000000002,1.6739430038861043E-4
2.7720000000000002,1.6205729985920188E-4
2.7760000000000002,1.656874218409167E-4
2.7800000000000002,1.6979835468113676E-4
2.7840000000000003,1.7080805748399784E-4
2.7880000000000003,1.676106652749378E-4
2.7920000000000003,1.658316650984683E-4
2.7960000000000003,1.6775490853248936E-4
2.8000000000000003,1.6866844916364938E-4
2.8040000000000003,1.666730841008525E-4
2.8080000000000003,1.6686540844425458E-4
2.8120000000000003,1.6991855739576306E-4
2.816,1.6657692192915144E-4
2.82,1.6585570564139353E-4
2.824,1.651344893536356E-4
2.828,1.6467771903805561E-4
2.832,1.6676924627255355E-4
2.836,1.7150523322883047E-4
2.84,1.7265917928924315E-4
2.844,1.6438923252295245E-4
2.848,1.5970132665252604E-4
2.852,1.616486106294724E-4
2.856,1.686444086207241E-4
2.86,1.7075997639814732E-4
2.864,1.6566338129799142E-4
2.868,1.648700433814577E-4
2.872,1.6325932700546507E-4
2.876,1.6575954346969248E-4
2.88,1.66264394871123E-4
2.884,1.6256215126063243E-4
2.888,1.6335548917716612E-4
2.892,1.6345165134886718E-4
2.896,1.6655288138622617E-4
2.9,1.6794723287589147E-4
2.904,1.6616823269942197E-4
2.908,1.6499024609608403E-4
2.912,1.6722601658813356E-4
2.916,1.7253897657461682E-4
2.92,1.701108817391652E-4
2.924,1.6825975993391989E-4
2.928,1.6965411142358516E-4
2.932,1.6830784101977043E-4
2.936,1.6789915179004096E-4
2.94,1.6914926002215464E-4
2.944,1.654229758687388E-4
2.948,1.6244194854600613E-4
2.952,1.6345165134886718E-4
2.956,1.6609611107064616E-4
2.96,1.676106652749378E-4
2.964,1.6535085423996298E-4
2.968,1.6157648900069662E-4
2.972,1.59148394165245E-4
2.976,1.6044658348320922E-4
2.98,1.625381107177072E-4
2.984,1.655672191262904E-4
2.988,1.633795297200914E-4
2.992,1.6261023234648297E-4
2.996,1.6386034057859665E-4
3.0,1.7039936825426837E-4
3.004,1.716975575722326E-4
3.008,1.6994259793868833E-4
3.012,1.661441921564967E-4
3.016,1.6078315108416293E-4
3.02,1.6075911054123763E-4
3.024,1.6234578637430507E-4
3.028,1.6313912429083877E-4
3.032,1.6333144863424085E-4
3.036,1.6359589460641875E-4
3.04,1.626583134323335E-4
3.044,1.625381107177072E-4
3.048,1.6388438112152192E-4
3.052,1.636920567781198E-4
3.056,1.649421650102335E-4
3.06,1.697021925094357E-4
3.064,1.6741834093153568E-4
3.068,1.666730841008525E-4
3.072,1.645575163234293E-4
3.076,1.6280255668988508E-4
3.08,1.6275447560403454E-4
3.084,1.6530277315411244E-4
3.088,1.6453347578050402E-4
3.092,1.6306700266206296E-4
3.096,1.6378821894982086E-4
3.1,1.5960516448082498E-4
3.104,1.6097547542756504E-4
3.108,1.6722601658813356E-4
3.112,1.6775490853248936E-4
3.116,1.6539893532581355E-4
3.12,1.6398054329322298E-4
3.124,1.6489408392438297E-4
3.128,1.6785107070419042E-4
3.132,1.6688944898717985E-4
3.136,1.6674520572962828E-4
3.14,1.6655288138622617E-4
3.144,1.6607207052772092E-4
3.148,1.6934158436555675E-4
3.152,1.7400544969305788E-4
3.156,1.700387601103894E-4
3.16,1.6770682744663885E-4
3.164,1.6636055704282406E-4
3.168,1.7326019286237473E-4
3.172,1.7612101747048107E-4
3.176,1.6847612482024727E-4
3.18,1.563116101000639E-4
3.184,1.6155244845777135E-4
3.188,1.6999067902453884E-4
3.192,1.6184093497287452E-4
3.196,1.5046975816922483E-4
3.2,1.502293527399722E-4
3.204,1.5734535344585023E-4
3.208,1.5982152936715237E-4
3.212,1.5934071850864709E-4
3.216,1.603263807685829E-4
3.22,1.586195022208892E-4
3.224,1.603744618544334E-4
3.228,1.6306700266206296E-4
3.232,1.6282659723281033E-4
3.236,1.616486106294724E-4
3.24,1.6261023234648297E-4
3.244,1.6208134040212715E-4
3.248,1.617688133440987E-4
3.2520000000000002,1.6186497551579977E-4
3.2560000000000002,1.5893202927891762E-4
3.2600000000000002,1.5746555616047653E-4
3.2640000000000002,1.6220154311675345E-4
3.2680000000000002,1.6484600283853246E-4
3.2720000000000002,1.642930703512514E-4
3.2760000000000002,1.6426902980832612E-4
3.2800000000000002,1.6325932700546507E-4
3.2840000000000003,1.6236982691723034E-4
3.2880000000000003,1.5744151561755126E-4
3.2920000000000003,1.5686454258734495E-4
3.2960000000000003,1.636920567781198E-4
3.3000000000000003,1.6039850239735868E-4
3.3040000000000003,1.5436432612311754E-4
3.3080000000000003,1.5965324556667553E-4
3.3120000000000003,1.6001385371055448E-4
3.3160000000000003,1.6251407017478192E-4
3.3200000000000003,1.7131290888542836E-4
3.3240000000000003,1.749189903242179E-4
3.3280000000000003,1.7323615231944946E-4
3.332,1.6662500301500196E-4
3.336,1.5345078549195755E-4
3.34,1.261888098147086E-4
3.344,1.0157129385923868E-4
3.348,8.474291381155416E-5
3.352,6.86117095087023E-5
3.356,7.257839909137079E-5
3.36,9.10655766008985E-5
3.364,1.0820648370661143E-4
3.368,1.3313652672010978E-4
3.372,1.5919647525109552E-4
3.376,1.6703369224473148E-4
3.38,1.6782703016126515E-4
3.384,1.687165302494999E-4
3.388,1.6912521947922936E-4
3.392,1.6729813821690938E-4
3.396,1.6386034057859665E-4
3.4,1.6241790800308086E-4
3.404,1.651344893536356E-4
3.408,1.6592782727016932E-4
3.412,1.6246598908893137E-4
3.416,1.6741834093153568E-4
3.42,1.7455838218033892E-4
3.424,1.6987047630991254E-4
3.428,1.6167265117239768E-4
3.432,1.6013405642518078E-4
3.436,1.6905309785045358E-4
3.44,1.691733005650799E-4
3.444,1.7080805748399784E-4
3.448,1.708320980269231E-4
3.452,1.680674355905178E-4
3.456,1.6922138165093042E-4
3.46,1.6823571939099464E-4
3.464,1.669615706159557E-4
3.468,1.6828380047684516E-4
3.472,1.6619227324234722E-4
3.476,1.71096543999101E-4
3.48,1.7792405818987586E-4
3.484,1.769143553870148E-4
3.488,1.687165302494999E-4
3.492,1.6866844916364938E-4
3.496,1.6655288138622617E-4
3.5,1.6597590835601986E-4
3.504,1.7008684119623993E-4
3.508,1.721543278878126E-4
3.512,1.710244223703252E-4
3.516,1.7482282815251687E-4
3.52,1.784289095913064E-4
3.524,1.7823658524790428E-4
3.528,1.7720284190211796E-4
3.532,1.7732304461674428E-4
3.536,1.7539980118272318E-4
3.54,1.7496707141006844E-4
3.544,1.749189903242179E-4
3.548,1.7439009837986208E-4
3.552,1.7797213927572638E-4
3.556,1.7823658524790428E-4
3.56,1.7732304461674428E-4
3.564,1.8177054505791803E-4
3.568,1.8237155863104961E-4
3.572,1.761931390992569E-4
3.576,1.6931754382263148E-4
3.58,1.6657692192915144E-4
3.584,1.6768278690371357E-4
3.588,1.6883673296412622E-4
3.592,1.6797127341881674E-4
3.596,1.6676924627255355E-4
3.6,1.6770682744663885E-4
3.604,1.687165302494999E-4
3.608,1.6619227324234722E-4
3.612,1.6650480030037566E-4
3.616,1.6410074600784928E-4
3.62,1.6184093497287452E-4
3.624,1.6544701641166406E-4
3.628,1.6393246220737243E-4
3.632,1.6066294836953658E-4
3.636,1.6085527271293872E-4
3.64,1.619130566016503E-4
3.644,1.616486106294724E-4
3.648,1.5811465081945868E-4
3.652,1.5684050204441968E-4
3.656,1.578982859331313E-4
3.66,1.60061934796405E-4
3.664,1.631150837479135E-4
3.668,1.590041509076934E-4
3.672,1.5222471780276909E-4
3.676,1.5458069100944492E-4
3.68,1.5717706964537336E-4
3.684,1.6030234022565762E-4
3.688,1.5876374547844078E-4
3.692,1.586195022208892E-4
3.696,1.6008597533933027E-4
3.7,1.5910031307939446E-4
3.704,1.640286243790735E-4
3.708,1.6643267867159984E-4
3.712,1.608071916270882E-4
3.716,1.572251507312239E-4
3.72,1.551095829538007E-4
3.724,1.56960704759046E-4
3.728,1.5515766403965123E-4
3.732,1.5383543417876174E-4
3.736,1.5732131290292496E-4
3.74,1.603263807685829E-4
3.744,1.58691623849665E-4
3.748,1.5970132665252604E-4
3.7520000000000002,1.5948496176619868E-4
3.7560000000000002,1.6008597533933027E-4
3.7600000000000002,1.6001385371055448E-4
3.7640000000000002,1.6374013786397035E-4
3.7680000000000002,1.621775025738282E-4
3.7720000000000002,1.6003789425347972E-4
3.7760000000000002,1.6116779977096713E-4
3.7800000000000002,1.6282659723281033E-4
3.7840000000000003,1.6393246220737243E-4
3.7880000000000003,1.6309104320498823E-4
3.7920000000000003,1.6097547542756504E-4
3.7960000000000003,1.5693666421612073E-4
3.8000000000000003,1.5621544792836285E-4
3.8040000000000003,1.580425291906829E-4
3.8080000000000003,1.6078315108416293E-4
3.8120000000000003,1.5943688068034814E-4
3.8160000000000003,1.622977052884545E-4
3.8200000000000003,1.6289871886158611E-4
3.8240000000000003,1.6268235397525876E-4
3.8280000000000003,1.6643267867159984E-4
3.8320000000000003,1.6525469206826192E-4
3.8360000000000003,1.5881182656429132E-4
3.84,1.5828293461993552E-4
3.844,1.5708090747367233E-4
3.848,1.5955708339497447E-4
3.852,1.6174477280117347E-4
3.856,1.66264394871123E-4
3.86,1.6657692192915144E-4
3.864,1.633074080913156E-4
3.868,1.5785020484728078E-4
3.872,1.5885990765014183E-4
3.876,1.592685968798713E-4
3.88,1.5785020484728078E-4
3.884,1.567683804156439E-4
3.888,1.5744151561755126E-4
3.892,1.5929263742279657E-4
3.896,1.6157648900069662E-4
3.9,1.6309104320498823E-4
3.904,1.6554317858336512E-4
3.908,1.6085527271293872E-4
3.912,1.5508554241087545E-4
3.916,1.5467685318114595E-4
3.92,1.5917243470817024E-4
3.924,1.637641784068956E-4
3.928,1.6499024609608403E-4
3.932,1.6011001588225554E-4
3.936,1.5378735309291123E-4
3.94,1.5109481228528168E-4
3.944,1.5289785300467645E-4
3.948,1.5337866386318176E-4
3.952,1.5520574512550175E-4
3.956,1.5159966368671223E-4
3.96,1.502293527399722E-4
3.964,1.5316229897685438E-4
3.968,1.5431624503726703E-4
3.972,1.558307992415586E-4
3.976,1.587397049355155E-4
3.98,1.6114375922804188E-4
3.984,1.6234578637430507E-4
3.988,1.634276108059419E-4
3.992,1.6325932700546507E-4
3.996,1.6018213751103132E-4
4.0,1.6011001588225554E-4
4.0040000000000004,1.5619140738543758E-4
4.008,1.5881182656429132E-4
4.0120000000000005,1.615043673719208E-4
4.016,1.603744618544334E-4
4.0200000000000005,1.5984556991007764E-4
4.024,1.6027829968273238E-4
4.0280000000000005,1.5741747507462602E-4
4.032,1.5672029932979338E-4
4.0360000000000005,1.5712898855952285E-4
4.04,1.6301892157621244E-4
4.0440000000000005,1.6535085423996298E-4
4.048,1.640286243790735E-4
4.0520000000000005,1.5982152936715237E-4
4.056,1.5462877209529544E-4
4.0600000000000005,1.5917243470817024E-4
4.064,1.6325932700546507E-4
4.0680000000000005,1.5640777227176494E-4
4.072,1.528497719188259E-4
4.0760000000000005,1.5876374547844078E-4
4.08,1.5857142113503866E-4
4.0840000000000005,1.5455665046651965E-4
4.088,1.500370283965701E-4
4.0920000000000005,1.5244108268909644E-4
4.096,1.5390755580753753E-4
4.1,1.539315963504628E-4
4.104,1.551817045825765E-4
4.108,1.5604716412788596E-4
4.112,1.560231235849607E-4
4.116,1.5619140738543758E-4
4.12,1.5753767778925232E-4
4.124,1.5765788050387864E-4
4.128,1.6020617805395657E-4
4.132,1.5931667796572184E-4
4.136,1.522727988886196E-4
4.14,1.4780125790452058E-4
4.144,1.5179198803011435E-4
4.148,1.5296997463345224E-4
4.152,1.5220067725984381E-4
4.156,1.544604882948186E-4
4.16,1.5434028558019227E-4
4.164,1.6116779977096713E-4
4.168,1.6722601658813356E-4
4.172,1.6686540844425458E-4
4.176,1.5619140738543758E-4
4.18,1.3231914826065082E-4
4.184,1.073650647042272E-4
4.188,8.207441354684991E-5
4.192,6.389976309535064E-5
4.196,6.248137106276008E-5
4.2,8.176188648882148E-5
4.204,9.678722581711123E-5
4.208,1.1914493073760637E-4
4.212,1.4301718986239312E-4
4.216,1.560952452137365E-4
4.22,1.6287467831866087E-4
4.224,1.6535085423996298E-4
4.228,1.667932868154788E-4
4.232,1.6020617805395657E-4
4.236,1.5359502874950912E-4
4.24,1.5611928575666177E-4
4.244,1.586195022208892E-4
4.248,1.6126396194266818E-4
4.252,1.636439756922693E-4
4.256,1.639565027502977E-4
4.26,1.60518705111985E-4
4.264,1.5960516448082498E-4
4.268,1.616486106294724E-4
4.272,1.6241790800308086E-4
4.276,1.6123992139974294E-4
4.28,1.6136012411436924E-4
4.284,1.644853946946535E-4
4.288,1.6405266492199876E-4
4.292,1.6518257043948614E-4
4.296,1.6643267867159984E-4
4.3,1.6847612482024727E-4
4.304,1.6609611107064616E-4
4.308,1.6186497551579977E-4
4.312,1.6325932700546507E-4
4.316,1.6241790800308086E-4
4.32,1.6386034057859665E-4
4.324,1.6431711089417666E-4
4.328,1.5787424539020605E-4
4.332,1.5467685318114595E-4
4.336,1.552538262113523E-4
4.34,1.5575867761278281E-4
4.344,1.6039850239735868E-4
4.348,1.6044658348320922E-4
4.352,1.5907627253646922E-4
4.356,1.5905223199354394E-4
4.36,1.63163164833764E-4
4.364,1.642930703512514E-4
4.368,1.634997324347177E-4
4.372,1.650142866390093E-4
4.376,1.641728676366251E-4
4.38,1.6643267867159984E-4
4.384,1.6975027359528622E-4
4.388,1.7318807123359892E-4
4.392,1.748709092383674E-4
4.396,1.6972623305236095E-4
4.4,1.6366801623519454E-4
4.404,1.5847525896333763E-4
4.408,1.592685968798713E-4
4.412,1.6578358401261775E-4
4.416,1.653268136970377E-4
4.42,1.6104759705634083E-4
4.424,1.6003789425347972E-4
4.428,1.6273043506110927E-4
4.432,1.6398054329322298E-4
4.436,1.6571146238384196E-4
4.44,1.645575163234293E-4
4.444,1.6162457008654714E-4
4.448,1.5965324556667553E-4
4.452,1.621053809450524E-4
4.456,1.6008597533933027E-4
4.46,1.5708090747367233E-4
4.464,1.5756171833217759E-4
4.468,1.597253671954513E-4
4.472,1.6061486728368606E-4
4.476,1.6027829968273238E-4
4.48,1.572251507312239E-4
4.484,1.5263340703249855E-4
4.488,1.510707717423564E-4
4.492,1.5539806946890386E-4
4.496,1.560231235849607E-4
4.5,1.5489321806747334E-4
4.5040000000000004,1.5898011036476816E-4
4.508,1.609273943417145E-4
4.5120000000000005,1.578261643043555E-4
4.516,1.6075911054123763E-4
4.5200000000000005,1.5854738059211342E-4
4.524,1.5244108268909644E-4
4.5280000000000005,1.502293527399722E-4
4.532,1.5071016359847746E-4
4.5360000000000005,1.5220067725984381E-4
4.54,1.532103800627049E-4
4.5440000000000005,1.5547019109767965E-4
4.548,1.5453260992359438E-4
4.5520000000000005,1.5260936648957328E-4
4.556,1.5686454258734495E-4
4.5600000000000005,1.5489321806747334E-4
4.564,1.5203239345936697E-4
4.5680000000000005,1.5580675869863333E-4
4.572,1.587397049355155E-4
4.5760000000000005,1.5381139363583647E-4
4.58,1.5258532594664804E-4
4.5840000000000005,1.5164774477256275E-4
4.588,1.5652797498639126E-4
4.5920000000000005,1.5922051579402079E-4
4.596,1.5741747507462602E-4
4.6000000000000005,1.572251507312239E-4
4.604,1.57778083218505E-4
4.6080000000000005,1.560952452137365E-4
4.612,1.5708090747367233E-4
4.616,1.570328263878218E-4
4.62,1.5549423164060492E-4
4.624,1.5619140738543758E-4
4.628,1.5720111018829863E-4
4.632,1.5265744757542382E-4
4.636,1.49387933737588E-4
4.64,1.5159966368671223E-4
4.644,1.5056592034092588E-4
4.648,1.529940151763775E-4
4.652,1.539315963504628E-4
4.656,1.566962587868681E-4
4.66,1.5751363724632707E-4
4.664,1.5785020484728078E-4
4.668,1.5652797498639126E-4
4.672,1.5571059652693227E-4
4.676,1.5573463706985754E-4
4.68,1.5604716412788596E-4
4.684,1.5268148811834907E-4
4.688,1.5369119092121017E-4
4.692,1.560952452137365E-4
4.696,1.5736939398877547E-4
4.7,1.5837909679163658E-4
4.704,1.578982859331313E-4
4.708,1.605908267407608E-4
4.712,1.6143224574314503E-4
4.716,1.59148394165245E-4
4.72,1.580906102765334E-4
4.724,1.5628756955713864E-4
4.728,1.584271778774871E-4
4.732,1.5883586710721656E-4
4.736,1.5578271815570809E-4
4.74,1.5604716412788596E-4
4.744,1.563837317288397E-4
4.748,1.611918403138924E-4
4.752,1.595330428520492E-4
4.756,1.5282573137590067E-4
4.76,1.5015723111119642E-4
4.764,1.5323442060563016E-4
4.768,1.5871566439259026E-4
4.772,1.572972723599997E-4
4.776,1.542441234084912E-4
4.78,1.556384748981565E-4
4.784,1.5864354276381448E-4
4.788,1.5859546167796393E-4
4.792,1.5407583960801437E-4
4.796,1.5131117717160904E-4
4.8,1.5232087997447014E-4
4.804,1.5205643400229224E-4
4.808,1.5051783925507534E-4
4.812,1.5159966368671223E-4
4.816,1.547249342669965E-4
4.82,1.550374613250249E-4
4.824,1.5686454258734495E-4
4.828,1.5852334004918815E-4
4.832,1.5775404267557973E-4
4.836,1.597974888242271E-4
4.84,1.5806656973360814E-4
4.844,1.5448452883774387E-4
4.848,1.561673668425123E-4
4.852,1.5986961045300288E-4
4.856,1.5708090747367233E-4
4.86,1.5635969118591442E-4
4.864,1.5674433987271865E-4
4.868,1.5501342078209964E-4
4.872,1.5785020484728078E-4
4.876,1.6071102945538712E-4
4.88,1.583550562487113E-4
4.884,1.5773000213265445E-4
4.888,1.5520574512550175E-4
4.892,1.533546233202565E-4
4.896,1.5268148811834907E-4
4.9,1.551095829538007E-4
4.904,1.6056678619783552E-4
4.908,1.639084216644472E-4
4.912,1.5994173208177867E-4
4.916,1.577059615897292E-4
4.92,1.5657605607224178E-4
4.924,1.5239300160324593E-4
4.928,1.5006106893949536E-4
4.932,1.5171986640133856E-4
4.936,1.4974854188146692E-4
4.94,1.5224875834569433E-4
4.944,1.5422008286556597E-4
4.948,1.552538262113523E-4
4.952,1.534748260348828E-4
4.956,1.5090248794187957E-4
4.96,1.517439069442638E-4
4.964,1.5575867761278281E-4
4.968,1.56960704759046E-4
4.972,1.5712898855952285E-4
4.976,1.544604882948186E-4
4.98,1.520804745452175E-4
4.984,1.566481777010176E-4
4.988,1.5811465081945868E-4
4.992,1.549172586103986E-4
4.996,1.5684050204441968E-4
5.0,1.6321124591961455E-4
5.0040000000000004,1.6960603033773465E-4
5.008,1.6816359776221886E-4
5.0120000000000005,1.5847525896333763E-4
5.016,1.420315276024573E-4
5.0200000000000005,1.1428874106670312E-4
5.024,8.844515742204477E-5
5.0280000000000005,7.212162877579078E-5
5.032,6.42603712392296E-5
5.0360000000000005,7.750671039104982E-5
5.04,9.517650944111857E-5
5.0440000000000005,1.1068265962791359E-4
5.048,1.3448279712392454E-4
5.0520000000000005,1.5833101570578604E-4
5.056,1.6414882709369982E-4
5.0600000000000005,1.6482196229560718E-4
5.064,1.6227366474552926E-4
5.0680000000000005,1.6222558365967872E-4
5.072,1.597253671954513E-4
5.0760000000000005,1.595330428520492E-4
5.08,1.5705686693074706E-4
5.0840000000000005,1.6078315108416293E-4
5.088,1.625861918035577E-4
5.0920000000000005,1.6075911054123763E-4
5.096,1.5854738059211342E-4
5.1000000000000005,1.5741747507462602E-4
5.104,1.5775404267557973E-4
5.1080000000000005,1.5833101570578604E-4
5.112,1.56503934443466E-4
5.1160000000000005,1.5753767778925232E-4
5.12,1.5635969118591442E-4
5.124,1.6015809696810605E-4
5.128,1.6123992139974294E-4
5.132,1.5739343453170074E-4
5.136,1.511428933711322E-4
5.14,1.5289785300467645E-4
5.144,1.5857142113503866E-4
5.148,1.57778083218505E-4
5.152,1.589560698218429E-4
5.156,1.62249624202604E-4
5.16,1.628506377757356E-4
5.164,1.6212942148797766E-4
5.168,1.5881182656429132E-4
5.172,1.580906102765334E-4
5.176,1.5592696141325966E-4
5.18,1.588839481930671E-4
5.184,1.608071916270882E-4
5.188,1.6049466456905973E-4
5.192,1.5984556991007764E-4
5.196,1.599898131676292E-4
5.2,1.6039850239735868E-4
5.204,1.6123992139974294E-4
5.208,1.655672191262904E-4
5.212,1.6441327306587772E-4
5.216,1.6157648900069662E-4
5.22,1.6162457008654714E-4
5.224,1.6741834093153568E-4
5.228,1.6691348953010512E-4
5.232,1.6438923252295245E-4
5.236,1.6309104320498823E-4
5.24,1.6393246220737243E-4
5.244,1.6854824644902305E-4
5.248,1.7414969295060945E-4
5.252,1.726832198321684E-4
5.256,1.667932868154788E-4
5.26,1.6104759705634083E-4
5.264,1.6169669171532292E-4
5.268,1.642930703512514E-4
5.272,1.6484600283853246E-4
5.276,1.6333144863424085E-4
5.28,1.6275447560403454E-4
5.284,1.6095143488463977E-4
5.288,1.6280255668988508E-4
5.292,1.5965324556667553E-4
5.296,1.522727988886196E-4
5.3,1.532825016914807E-4
5.304,1.5597504249911017E-4
5.308,1.576097994180281E-4
5.312,1.569126236731955E-4
5.316,1.5441240720896805E-4
5.32,1.5587888032740911E-4
5.324,1.5773000213265445E-4
5.328,1.5409988015093964E-4
5.332,1.530661368051533E-4
5.336,1.572972723599997E-4
5.34,1.5801848864775762E-4
5.344,1.5833101570578604E-4
5.348,1.605908267407608E-4
5.352,1.5893202927891762E-4
5.356,1.5741747507462602E-4
5.36,1.555182721835302E-4
5.364,1.5371523146413544E-4
5.368,1.5441240720896805E-4
5.372,1.5693666421612073E-4
5.376,1.5131117717160904E-4
5.38,1.508063257701785E-4
5.384,1.4998894731071957E-4
5.388,1.528497719188259E-4
5.392,1.5352290712073333E-4
5.396,1.5989365099592815E-4
5.4,1.6133608357144397E-4
5.404,1.5907627253646922E-4
5.408,1.5936475905157236E-4
5.412,1.5849929950626288E-4
5.416,1.561673668425123E-4
5.42,1.596772861096008E-4
5.424,1.669615706159557E-4
5.428,1.6946178708018305E-4
5.432,1.5717706964537336E-4
5.436,1.4905136613663428E-4
5.44,1.5426816395141648E-4
5.444,1.5547019109767965E-4
5.448,1.5385947472168701E-4
5.452,1.5515766403965123E-4
5.456,1.5383543417876174E-4
5.46,1.5376331254998596E-4
5.464,1.5866758330673972E-4
5.468,1.6188901605872504E-4
5.472,1.6056678619783552E-4
5.476,1.580906102765334E-4
5.48,1.5792232647605657E-4
5.484,1.566481777010176E-4
5.488,1.5575867761278281E-4
5.492,1.6056678619783552E-4
5.496,1.6482196229560718E-4
5.5,1.6236982691723034E-4
5.5040000000000004,1.6085527271293872E-4
5.508,1.6280255668988508E-4
5.5120000000000005,1.616486106294724E-4
5.516,1.5688858313027022E-4
5.5200000000000005,1.580425291906829E-4
5.524,1.578261643043555E-4
5.5280000000000005,1.576097994180281E-4
5.532,1.6003789425347972E-4
5.5360000000000005,1.6039850239735868E-4
5.54,1.5797040756190708E-4
5.5440000000000005,1.5847525896333763E-4
5.548,1.5640777227176494E-4
5.5520000000000005,1.556384748981565E-4
5.556,1.5131117717160904E-4
5.5600000000000005,1.5212855563106803E-4
5.564,1.541239206938649E-4
5.5680000000000005,1.5568655598400703E-4
5.572,1.5672029932979338E-4
5.5760000000000005,1.580906102765334E-4
5.58,1.5982152936715237E-4
5.5840000000000005,1.613841646572945E-4
5.588,1.602542591398071E-4
5.5920000000000005,1.615043673719208E-4
5.596,1.650142866390093E-4
5.6000000000000005,1.6241790800308086E-4
5.604,1.6095143488463977E-4
5.6080000000000005,1.5845121842041236E-4
5.612,1.6003789425347972E-4
5.6160000000000005,1.5871566439259026E-4
5.62,1.6068698891246185E-4
5.6240000000000006,1.642209487224756E-4
5.628,1.6518257043948614E-4
5.632,1.6027829968273238E-4
5.636,1.5660009661516705E-4
5.64,1.5580675869863333E-4
5.644,1.5693666421612073E-4
5.648,1.561673668425123E-4
5.652,1.555663532693807E-4
5.656,1.5717706964537336E-4
5.66,1.5611928575666177E-4
5.664,1.5369119092121017E-4
5.668,1.5693666421612073E-4
5.672,1.6205729985920188E-4
5.676,1.6297084049036193E-4
5.68,1.6270639451818403E-4
5.684,1.644853946946535E-4
5.688,1.6196113768750082E-4
5.692,1.5773000213265445E-4
5.696,1.5938879959449763E-4
5.7,1.6090335379878923E-4
5.704,1.6126396194266818E-4
5.708,1.6097547542756504E-4
5.712,1.625861918035577E-4
5.716,1.6309104320498823E-4
5.72,1.634276108059419E-4
5.724,1.634276108059419E-4
5.728,1.6241790800308086E-4
5.732,1.5881182656429132E-4
5.736,1.577059615897292E-4
5.74,1.6042254294028395E-4
5.744,1.614562862860703E-4
5.748,1.649421650102335E-4
5.752,1.6518257043948614E-4
5.756,1.6109567814219134E-4
5.76,1.5922051579402079E-4
5.764,1.6123992139974294E-4
5.768,1.6386034057859665E-4
5.772,1.6578358401261775E-4
5.776,1.636439756922693E-4
5.78,1.56960704759046E-4
5.784,1.5662413715809232E-4
5.788,1.5607120467081123E-4
5.792,1.5984556991007764E-4
5.796,1.6241790800308086E-4
5.8,1.5765788050387864E-4
5.804,1.569126236731955E-4
5.808,1.608071916270882E-4
5.812,1.6003789425347972E-4
5.816,1.5460473155237017E-4
5.82,1.5198431237351646E-4
5.824,1.5645585335761548E-4
5.828,1.6104759705634083E-4
5.832,1.6366801623519454E-4
5.836,1.6499024609608403E-4
5.84,1.6592782727016932E-4
5.844,1.6878865187827568E-4
5.848,1.7155331431468101E-4
5.852,1.6751450310323673E-4
5.856,1.4907540667955955E-4
5.86,1.1909684965175584E-4
5.864,9.229164429008694E-5
5.868,7.378042623763398E-5
5.872,5.89714517956716E-5
5.876,7.142445303095814E-5
5.88,9.395044175193011E-5
5.884,1.1243761926145782E-4
5.888,1.3823312182026566E-4
5.892,1.5852334004918815E-4
5.896,1.648700433814577E-4
5.9,1.697021925094357E-4
5.904,1.7104846291325046E-4
5.908,1.690290573075283E-4
5.912,1.6883673296412622E-4
5.916,1.670096517018062E-4
5.92,1.6842804373439673E-4
5.924,1.7051957096889467E-4
5.928,1.6773086798956412E-4
5.932,1.6547105695458933E-4
5.936,1.6691348953010512E-4
5.94,1.710244223703252E-4
5.944,1.709523007415494E-4
5.948,1.673462193027599E-4
5.952,1.642209487224756E-4
5.956,1.662163137852725E-4
5.96,1.6874057079242517E-4
5.964,1.6703369224473148E-4
5.968,1.655672191262904E-4
5.972,1.662163137852725E-4
5.976,1.6484600283853246E-4
5.98,1.6301892157621244E-4
5.984,1.6410074600784928E-4
5.988,1.6511044881071035E-4
5.992,1.662163137852725E-4
5.996,1.6590378672724407E-4
6.0,1.67538543646162E-4
6.0040000000000004,1.7078401694107256E-4
6.008,1.7306786851897262E-4
6.0120000000000005,1.720341251731863E-4
6.016,1.6847612482024727E-4
6.0200000000000005,1.691733005650799E-4
6.024,1.7285150363264523E-4
6.0280000000000005,1.7088017911277362E-4
6.032,1.686444086207241E-4
6.0360000000000005,1.6847612482024727E-4
6.04,1.694377465372578E-4
6.0440000000000005,1.6664904355792723E-4
6.048,1.6883673296412622E-4
6.0520000000000005,1.7107250345617573E-4
6.056,1.7677011212946322E-4
6.0600000000000005,1.7648162561436005E-4
6.064,1.755921255261253E-4
6.0680000000000005,1.7374100372087998E-4
6.072,1.732121117765242E-4
6.0760000000000005,1.7388524697843155E-4
6.08,1.7477474706666633E-4
6.0840000000000005,1.7470262543789055E-4
6.088,1.7410161186475894E-4
6.0920000000000005,1.7354867937747787E-4
6.096,1.7648162561436005E-4
6.1000000000000005,1.7931840967954117E-4
6.104,1.743179767510863E-4
6.1080000000000005,1.6866844916364938E-4
6.112,1.759046525841537E-4
6.1160000000000005,1.7624122018510742E-4
6.12,1.6559125966921563E-4
6.1240000000000006,1.603263807685829E-4
6.128,1.6393246220737243E-4
6.132000000000001,1.68908854592902E-4
6.136,1.691733005650799E-4
6.140000000000001,1.6465367849513034E-4
6.144,1.6246598908893137E-4
6.148,1.6691348953010512E-4
6.152,1.672740976739841E-4
6.156,1.609273943417145E-4
6.16,1.5520574512550175E-4
6.164,1.586195022208892E-4
6.168,1.6467771903805561E-4
6.172,1.658316650984683E-4
6.176,1.6773086798956412E-4
6.18,1.6491812446730824E-4
6.184,1.5977344828130183E-4
6.188,1.6249002963185664E-4
6.192,1.6426902980832612E-4
6.196,1.6688944898717985E-4
6.2,1.7246685494584104E-4
6.204,1.6789915179004096E-4
6.208,1.6386034057859665E-4
6.212,1.6619227324234722E-4
6.216,1.6465367849513034E-4
6.22,1.6458155686635456E-4
6.224,1.69822395224062E-4
6.228,1.703032060825673E-4
6.232,1.6325932700546507E-4
6.236,1.6446135415172823E-4
6.24,1.680674355905178E-4
6.244,1.689809762216778E-4
6.248,1.683799626485462E-4
6.252,1.621053809450524E-4
6.256,1.6186497551579977E-4
6.26,1.6323528646253982E-4
6.264,1.6566338129799142E-4
6.268,1.6681732735840407E-4
6.272,1.664086381286746E-4
6.276,1.6511044881071035E-4
6.28,1.6414882709369982E-4
6.284,1.642209487224756E-4
6.288,1.6482196229560718E-4
6.292,1.6698561115888094E-4
6.296,1.687165302494999E-4
6.3,1.6710581387350726E-4
6.304,1.6809147613344304E-4
6.308,1.709042196556989E-4
6.312,1.7092826019862416E-4
6.316,1.6592782727016932E-4
6.32,1.628506377757356E-4
6.324,1.621053809450524E-4
6.328,1.666730841008525E-4
6.332,1.694377465372578E-4
6.336,1.695098681660336E-4
6.34,1.6453347578050402E-4
6.344,1.6179285388702398E-4
6.348,1.6446135415172823E-4
6.352,1.634997324347177E-4
6.356,1.6030234022565762E-4
6.36,1.5813869136238392E-4
6.364,1.6066294836953658E-4
6.368,1.6446135415172823E-4
6.372,1.6691348953010512E-4
6.376,1.651344893536356E-4
6.38,1.6263427288940824E-4
6.384,1.6287467831866087E-4
6.388,1.6729813821690938E-4
6.392,1.6705773278765672E-4
6.396,1.6049466456905973E-4
6.4,1.5453260992359438E-4
6.404,1.551817045825765E-4
6.408,1.5893202927891762E-4
6.412,1.6018213751103132E-4
6.416,1.5950900230912395E-4
6.42,1.636439756922693E-4
6.424,1.6549509749751458E-4
6.428,1.6482196229560718E-4
6.432,1.6078315108416293E-4
6.436,1.6537489478288825E-4
6.44,1.6580762455554302E-4
6.444,1.6352377297764297E-4
6.448,1.6446135415172823E-4
6.452,1.6739430038861043E-4
6.456,1.6712985441643254E-4
6.46,1.652066109824114E-4
6.464,1.6465367849513034E-4
6.468,1.645575163234293E-4
6.472,1.6335548917716612E-4
6.476,1.6374013786397035E-4
6.48,1.6325932700546507E-4
6.484,1.5864354276381448E-4
6.488,1.5751363724632707E-4
6.492,1.6282659723281033E-4
6.496,1.6850016536317254E-4
6.5,1.6825975993391989E-4
6.5040000000000004,1.6419690817955033E-4
6.508,1.613841646572945E-4
6.5120000000000005,1.6325932700546507E-4
6.516,1.6467771903805561E-4
6.5200000000000005,1.6830784101977043E-4
6.524,1.659518678130946E-4
6.5280000000000005,1.639084216644472E-4
6.532,1.6333144863424085E-4
6.5360000000000005,1.5996577262470394E-4
6.54,1.5657605607224178E-4
6.5440000000000005,1.570328263878218E-4
6.548,1.6236982691723034E-4
6.5520000000000005,1.6361993514934402E-4
6.556,1.6340357026301667E-4
6.5600000000000005,1.586195022208892E-4
6.564,1.5840313733456182E-4
6.5680000000000005,1.6085527271293872E-4
6.572,1.5994173208177867E-4
6.5760000000000005,1.5508554241087545E-4
6.58,1.5513362349672596E-4
6.5840000000000005,1.5587888032740911E-4
6.588,1.5633565064298915E-4
6.5920000000000005,1.5994173208177867E-4
6.596,1.5960516448082498E-4
6.6000000000000005,1.6126396194266818E-4
6.604,1.5621544792836285E-4
6.6080000000000005,1.5388351526461229E-4
6.612,1.6321124591961455E-4
6.6160000000000005,1.6633651649989881E-4
6.62,1.619851782304261E-4
6.6240000000000006,1.6246598908893137E-4
6.628,1.6398054329322298E-4
6.632000000000001,1.6371609732104508E-4
6.636,1.6590378672724407E-4
6.640000000000001,1.6220154311675345E-4
6.644,1.5924455633694606E-4
6.648000000000001,1.628506377757356E-4
6.652,1.6426902980832612E-4
6.656000000000001,1.654229758687388E-4
6.66,1.6309104320498823E-4
6.664,1.6054274565491025E-4
6.668,1.594128401374229E-4
6.672,1.640286243790735E-4
6.676,1.7463050380911476E-4
6.68,1.800155854243738E-4
6.684,1.7765961221769797E-4
6.688,1.68908854592902E-4
6.692,1.4936389319466272E-4
6.696,1.2092393091407588E-4
6.7,9.462357695383751E-5
6.704,7.411699383858766E-5
6.708,6.171207368915164E-5
6.712,7.630468324478664E-5
6.716,9.625833387275542E-5
6.72,1.1469743029643262E-4
6.724,1.4150263565810151E-4
6.728,1.6047062402613446E-4
6.732,1.6746642201738622E-4
6.736,1.6854824644902305E-4
6.74,1.6994259793868833E-4
6.744,1.7051957096889467E-4
6.748,1.697743141382115E-4
6.752,1.678029896183399E-4
6.756,1.6878865187827568E-4
6.76,1.7160139540053156E-4
6.764,1.7232261168828947E-4
6.768,1.6910117893630412E-4
6.772,1.6458155686635456E-4
6.776,1.652787326111872E-4
6.78,1.694377465372578E-4
6.784,1.7246685494584104E-4
6.788,1.7323615231944946E-4
6.792,1.703753277113431E-4
6.796,1.6436519198002717E-4
6.8,1.623217458313798E-4
6.804,1.6244194854600613E-4
6.808,1.6301892157621244E-4
6.812,1.628506377757356E-4
6.816,1.6333144863424085E-4
6.82,1.6674520572962828E-4
6.824,1.6737025984568516E-4
6.828,1.683799626485462E-4
6.832,1.6749046256031146E-4
6.836,1.6737025984568516E-4
6.84,1.7162543594345683E-4
6.844,1.6991855739576306E-4
6.848,1.6775490853248936E-4
6.852,1.686444086207241E-4
6.856,1.718177602868589E-4
6.86,1.722985711453642E-4
6.864,1.725630171175421E-4
6.868,1.712167467137273E-4
6.872,1.7078401694107256E-4
6.876,1.68908854592902E-4
6.88,1.6936562490848202E-4
6.884,1.70639773683521E-4
6.888,1.7162543594345683E-4
6.892,1.7388524697843155E-4
6.896,1.7417373349353472E-4
6.9,1.716975575722326E-4
6.904,1.757123282407516E-4
6.908,1.761931390992569E-4
6.912,1.728755441755705E-4
6.916,1.683799626485462E-4
6.92,1.66721165186703E-4
6.924,1.6984643576698727E-4
6.928,1.7785193656110008E-4
6.932,1.796068961946443E-4
6.936,1.7566424715490108E-4
6.94,1.6816359776221886E-4
6.944,1.6717793550228305E-4
6.948,1.6518257043948614E-4
6.952,1.6563934075506618E-4
6.956,1.642209487224756E-4
6.96,1.5970132665252604E-4
6.964,1.5773000213265445E-4
6.968,1.572972723599997E-4
6.972,1.5727323181707442E-4
6.976,1.548451369816228E-4
6.98,1.5378735309291123E-4
6.984,1.5489321806747334E-4
6.988,1.5585483978448387E-4
6.992,1.551817045825765E-4
6.996,1.5672029932979338E-4
7.0,1.5890798873599237E-4
7.0040000000000004,1.603263807685829E-4
7.008,1.6085527271293872E-4
7.0120000000000005,1.6013405642518078E-4
7.016,1.5924455633694606E-4
7.0200000000000005,1.6073506999831236E-4
7.024,1.6140820520021978E-4
7.0280000000000005,1.6277851614695981E-4
7.032,1.615043673719208E-4
7.0360000000000005,1.5840313733456182E-4
7.04,1.5898011036476816E-4
7.0440000000000005,1.648700433814577E-4
7.048,1.6547105695458933E-4
7.0520000000000005,1.6323528646253982E-4
7.056,1.6126396194266818E-4
7.0600000000000005,1.649421650102335E-4
7.064,1.640286243790735E-4
7.0680000000000005,1.6102355651341556E-4
7.072,1.5508554241087545E-4
7.0760000000000005,1.5549423164060492E-4
7.08,1.6186497551579977E-4
7.0840000000000005,1.6299488103328717E-4
7.088,1.6282659723281033E-4
7.0920000000000005,1.6333144863424085E-4
7.096,1.613841646572945E-4
7.1000000000000005,1.634276108059419E-4
7.104,1.655672191262904E-4
7.1080000000000005,1.6378821894982086E-4
7.112,1.6128800248559346E-4
7.1160000000000005,1.5986961045300288E-4
7.12,1.6465367849513034E-4
7.1240000000000006,1.6287467831866087E-4
7.128,1.6289871886158611E-4
7.132000000000001,1.6123992139974294E-4
7.136,1.6227366474552926E-4
7.140000000000001,1.5876374547844078E-4
7.144,1.5785020484728078E-4
7.148000000000001,1.5883586710721656E-4
7.152,1.603744618544334E-4
7.156000000000001,1.580906102765334E-4
7.16,1.5508554241087545E-4
7.164000000000001,1.5383543417876174E-4
7.168,1.5407583960801437E-4
7.172,1.5575867761278281E-4
7.176,1.57778083218505E-4
7.18,1.5984556991007764E-4
7.184,1.6434115143710193E-4
7.188,1.6200921877335136E-4
7.192,1.6193709714457555E-4
7.196,1.6212942148797766E-4
7.2,1.6068698891246185E-4
7.204,1.6095143488463977E-4
7.208,1.6073506999831236E-4
7.212,1.587397049355155E-4
7.216,1.576819210468039E-4
7.22,1.5592696141325966E-4
7.224,1.6140820520021978E-4
7.228,1.5950900230912395E-4
7.232,1.5775404267557973E-4
7.236,1.5645585335761548E-4
7.24,1.6068698891246185E-4
7.244,1.6354781352056824E-4
7.248,1.5792232647605657E-4
7.252,1.531382584339291E-4
7.256,1.5388351526461229E-4
7.26,1.5635969118591442E-4
7.264,1.602542591398071E-4
7.268,1.6205729985920188E-4
7.272,1.5989365099592815E-4
7.276,1.5857142113503866E-4
7.28,1.5919647525109552E-4
7.284,1.566962587868681E-4
7.288,1.5912435362231973E-4
7.292,1.6109567814219134E-4
7.296,1.626583134323335E-4
7.3,1.623938674601556E-4
7.304,1.621775025738282E-4
7.308,1.5890798873599237E-4
7.312,1.5561443435523122E-4
7.316,1.5744151561755126E-4
7.32,1.5950900230912395E-4
7.324,1.6003789425347972E-4
7.328,1.562394884712881E-4
7.332,1.5256128540372277E-4
7.336,1.5157562314378696E-4
7.34,1.5184006911596486E-4
7.344,1.533546233202565E-4
7.348,1.5732131290292496E-4
7.352,1.587397049355155E-4
7.356,1.594609212232734E-4
7.36,1.5977344828130183E-4
7.364,1.5857142113503866E-4
7.368,1.6047062402613446E-4
7.372,1.633074080913156E-4
7.376,1.6405266492199876E-4
7.38,1.6241790800308086E-4
7.384,1.6085527271293872E-4
7.388,1.5660009661516705E-4
7.392,1.6123992139974294E-4
7.396,1.7713072027334217E-4
7.4,1.7441413892278735E-4
7.404,1.5534998838305335E-4
7.408,1.4967642025269113E-4
7.412,1.527295692041996E-4
7.416,1.5369119092121017E-4
7.42,1.5147946097208588E-4
7.424,1.543883666660428E-4
7.428,1.5890798873599237E-4
7.432,1.6097547542756504E-4
7.436,1.6018213751103132E-4
7.44,1.588839481930671E-4
7.444,1.5645585335761548E-4
7.448,1.578261643043555E-4
7.452,1.6152840791484608E-4
7.456,1.6335548917716612E-4
7.46,1.615043673719208E-4
7.464,1.5763383996095337E-4
7.468,1.5801848864775762E-4
7.472,1.6015809696810605E-4
7.476,1.597253671954513E-4
7.48,1.606389078266113E-4
7.484,1.602542591398071E-4
7.488,1.623938674601556E-4
7.492,1.6388438112152192E-4
7.496,1.633795297200914E-4
7.5,1.6263427288940824E-4
7.5040000000000004,1.6277851614695981E-4
7.508,1.6301892157621244E-4
7.5120000000000005,1.5989365099592815E-4
7.516,1.63163164833764E-4
7.5200000000000005,1.676587463607883E-4
7.524,1.725630171175421E-4
7.5280000000000005,1.7535172009687264E-4
7.532,1.7258705766046734E-4
7.5360000000000005,1.6061486728368606E-4
7.54,1.3967555439578147E-4
7.5440000000000005,1.1724572784651054E-4
7.548,9.181083343158166E-5
7.5520000000000005,7.192930443238868E-5
7.556,6.962141231156337E-5
7.5600000000000005,8.632958964462157E-5
7.564,1.0238867231869765E-4
7.5680000000000005,1.254675935269507E-4
7.572,1.5135925825745958E-4
7.5760000000000005,1.6624035432819776E-4
7.58,1.6835592210562094E-4
7.5840000000000005,1.7124078725665258E-4
7.588,1.7186584137270945E-4
7.5920000000000005,1.7395736860720734E-4
7.596,1.7330827394822524E-4
7.6000000000000005,1.7018300336794098E-4
7.604,1.7061573314059572E-4
7.6080000000000005,1.7910204479321376E-4
7.612,1.7179371974393367E-4
7.6160000000000005,1.638363000356714E-4
7.62,1.6511044881071035E-4
7.6240000000000006,1.6715389495935778E-4
7.628,1.6919734110800518E-4
7.632000000000001,1.7006280065331468E-4
7.636,1.6676924627255355E-4
7.640000000000001,1.678751112471157E-4
7.644,1.700387601103894E-4
7.648000000000001,1.7263513874631788E-4
7.652,1.6999067902453884E-4
7.656000000000001,1.6758662473201252E-4
7.66,1.621053809450524E-4
7.664000000000001,1.6431711089417666E-4
7.668,1.69822395224062E-4
7.672000000000001,1.690290573075283E-4
7.676,1.6592782727016932E-4
7.68,1.7006280065331468E-4
7.684,1.7552000389734948E-4
7.688,1.7220240897366314E-4
7.692,1.6854824644902305E-4
7.696,1.6847612482024727E-4
7.7,1.665288408433009E-4
7.704,1.6222558365967872E-4
7.708,1.6424498926540087E-4
7.712,1.696300708806599E-4
7.716,1.7350059829162736E-4
7.72,1.7213028734488735E-4
7.724,1.6691348953010512E-4
7.728,1.651344893536356E-4
7.732,1.6926946273678096E-4
7.736,1.713609899712789E-4
7.74,1.716975575722326E-4
7.744,1.7306786851897262E-4
7.748,1.6994259793868833E-4
7.752,1.622977052884545E-4
7.756,1.5773000213265445E-4
7.76,1.6472580012390613E-4
7.764,1.6862036807779884E-4
7.768,1.644853946946535E-4
7.772,1.64437313608803E-4
7.776,1.6811551667636831E-4
7.78,1.6847612482024727E-4
7.784,1.6710581387350726E-4
7.788,1.704234087971936E-4
7.792,1.6607207052772092E-4
7.796,1.642209487224756E-4
7.8,1.633074080913156E-4
7.804,1.6352377297764297E-4
7.808,1.6371609732104508E-4
7.812,1.5974940773837658E-4
7.816,1.590041509076934E-4
7.82,1.5876374547844078E-4
7.824,1.6039850239735868E-4
7.828,1.5982152936715237E-4
7.832,1.5357098820658385E-4
7.836,1.5212855563106803E-4
7.84,1.5635969118591442E-4
7.844,1.626583134323335E-4
7.848,1.6212942148797766E-4
7.852,1.5527786675427753E-4
7.856,1.5448452883774387E-4
7.86,1.5799444810483235E-4
7.864,1.6121588085681767E-4
7.868,1.5883586710721656E-4
7.872,1.548451369816228E-4
7.876,1.5501342078209964E-4
7.88,1.5652797498639126E-4
7.884,1.5917243470817024E-4
7.888,1.6001385371055448E-4
7.892,1.5876374547844078E-4
7.896,1.6188901605872504E-4
7.9,1.6282659723281033E-4
7.904,1.608071916270882E-4
7.908,1.6085527271293872E-4
7.912,1.631150837479135E-4
7.916,1.652066109824114E-4
7.92,1.5924455633694606E-4
7.924,1.556384748981565E-4
7.928,1.5559039381230597E-4
7.932,1.5854738059211342E-4
7.936,1.5736939398877547E-4
7.94,1.5453260992359438E-4
7.944,1.5655201552931654E-4
7.948,1.5977344828130183E-4
7.952,1.6003789425347972E-4
7.956,1.5756171833217759E-4
7.96,1.580906102765334E-4
7.964,1.5924455633694606E-4
7.968,1.6109567814219134E-4
7.972,1.5977344828130183E-4
7.976,1.6087931325586399E-4
7.98,1.6602398944187037E-4
7.984,1.6705773278765672E-4
7.988,1.650142866390093E-4
7.992,1.6087931325586399E-4
7.996,1.5857142113503866E-4
8.0,1.5917243470817024E-4
8.004,1.5724919127414917E-4
8.008000000000001,1.6008597533933027E-4
8.012,1.6167265117239768E-4
8.016,1.5924455633694606E-4
8.02,1.5864354276381448E-4
8.024000000000001,1.5864354276381448E-4
8.028,1.6061486728368606E-4
8.032,1.6313912429083877E-4
8.036,1.6289871886158611E-4
8.040000000000001,1.621775025738282E-4
8.044,1.621775025738282E-4
8.048,1.614562862860703E-4
8.052,1.6289871886158611E-4
8.056000000000001,1.635718540634935E-4
8.06,1.6578358401261775E-4
8.064,1.5984556991007764E-4
8.068,1.532103800627049E-4
8.072000000000001,1.518160285730396E-4
8.076,1.5599908304203544E-4
8.08,1.6174477280117347E-4
8.084,1.6835592210562094E-4
8.088000000000001,1.6866844916364938E-4
8.092,1.648700433814577E-4
8.096,1.5857142113503866E-4
8.1,1.5773000213265445E-4
8.104000000000001,1.5823485353408498E-4
8.108,1.5734535344585023E-4
8.112,1.5294593409052697E-4
8.116,1.5640777227176494E-4
8.120000000000001,1.5890798873599237E-4
8.124,1.5744151561755126E-4
8.128,1.551095829538007E-4
8.132,1.6001385371055448E-4
8.136000000000001,1.6174477280117347E-4
8.14,1.611918403138924E-4
8.144,1.595330428520492E-4
8.148,1.574895967034018E-4
8.152000000000001,1.5811465081945868E-4
8.156,1.6321124591961455E-4
8.16,1.642209487224756E-4
8.164,1.6289871886158611E-4
8.168000000000001,1.6212942148797766E-4
8.172,1.5489321806747334E-4
8.176,1.5431624503726703E-4
8.18,1.6020617805395657E-4
8.184000000000001,1.619851782304261E-4
8.188,1.597253671954513E-4
8.192,1.5849929950626288E-4
8.196,1.6167265117239768E-4
8.2,1.6174477280117347E-4
8.204,1.6167265117239768E-4
8.208,1.5898011036476816E-4
8.212,1.5527786675427753E-4
8.216,1.5479705589577228E-4
8.22,1.6078315108416293E-4
8.224,1.6246598908893137E-4
8.228,1.5455665046651965E-4
8.232,1.5544615055475438E-4
8.236,1.566962587868681E-4
8.24,1.5409988015093964E-4
8.244,1.560231235849607E-4
8.248,1.569126236731955E-4
8.252,1.5715302910244812E-4
8.256,1.5905223199354394E-4
8.26,1.5532594784012808E-4
8.264,1.5597504249911017E-4
8.268,1.5164774477256275E-4
8.272,1.5296997463345224E-4
8.276,1.5580675869863333E-4
8.28,1.5414796123679018E-4
8.284,1.5460473155237017E-4
8.288,1.528497719188259E-4
8.292,1.527295692041996E-4
8.296,1.5431624503726703E-4
8.3,1.563837317288397E-4
8.304,1.560952452137365E-4
8.308,1.5479705589577228E-4
8.312,1.594609212232734E-4
8.316,1.5825889407701025E-4
8.32,1.5527786675427753E-4
8.324,1.555663532693807E-4
8.328,1.542441234084912E-4
8.332,1.5479705589577228E-4
8.336,1.5467685318114595E-4
8.34,1.546528126382207E-4
8.344,1.5934071850864709E-4
8.348,1.6386034057859665E-4
8.352,1.610716375992661E-4
8.356,1.5955708339497447E-4
8.36,1.6234578637430507E-4
8.364,1.6152840791484608E-4
8.368,1.5573463706985754E-4
8.372,1.3929090570897728E-4
8.376,1.1250974089023361E-4
8.38,8.827687362156793E-5
8.384,7.077535837197603E-5
8.388,6.142358717404849E-5
8.392,7.135233140218235E-5
8.396,8.988758999756057E-5
8.4,1.0827860533538721E-4
8.404,1.3578098644188876E-4
8.408,1.5520574512550175E-4
8.412,1.6410074600784928E-4
8.416,1.676106652749378E-4
8.42,1.7131290888542836E-4
8.424,1.686444086207241E-4
8.428,1.654229758687388E-4
8.432,1.6393246220737243E-4
8.436,1.672740976739841E-4
8.44,1.6453347578050402E-4
8.444,1.6619227324234722E-4
8.448,1.6655288138622617E-4
8.452,1.6354781352056824E-4
8.456,1.5890798873599237E-4
8.46,1.621775025738282E-4
8.464,1.6758662473201252E-4
8.468,1.6756258418908727E-4
8.472,1.641728676366251E-4
8.476,1.623217458313798E-4
8.48,1.670096517018062E-4
8.484,1.6878865187827568E-4
8.488,1.6607207052772092E-4
8.492,1.6174477280117347E-4
8.496,1.6270639451818403E-4
8.5,1.6710581387350726E-4
8.504,1.662163137852725E-4
8.508000000000001,1.6270639451818403E-4
8.512,1.6559125966921563E-4
8.516,1.6938966545140726E-4
8.52,1.722264495165884E-4
8.524000000000001,1.716975575722326E-4
8.528,1.658316650984683E-4
8.532,1.651344893536356E-4
8.536,1.6919734110800518E-4
8.540000000000001,1.6914926002215464E-4
8.544,1.6684136790132934E-4
8.548,1.6782703016126515E-4
8.552,1.7023108445379153E-4
8.556000000000001,1.7275534146094418E-4
8.56,1.6907713839337885E-4
8.564,1.7088017911277362E-4
8.568,1.7275534146094418E-4
8.572000000000001,1.7167351702930734E-4
8.576,1.7395736860720734E-4
8.58,1.790058826215127E-4
8.584,1.8015982868192537E-4
8.588000000000001,1.8073680171213168E-4
8.592,1.8561703192596023E-4
8.596,1.850881399816044E-4
8.6,1.810733693130854E-4
8.604000000000001,1.756402066119758E-4
8.608,1.7164947648638207E-4
8.612,1.7227453060243892E-4
8.616,1.7542384172564846E-4
8.620000000000001,1.7701051755871584E-4
8.624,1.759767742129295E-4
8.628,1.726832198321684E-4
8.632,1.6813955721929359E-4
8.636000000000001,1.641728676366251E-4
8.64,1.6674520572962828E-4
8.644,1.6662500301500196E-4
8.648,1.6511044881071035E-4
8.652000000000001,1.6816359776221886E-4
8.656,1.6811551667636831E-4
8.66,1.6650480030037566E-4
8.664,1.6770682744663885E-4
8.668000000000001,1.6535085423996298E-4
8.672,1.6049466456905973E-4
8.676,1.6657692192915144E-4
8.68,1.6984643576698727E-4
8.684000000000001,1.6042254294028395E-4
8.688,1.5460473155237017E-4
8.692,1.5751363724632707E-4
8.696,1.6109567814219134E-4
8.700000000000001,1.610716375992661E-4
8.704,1.60061934796405E-4
8.708,1.625381107177072E-4
8.712,1.6205729985920188E-4
8.716,1.576819210468039E-4
8.72,1.5628756955713864E-4
8.724,1.5970132665252604E-4
8.728,1.6073506999831236E-4
8.732,1.5686454258734495E-4
8.736,1.5917243470817024E-4
8.74,1.6109567814219134E-4
8.744,1.586195022208892E-4
8.748,1.5720111018829863E-4
8.752,1.5667221824394284E-4
8.756,1.5429220449434175E-4
8.76,1.5587888032740911E-4
8.764,1.5813869136238392E-4
8.768,1.6073506999831236E-4
8.772,1.6405266492199876E-4
8.776,1.6523065152533665E-4
8.78,1.6537489478288825E-4
8.784,1.633795297200914E-4
8.788,1.605908267407608E-4
8.792,1.6479792175268191E-4
8.796,1.6643267867159984E-4
8.8,1.578982859331313E-4
8.804,1.561673668425123E-4
8.808,1.6352377297764297E-4
8.812,1.6566338129799142E-4
8.816,1.603263807685829E-4
8.82,1.5773000213265445E-4
8.824,1.6056678619783552E-4
8.828,1.5965324556667553E-4
8.832,1.5958112393789974E-4
8.836,1.6054274565491025E-4
8.84,1.5922051579402079E-4
8.844,1.5905223199354394E-4
8.848,1.5741747507462602E-4
8.852,1.5657605607224178E-4
8.856,1.566481777010176E-4
8.86,1.6087931325586399E-4
8.864,1.5797040756190708E-4
8.868,1.5455665046651965E-4
8.872,1.5397967743631334E-4
8.876,1.551817045825765E-4
8.88,1.5837909679163658E-4
8.884,1.5876374547844078E-4
8.888,1.5970132665252604E-4
8.892,1.603263807685829E-4
8.896,1.619130566016503E-4
8.9,1.6196113768750082E-4
8.904,1.5962920502375025E-4
8.908,1.5715302910244812E-4
8.912,1.5797040756190708E-4
8.916,1.60518705111985E-4
8.92,1.5912435362231973E-4
8.924,1.5679242095856916E-4
8.928,1.5652797498639126E-4
8.932,1.5929263742279657E-4
8.936,1.5698474530197128E-4
8.94,1.5962920502375025E-4
8.944,1.5991769153885342E-4
8.948,1.5753767778925232E-4
8.952,1.6066294836953658E-4
8.956,1.5934071850864709E-4
8.96,1.5316229897685438E-4
8.964,1.489071228790827E-4
8.968,1.48113784962549E-4
8.972,1.5316229897685438E-4
8.976,1.5924455633694606E-4
8.98,1.6066294836953658E-4
8.984,1.5806656973360814E-4
8.988,1.56960704759046E-4
8.992,1.587397049355155E-4
8.996,1.609273943417145E-4
9.0,1.6078315108416293E-4
9.004,1.5652797498639126E-4
9.008000000000001,1.5549423164060492E-4
9.012,1.5542211001182913E-4
9.016,1.5751363724632707E-4
9.02,1.6123992139974294E-4
9.024000000000001,1.673462193027599E-4
9.028,1.648700433814577E-4
9.032,1.5712898855952285E-4
9.036,1.5825889407701025E-4
9.040000000000001,1.5821081299115974E-4
9.044,1.6054274565491025E-4
9.048,1.6227366474552926E-4
9.052,1.6018213751103132E-4
9.056000000000001,1.5712898855952285E-4
9.06,1.5508554241087545E-4
9.064,1.549172586103986E-4
9.068,1.553740289259786E-4
9.072000000000001,1.5934071850864709E-4
9.076,1.5801848864775762E-4
9.08,1.555663532693807E-4
9.084,1.5647989390054075E-4
9.088000000000001,1.5688858313027022E-4
9.092,1.5727323181707442E-4
9.096,1.5532594784012808E-4
9.1,1.5833101570578604E-4
9.104000000000001,1.6460559740927983E-4
9.108,1.6236982691723034E-4
9.112,1.5902819145061867E-4
9.116,1.535469476636586E-4
9.120000000000001,1.5352290712073333E-4
9.124,1.5371523146413544E-4
9.128,1.5621544792836285E-4
9.132,1.5628756955713864E-4
9.136000000000001,1.5640777227176494E-4
9.14,1.5744151561755126E-4
9.144,1.5922051579402079E-4
9.148,1.6003789425347972E-4
9.152000000000001,1.5811465081945868E-4
9.156,1.576097994180281E-4
9.16,1.621053809450524E-4
9.164,1.6301892157621244E-4
9.168000000000001,1.6083123217001344E-4
9.172,1.6133608357144397E-4
9.176,1.6174477280117347E-4
9.18,1.6027829968273238E-4
9.184000000000001,1.6345165134886718E-4
9.188,1.6628843541404827E-4
9.192,1.6328336754839034E-4
9.196,1.5955708339497447E-4
9.200000000000001,1.6633651649989881E-4
9.204,1.7347655774870209E-4
9.208,1.7075997639814732E-4
9.212,1.6097547542756504E-4
9.216000000000001,1.4390668995062787E-4
9.22,1.1712552513188423E-4
9.224,9.056072519946797E-5
9.228,7.070323674320023E-5
9.232,6.106297903016952E-5
9.236,7.298708832110028E-5
9.24,9.25801308051901E-5
9.244,1.1837563336399794E-4
9.248,1.4602225772805108E-4
9.252,1.6441327306587772E-4
9.256,1.7155331431468101E-4
9.26,1.7568828769782635E-4
9.264,1.7383716589258104E-4
9.268,1.7071189531229678E-4
9.272,1.7239473331706525E-4
9.276,1.720822062590368E-4
9.28,1.7140907105712942E-4
9.284,1.759767742129295E-4
9.288,1.7145715214297993E-4
9.292,1.6482196229560718E-4
9.296,1.656874218409167E-4
9.3,1.672740976739841E-4
9.304,1.7018300336794098E-4
9.308,1.726832198321684E-4
9.312,1.709523007415494E-4
9.316,1.6722601658813356E-4
9.32,1.687165302494999E-4
9.324,1.7085613856984835E-4
9.328,1.712888683425031E-4
9.332,1.686444086207241E-4
9.336,1.7015896282501574E-4
9.34,1.7275534146094418E-4
9.344,1.7251493603169155E-4
9.348,1.7124078725665258E-4
9.352,1.7280342254679472E-4
9.356,1.7364484154917893E-4
9.36,1.7318807123359892E-4
9.364,1.7316403069067367E-4
9.368,1.7845295013423166E-4
9.372,1.8076084225505696E-4
9.376,1.757123282407516E-4
9.38,1.7047148988304415E-4
9.384,1.6999067902453884E-4
9.388,1.7160139540053156E-4
9.392,1.714331116000547E-4
9.396,1.7607293638463055E-4
9.4,1.8068872062628117E-4
9.404,1.8059255845458011E-4
9.408,1.7746728787429585E-4
9.412,1.7953477456586852E-4
9.416,1.7941457185124222E-4
9.42,1.7758749058892218E-4
9.424,1.7539980118272318E-4
9.428,1.7439009837986208E-4
9.432,1.7426989566523578E-4
9.436,1.7523151738224634E-4
9.44,1.8056851791165484E-4
9.444,1.8059255845458011E-4
9.448,1.7780385547524954E-4
9.452,1.792943691366159E-4
9.456,1.8249176134567594E-4
9.46,1.82131153201797E-4
9.464,1.7871739610640953E-4
9.468,1.8193882885839487E-4
9.472,1.815301396286654E-4
9.476,1.7246685494584104E-4
9.48,1.6869248970657462E-4
9.484,1.699666384816136E-4
9.488,1.7323615231944946E-4
9.492,1.7299574689019683E-4
9.496,1.739333280642821E-4
9.5,1.7655374724313586E-4
9.504,1.754478822685737E-4
9.508000000000001,1.6907713839337885E-4
9.512,1.6592782727016932E-4
9.516,1.667932868154788E-4
9.52,1.67538543646162E-4
9.524000000000001,1.6691348953010512E-4
9.528,1.6823571939099464E-4
9.532,1.7441413892278735E-4
9.536,1.7527959846809686E-4
9.540000000000001,1.7049553042596942E-4
9.544,1.6607207052772092E-4
9.548,1.6633651649989881E-4
9.552,1.6424498926540087E-4
9.556000000000001,1.6270639451818403E-4
9.56,1.635718540634935E-4
9.564,1.6782703016126515E-4
9.568,1.6645671921452511E-4
9.572000000000001,1.664086381286746E-4
9.576,1.659518678130946E-4
9.58,1.6643267867159984E-4
9.584,1.6537489478288825E-4
9.588000000000001,1.6530277315411244E-4
9.592,1.6549509749751458E-4
9.596,1.6854824644902305E-4
9.6,1.6900501676460306E-4
9.604000000000001,1.6777894907541463E-4
9.608,1.7039936825426837E-4
9.612,1.704234087971936E-4
9.616,1.703032060825673E-4
9.620000000000001,1.7025512499671677E-4
9.624,1.7299574689019683E-4
9.628,1.7621717964218218E-4
9.632,1.750632335817695E-4
9.636000000000001,1.7289958471849578E-4
9.64,1.7138503051420415E-4
9.644,1.7162543594345683E-4
9.648,1.689809762216778E-4
9.652000000000001,1.6922138165093042E-4
9.656,1.7422181457938524E-4
9.66,1.773711257025948E-4
9.664,1.7436605783693684E-4
9.668000000000001,1.6813955721929359E-4
9.672,1.6775490853248936E-4
9.676,1.6975027359528622E-4
9.68,1.7023108445379153E-4
9.684000000000001,1.7422181457938524E-4
9.688,1.729476658043463E-4
9.692,1.7006280065331468E-4
9.696,1.7280342254679472E-4
9.700000000000001,1.7328423340529997E-4
9.704,1.706878547693715E-4
9.708,1.714331116000547E-4
9.712,1.7388524697843155E-4
9.716000000000001,1.6934158436555675E-4
9.72,1.6535085423996298E-4
9.724,1.6378821894982086E-4
9.728,1.6313912429083877E-4
9.732,1.655672191262904E-4
9.736,1.6688944898717985E-4
9.74,1.6508640826778508E-4
9.744,1.6361993514934402E-4
9.748,1.616486106294724E-4
9.752,1.644853946946535E-4
9.756,1.6633651649989881E-4
9.76,1.6559125966921563E-4
9.764,1.6366801623519454E-4
9.768,1.5710494801659758E-4
9.772,1.580906102765334E-4
9.776,1.6366801623519454E-4
9.78,1.6489408392438297E-4
9.784,1.6681732735840407E-4
9.788,1.6758662473201252E-4
9.792,1.5996577262470394E-4
9.796,1.5681646150149443E-4
9.8,1.6200921877335136E-4
9.804,1.649421650102335E-4
9.808,1.623938674601556E-4
9.812,1.6234578637430507E-4
9.816,1.6325932700546507E-4
9.82,1.654229758687388E-4
9.824,1.6547105695458933E-4
9.828,1.662163137852725E-4
9.832,1.64437313608803E-4
9.836,1.6321124591961455E-4
9.84,1.6109567814219134E-4
9.844,1.6035042131150816E-4
9.848,1.636920567781198E-4
9.852,1.6023021859688184E-4
9.856,1.6169669171532292E-4
9.86,1.6128800248559346E-4
9.864,1.6030234022565762E-4
9.868,1.5753767778925232E-4
9.872,1.5811465081945868E-4
9.876,1.5811465081945868E-4
9.88,1.5818677244823447E-4
9.884,1.5585483978448387E-4
9.888,1.5693666421612073E-4
9.892,1.6054274565491025E-4
9.896,1.6585570564139353E-4
9.9,1.6374013786397035E-4
9.904,1.5847525896333763E-4
9.908,1.5585483978448387E-4
9.912,1.5660009661516705E-4
9.916,1.5397967743631334E-4
9.92,1.548451369816228E-4
9.924,1.5724919127414917E-4
9.928,1.5974940773837658E-4
9.932,1.625861918035577E-4
9.936,1.6710581387350726E-4
9.94,1.6847612482024727E-4
9.944,1.6234578637430507E-4
9.948,1.5515766403965123E-4
9.952,1.5797040756190708E-4
9.956,1.6023021859688184E-4
9.96,1.6261023234648297E-4
9.964,1.6477388120975667E-4
9.968,1.6912521947922936E-4
9.972,1.6958198979480938E-4
9.976,1.6470175958098086E-4
9.98,1.631150837479135E-4
9.984,1.650623677248598E-4
9.988,1.662163137852725E-4
9.992,1.6705773278765672E-4
9.996,1.6313912429083877E-4
10.0,1.610716375992661E-4
10.004,1.6378821894982086E-4
10.008000000000001,1.650623677248598E-4
10.012,1.6537489478288825E-4
10.016,1.638363000356714E-4
10.02,1.5910031307939446E-4
10.024000000000001,1.6044658348320922E-4
10.028,1.6426902980832612E-4
10.032,1.6155244845777135E-4
10.036,1.5736939398877547E-4
10.040000000000001,1.5732131290292496E-4
10.044,1.5948496176619868E-4
10.048,1.5982152936715237E-4
10.052,1.6578358401261775E-4
10.056000000000001,1.6869248970657462E-4
10.06,1.69822395224062E-4
10.064,1.772509229879685E-4
10.068,1.748709092383674E-4
10.072000000000001,1.690290573075283E-4
10.076,1.5734535344585023E-4
10.08,1.34434716038074E-4
10.084,1.0774971339103142E-4
10.088000000000001,8.051177825670778E-5
10.092,6.656826336005489E-5
10.096,7.688165627499298E-5
10.1,9.517650944111857E-5
10.104000000000001,1.1409641672330102E-4
10.108,1.4347396017797313E-4
10.112,1.6491812446730824E-4
10.116,1.703032060825673E-4
10.120000000000001,1.7600081475585477E-4
10.124,1.8061659899750538E-4
10.128,1.755921255261253E-4
10.132,1.772509229879685E-4
10.136000000000001,1.7977517999512115E-4
10.14,1.7677011212946322E-4
10.144,1.7001471956746414E-4
10.148,1.678029896183399E-4
10.152000000000001,1.6729813821690938E-4
10.156,1.686444086207241E-4
10.16,1.689809762216778E-4
10.164,1.725630171175421E-4
10.168000000000001,1.76842233758239E-4
10.172,1.7720284190211796E-4
10.176,1.7749132841722112E-4
10.18,1.7388524697843155E-4
10.184000000000001,1.7258705766046734E-4
10.188,1.6746642201738622E-4
10.192,1.6739430038861043E-4
10.196,1.7145715214297993E-4
10.200000000000001,1.743179767510863E-4
10.204,1.7494303086714317E-4
10.208,1.726832198321684E-4
10.212,1.7246685494584104E-4
10.216000000000001,1.7566424715490108E-4
10.22,1.7556808498320003E-4
10.224,1.7467858489496528E-4
10.228,1.7549596335442424E-4
10.232000000000001,1.7400544969305788E-4
10.236,1.6905309785045358E-4
10.24,1.6874057079242517E-4
10.244,1.7027916553964204E-4
10.248,1.7515939575347056E-4
10.252,1.769143553870148E-4
10.256,1.7494303086714317E-4
10.26,1.712888683425031E-4
10.264,1.6991855739576306E-4
10.268,1.7318807123359892E-4
10.272,1.761931390992569E-4
10.276,1.778278960181748E-4
10.28,1.7876547719226007E-4
10.284,1.8102528822723488E-4
10.288,1.7814042307620322E-4
10.292,1.7864527447763375E-4
10.296,1.8052043682580433E-4
10.3,1.801357881390001E-4
10.304,1.814099369140391E-4
10.308,1.8381399120656543E-4
10.312,1.816022612574412E-4
10.316,1.779480987328011E-4
10.32,1.741256524076842E-4
10.324,1.7140907105712942E-4
10.328,1.6842804373439673E-4
10.332,1.7051957096889467E-4
10.336,1.7496707141006844E-4
10.34,1.7426989566523578E-4
10.344,1.7073593585522205E-4
10.348,1.6287467831866087E-4
10.352,1.6450943523757877E-4
10.356,1.6554317858336512E-4
10.36,1.678751112471157E-4
10.364,1.6441327306587772E-4
10.368,1.587397049355155E-4
10.372,1.587397049355155E-4
10.376,1.6467771903805561E-4
10.38,1.6535085423996298E-4
10.384,1.6381225949274613E-4
10.388,1.6676924627255355E-4
10.392,1.6270639451818403E-4
10.396,1.603744618544334E-4
10.4,1.6309104320498823E-4
10.404,1.6578358401261775E-4
10.408,1.6554317858336512E-4
10.412,1.6241790800308086E-4
10.416,1.567683804156439E-4
10.42,1.6405266492199876E-4
10.424,1.6907713839337885E-4
10.428,1.6938966545140726E-4
10.432,1.6499024609608403E-4
10.436,1.6453347578050402E-4
10.44,1.664086381286746E-4
10.444,1.6741834093153568E-4
10.448,1.621053809450524E-4
10.452,1.6241790800308086E-4
10.456,1.6472580012390613E-4
10.46,1.724908954887663E-4
10.464,1.7511131466762002E-4
10.468,1.7059169259767045E-4
10.472,1.6857228699194832E-4
10.476,1.6895693567875252E-4
10.48,1.697021925094357E-4
10.484,1.6741834093153568E-4
10.488,1.6888481404997674E-4
10.492,1.7443817946571262E-4
10.496,1.7520747683932107E-4
10.5,1.6975027359528622E-4
10.504,1.7114462508495152E-4
10.508000000000001,1.703032060825673E-4
10.512,1.6674520572962828E-4
10.516,1.6450943523757877E-4
10.52,1.6830784101977043E-4
10.524000000000001,1.7407757132183367E-4
10.528,1.743179767510863E-4
10.532,1.7318807123359892E-4
10.536,1.744622200086379E-4
10.540000000000001,1.7376504426380525E-4
10.544,1.6775490853248936E-4
10.548,1.62249624202604E-4
10.552,1.6345165134886718E-4
10.556000000000001,1.6922138165093042E-4
10.56,1.731399901477484E-4
10.564,1.7124078725665258E-4
10.568,1.659518678130946E-4
10.572000000000001,1.6578358401261775E-4
10.576,1.673462193027599E-4
10.58,1.6946178708018305E-4
10.584,1.7727496353089374E-4
10.588000000000001,1.7643354452850953E-4
10.592,1.6960603033773465E-4
10.596,1.6975027359528622E-4
10.6,1.6633651649989881E-4
10.604000000000001,1.6674520572962828E-4
10.608,1.6934158436555675E-4
10.612,1.6999067902453884E-4
10.616,1.7124078725665258E-4
10.620000000000001,1.69822395224062E-4
10.624,1.6984643576698727E-4
10.628,1.6768278690371357E-4
10.632,1.6619227324234722E-4
10.636000000000001,1.6850016536317254E-4
10.64,1.6878865187827568E-4
10.644,1.7025512499671677E-4
10.648,1.7265917928924315E-4
10.652000000000001,1.7818850416205376E-4
10.656,1.8030407193947695E-4
10.66,1.7364484154917893E-4
10.664,1.6609611107064616E-4
10.668000000000001,1.639084216644472E-4
10.672,1.676106652749378E-4
10.676,1.6946178708018305E-4
10.68,1.7174563865808313E-4
10.684000000000001,1.6883673296412622E-4
10.688,1.6686540844425458E-4
10.692,1.7097634128447468E-4
10.696,1.7614505801340634E-4
10.700000000000001,1.726110982033926E-4
10.704,1.662163137852725E-4
10.708,1.676106652749378E-4
10.712,1.697021925094357E-4
10.716000000000001,1.711686656278768E-4
10.72,1.7275534146094418E-4
10.724,1.7213028734488735E-4
10.728,1.7285150363264523E-4
10.732000000000001,1.7237069277413998E-4
10.736,1.7225049005951365E-4
10.74,1.6751450310323673E-4
10.744,1.6664904355792723E-4
10.748000000000001,1.7311594960482313E-4
10.752,1.7511131466762002E-4
10.756,1.7576040932660214E-4
10.76,1.783567879625306E-4
10.764,1.78212544704979E-4
10.768,1.8217923428764753E-4
10.772,1.7888567990688637E-4
10.776,1.721543278878126E-4
10.78,1.7008684119623993E-4
10.784,1.7078401694107256E-4
10.788,1.700387601103894E-4
10.792,1.7152927377175574E-4
10.796,1.738612064355063E-4
10.8,1.7225049005951365E-4
10.804,1.7198604408733575E-4
10.808,1.7701051755871584E-4
10.812,1.7539980118272318E-4
10.816,1.7027916553964204E-4
10.82,1.6938966545140726E-4
10.824,1.7047148988304415E-4
10.828,1.7292362526142105E-4
10.832,1.748709092383674E-4
10.836,1.748709092383674E-4
10.84,1.691733005650799E-4
10.844,1.6722601658813356E-4
10.848,1.689809762216778E-4
10.852,1.7426989566523578E-4
10.856,1.7539980118272318E-4
10.86,1.7566424715490108E-4
10.864,1.7592869312707898E-4
10.868,1.754478822685737E-4
10.872,1.7131290888542836E-4
10.876,1.6705773278765672E-4
10.88,1.6657692192915144E-4
10.884,1.7018300336794098E-4
10.888,1.737890848067305E-4
10.892,1.7306786851897262E-4
10.896,1.6931754382263148E-4
10.9,1.6645671921452511E-4
10.904,1.703032060825673E-4
10.908,1.6914926002215464E-4
10.912,1.685963275348736E-4
10.916,1.6926946273678096E-4
10.92,1.744622200086379E-4
10.924,1.779480987328011E-4
10.928,1.745103010944884E-4
10.932,1.6816359776221886E-4
10.936,1.508784473989543E-4
10.94,1.267177017590644E-4
10.944,9.818157730677652E-5
10.948,7.438143981076557E-5
10.952,6.96694933974139E-5
10.956,8.84932385078953E-5
10.96,1.0688425384572192E-4
10.964,1.2707830990294337E-4
10.968,1.5109481228528168E-4
10.972,1.66264394871123E-4
10.976,1.7299574689019683E-4
10.98,1.7527959846809686E-4
10.984,1.7460646326618946E-4
10.988,1.739814091501326E-4
10.992,1.7489494978129266E-4
10.996,1.757123282407516E-4
11.0,1.7463050380911476E-4
11.004,1.7304382797604735E-4
11.008000000000001,1.736688820921042E-4
11.012,1.7439009837986208E-4
11.016,1.772509229879685E-4
11.02,1.7270726037509366E-4
11.024000000000001,1.6823571939099464E-4
11.028,1.7025512499671677E-4
11.032,1.7126482779957785E-4
11.036,1.7592869312707898E-4
11.040000000000001,1.7419777403646E-4
11.044,1.714811926859052E-4
11.048,1.7299574689019683E-4
11.052,1.740535307789084E-4
11.056000000000001,1.7607293638463055E-4
11.06,1.795588151087938E-4
11.064,1.784289095913064E-4
11.068,1.7455838218033892E-4
11.072000000000001,1.7323615231944946E-4
11.076,1.747987876095916E-4
11.08,1.7674607158653794E-4
11.084,1.7592869312707898E-4
11.088000000000001,1.76842233758239E-4
11.092,1.7761153113184742E-4
11.096,1.7463050380911476E-4
11.1,1.7167351702930734E-4
11.104000000000001,1.6967815196651043E-4
11.108,1.7092826019862416E-4
11.112,1.7568828769782635E-4
11.116,1.8119357202771172E-4
11.120000000000001,1.8571319409766129E-4
11.124,1.8253984243152646E-4
11.128,1.834293425197612E-4
11.132,1.8725178884487813E-4
11.136000000000001,1.8828553219066445E-4
11.14,1.8725178884487813E-4
11.144,1.8400631554996754E-4
11.148,1.8494389672405284E-4
11.152000000000001,1.862901671278676E-4
11.156,1.8725178884487813E-4
11.16,1.8891058630672133E-4
11.164,1.8705946450147602E-4
11.168000000000001,1.8530450486793176E-4
11.172,1.9258878937428663E-4
11.176,1.8999241073835817E-4
11.18,1.7965497728049485E-4
11.184000000000001,1.7417373349353472E-4
11.188,1.744622200086379E-4
11.192,1.745103010944884E-4
11.196,1.7573636878367687E-4
11.200000000000001,1.759767742129295E-4
11.204,1.7696243647286533E-4
11.208,1.76842233758239E-4
11.212,1.739814091501326E-4
11.216000000000001,1.7220240897366314E-4
11.22,1.6878865187827568E-4
11.224,1.6847612482024727E-4
11.228,1.692935032797062E-4
11.232000000000001,1.7455838218033892E-4
11.236,1.7592869312707898E-4
11.24,1.7388524697843155E-4
11.244,1.7407757132183367E-4
11.248000000000001,1.736688820921042E-4
11.252,1.767220310436127E-4
11.256,1.8191478831546963E-4
11.26,1.8229943700227383E-4
11.264,1.7434201729401157E-4
11.268,1.697021925094357E-4
11.272,1.721543278878126E-4
11.276,1.7292362526142105E-4
11.28,1.7323615231944946E-4
11.284,1.6938966545140726E-4
11.288,1.6631247595697354E-4
11.292,1.6744238147446095E-4
11.296,1.7160139540053156E-4
11.3,1.7527959846809686E-4
11.304,1.7527959846809686E-4
11.308,1.753276795539474E-4
11.312,1.7527959846809686E-4
11.316,1.7311594960482313E-4
11.32,1.7614505801340634E-4
11.324,1.7607293638463055E-4
11.328,1.751834362963958E-4
11.332,1.7494303086714317E-4
11.336,1.7508727412469477E-4
11.34,1.7419777403646E-4
11.344,1.7311594960482313E-4
11.348,1.753757606397979E-4
11.352,1.764575850714348E-4
11.356,1.7876547719226007E-4
11.36,1.7162543594345683E-4
11.364,1.695579492518841E-4
11.368,1.7600081475585477E-4
11.372,1.7609697692755582E-4
11.376,1.7352463883455263E-4
11.38,1.7263513874631788E-4
11.384,1.726110982033926E-4
11.388,1.7580849041245265E-4
11.392,1.776836527606232E-4
11.396,1.7515939575347056E-4
11.4,1.7352463883455263E-4
11.404,1.772509229879685E-4
11.408,1.784289095913064E-4
11.412,1.791982069649148E-4
11.416,1.7799617981865165E-4
11.42,1.7785193656110008E-4
11.424,1.7592869312707898E-4
11.428,1.7383716589258104E-4
11.432,1.7455838218033892E-4
11.436,1.763133418138832E-4
11.44,1.7535172009687264E-4
11.444,1.7465454435204003E-4
11.448,1.7330827394822524E-4
11.452,1.771066797304169E-4
11.456,1.8177054505791803E-4
11.46,1.7876547719226007E-4
11.464,1.7220240897366314E-4
11.468,1.7220240897366314E-4
11.472,1.7592869312707898E-4
11.476,1.7592869312707898E-4
11.48,1.757123282407516E-4
11.484,1.7198604408733575E-4
11.488,1.728755441755705E-4
11.492,1.730919090618979E-4
11.496,1.7705859864456638E-4
11.5,1.753757606397979E-4
11.504,1.7749132841722112E-4
11.508000000000001,1.804723557399538E-4
11.512,1.7628930127095796E-4
11.516,1.7138503051420415E-4
11.52,1.7311594960482313E-4
11.524000000000001,1.7402949023598315E-4
11.528,1.7160139540053156E-4
11.532,1.738612064355063E-4
11.536,1.7660182832898637E-4
11.540000000000001,1.743179767510863E-4
11.544,1.6987047630991254E-4
11.548,1.6987047630991254E-4
11.552,1.7138503051420415E-4
11.556000000000001,1.6975027359528622E-4
11.56,1.6825975993391989E-4
11.564,1.6811551667636831E-4
11.568,1.6842804373439673E-4
11.572000000000001,1.68452084277322E-4
11.576,1.763133418138832E-4
11.58,1.8292449111833068E-4
11.584,1.8073680171213168E-4
11.588000000000001,1.7472666598081582E-4
11.592,1.7239473331706525E-4
11.596,1.7150523322883047E-4
11.6,1.7426989566523578E-4
11.604000000000001,1.7539980118272318E-4
11.608,1.7220240897366314E-4
11.612,1.7006280065331468E-4
11.616,1.6946178708018305E-4
11.620000000000001,1.7071189531229678E-4
11.624,1.720822062590368E-4
11.628,1.726832198321684E-4
11.632,1.737890848067305E-4
11.636000000000001,1.7453434163741368E-4
11.64,1.7388524697843155E-4
11.644,1.7381312534965577E-4
11.648,1.6975027359528622E-4
11.652000000000001,1.6965411142358516E-4
11.656,1.7227453060243892E-4
11.66,1.7304382797604735E-4
11.664,1.6967815196651043E-4
11.668000000000001,1.6874057079242517E-4
11.672,1.7167351702930734E-4
11.676,1.7744324733137058E-4
11.68,1.8015982868192537E-4
11.684000000000001,1.7354867937747787E-4
11.688,1.665288408433009E-4
11.692,1.6426902980832612E-4
11.696,1.6881269242120095E-4
11.700000000000001,1.6979835468113676E-4
11.704,1.7210624680196208E-4
11.708,1.7600081475585477E-4
11.712,1.765777877860611E-4
11.716000000000001,1.7417373349353472E-4
11.72,1.743179767510863E-4
11.724,1.754478822685737E-4
11.728,1.7765961221769797E-4
11.732000000000001,1.8032811248240222E-4
11.736,1.778278960181748E-4
11.74,1.758565714983032E-4
11.744,1.7638546344265902E-4
11.748000000000001,1.7677011212946322E-4
11.752,1.8068872062628117E-4
11.756,1.8359762632023805E-4
11.76,1.8850189707699186E-4
11.764000000000001,1.8893462684964658E-4
11.768,1.8537662649670758E-4
11.772,1.6441327306587772E-4
11.776,1.3544441884093508E-4
11.78,1.0688425384572192E-4
11.784,8.459867055400259E-5
11.788,7.589599401505717E-5
11.792,9.390236066607959E-5
11.796,1.1830351173522216E-4
11.8,1.4455578460961E-4
11.804,1.6674520572962828E-4
11.808,1.7568828769782635E-4
11.812,1.8434288315092125E-4
11.816,1.8758835644583181E-4
11.82,1.8499197780990335E-4
11.824,1.8080892334090752E-4
11.828,1.8321297763343385E-4
11.832,1.8821341056188867E-4
11.836,1.898481674808066E-4
11.84,1.8821341056188867E-4
11.844,1.8667481581467182E-4
11.848,1.8965584313740448E-4
11.852,1.932859651191193E-4
11.856,1.917714109148277E-4
11.86,1.904491810539382E-4
11.864,1.879249240467855E-4
11.868,1.8643441038541917E-4
11.872,1.8975200530910554E-4
11.876,1.9403122194980248E-4
11.88,1.9304555968986664E-4
11.884,1.9383889760640036E-4
11.888,1.915550460285003E-4
11.892,1.868671401580739E-4
11.896,1.8778068078923393E-4
11.9,1.9424758683612983E-4
11.904,1.987912494490047E-4
11.908,1.971084114442362E-4
11.912,1.9458415443708352E-4
11.916,1.949447625809625E-4
11.92,1.9359849217714774E-4
11.924,1.948726409521867E-4
11.928,1.955217356111688E-4
11.932,1.9588234375504776E-4
11.936,1.9674780330035724E-4
11.94,1.8927119445060029E-4
11.944,1.852083426962307E-4
11.948,1.8778068078923393E-4
11.952,1.8717966721610235E-4
11.956,1.9083382974074243E-4
11.96,1.9415142466442878E-4
11.964,1.9581022212627198E-4
11.968,1.976853844744425E-4
11.972,1.97637303388592E-4
11.976,1.9643527624232883E-4
11.98,1.9713245198716147E-4
11.984,1.9419950575027932E-4
11.988,1.9054534322563926E-4
11.992,1.8665077527174655E-4
11.996,1.9095403245536873E-4
12.0,1.9645931678525407E-4
12.004,1.9621891135600145E-4
12.008000000000001,1.954736545253183E-4
12.012,1.9371869489177404E-4
12.016,1.9350233000544668E-4
12.02,1.9138676222802347E-4
12.024000000000001,1.879249240467855E-4
12.028,1.850881399816044E-4
12.032,1.881893700189634E-4
12.036,1.8960776205155397E-4
12.040000000000001,1.8393419392119176E-4
12.044,1.8150609908574013E-4
12.048,1.790058826215127E-4
12.052,1.8052043682580433E-4
12.056000000000001,1.8169842342914225E-4
12.06,1.8215519374472226E-4
12.064,1.8124165311356224E-4
12.068,1.8321297763343385E-4
12.072000000000001,1.841024777216686E-4
12.076,1.8023195031070116E-4
12.08,1.775634500459969E-4
12.084,1.792943691366159E-4
12.088000000000001,1.7902992316443797E-4
12.092,1.8080892334090752E-4
12.096,1.8145801799988962E-4
12.1,1.7984730162389696E-4
12.104000000000001,1.8015982868192537E-4
12.108,1.8530450486793176E-4
12.112,1.833812614339107E-4
12.116,1.7917416642198954E-4
12.120000000000001,1.8109740985601067E-4
12.124,1.827802478607791E-4
12.128,1.862180454990918E-4
12.132,1.9222818123040768E-4
12.136000000000001,1.8778068078923393E-4
12.14,1.7638546344265902E-4
12.144,1.7258705766046734E-4
12.148,1.7648162561436005E-4
12.152000000000001,1.8104932877016015E-4
12.156,1.831648965475833E-4
12.16,1.8314085600465804E-4
12.164,1.8143397745696435E-4
12.168000000000001,1.800155854243738E-4
12.172,1.7799617981865165E-4
12.176,1.7715476081626744E-4
12.18,1.7773173384647375E-4
12.184000000000001,1.7922224750784008E-4
12.188,1.8080892334090752E-4
12.192,1.7989538270974748E-4
12.196,1.820590315730212E-4
12.200000000000001,1.84775612923576E-4
12.204,1.843669236938465E-4
12.208,1.8220327483057277E-4
12.212,1.8725178884487813E-4
12.216000000000001,1.9290131643231507E-4
12.22,1.885980592486929E-4
12.224,1.7648162561436005E-4
12.228,1.7607293638463055E-4
12.232000000000001,1.829725722041812E-4
12.236,1.7727496353089374E-4
12.24,1.7402949023598315E-4
12.244,1.7713072027334217E-4
12.248000000000001,1.801357881390001E-4
12.252,1.8145801799988962E-4
12.256,1.8092912605553382E-4
12.26,1.8030407193947695E-4
12.264000000000001,1.810012476843096E-4
12.268,1.796790178234201E-4
12.272,1.7883759882103586E-4
12.276,1.780923419903527E-4
12.280000000000001,1.780923419903527E-4
12.284,1.7878951773518534E-4
12.288,1.7991942325267275E-4
12.292,1.8321297763343385E-4
12.296,1.827081262320033E-4
12.3,1.8357358577731278E-4
12.304,1.8321297763343385E-4
12.308,1.7845295013423166E-4
12.312,1.7289958471849578E-4
12.316,1.748709092383674E-4
12.32,1.761931390992569E-4
12.324,1.7643354452850953E-4
12.328,1.7941457185124222E-4
12.332,1.8237155863104961E-4
12.336,1.8090508551260855E-4
12.34,1.7792405818987586E-4
12.344,1.791982069649148E-4
12.348,1.831648965475833E-4
12.352,1.8056851791165484E-4
12.356,1.7727496353089374E-4
12.36,1.763133418138832E-4
12.364,1.8104932877016015E-4
12.368,1.8585743735521286E-4
12.372,1.8177054505791803E-4
12.376,1.769143553870148E-4
12.38,1.761931390992569E-4
12.384,1.7592869312707898E-4
12.388,1.7910204479321376E-4
12.392,1.7936649076539168E-4
12.396,1.7893376099273691E-4
12.4,1.7922224750784008E-4
12.404,1.7660182832898637E-4
12.408,1.7511131466762002E-4
12.412,1.7472666598081582E-4
12.416,1.7364484154917893E-4
12.42,1.784769906771569E-4
12.424,1.8395823446411703E-4
12.428,1.8729986993072865E-4
12.432,1.850881399816044E-4
12.436,1.8292449111833068E-4
12.44,1.8083296388383277E-4
12.444,1.8112145039893594E-4
12.448,1.8177054505791803E-4
12.452,1.862180454990918E-4
12.456,1.84775612923576E-4
12.46,1.7484686869544212E-4
12.464,1.7614505801340634E-4
12.468,1.8246772080275067E-4
12.472,1.8407843717874336E-4
12.476,1.8321297763343385E-4
12.48,1.8181862614376857E-4
12.484,1.8256388297445173E-4
12.488,1.8049639628287906E-4
12.492,1.808810449696833E-4
12.496,1.8150609908574013E-4
12.5,1.8357358577731278E-4
12.504,1.8345338306268648E-4
12.508000000000001,1.817945856008433E-4
12.512,1.8314085600465804E-4
12.516,1.8494389672405284E-4
12.52,1.8532854541085703E-4
12.524000000000001,1.8273216677492857E-4
12.528,1.791982069649148E-4
12.532,1.8393419392119176E-4
12.536,1.8689118070099918E-4
12.540000000000001,1.862180454990918E-4
12.544,1.8172246397206752E-4
12.548,1.790058826215127E-4
12.552,1.8042427465410327E-4
12.556000000000001,1.8229943700227383E-4
12.56,1.8371782903486437E-4
12.564,1.8076084225505696E-4
12.568,1.7977517999512115E-4
12.572000000000001,1.8165034234329173E-4
12.576,1.8025599085362643E-4
12.58,1.814820585428149E-4
12.584,1.839822750070423E-4
12.588000000000001,1.856410724688855E-4
12.592,1.854968292113339E-4
12.596,1.8883846467794555E-4
12.6,1.9102615408414452E-4
12.604000000000001,1.9196373525822978E-4
12.608,1.868190590722234E-4
12.612,1.6592782727016932E-4
12.616,1.3969959493870674E-4
12.620000000000001,1.1003356496893148E-4
12.624,8.976738728293426E-5
12.628,8.669019778850051E-5
12.632,1.0536969964143032E-4
12.636000000000001,1.2015463354046744E-4
12.64,1.3929090570897728E-4
12.644,1.6453347578050402E-4
12.648,1.8465541020894967E-4
12.652000000000001,1.8946351879400237E-4
12.656,1.9191565417237927E-4
12.66,1.8992028910958238E-4
12.664,1.8645845092834444E-4
12.668000000000001,1.934782894625214E-4
12.672,1.9811811424709725E-4
12.676,1.9708437090131092E-4
12.68,1.9746901958811515E-4
12.684000000000001,1.9506496529558882E-4
12.688,1.9145888385679926E-4
12.692,1.8729986993072865E-4
12.696,1.8470349129480018E-4
12.700000000000001,1.8208307211594647E-4
12.704,1.854487481254834E-4
12.708,1.884538159911413E-4
12.712,1.870835050444013E-4
12.716000000000001,1.872758293878034E-4
12.72,1.8871826196331922E-4
12.724,1.9138676222802347E-4
12.728,1.9345424891959614E-4
12.732000000000001,1.9258878937428663E-4
12.736,1.920358568870056E-4
12.74,1.9054534322563926E-4
12.744,1.9119443788462136E-4
12.748000000000001,1.8939139716522659E-4
12.752,1.9174737037190242E-4
12.756,1.9941630356506152E-4
12.76,1.974930601310404E-4
12.764000000000001,1.9251666774551085E-4
12.768,1.9121847842754663E-4
12.772,1.952092085531404E-4
12.776,1.9472839769463514E-4
12.780000000000001,1.9535345181069197E-4
12.784,1.9364657326299825E-4
12.788,1.8943947825107713E-4
12.792,1.9218010014455716E-4
12.796000000000001,1.9326192457619405E-4
12.8,1.9386293814932563E-4
12.804,1.9376677597762458E-4
12.808,1.9465627606585933E-4
12.812,1.92348383945034E-4
12.816,1.9614678972722566E-4
12.82,2.0093085776935312E-4
12.824,1.9850276293390152E-4
12.828,1.9636315461355304E-4
12.832,1.963150735277025E-4
12.836,2.0013751985281943E-4
12.84,2.0191652002928895E-4
12.844,1.9984903333771626E-4
12.848,1.9758922230274145E-4
12.852,1.9674780330035724E-4
12.856,1.9465627606585933E-4
12.86,1.9691608710083408E-4
12.864,1.981661953329478E-4
12.868,1.9559385723994462E-4
12.872,1.9359849217714774E-4
12.876,1.9210797851578138E-4
12.88,1.9076170811196662E-4
12.884,1.9179545145775294E-4
12.888,1.8917503227889923E-4
12.892,1.9023281616761085E-4
12.896,1.8857401870576765E-4
12.9,1.868190590722234E-4
12.904,1.9391101923517615E-4
12.908,1.9306960023279191E-4
12.912,1.8650653201419498E-4
12.916,1.8448712640847282E-4
12.92,1.8665077527174655E-4
12.924,1.9023281616761085E-4
12.928,1.9251666774551085E-4
12.932,1.8992028910958238E-4
12.936,1.8970392422325503E-4
12.94,1.955217356111688E-4
12.944,1.9686800601498357E-4
12.948,1.9056938376856453E-4
12.952,1.8542470758255812E-4
12.956,1.8756431590290654E-4
12.96,1.9172332982897715E-4
12.964,1.9126655951339717E-4
12.968,1.8684309961514866E-4
12.972,1.8328509926220964E-4
12.976,1.8136185582818856E-4
12.98,1.8268408568907805E-4
12.984,1.841745993504444E-4
12.988,1.878528024180097E-4
12.992,1.9246858665966033E-4
12.996,1.898962485666571E-4
13.0,1.888625052208708E-4
13.004,1.8915099173597396E-4
13.008000000000001,1.9028089725346136E-4
13.012,1.9085787028366767E-4
13.016,1.916992892860519E-4
13.02,1.8987220802373187E-4
13.024000000000001,1.9338212729082035E-4
13.028,1.987191278202289E-4
13.032,1.9811811424709725E-4
13.036,1.901847350817603E-4
13.040000000000001,1.867469374434476E-4
13.044,1.8662673472882128E-4
13.048,1.8609784278446548E-4
13.052,1.8972796476618027E-4
13.056000000000001,1.926849515459877E-4
13.06,1.8955968096570343E-4
13.064,1.8641036984249392E-4
13.068,1.8580935626936234E-4
13.072000000000001,1.851602616103802E-4
13.076,1.90521302682714E-4
13.08,1.9270899208891296E-4
13.084,1.9415142466442878E-4
13.088000000000001,1.970362898154604E-4
13.092,1.9379081652054982E-4
13.096,1.9280515426061402E-4
13.1,1.9535345181069197E-4
13.104000000000001,1.9588234375504776E-4
13.108,1.8857401870576765E-4
13.112,1.8116953148478645E-4
13.116,1.823234775451991E-4
13.120000000000001,1.8616996441324127E-4
13.124,1.8650653201419498E-4
13.128,1.881893700189634E-4
13.132,1.897760458520308E-4
13.136000000000001,1.8304469383295698E-4
13.14,1.820109504871707E-4
13.144,1.8352550469146226E-4
13.148,1.8758835644583181E-4
13.152000000000001,1.901847350817603E-4
13.156,1.9037705942516242E-4
13.16,1.904491810539382E-4
13.164,1.932859651191193E-4
13.168000000000001,1.9179545145775294E-4
13.172,1.8717966721610235E-4
13.176,1.8448712640847282E-4
13.18,1.8532854541085703E-4
13.184000000000001,1.899683701954329E-4
13.188,1.8982412693788133E-4
13.192,1.8641036984249392E-4
13.196,1.864824914712697E-4
13.200000000000001,1.8662673472882128E-4
13.204,1.8657865364297076E-4
13.208,1.84775612923576E-4
13.212,1.859055184410634E-4
13.216000000000001,1.8924715390767502E-4
13.22,1.9145888385679926E-4
13.224,1.9364657326299825E-4
13.228,1.9395910032102666E-4
13.232000000000001,1.8965584313740448E-4
13.236,1.8547278866840866E-4
13.24,1.850881399816044E-4
13.244,1.8770855916045814E-4
13.248000000000001,1.8967988368032975E-4
13.252,1.9205989742993084E-4
13.256,1.9590638429797303E-4
13.26,1.9722861415886252E-4
13.264000000000001,1.942716273790551E-4
13.268,1.9542557343946778E-4
13.272,1.9744497904518988E-4
13.276,1.956659788687204E-4
13.280000000000001,1.9338212729082035E-4
13.284,1.9102615408414452E-4
13.288,1.9246858665966033E-4
13.292,1.9331000566204457E-4
13.296000000000001,1.9480051932341093E-4
13.3,1.937427354346993E-4
13.304,1.9302151914694137E-4
13.308,1.8939139716522659E-4
13.312000000000001,1.8850189707699186E-4
13.316,1.890067484784224E-4
13.32,1.8653057255712022E-4
13.324,1.833812614339107E-4
13.328,1.848958156382023E-4
13.332,1.895115998798529E-4
13.336,1.9032897833931188E-4
13.34,1.8826149164773918E-4
13.344,1.904491810539382E-4
13.348,1.9083382974074243E-4
13.352,1.8881442413502028E-4
13.356,1.9049726213978875E-4
13.36,1.886701808774687E-4
13.364,1.8467945075187494E-4
13.368,1.8403035609289281E-4
13.372,1.8717966721610235E-4
13.376,1.893192755364508E-4
13.38,1.8972796476618027E-4
13.384,1.9222818123040768E-4
13.388,1.9403122194980248E-4
13.392,1.868671401580739E-4
13.396,1.841024777216686E-4
13.4,1.8869422142039395E-4
13.404,1.876604780746076E-4
13.408,1.8475157238065072E-4
13.412,1.8559299138303496E-4
13.416,1.8554491029718444E-4
13.42,1.8809320784726234E-4
13.424,1.8910291065012344E-4
13.428,1.9463223552293408E-4
13.432,1.980219520753962E-4
13.436,1.932138434903435E-4
13.44,1.8102528822723488E-4
13.444,1.5501342078209964E-4
13.448,1.3092479677098552E-4
13.452,1.1582733581392E-4
13.456,1.0936042976702409E-4
13.46,1.1190872731710203E-4
13.464,1.2443385018116437E-4
13.468,1.4075737882741834E-4
13.472,1.6489408392438297E-4
13.476,1.8352550469146226E-4
13.48,1.9049726213978875E-4
13.484,1.9569001941164565E-4
13.488,2.0045004691084784E-4
13.492,1.9629103298477723E-4
13.496,1.8941543770815186E-4
13.5,1.874681537312055E-4
13.504,1.9059342431148978E-4
13.508000000000001,1.9669972221450673E-4
13.512,2.0066641179717522E-4
13.516,1.9809407370417197E-4
13.52,1.9590638429797303E-4
13.524000000000001,1.9133868114217296E-4
13.528,1.886701808774687E-4
13.532,1.90064532367134E-4
13.536,1.9583426266919725E-4
13.540000000000001,2.0018560093866994E-4
13.544,1.977575061032183E-4
13.548,1.9193969471530454E-4
13.552,1.8948755933692764E-4
13.556000000000001,1.9083382974074243E-4
13.56,1.9403122194980248E-4
13.564,1.9590638429797303E-4
13.568,1.968439654720583E-4
13.572000000000001,1.9335808674789508E-4
13.576,1.9174737037190242E-4
13.58,1.9694012764375935E-4
13.584,1.991758981358089E-4
13.588000000000001,1.9304555968986664E-4
13.592,1.8833361327651497E-4
13.596,1.8624208604201708E-4
13.6,1.8975200530910554E-4
13.604000000000001,1.94079303035653E-4
13.608,1.994403441079868E-4
13.612,1.9980095225186574E-4
13.616,1.9463223552293408E-4
13.620000000000001,1.9530537072484145E-4
13.624,1.9867104673437837E-4
13.628,2.045609797510679E-4
13.632,2.0148379025663416E-4
13.636000000000001,1.981661953329478E-4
13.64,1.9915185759288365E-4
13.644,2.0381572292038473E-4
13.648,2.0552260146807847E-4
13.652000000000001,2.00281763110371E-4
13.656,1.99368222479211E-4
13.66,2.0559472309685425E-4
13.664,2.0177227677173736E-4
13.668000000000001,1.9672376275743197E-4
13.672,1.9787770881784462E-4
13.676,2.0448885812229212E-4
13.68,2.062918988416869E-4
13.684000000000001,2.040320878067121E-4
13.688,1.9614678972722566E-4
13.692,1.9227626231625822E-4
13.696,1.949447625809625E-4
13.700000000000001,1.9874316836315415E-4
13.704,1.9835851967634987E-4
13.708,1.965795194998804E-4
13.712,1.9391101923517615E-4
13.716000000000001,1.9239646503088452E-4
13.72,1.9323788403326878E-4
13.724,1.9845468184805093E-4
13.728,1.9679588438620778E-4
13.732000000000001,1.9297343806109086E-4
13.736,1.9595446538382355E-4
13.74,2.004740874537731E-4
13.744,1.9636315461355304E-4
13.748000000000001,1.9056938376856453E-4
13.752,1.9028089725346136E-4
13.756,1.8645845092834444E-4
13.76,1.8470349129480018E-4
13.764000000000001,1.8568915355473601E-4
13.768,1.856410724688855E-4
13.772,1.872037077590276E-4
13.776,1.8898270793549712E-4
13.780000000000001,1.873479510165792E-4
13.784,1.8922311336474974E-4
13.788,1.8835765381944024E-4
13.792,1.9222818123040768E-4
13.796000000000001,1.9174737037190242E-4
13.8,1.9059342431148978E-4
13.804,1.9145888385679926E-4
13.808,1.915550460285003E-4
13.812000000000001,1.9410334357857826E-4
13.816,1.9448799226538246E-4
13.82,1.9528133018191618E-4
13.824,1.9419950575027932E-4
13.828,1.8814128893311288E-4
13.832,1.8653057255712022E-4
13.836,1.872037077590276E-4
13.84,1.902568567105361E-4
13.844,1.923003028591835E-4
13.848,1.8903078902134763E-4
13.852,1.8487177509527702E-4
13.856,1.8604976169861497E-4
13.86,1.8758835644583181E-4
13.864,1.887423025062445E-4
13.868,1.92348383945034E-4
13.872,1.9114635679877084E-4
13.876,1.8965584313740448E-4
13.88,1.8975200530910554E-4
13.884,1.8857401870576765E-4
13.888,1.8374186957778962E-4
13.892,1.848958156382023E-4
13.896,1.8715562667317708E-4
13.9,1.8744411318828024E-4
13.904,1.887423025062445E-4
13.908,1.91434843313874E-4
13.912,1.9448799226538246E-4
13.916,1.9581022212627198E-4
13.92,1.9059342431148978E-4
13.924,1.8633824821371814E-4
13.928,1.9088191082659294E-4
13.932,1.9172332982897715E-4
13.936,1.8559299138303496E-4
13.94,1.8273216677492857E-4
13.944,1.8446308586554755E-4
13.948,1.8583339681228759E-4
13.952,1.8693926178684972E-4
13.956,1.90978072998294E-4
13.96,1.9083382974074243E-4
13.964,1.8842977544821602E-4
13.968,1.837659101207149E-4
13.972,1.8068872062628117E-4
13.976,1.8165034234329173E-4
13.98,1.825158018886012E-4
13.984,1.8222731537349804E-4
13.988,1.8280428840370435E-4
13.992,1.7946265293709274E-4
13.996,1.7936649076539168E-4
14.0,1.8169842342914225E-4
14.004,1.8391015337826651E-4
14.008000000000001,1.868671401580739E-4
14.012,1.8465541020894967E-4
14.016,1.831648965475833E-4
14.02,1.834293425197612E-4
14.024000000000001,1.83501464148537E-4
14.028,1.831648965475833E-4
14.032,1.7989538270974748E-4
14.036,1.820109504871707E-4
14.040000000000001,1.8460732912309912E-4
14.044,1.7895780153566218E-4
14.048,1.7342847666285157E-4
14.052,1.7463050380911476E-4
14.056000000000001,1.778278960181748E-4
14.06,1.788135582781106E-4
14.064,1.8003962596729905E-4
14.068,1.823234775451991E-4
14.072000000000001,1.8184266668669382E-4
14.076,1.8347742360561172E-4
14.08,1.827802478607791E-4
14.084,1.7958285565171906E-4
14.088000000000001,1.814820585428149E-4
14.092,1.8249176134567594E-4
14.096,1.857612751835118E-4
14.1,1.8234751808812437E-4
14.104000000000001,1.8309277491880752E-4
14.108,1.8092912605553382E-4
14.112,1.775634500459969E-4
14.116,1.7715476081626744E-4
14.120000000000001,1.7864527447763375E-4
14.124,1.8061659899750538E-4
14.128,1.786933555634843E-4
14.132,1.7426989566523578E-4
14.136000000000001,1.7638546344265902E-4
14.14,1.7989538270974748E-4
14.144,1.7977517999512115E-4
14.148,1.78212544704979E-4
14.152000000000001,1.7799617981865165E-4
14.156,1.7989538270974748E-4
14.16,1.8568915355473601E-4
14.164,1.8737199155950443E-4
14.168000000000001,1.81217612570637E-4
14.172,1.7539980118272318E-4
14.176,1.773711257025948E-4
14.18,1.776836527606232E-4
14.184000000000001,1.7350059829162736E-4
14.188,1.754478822685737E-4
14.192,1.8143397745696435E-4
14.196,1.8237155863104961E-4
14.200000000000001,1.7761153113184742E-4
14.204,1.723466522312147E-4
14.208,1.736688820921042E-4
14.212,1.7636142289973375E-4
14.216000000000001,1.762652607280327E-4
14.22,1.7388524697843155E-4
14.224,1.7352463883455263E-4
14.228,1.7616909855633163E-4
14.232000000000001,1.7939053130831695E-4
14.236,1.8193882885839487E-4
14.24,1.8208307211594647E-4
14.244,1.783567879625306E-4
14.248000000000001,1.7749132841722112E-4
14.252,1.7677011212946322E-4
14.256,1.809531665984591E-4
14.26,1.8999241073835817E-4
14.264000000000001,1.9165120820020137E-4
14.268,1.848236940094265E-4
14.272,1.661441921564967E-4
14.276,1.3585310807066455E-4
14.280000000000001,1.0851901076463988E-4
14.284,8.697868430360367E-5
14.288,7.724226441887193E-5
14.292,9.036840085606584E-5
14.296000000000001,1.0986528116845463E-4
14.3,1.2998721559690025E-4
14.304,1.5857142113503866E-4
14.308,1.796068961946443E-4
14.312000000000001,1.876604780746076E-4
14.316,1.898962485666571E-4
14.32,1.8662673472882128E-4
14.324,1.8448712640847282E-4
14.328000000000001,1.7864527447763375E-4
14.332,1.7799617981865165E-4
14.336,1.8542470758255812E-4
14.34,1.902568567105361E-4
14.344,1.9085787028366767E-4
14.348,1.8578531572643707E-4
14.352,1.8018386922485065E-4
14.356,1.8215519374472226E-4
14.36,1.8234751808812437E-4
14.364,1.842948020650707E-4
14.368,1.854968292113339E-4
14.372,1.8458328858017388E-4
14.376,1.8494389672405284E-4
14.38,1.871315861302518E-4
14.384,1.841024777216686E-4
14.388,1.8157822071451595E-4
14.392,1.8092912605553382E-4
14.396,1.8306873437588225E-4
14.4,1.8499197780990335E-4
14.404,1.8092912605553382E-4
14.408,1.776355716747727E-4
14.412,1.8333318034806015E-4
14.416,1.848236940094265E-4
14.42,1.7984730162389696E-4
14.424,1.782846663337548E-4
14.428,1.791982069649148E-4
14.432,1.8280428840370435E-4
14.436,1.8501601835282862E-4
14.44,1.831648965475833E-4
14.444,1.8427076152214544E-4
14.448,1.8405439663581809E-4
14.452,1.836937884919391E-4
14.456,1.836937884919391E-4
14.46,1.873960321024297E-4
14.464,1.8924715390767502E-4
14.468,1.887423025062445E-4
14.472,1.885259376199171E-4
14.476,1.8881442413502028E-4
14.48,1.9114635679877084E-4
14.484,1.8953564042277816E-4
14.488,1.904010999680877E-4
14.492,1.9179545145775294E-4
14.496,1.906655459402656E-4
14.5,1.8758835644583181E-4
14.504,1.920358568870056E-4
14.508000000000001,1.9720457361593725E-4
14.512,1.9496880312388777E-4
14.516,1.8907887010719817E-4
14.52,1.8665077527174655E-4
14.524000000000001,1.915069649426498E-4
14.528,1.9419950575027932E-4
14.532,1.9073766756904137E-4
14.536,1.8693926178684972E-4
14.540000000000001,1.8314085600465804E-4
14.544,1.7907800425028848E-4
14.548,1.800155854243738E-4
14.552,1.8222731537349804E-4
14.556000000000001,1.8282832894662962E-4
14.56,1.810012476843096E-4
14.564,1.7792405818987586E-4
14.568,1.7780385547524954E-4
14.572000000000001,1.7943861239416747E-4
14.576,1.8165034234329173E-4
14.58,1.7775577438939902E-4
14.584,1.7402949023598315E-4
14.588000000000001,1.7369292263502947E-4
14.592,1.7448626055156314E-4
14.596,1.7383716589258104E-4
14.6,1.7460646326618946E-4
14.604000000000001,1.7535172009687264E-4
14.608,1.7739516624552007E-4
14.612,1.795588151087938E-4
14.616,1.7999154488144853E-4
14.620000000000001,1.795588151087938E-4
14.624,1.7777981493232427E-4
14.628,1.7520747683932107E-4
14.632,1.76842233758239E-4
14.636000000000001,1.743179767510863E-4
14.64,1.6994259793868833E-4
14.644,1.709042196556989E-4
14.648,1.762652607280327E-4
14.652000000000001,1.767941526723885E-4
14.656,1.7253897657461682E-4
14.66,1.698945168528378E-4
14.664,1.7133694942835363E-4
14.668000000000001,1.718177602868589E-4
14.672,1.6919734110800518E-4
14.676,1.695098681660336E-4
14.68,1.7318807123359892E-4
14.684000000000001,1.7246685494584104E-4
14.688,1.7400544969305788E-4
14.692,1.7220240897366314E-4
14.696,1.725630171175421E-4
14.700000000000001,1.7513535521054529E-4
14.704,1.773711257025948E-4
14.708,1.7463050380911476E-4
14.712,1.7167351702930734E-4
14.716000000000001,1.755921255261253E-4
14.72,1.7917416642198954E-4
14.724,1.801357881390001E-4
14.728,1.8465541020894967E-4
14.732000000000001,1.7501515249591896E-4
14.736,1.6393246220737243E-4
14.74,1.6604802998479565E-4
14.744,1.714331116000547E-4
14.748000000000001,1.741256524076842E-4
14.752,1.769864770157906E-4
14.756,1.7715476081626744E-4
14.76,1.7277938200386945E-4
14.764000000000001,1.6941370599433253E-4
14.768,1.70639773683521E-4
14.772,1.7400544969305788E-4
14.776,1.7402949023598315E-4
14.780000000000001,1.7162543594345683E-4
14.784,1.712167467137273E-4
14.788,1.7150523322883047E-4
14.792,1.70639773683521E-4
14.796000000000001,1.6763470581786306E-4
14.8,1.68908854592902E-4
14.804,1.7414969295060945E-4
14.808,1.8184266668669382E-4
14.812000000000001,1.7859719339178323E-4
14.816,1.6434115143710193E-4
14.82,1.609273943417145E-4
14.824,1.637641784068956E-4
14.828000000000001,1.645575163234293E-4
14.832,1.6789915179004096E-4
14.836,1.6602398944187037E-4
14.84,1.6862036807779884E-4
14.844000000000001,1.6946178708018305E-4
14.848,1.6684136790132934E-4
14.852,1.6489408392438297E-4
14.856,1.6470175958098086E-4
14.86,1.6503832718193457E-4
14.864,1.6609611107064616E-4
14.868,1.6768278690371357E-4
14.872,1.7126482779957785E-4
14.876,1.7604889584170528E-4
14.88,1.7475070652374106E-4
14.884,1.7075997639814732E-4
14.888,1.6720197604520832E-4
14.892,1.685963275348736E-4
14.896,1.696300708806599E-4
14.9,1.633795297200914E-4
14.904,1.5977344828130183E-4
14.908,1.6157648900069662E-4
14.912,1.6604802998479565E-4
14.916,1.6511044881071035E-4
14.92,1.644853946946535E-4
14.924,1.6450943523757877E-4
14.928,1.6405266492199876E-4
14.932,1.6424498926540087E-4
14.936,1.6508640826778508E-4
14.94,1.7027916553964204E-4
14.944,1.724187738599905E-4
14.948,1.714331116000547E-4
14.952,1.6866844916364938E-4
14.956,1.6811551667636831E-4
14.96,1.6301892157621244E-4
14.964,1.5607120467081123E-4
14.968,1.6458155686635456E-4
14.972,1.7018300336794098E-4
14.976,1.6489408392438297E-4
14.98,1.5818677244823447E-4
14.984,1.5775404267557973E-4
14.988,1.567683804156439E-4
14.992,1.5751363724632707E-4
14.996,1.6102355651341556E-4
15.0,1.639565027502977E-4
15.004,1.6234578637430507E-4
15.008000000000001,1.634276108059419E-4
15.012,1.665288408433009E-4
15.016,1.6770682744663885E-4
15.02,1.6499024609608403E-4
15.024000000000001,1.6280255668988508E-4
15.028,1.6398054329322298E-4
15.032,1.6458155686635456E-4
15.036,1.6571146238384196E-4
15.040000000000001,1.647498406668314E-4
15.044,1.650142866390093E-4
15.048,1.6749046256031146E-4
15.052,1.67538543646162E-4
15.056000000000001,1.6477388120975667E-4
15.06,1.669615706159557E-4
15.064,1.6462963795220507E-4
15.068,1.6061486728368606E-4
15.072000000000001,1.602542591398071E-4
15.076,1.6152840791484608E-4
15.08,1.6188901605872504E-4
15.084,1.650142866390093E-4
15.088000000000001,1.6361993514934402E-4
15.092,1.6321124591961455E-4
15.096,1.6638459758574933E-4
15.1,1.6777894907541463E-4
15.104000000000001,1.6821167884806937E-4
15.108,1.7357271992040314E-4
15.112,1.7607293638463055E-4
15.116,1.7071189531229678E-4
15.120000000000001,1.5580675869863333E-4
15.124,1.300833777686013E-4
15.128,1.0178765874556605E-4
15.132,7.731438604764772E-5
15.136000000000001,6.397188472412643E-5
15.14,7.0318588056396E-5
15.144,8.846919796497003E-5
15.148,1.1032205148403464E-4
15.152000000000001,1.3984383819625831E-4
15.156,1.6535085423996298E-4
15.16,1.7568828769782635E-4
15.164,1.8011174759607483E-4
15.168000000000001,1.757123282407516E-4
15.172,1.717696792010084E-4
15.176,1.7191392245855997E-4
15.18,1.7335635503407576E-4
15.184000000000001,1.7316403069067367E-4
15.188,1.755921255261253E-4
15.192,1.7660182832898637E-4
15.196,1.7508727412469477E-4
15.200000000000001,1.7244281440291577E-4
15.204,1.7174563865808313E-4
15.208,1.712888683425031E-4
15.212,1.7092826019862416E-4
15.216000000000001,1.710244223703252E-4
15.22,1.7280342254679472E-4
15.224,1.735967604633284E-4
15.228,1.7381312534965577E-4
15.232000000000001,1.7088017911277362E-4
15.236,1.6657692192915144E-4
15.24,1.6381225949274613E-4
15.244,1.6717793550228305E-4
15.248000000000001,1.7342847666285157E-4
15.252,1.7297170634727156E-4
15.256,1.6612015161357143E-4
15.26,1.7015896282501574E-4
15.264000000000001,1.7263513874631788E-4
15.268,1.726832198321684E-4
15.272,1.7155331431468101E-4
15.276,1.7323615231944946E-4
15.280000000000001,1.7539980118272318E-4
15.284,1.7364484154917893E-4
15.288,1.7643354452850953E-4
15.292,1.816022612574412E-4
15.296000000000001,1.8015982868192537E-4
15.3,1.779000176469506E-4
15.304,1.7701051755871584E-4
15.308,1.7785193656110008E-4
15.312000000000001,1.820590315730212E-4
15.316,1.787414366493348E-4
15.32,1.7472666598081582E-4
15.324,1.7475070652374106E-4
15.328000000000001,1.7539980118272318E-4
15.332,1.7773173384647375E-4
15.336,1.8090508551260855E-4
15.34,1.850881399816044E-4
15.344000000000001,1.820590315730212E-4
15.348,1.790058826215127E-4
15.352,1.78212544704979E-4
15.356,1.7773173384647375E-4
15.36,1.7883759882103586E-4
15.364,1.7662586887191164E-4
15.368,1.742458551223105E-4
15.372,1.7357271992040314E-4
15.376,1.7179371974393367E-4
15.38,1.713609899712789E-4
15.384,1.729476658043463E-4
15.388,1.7018300336794098E-4
15.392,1.66264394871123E-4
15.396,1.6676924627255355E-4
15.4,1.6559125966921563E-4
15.404,1.6525469206826192E-4
15.408,1.6578358401261775E-4
15.412,1.6777894907541463E-4
15.416,1.6749046256031146E-4
15.42,1.6725005713105884E-4
15.424,1.676587463607883E-4
15.428,1.661441921564967E-4
15.432,1.666009624720767E-4
15.436,1.6398054329322298E-4
15.44,1.6249002963185664E-4
15.444,1.6249002963185664E-4
15.448,1.634997324347177E-4
15.452,1.617688133440987E-4
15.456,1.6378821894982086E-4
15.46,1.5931667796572184E-4
15.464,1.534748260348828E-4
15.468,1.5534998838305335E-4
15.472,1.5595100195618493E-4
15.476,1.5458069100944492E-4
15.48,1.5662413715809232E-4
15.484,1.5573463706985754E-4
15.488,1.6097547542756504E-4
15.492,1.6585570564139353E-4
15.496,1.659518678130946E-4
15.5,1.6503832718193457E-4
15.504,1.661441921564967E-4
15.508000000000001,1.6628843541404827E-4
15.512,1.667932868154788E-4
15.516,1.697021925094357E-4
15.52,1.7078401694107256E-4
15.524000000000001,1.708320980269231E-4
15.528,1.6809147613344304E-4
15.532,1.6895693567875252E-4
15.536,1.709042196556989E-4
15.540000000000001,1.6847612482024727E-4
15.544,1.6636055704282406E-4
15.548,1.636920567781198E-4
15.552,1.6631247595697354E-4
15.556000000000001,1.6573550292676723E-4
15.56,1.5958112393789974E-4
15.564,1.6152840791484608E-4
15.568,1.634276108059419E-4
15.572000000000001,1.656153002121409E-4
15.576,1.6523065152533665E-4
15.58,1.6758662473201252E-4
15.584,1.689809762216778E-4
15.588000000000001,1.6874057079242517E-4
15.592,1.6717793550228305E-4
15.596,1.6470175958098086E-4
15.6,1.6458155686635456E-4
15.604000000000001,1.6705773278765672E-4
15.608,1.6914926002215464E-4
15.612,1.695579492518841E-4
15.616,1.7112058454202625E-4
15.620000000000001,1.6866844916364938E-4
15.624,1.6549509749751458E-4
15.628,1.651344893536356E-4
15.632,1.6523065152533665E-4
15.636000000000001,1.625861918035577E-4
15.64,1.6301892157621244E-4
15.644,1.6015809696810605E-4
15.648,1.5931667796572184E-4
15.652000000000001,1.6162457008654714E-4
15.656,1.6116779977096713E-4
15.66,1.592685968798713E-4
15.664,1.5934071850864709E-4
15.668000000000001,1.594609212232734E-4
15.672,1.566962587868681E-4
15.676,1.5854738059211342E-4
15.68,1.6078315108416293E-4
15.684000000000001,1.6128800248559346E-4
15.688,1.5962920502375025E-4
15.692,1.596772861096008E-4
15.696,1.619851782304261E-4
15.700000000000001,1.6277851614695981E-4
15.704,1.6446135415172823E-4
15.708,1.6200921877335136E-4
15.712,1.6126396194266818E-4
15.716000000000001,1.580425291906829E-4
15.72,1.5852334004918815E-4
15.724,1.5561443435523122E-4
15.728,1.576097994180281E-4
15.732000000000001,1.623217458313798E-4
15.736,1.651344893536356E-4
15.74,1.5958112393789974E-4
15.744,1.5599908304203544E-4
15.748000000000001,1.5405179906508913E-4
15.752,1.5597504249911017E-4
15.756,1.586195022208892E-4
15.76,1.60518705111985E-4
15.764000000000001,1.608071916270882E-4
15.768,1.6246598908893137E-4
15.772,1.6152840791484608E-4
15.776,1.6477388120975667E-4
15.780000000000001,1.6499024609608403E-4
15.784,1.5715302910244812E-4
15.788,1.5773000213265445E-4
15.792,1.6318720537668928E-4
15.796000000000001,1.67081773330582E-4
15.8,1.6739430038861043E-4
15.804,1.6467771903805561E-4
15.808,1.6381225949274613E-4
15.812000000000001,1.6566338129799142E-4
15.816,1.634997324347177E-4
15.82,1.641728676366251E-4
15.824,1.6347569189179245E-4
15.828000000000001,1.6244194854600613E-4
15.832,1.5936475905157236E-4
15.836,1.6095143488463977E-4
15.84,1.6181689442994925E-4
15.844000000000001,1.650623677248598E-4
15.848,1.6366801623519454E-4
15.852,1.6361993514934402E-4
15.856,1.6530277315411244E-4
15.860000000000001,1.6426902980832612E-4
15.864,1.6313912429083877E-4
15.868,1.620332593162766E-4
15.872,1.625381107177072E-4
15.876,1.6732217875983462E-4
15.88,1.7039936825426837E-4
15.884,1.6299488103328717E-4
15.888,1.5489321806747334E-4
15.892,1.5619140738543758E-4
15.896,1.603263807685829E-4
15.9,1.634997324347177E-4
15.904,1.617207322582482E-4
15.908,1.597253671954513E-4
15.912,1.620332593162766E-4
15.916,1.650142866390093E-4
15.92,1.6535085423996298E-4
15.924,1.6227366474552926E-4
15.928,1.60061934796405E-4
15.932,1.6222558365967872E-4
15.936,1.6174477280117347E-4
15.94,1.5736939398877547E-4
15.944,1.5508554241087545E-4
15.948,1.5727323181707442E-4
15.952,1.6462963795220507E-4
15.956,1.672740976739841E-4
15.96,1.6508640826778508E-4
15.964,1.642209487224756E-4
15.968,1.6835592210562094E-4
15.972,1.7119270617080203E-4
15.976,1.7027916553964204E-4
15.98,1.640286243790735E-4
15.984,1.415747572868773E-4
15.988,1.1570713309929367E-4
15.992,9.178679288865639E-5
15.996,7.296304777817501E-5
16.0,7.404487220981186E-5
16.004,9.197911723205851E-5
16.008,1.0378302380836292E-4
16.012,1.2366455280755592E-4
16.016000000000002,1.546528126382207E-4
16.02,1.7027916553964204E-4
16.024,1.6794723287589147E-4
16.028,1.6926946273678096E-4
16.032,1.722264495165884E-4
16.036,1.7780385547524954E-4
16.04,1.8003962596729905E-4
16.044,1.7568828769782635E-4
16.048000000000002,1.6881269242120095E-4
16.052,1.6688944898717985E-4
16.056,1.6599994889894513E-4
16.06,1.6585570564139353E-4
16.064,1.678751112471157E-4
16.068,1.6811551667636831E-4
16.072,1.680674355905178E-4
16.076,1.7119270617080203E-4
16.080000000000002,1.722264495165884E-4
16.084,1.734044361199263E-4
16.088,1.761931390992569E-4
16.092,1.7715476081626744E-4
16.096,1.7852507176300745E-4
16.1,1.7689031484408954E-4
16.104,1.739333280642821E-4
16.108,1.7297170634727156E-4
16.112000000000002,1.7035128716841783E-4
16.116,1.6823571939099464E-4
16.12,1.722985711453642E-4
16.124,1.7328423340529997E-4
16.128,1.6919734110800518E-4
16.132,1.6609611107064616E-4
16.136,1.7213028734488735E-4
16.14,1.7436605783693684E-4
16.144000000000002,1.7732304461674428E-4
16.148,1.7475070652374106E-4
16.152,1.696300708806599E-4
16.156,1.7184180082978418E-4
16.16,1.7720284190211796E-4
16.164,1.7941457185124222E-4
16.168,1.8239559917397489E-4
16.172,1.848958156382023E-4
16.176000000000002,1.816022612574412E-4
16.18,1.7708263918749163E-4
16.184,1.8150609908574013E-4
16.188,1.867469374434476E-4
16.192,1.831648965475833E-4
16.196,1.7852507176300745E-4
16.2,1.7833274741960533E-4
