time,channel1
0.0,-0.02118310803370969
0.004,-0.02118000680367233
0.008,-0.02117772295209443
0.012,-0.021179742357700152
0.016,-0.02118072801996009
0.02,-0.02118017508747281
0.024,-0.021178973060326546
0.028,-0.021175967992460888
0.032,-0.021176112235718438
0.036000000000000004,-0.021179189425212873
0.04,-0.02118118479027567
0.044,-0.021182050249820977
0.048,-0.02118269934447996
0.052000000000000005,-0.02118224257416438
0.056,-0.021181906006563427
0.06,-0.021182531060679483
0.064,-0.021183588844568196
0.068,-0.021183709047282822
0.07200000000000001,-0.021181617520048324
0.076,-0.021179838519871853
0.08,-0.021178852857611917
0.084,-0.021178323965667562
0.088,-0.021175366978887757
0.092,-0.021172458073193796
0.096,-0.02117361201925421
0.1,-0.021176785370920347
0.10400000000000001,-0.02117745850612225
0.108,-0.02117786719535198
0.112,-0.02117635264114769
0.116,-0.021176280519518916
0.12,-0.021178684573811443
0.124,-0.021180992465932268
0.128,-0.021182122371449754
0.132,-0.021181256911904443
0.136,-0.021178516290010965
0.14,-0.021179718317157228
0.14400000000000002,-0.02118351672293942
0.148,-0.02118476683117153
0.152,-0.02118342056076772
0.156,-0.021184454304113504
0.16,-0.02118731512872161
0.164,-0.021189623020842437
0.168,-0.021189887466814612
0.17200000000000001,-0.021189022007269305
0.176,-0.021189671101928285
0.18,-0.021191281818304278
0.184,-0.021191666466991083
0.188,-0.021191305858847206
0.192,-0.021189238372155632
0.196,-0.021187747858494265
0.2,-0.02118736320980746
0.20400000000000001,-0.021186016939403647
0.20800000000000002,-0.02118132903353322
0.212,-0.021178372046753415
0.216,-0.021180896303760566
0.22,-0.021183180155338467
0.224,-0.021182386817421933
0.228,-0.021179694276614303
0.232,-0.021178684573811443
0.23600000000000002,-0.021180295290187435
0.24,-0.021166447937462477
0.244,-0.021169717451300314
0.248,-0.021173131208395705
0.252,-0.021175366978887757
0.256,-0.021177915276437833
0.26,-0.021178155681867084
0.264,-0.021176881533092048
0.268,-0.021178564371096813
0.272,-0.021179694276614303
0.276,-0.021181497317333698
0.28,-0.021184911074429085
0.28400000000000003,-0.02118681027732018
0.28800000000000003,-0.021189070088355154
0.292,-0.02118914220998393
0.296,-0.02118476683117153
0.3,-0.021179622154985527
0.304,-0.02118108862810397
0.308,-0.02118534380420174
0.312,-0.021186401588090452
0.316,-0.02118539188528759
0.32,-0.021185464006916364
0.324,-0.021185464006916364
0.328,-0.02118334843913894
0.332,-0.021181377114619072
0.336,-0.0211817858038488
0.34,-0.02118058377670254
0.34400000000000003,-0.021179333668470423
0.34800000000000003,-0.021181136709189818
0.352,-0.021183372479681866
0.356,-0.021183540763482344
0.36,-0.021182867628280436
0.364,-0.021182314695793156
0.368,-0.021182555101222408
0.372,-0.021180655898331312
0.376,-0.021179670236071375
0.38,-0.02118072801996009
0.384,-0.02118147327679077
0.388,-0.0211816896416771
0.392,-0.02118224257416438
0.396,-0.02118342056076772
0.4,-0.021183949452712073
0.404,-0.02118443026357058
0.40800000000000003,-0.02118320419588139
0.41200000000000003,-0.021179838519871853
0.41600000000000004,-0.021177698911551506
0.42,-0.02117890093869777
0.424,-0.021178372046753415
0.428,-0.021178179722410012
0.432,-0.021178444168382188
0.436,-0.02117909326304117
0.44,-0.02118017508747281
0.444,-0.021181641560591248
0.448,-0.021181978128192204
0.452,-0.021181978128192204
0.456,-0.021181641560591248
0.46,-0.021180944384846415
0.464,-0.02118000680367233
0.468,-0.021177242141235925
0.47200000000000003,-0.02117269847862305
0.47600000000000003,-0.021172626356994274
0.48,-0.02117676133037742
0.484,-0.021179742357700152
0.488,-0.021180247209101583
0.492,-0.02118132903353322
0.496,-0.02118132903353322
0.5,-0.021181497317333698
0.504,-0.02118233873633608
0.508,-0.021181713682220025
0.512,-0.021180896303760566
0.516,-0.021180535695616686
0.52,-0.021178828817068993
0.524,-0.021177819114266132
0.528,-0.0211795019522709
0.532,-0.021181906006563427
0.536,-0.021182579141765336
0.54,-0.02118233873633608
0.544,-0.021183468641853567
0.548,-0.02118325227696724
0.552,-0.021180848222674714
0.556,-0.021180800141588865
0.56,-0.02118214641199268
0.5640000000000001,-0.021183059952623838
0.5680000000000001,-0.021183276317510165
0.5720000000000001,-0.021181208830818594
0.5760000000000001,-0.021179165384669945
0.58,-0.021177963357523682
0.584,-0.021177434465579327
0.588,-0.021177506587208104
0.592,-0.021178420127839263
0.596,-0.021178468208925112
0.6,-0.021176424762776466
0.604,-0.02117647284386232
0.608,-0.021177097897978375
0.612,-0.021177530627751028
0.616,-0.021178011438609534
0.62,-0.021179189425212873
0.624,-0.021178468208925112
0.628,-0.02118051165507376
0.632,-0.02118156943896247
0.636,-0.02118274742556581
0.64,-0.021182819547194587
0.644,-0.02118067993887424
0.648,-0.021178564371096813
0.652,-0.021178179722410012
0.656,-0.021177795073723207
0.66,-0.021177506587208104
0.664,-0.021178973060326546
0.668,-0.02117745850612225
0.672,-0.021174453438256594
0.676,-0.021174862127486323
0.68,-0.021177097897978375
0.684,-0.02117717001960715
0.6880000000000001,-0.021176496884405243
0.6920000000000001,-0.021176400722233542
0.6960000000000001,-0.02117697769526375
0.7000000000000001,-0.02117647284386232
0.704,-0.021175607384317008
0.708,-0.0211749342491151
0.712,-0.02117447747879952
0.716,-0.021173996667941015
0.72,-0.0211723619110221
0.724,-0.021172890802966454
0.728,-0.021174862127486323
0.732,-0.02117539101943068
0.736,-0.021175631424859932
0.74,-0.021174044749026864
0.744,-0.02117366010034006
0.748,-0.021174405357170745
0.752,-0.021174814046400474
0.756,-0.021174597681514147
0.76,-0.02117452555988537
0.764,-0.02117529485725898
0.768,-0.02117310716785278
0.772,-0.021171568573105565
0.776,-0.02117159261364849
0.78,-0.021172890802966454
0.784,-0.02117584778974626
0.788,-0.021177819114266132
0.792,-0.021178420127839263
0.796,-0.021179982763129407
0.8,-0.021182026209278053
0.804,-0.021182771466108734
0.808,-0.021182867628280436
0.812,-0.021184189858141328
0.8160000000000001,-0.0211840696554267
0.8200000000000001,-0.021183324398596017
0.8240000000000001,-0.021182386817421933
0.8280000000000001,-0.02118214641199268
0.8320000000000001,-0.021181881966020503
0.836,-0.021180800141588865
0.84,-0.021181112668646893
0.844,-0.02118046357398791
0.848,-0.021178107600781235
0.852,-0.021176160316804287
0.856,-0.021177771033180283
0.86,-0.021180247209101583
0.864,-0.021180439533444985
0.868,-0.0211794057900992
0.872,-0.02117620839789014
0.876,-0.021173732221968836
0.88,-0.021173131208395705
0.884,-0.021173299492196183
0.888,-0.021173491816539585
0.892,-0.021175463141059454
0.896,-0.021181016506475192
0.9,-0.021185007236600786
0.904,-0.021185103398772488
0.908,-0.021185992898860723
0.912,-0.02118736320980746
0.916,-0.02118858927749665
0.92,-0.021186593912433854
0.924,-0.021185151479858336
0.928,-0.02118762765577964
0.932,-0.021190272115501417
0.936,-0.021190079791158015
0.9400000000000001,-0.021186425628633376
0.9440000000000001,-0.021183300358053093
0.9480000000000001,-0.02118142519570492
0.9520000000000001,-0.021181040547018117
0.9560000000000001,-0.021180223168558658
0.96,-0.02117803547915246
0.964,-0.021177602749379805
0.968,-0.021178756695440216
0.972,-0.021179021141412395
0.976,-0.02117604011408966
0.98,-0.021172554235365498
0.984,-0.0211749342491151
0.988,-0.021179742357700152
0.992,-0.02118118479027567
0.996,-0.021180199128015734
1.0,-0.021179429830642124
1.004,-0.02117695365472082
1.008,-0.021173948586855163
1.012,-0.02117118392441876
1.016,-0.021168851991755003
1.02,-0.021167121072664385
1.024,-0.02116623157257615
1.028,-0.021166279653662003
1.032,-0.021168635626868677
1.036,-0.021172674438080127
1.04,-0.021177145979064223
1.044,-0.02118058377670254
1.048,-0.02118132903353322
1.052,-0.021182218533621455
1.056,-0.021182627222851184
1.06,-0.021180800141588865
1.064,-0.021176088195175514
1.068,-0.02117447747879952
1.072,-0.021175775668117486
1.076,-0.02117553526268823
1.08,-0.02117584778974626
1.084,-0.021177554668293953
1.088,-0.021179525992813825
1.092,-0.021181353074076145
1.096,-0.021182362776879005
1.1,-0.021181545398419547
1.104,-0.021179982763129407
1.108,-0.021179574073899678
1.112,-0.021179790438786004
1.116,-0.02118067993887424
1.12,-0.021183083993166766
1.124,-0.021184189858141328
1.1280000000000001,-0.02118469470954276
1.1320000000000001,-0.02118479087171446
1.1360000000000001,-0.021184310060855954
1.1400000000000001,-0.021183468641853567
1.1440000000000001,-0.021182579141765336
1.1480000000000001,-0.02118320419588139
1.1520000000000001,-0.021186930480034807
1.156,-0.02118995958844339
1.16,-0.021189358574870257
1.164,-0.021189238372155632
1.168,-0.02119233960219299
1.172,-0.021196282251232733
1.176,-0.021195416791687426
1.18,-0.021191450102104756
1.184,-0.02119015191278679
1.188,-0.021190632723645297
1.192,-0.02119159434536231
1.196,-0.021192363642735915
1.2,-0.02119416668345531
1.204,-0.021192724250879796
1.208,-0.021190344237130194
1.212,-0.02118955089921366
1.216,-0.02118899796672638
1.22,-0.02118818058826692
1.224,-0.021188973926183453
1.228,-0.02118950281812781
1.232,-0.021190656764188222
1.236,-0.02119224344002129
1.24,-0.02119334930499585
1.244,-0.021193950318568983
1.248,-0.021194190723998235
1.252,-0.021196402453947362
1.256,-0.0211978689270658
1.26,-0.021200489346244654
1.264,-0.021203855022254192
1.268,-0.02120366269791079
1.272,-0.021203181887052284
1.276,-0.02120416754931222
1.28,-0.021202220265335275
1.284,-0.021201162481446562
1.288,-0.02120010469755785
1.292,-0.02119762852163655
1.296,-0.02119676306209124
1.3,-0.021196642859376613
1.304,-0.021194503251056266
1.308,-0.021192555967079318
1.312,-0.021190632723645297
1.316,-0.021187507453065014
1.32,-0.0211862573448329
1.324,-0.021186065020489496
1.328,-0.021185632290716842
1.332,-0.021186185223204125
1.336,-0.021186593912433854
1.34,-0.02118553612854514
1.344,-0.021183468641853567
1.348,-0.021183276317510165
1.352,-0.021185512088002217
1.356,-0.021188156547723994
1.36,-0.02118813250718107
1.364,-0.02118762765577964
1.368,-0.02118767573686549
1.372,-0.021189358574870257
1.3760000000000001,-0.021189478777584883
1.3800000000000001,-0.02118767573686549
1.3840000000000001,-0.021187026642206508
1.3880000000000001,-0.021187795939580117
1.3920000000000001,-0.021187339169264536
1.3960000000000001,-0.021185824615060245
1.4000000000000001,-0.021183709047282822
1.4040000000000001,-0.021182579141765336
1.408,-0.021182170452535603
1.412,-0.021182386817421933
1.416,-0.02118233873633608
1.42,-0.021182891668823364
1.424,-0.021183180155338467
1.428,-0.021183132074252615
1.432,-0.021183709047282822
1.436,-0.021184045614883774
1.44,-0.021182410857964858
1.444,-0.02118173772276295
1.448,-0.021181906006563427
1.452,-0.021178179722410012
1.456,-0.021174188992284418
1.46,-0.021175727587031633
1.464,-0.021179237506298722
1.468,-0.021180944384846415
1.472,-0.02118108862810397
1.476,-0.021180247209101583
1.48,-0.021179862560414778
1.484,-0.021181040547018117
1.488,-0.02118301187153799
1.492,-0.021184478344656428
1.496,-0.02118269934447996
1.5,-0.02117945387118505
1.504,-0.021178420127839263
1.508,-0.021178828817068993
1.512,-0.02118031933073036
1.516,-0.021182122371449754
1.52,-0.021183059952623838
1.524,-0.021182290655250232
1.528,-0.021182290655250232
1.532,-0.021182362776879005
1.536,-0.02118265126339411
1.54,-0.02118284358773751
1.544,-0.02118274742556581
1.548,-0.021182939749909212
1.552,-0.021181906006563427
1.556,-0.021179357709013347
1.56,-0.02117849224946804
1.564,-0.02117909326304117
1.568,-0.021178660533268515
1.572,-0.02117745850612225
1.576,-0.02117647284386232
1.58,-0.02117695365472082
1.584,-0.021178780735983144
1.588,-0.0211794057900992
1.592,-0.02118067993887424
1.596,-0.021180703979417164
1.6,-0.021179694276614303
1.604,-0.021178660533268515
1.608,-0.021179189425212873
1.612,-0.021179766398243077
1.616,-0.02118142519570492
1.62,-0.021181641560591248
1.624,-0.02118055973615961
1.6280000000000001,-0.021179574073899678
1.6320000000000001,-0.021178059519695383
1.6360000000000001,-0.021177194060150076
1.6400000000000001,-0.02117822780349586
1.6440000000000001,-0.021178107600781235
1.6480000000000001,-0.021176328600604765
1.6520000000000001,-0.021177025776349598
1.6560000000000001,-0.021178348006210487
1.6600000000000001,-0.02117854033055389
1.6640000000000001,-0.021178444168382188
1.668,-0.021178372046753415
1.672,-0.021177097897978375
1.676,-0.021174862127486323
1.68,-0.021174573640971223
1.684,-0.021173732221968836
1.688,-0.021170967559532426
1.692,-0.021169957856729565
1.696,-0.02117060695138855
1.7,-0.02117296292459523
1.704,-0.02117337161382496
1.708,-0.021173804343597613
1.712,-0.021176232438433064
1.716,-0.021177410425036403
1.72,-0.021178420127839263
1.724,-0.02117914134412702
1.728,-0.02117863649272559
1.732,-0.021178949019783618
1.736,-0.021180127006386957
1.74,-0.02118055973615961
1.744,-0.02118082418213179
1.748,-0.021181208830818594
1.752,-0.021181978128192204
1.756,-0.021181449236247846
1.76,-0.02118106458756104
1.764,-0.02118051165507376
1.768,-0.02118000680367233
1.772,-0.021179574073899678
1.776,-0.021177963357523682
1.78,-0.021178420127839263
1.784,-0.02117964619552845
1.788,-0.021181304992990296
1.792,-0.02118200216873513
1.796,-0.021180848222674714
1.8,-0.021179237506298722
1.804,-0.021177049816892522
1.808,-0.0211748380869434
1.812,-0.021170534829759773
1.816,-0.021167072991578533
1.82,-0.021166712383434656
1.824,-0.02116690470777806
1.828,-0.0211659911671469
1.832,-0.021165101667058664
1.836,-0.021166952788863908
1.84,-0.021170943518989502
1.844,-0.02117529485725898
1.848,-0.021178323965667562
1.852,-0.02117964619552845
1.856,-0.02117854033055389
1.86,-0.02117584778974626
1.864,-0.021175102532915577
1.868,-0.021174357276084892
1.872,-0.02117539101943068
1.8760000000000001,-0.021177386384493478
1.8800000000000001,-0.021177771033180283
1.8840000000000001,-0.021175607384317008
1.8880000000000001,-0.02117411687065564
1.8920000000000001,-0.0211728427218806
1.8960000000000001,-0.021172217667764545
1.9000000000000001,-0.021171953221792366
1.9040000000000001,-0.021171352208219234
1.9080000000000001,-0.02117118392441876
1.9120000000000001,-0.021172434032650872
1.9160000000000001,-0.021172289789393322
1.92,-0.02117219362722162
1.924,-0.02117296292459523
1.928,-0.021173443735453733
1.932,-0.021174092830112717
1.936,-0.02117519869508728
1.94,-0.0211748380869434
1.944,-0.02117411687065564
1.948,-0.02117452555988537
1.952,-0.02117366010034006
1.956,-0.021172482113736724
1.96,-0.02117219362722162
1.964,-0.021170534829759773
1.968,-0.021168707748497453
1.972,-0.02116815481601017
1.976,-0.02116649601854833
1.98,-0.021166712383434656
1.984,-0.02116832309981065
1.988,-0.021169356843156434
1.992,-0.0211681788565531
1.996,-0.021165702680631795
2.0,-0.02116490934271526
2.004,-0.021165510356288393
2.008,-0.02116490934271526
2.012,-0.02116394772099825
2.016,-0.02116558247791717
2.02,-0.021167577842979967
2.024,-0.021167361478093637
2.028,-0.021167457640265338
2.032,-0.021168395221439425
2.036,-0.021168082694381397
2.04,-0.021167217234836087
2.044,-0.02116704895103561
2.048,-0.021168491383611127
2.052,-0.021168226937638947
2.056,-0.02116760188352289
2.06,-0.021168202897096023
2.064,-0.021167842288952143
2.068,-0.021166880667235134
2.072,-0.0211684673430682
2.076,-0.021170318464873446
2.08,-0.021170390586502223
2.084,-0.021169549167499836
2.088,-0.02116760188352289
2.092,-0.02116760188352289
2.096,-0.021169356843156434
2.1,-0.021170462708130996
2.104,-0.021170967559532426
2.108,-0.021170679073017323
2.112,-0.021170126140530043
2.116,-0.021169645329671537
2.12,-0.021170150181072968
2.124,-0.021170823316274876
2.128,-0.021170919478446577
2.132,-0.021170919478446577
2.136,-0.021170991600075354
2.14,-0.021170991600075354
2.144,-0.021173684140882987
2.148,-0.021176136276261363
2.152,-0.021177843154809056
2.156,-0.021178444168382188
2.16,-0.021179189425212873
2.164,-0.021179694276614303
2.168,-0.0211795019522709
2.172,-0.021180752060503013
2.176,-0.0211837811689116
2.18,-0.02118519956094419
2.184,-0.02118594481777487
2.188,-0.021186545831348002
2.192,-0.021186065020489496
2.196,-0.02118553612854514
2.2,-0.021187146844921134
2.204,-0.02118839695315325
2.208,-0.02118786806120889
2.212,-0.021189887466814612
2.216,-0.021190801007445775
2.22,-0.021190079791158015
2.224,-0.021189478777584883
2.228,-0.021188060385552293
2.232,-0.02118798826392352
2.236,-0.021189382615413182
2.24,-0.02118995958844339
2.244,-0.02119106545341795
2.248,-0.02119087312907455
2.2520000000000002,-0.021189839385728763
2.2560000000000002,-0.021190488480387744
2.2600000000000002,-0.021192363642735915
2.2640000000000002,-0.021194046480740684
2.2680000000000002,-0.021194695575399665
2.2720000000000002,-0.021192531926536393
2.2760000000000002,-0.021191906872420337
2.2800000000000002,-0.02119411860236946
2.2840000000000003,-0.0211954889133162
2.2880000000000003,-0.021196426494490286
2.2920000000000003,-0.02119659477829076
2.2960000000000003,-0.0211955850754879
2.3000000000000003,-0.021193709913139732
2.3040000000000003,-0.021191353939933055
2.308,-0.021189478777584883
2.312,-0.021188829682925903
2.316,-0.021187026642206508
2.32,-0.021185752493431468
2.324,-0.021184502385199356
2.328,-0.021182723385022886
2.332,-0.021182627222851184
2.336,-0.021184045614883774
2.34,-0.02118315611479554
2.344,-0.02118096842538934
2.348,-0.02118017508747281
2.352,-0.02118005488475818
2.356,-0.021177843154809056
2.36,-0.021177194060150076
2.364,-0.021179069222498244
2.368,-0.021178708614354367
2.372,-0.02117697769526375
2.376,-0.021174814046400474
2.38,-0.021173732221968836
2.384,-0.02117438131662782
2.388,-0.021174357276084892
2.392,-0.021172794640794752
2.396,-0.021172482113736724
2.4,-0.02117200130287822
2.404,-0.021171207964961684
2.408,-0.021170630991931474
2.412,-0.021170871397360725
2.416,-0.021173395654367884
2.42,-0.02117647284386232
2.424,-0.021177843154809056
2.428,-0.021178612452182666
2.432,-0.021180295290187435
2.436,-0.02117955003335675
2.44,-0.021178612452182666
2.444,-0.02117839608729634
2.448,-0.021179237506298722
2.452,-0.021180199128015734
2.456,-0.021181136709189818
2.46,-0.021178564371096813
2.464,-0.021174958289658024
2.468,-0.021174645762599996
2.472,-0.021174405357170745
2.476,-0.02117685749254912
2.48,-0.021179237506298722
2.484,-0.02117813164132416
2.488,-0.021177218100693
2.492,-0.021177097897978375
2.496,-0.021176376681690617
2.5,-0.021176929614177897
2.504,-0.021179574073899678
2.508,-0.021181449236247846
2.512,-0.0211817858038488
2.516,-0.02118072801996009
2.52,-0.02117955003335675
2.524,-0.021179429830642124
2.528,-0.021179525992813825
2.532,-0.021178780735983144
2.536,-0.02117849224946804
2.54,-0.021178323965667562
2.544,-0.021179429830642124
2.548,-0.02117981447932893
2.552,-0.021178804776526068
2.556,-0.021176929614177897
2.56,-0.021175607384317008
2.564,-0.021174357276084892
2.568,-0.02117296292459523
2.572,-0.02117214554613577
2.576,-0.021172313829936246
2.58,-0.021173587978711286
2.584,-0.021174188992284418
2.588,-0.021174573640971223
2.592,-0.0211748380869434
2.596,-0.02117676133037742
2.6,-0.02117854033055389
2.604,-0.021180247209101583
2.608,-0.02118017508747281
2.612,-0.021177843154809056
2.616,-0.021176376681690617
2.62,-0.021176905573634972
2.624,-0.021177602749379805
2.628,-0.021178251844038785
2.632,-0.021179838519871853
2.636,-0.021180944384846415
2.64,-0.021182218533621455
2.644,-0.02118356480402527
2.648,-0.021184502385199356
2.652,-0.02118488703388616
2.656,-0.021184189858141328
2.66,-0.021182939749909212
2.664,-0.021181040547018117
2.668,-0.021178780735983144
2.672,-0.021176544965491092
2.676,-0.021175679505945785
2.68,-0.021176496884405243
2.684,-0.021177939316980757
2.688,-0.02118015104692988
2.692,-0.021181809844391726
2.696,-0.02118325227696724
2.7,-0.02118301187153799
2.704,-0.021185271682572962
2.708,-0.021188805642382978
2.712,-0.021189478777584883
2.716,-0.02118928645324148
2.72,-0.021189118169441006
2.724,-0.021189382615413182
2.728,-0.021189935547900465
2.732,-0.021190656764188222
2.736,-0.02118995958844339
2.74,-0.02118964706138536
2.744,-0.021190440399301895
2.748,-0.02119233960219299
2.7520000000000002,-0.02119599376471763
2.7560000000000002,-0.0211976766027224
2.7600000000000002,-0.02119709962969219
2.7640000000000002,-0.02119443112942749
2.7680000000000002,-0.021191954953506186
2.7720000000000002,-0.021191786669705708
2.7760000000000002,-0.02119106545341795
2.7800000000000002,-0.021191041412875027
2.7840000000000003,-0.021189623020842437
2.7880000000000003,-0.02118753149360794
2.7920000000000003,-0.021186377547547524
2.7960000000000003,-0.021185992898860723
2.8000000000000003,-0.02118849311532495
2.8040000000000003,-0.02119200303459204
2.8080000000000003,-0.021194094561826533
2.8120000000000003,-0.021194695575399665
2.816,-0.02119476769702844
2.82,-0.021193806075311433
2.824,-0.021192580007622242
2.828,-0.021192459804907617
2.832,-0.021193782034768505
2.836,-0.02119570527820253
2.84,-0.02119676306209124
2.844,-0.021197051548606342
2.848,-0.021197652562179474
2.852,-0.021196522656661988
2.856,-0.021195657197116677
2.86,-0.021193493548253402
2.864,-0.02118899796672638
2.868,-0.021186834317863106
2.872,-0.021186738155691404
2.876,-0.021185512088002217
2.88,-0.021183997533797926
2.884,-0.02118315611479554
2.888,-0.021182531060679483
2.892,-0.021181136709189818
2.896,-0.02118173772276295
2.9,-0.021183035912080914
2.904,-0.021182218533621455
2.908,-0.02118193004710635
2.912,-0.021185584209630993
2.916,-0.02118981534518584
2.92,-0.021192075156220812
2.924,-0.021192628088708095
2.928,-0.021191906872420337
2.932,-0.021192075156220812
2.936,-0.021192724250879796
2.94,-0.021191666466991083
2.944,-0.02119096929124625
2.948,-0.021191281818304278
2.952,-0.021193181021195374
2.956,-0.021193397386081704
2.96,-0.02119147414264768
2.964,-0.021192964656309047
2.968,-0.021194310926712864
2.972,-0.02119498406191477
2.976,-0.02119544083223035
2.98,-0.021195633156573752
2.984,-0.02119645053503321
2.988,-0.021196883264805864
2.992,-0.021195921643088856
2.996,-0.021193806075311433
3.0,-0.02119375799422558
3.004,-0.02119503214300062
3.008,-0.021195128305172322
3.012,-0.021192315561650066
3.016,-0.021189863426271688
3.02,-0.021190031710072166
3.024,-0.021190031710072166
3.028,-0.021188348872067397
3.032,-0.02118534380420174
3.036,-0.0211842619797701
3.04,-0.021186978561120656
3.044,-0.021189935547900465
3.048,-0.021192411723821768
3.052,-0.021193445467167553
3.056,-0.02119265212925102
3.06,-0.02119229152110714
3.064,-0.021190488480387744
3.068,-0.021188949885640528
3.072,-0.02118731512872161
3.076,-0.02118534380420174
3.08,-0.021184093695969627
3.084,-0.021183588844568196
3.088,-0.02118325227696724
3.092,-0.021184213898684252
3.096,-0.02118438218248473
3.1,-0.021185151479858336
3.104,-0.021185415925830516
3.108,-0.021184911074429085
3.112,-0.021185055317686635
3.116,-0.02118479087171446
3.12,-0.021183877331083296
3.124,-0.021182122371449754
3.128,-0.021182482979593634
3.132,-0.021181809844391726
3.136,-0.021179622154985527
3.14,-0.021178804776526068
3.144,-0.021178420127839263
3.148,-0.021176929614177897
3.152,-0.021175775668117486
3.156,-0.021176064154632586
3.16,-0.021176929614177897
3.164,-0.021176689208748645
3.168,-0.02117529485725898
3.172,-0.021173395654367884
3.176,-0.021171111802789983
3.18,-0.02116959724858569
3.184,-0.021168082694381397
3.188,-0.021166760464520505
3.192,-0.021164789140000636
3.196,-0.021162577410051512
3.2,-0.021163755396654847
3.204,-0.02116526995085914
3.208,-0.021166375815833704
3.212,-0.02116582288334642
3.216,-0.021163827518283624
3.22,-0.021161134977475994
3.224,-0.021158706882640543
3.228,-0.021160173355758986
3.232,-0.021163563072311445
3.236,-0.021166856626692206
3.24,-0.021166039248232748
3.244,-0.021164500653485532
3.248,-0.021165390153573767
3.2520000000000002,-0.021166784505063433
3.2560000000000002,-0.02116764996460874
3.2600000000000002,-0.021169044316098406
3.2640000000000002,-0.021170775235189024
3.2680000000000002,-0.02117173685690604
3.2720000000000002,-0.0211723619110221
3.2760000000000002,-0.021171760897448967
3.2800000000000002,-0.021172818681337677
3.2840000000000003,-0.021173491816539585
3.2880000000000003,-0.02117452555988537
3.2920000000000003,-0.02117438131662782
3.2960000000000003,-0.021174333235541968
3.3000000000000003,-0.02117479000585755
3.3040000000000003,-0.02117301100568108
3.3080000000000003,-0.021172409992107948
3.3120000000000003,-0.021173131208395705
3.3160000000000003,-0.021173083127309856
3.3200000000000003,-0.021171352208219234
3.3240000000000003,-0.021169260680984733
3.3280000000000003,-0.021168803910669155
3.332,-0.021165895004975198
3.336,-0.02116166386942035
3.34,-0.021160822450417966
3.344,-0.0211617119505062
3.348,-0.0211638996399124
3.352,-0.021164067923712875
3.356,-0.021163106301995867
3.36,-0.021163154383081716
3.364,-0.021163587112854373
3.368,-0.02116404388316995
3.372,-0.021166423896919553
3.376,-0.02116851542415405
3.38,-0.021169909775643717
3.384,-0.021171496451476788
3.388,-0.021171977262335294
3.392,-0.021172313829936246
3.396,-0.021172818681337677
3.4,-0.021172794640794752
3.404,-0.02117315524893863
3.408,-0.02117337161382496
3.412,-0.021172458073193796
3.416,-0.02117327545165326
3.42,-0.021173900505769314
3.424,-0.021172265748850397
3.428,-0.02117168877582019
3.432,-0.021171857059620665
3.436,-0.021172914843509378
3.44,-0.021174453438256594
3.444,-0.021174958289658024
3.448,-0.02117447747879952
3.452,-0.02117327545165326
3.456,-0.02117315524893863
3.46,-0.02117233787047917
3.464,-0.021171111802789983
3.468,-0.021172121505592844
3.472,-0.02117286676242353
3.476,-0.02117428515445612
3.48,-0.021172626356994274
3.484,-0.021170174221615892
3.488,-0.021169957856729565
3.492,-0.02117310716785278
3.496,-0.021175967992460888
3.5,-0.021176689208748645
3.504,-0.021177771033180283
3.508,-0.021178348006210487
3.512,-0.021178011438609534
3.516,-0.02117647284386232
3.52,-0.02117539101943068
3.524,-0.021172986965138155
3.528,-0.021170414627045147
3.532,-0.021170534829759773
3.536,-0.021172458073193796
3.54,-0.021174669803142924
3.544,-0.021176665168205717
3.548,-0.021180343371273284
3.552,-0.021183468641853567
3.556,-0.02118096842538934
3.56,-0.021177530627751028
3.564,-0.021175967992460888
3.568,-0.02117579970866041
3.572,-0.021177386384493478
3.576,-0.021178299925124638
3.58,-0.021176184357347215
3.584,-0.021172073424506995
3.588,-0.02117334757328203
3.592,-0.021177218100693
3.596,-0.02117995872258648
3.6,-0.021182218533621455
3.604,-0.021182482979593634
3.608,-0.021180752060503013
3.612,-0.02117745850612225
3.616,-0.021177194060150076
3.62,-0.021177746992637355
3.624,-0.02117736234395055
3.628,-0.021174501519342446
3.632,-0.021171207964961684
3.636,-0.02117024634324467
3.64,-0.0211726503975372
3.644,-0.021172217667764545
3.648,-0.021170967559532426
3.652,-0.02116774612678044
3.656,-0.0211659911671469
3.66,-0.021168587545782828
3.664,-0.021169525126956912
3.668,-0.021170510789216848
3.672,-0.021171496451476788
3.676,-0.021171712816363115
3.68,-0.021171544532562637
3.684,-0.02116983765401494
3.688,-0.021167866329495067
3.692,-0.02116673642397758
3.696,-0.021166928748320983
3.7,-0.021166015207689824
3.704,-0.021163923680455325
3.708,-0.02116029355847361
3.712,-0.02115832223395374
3.716,-0.021158562639382993
3.72,-0.021156831720292372
3.724,-0.021154355544371072
3.728,-0.0211522880576795
3.732,-0.021149571476328944
3.736,-0.021146518327377434
3.74,-0.021145051854258995
3.744,-0.021142191029650887
3.748,-0.02113995525915884
3.7520000000000002,-0.021139762934815436
3.7560000000000002,-0.021140171624045166
3.7600000000000002,-0.021141830421507007
3.7640000000000002,-0.02114284012430987
3.7680000000000002,-0.021142359313451365
3.7720000000000002,-0.02114247951616599
3.7760000000000002,-0.021142912245938644
3.7800000000000002,-0.021142599718880616
3.7840000000000003,-0.021143272854082525
3.7880000000000003,-0.021147672273437848
3.7920000000000003,-0.021150749462932283
3.7960000000000003,-0.0211501003682733
3.8000000000000003,-0.021150893706189833
3.8040000000000003,-0.021153730490255013
3.8080000000000003,-0.02115690384192115
3.8120000000000003,-0.02115928385567075
3.8160000000000003,-0.021158754963726392
3.8200000000000003,-0.021159644463814627
3.8240000000000003,-0.021158803044812245
3.8280000000000003,-0.021157024044635774
3.8320000000000003,-0.021157985666352786
3.8360000000000003,-0.0211593319367566
3.84,-0.021157312531150878
3.844,-0.02115522100391638
3.848,-0.021157432733865503
3.852,-0.021159115571870273
3.856,-0.021159668504357555
3.86,-0.021160125274673133
3.864,-0.021161086896390145
3.868,-0.02116135134236232
3.872,-0.021160509923359938
3.876,-0.021160630126074564
3.88,-0.02115791354472401
3.884,-0.021156855760835296
3.888,-0.021160654166617488
3.892,-0.021162601450594436
3.896,-0.021161735991049126
3.9,-0.0211594280989283
3.904,-0.02115877900426932
3.908,-0.021160582044988715
3.912,-0.021160221436844835
3.916,-0.021157456774408428
3.92,-0.0211571442473504
3.924,-0.021159668504357555
3.928,-0.021160630126074564
3.932,-0.021159908909786806
3.936,-0.02115882708535517
3.94,-0.021158394355582515
3.944,-0.021158947288069795
3.948,-0.02115800970689571
3.952,-0.021154980598487128
3.956,-0.0211522880576795
3.96,-0.021151590881934666
3.964,-0.02115197553062147
3.968,-0.02115363432808331
3.972,-0.021152720787452152
3.976,-0.02115425938219937
3.98,-0.021155533530974407
3.984,-0.021155293125545156
3.988,-0.021155100801201754
3.992,-0.02115663939594897
3.996,-0.021157384652779655
4.0,-0.021156663436491897
4.0040000000000004,-0.021155605652603184
4.008,-0.02115786546363816
4.0120000000000005,-0.02115959638272878
4.016,-0.02115868284209762
4.0200000000000005,-0.021158202031239113
4.024,-0.02115841839612544
4.0280000000000005,-0.02115764909875183
4.032,-0.021156254747262165
4.0360000000000005,-0.02115406705785597
4.04,-0.021153057355053108
4.0440000000000005,-0.02115207169279317
4.048,-0.02115084562510398
4.0520000000000005,-0.02114952339524309
4.056,-0.021148249246468055
4.0600000000000005,-0.02114945127361432
4.064,-0.02114969167904357
4.0680000000000005,-0.021149210868185064
4.072,-0.021148585814069008
4.0760000000000005,-0.021148032881581725
4.08,-0.021147383786922744
4.0840000000000005,-0.021146806813892537
4.088,-0.02114735974637982
4.0920000000000005,-0.021145244178602397
4.096,-0.021143320935168373
4.1,-0.021143224772996672
4.104,-0.02114430659742831
4.108,-0.021143849827112732
4.112,-0.02114262375942354
4.116,-0.021142599718880616
4.12,-0.021143705583855178
4.124,-0.021144787408286816
4.128,-0.021145364381317023
4.132,-0.02114567690837505
4.136,-0.021143537300054704
4.14,-0.02114019566458809
4.144,-0.021141830421507007
4.148,-0.02114567690837505
4.152,-0.021145700948917975
4.156,-0.0211453403407741
4.16,-0.021144643165029266
4.164,-0.021142551637794767
4.168,-0.02114079667816122
4.172,-0.02113954656992911
4.176,-0.021138200299525293
4.18,-0.02113750312378046
4.184,-0.021138488786040396
4.188,-0.02114014758350224
4.192,-0.0211410611241334
4.196,-0.021140339907845643
4.2,-0.021140844759247074
4.204,-0.021142191029650887
4.208,-0.021143056489196198
4.212,-0.021142166989107963
4.216,-0.02114014758350224
4.22,-0.02113923404287108
4.224,-0.02114055627273197
4.228,-0.021141806380964082
4.232,-0.021142359313451365
4.236,-0.021140989002504624
4.24,-0.02113978697535836
4.244,-0.0211409649619617
4.248,-0.021143849827112732
4.252,-0.02114668661117791
4.256,-0.02114796075995295
4.26,-0.02115106198999031
4.264,-0.021155701814774885
4.268,-0.02115774526092353
4.272,-0.02115796162580986
4.276,-0.021156831720292372
4.28,-0.02115613454454754
4.284,-0.021155293125545156
4.288,-0.02115380261188379
4.292,-0.02115353816591161
4.296,-0.02115252846310875
4.3,-0.02115065330076058
4.304,-0.02114983592230112
4.308,-0.02114868197624071
4.312,-0.021147431868008593
4.316,-0.02114632600303403
4.32,-0.02114690297606424
4.324,-0.021148345408639756
4.328,-0.021147071259864716
4.332,-0.02114663853009206
4.336,-0.021149475314157243
4.34,-0.021149571476328944
4.344,-0.02114760015180907
4.348,-0.021147335705836892
4.352,-0.021147167422036418
4.356,-0.021146710651720836
4.36,-0.02114608559760478
4.364,-0.021143729624398103
4.368,-0.021141133245762177
4.372,-0.02114238335399429
4.376,-0.021145604786746274
4.38,-0.021148561773526083
4.384,-0.02115202361170732
4.388,-0.021153682409169164
4.392,-0.021153321801025284
4.396,-0.0211550527201159
4.4,-0.021156302828348017
4.404,-0.02115608646346169
4.408,-0.021154980598487128
4.412,-0.021154595949800323
4.416,-0.021155749895860734
4.42,-0.021157793342009384
4.424,-0.021159043450241496
4.428,-0.021159668504357555
4.432,-0.02115800970689571
4.436,-0.021156687477034822
4.44,-0.021156831720292372
4.444,-0.02115726445006503
4.448,-0.02115736061223673
4.452,-0.02115815395015326
4.456,-0.021159572342185854
4.46,-0.021160582044988715
4.464,-0.021159956990872655
4.468,-0.0211571442473504
4.472,-0.02115613454454754
4.476,-0.021160149315216058
4.48,-0.021164236207513353
4.484,-0.021165342072487915
4.488,-0.021164596815657234
4.492,-0.02116344286959682
4.496,-0.02116135134236232
4.5,-0.02115726445006503
4.5040000000000004,-0.021155341206631005
4.508,-0.02115709616626455
4.5120000000000005,-0.0211571442473504
4.516,-0.02115618262563339
4.5200000000000005,-0.021155269085002232
4.524,-0.021154283422742295
4.5280000000000005,-0.02115389877405549
4.532,-0.02115394685514134
4.5360000000000005,-0.021155870098575363
4.54,-0.02115673555812067
4.5440000000000005,-0.021157288490607953
4.548,-0.021155966260747065
4.5520000000000005,-0.0211545719092574
4.556,-0.021154980598487128
4.5600000000000005,-0.02115558161206026
4.564,-0.0211546680714291
4.5680000000000005,-0.02115440362545692
4.572,-0.02115380261188379
4.5760000000000005,-0.02115014844935915
4.58,-0.021145700948917975
4.5840000000000005,-0.0211453403407741
4.588,-0.021148850260041187
4.5920000000000005,-0.021150533098045952
4.596,-0.02115111007107616
4.6000000000000005,-0.021151687044106367
4.604,-0.021150893706189833
4.6080000000000005,-0.021148032881581725
4.612,-0.021148080962667577
4.616,-0.02114851369244023
4.62,-0.021147479949094446
4.624,-0.021146109638147705
4.628,-0.021144547002857565
4.632,-0.02114507589480192
4.636,-0.021146422165205733
4.64,-0.02114584519217553
4.644,-0.021145797111089677
4.648,-0.02114490761100144
4.652,-0.02114329689462545
4.656,-0.021144330637971234
4.66,-0.021145027813716067
4.664,-0.021146566408463286
4.668,-0.02114760015180907
4.672,-0.021149234908727988
4.676,-0.02115005228718745
4.68,-0.021148754097869486
4.684,-0.021145917313804302
4.688,-0.021144186394713684
4.692,-0.021145604786746274
4.696,-0.02114622984086233
4.7,-0.021146253881405258
4.704,-0.021145292259688246
4.708,-0.021143417097340075
4.712,-0.02114202274585041
4.716,-0.02113913788069938
4.72,-0.02113582028577569
4.724,-0.021134498055914802
4.728,-0.02113726271835121
4.732,-0.0211387772725555
4.736,-0.021138392623868695
4.74,-0.021139402326671556
4.744,-0.021139714853729584
4.748,-0.02113786373192434
4.752,-0.02113740696160876
4.756,-0.021137815650838488
4.76,-0.021136469380434675
4.764,-0.021135459677631814
4.768,-0.021137166556179508
4.772,-0.02113836858332577
4.776,-0.02113913788069938
4.78,-0.021140387988931492
4.784,-0.02114079667816122
4.788,-0.021141638097163608
4.792,-0.021143513259511776
4.796,-0.021144835489372665
4.8,-0.021144979732630218
4.804,-0.021145412462402872
4.808,-0.021145196097516545
4.812,-0.021145099935344844
4.816,-0.02114490761100144
4.82,-0.021145869232718453
4.824,-0.021148153084296354
4.828,-0.02114887430058411
4.832,-0.021145965394890155
4.836,-0.021144931651544366
4.84,-0.021148609854611932
4.844,-0.021151783206278068
4.848,-0.021153970895684267
4.852,-0.021154788274143726
4.856,-0.021154860395772503
4.86,-0.021154018976770116
4.864,-0.021151638963020514
4.868,-0.02115084562510398
4.872,-0.02115024461153085
4.876,-0.021148056922124653
4.88,-0.021146662570634987
4.884,-0.021146614489549135
4.888,-0.021147552070723222
4.892,-0.021149571476328944
4.896,-0.021151278354876638
4.9,-0.021150412895331327
4.904,-0.021148537732983155
4.908,-0.021147816516695398
4.912,-0.021148225205925127
4.916,-0.021147840557238323
4.92,-0.021148249246468055
4.924,-0.021149042584384586
4.928,-0.021149475314157243
4.932,-0.021149042584384586
4.936,-0.02114776843560955
4.94,-0.02114608559760478
4.944,-0.02114466720557219
4.948,-0.021146398124662808
4.952,-0.021146566408463286
4.956,-0.021145388421859947
4.96,-0.021144522962314637
4.964,-0.021145099935344844
4.968,-0.02114654236792036
4.972,-0.02114832136809683
4.976,-0.021149499354700167
4.98,-0.021148657935697784
4.984,-0.021146061557061856
4.988,-0.021144691246115115
4.992,-0.021148129043753426
4.996,-0.021152095733336096
5.0,-0.021153273719939435
5.0040000000000004,-0.02115111007107616
5.008,-0.021147672273437848
5.0120000000000005,-0.021144619124486338
5.016,-0.02114284012430987
5.0200000000000005,-0.02114598943543308
5.024,-0.02114954743578602
5.0280000000000005,-0.02115156684139174
5.032,-0.0211522880576795
5.0360000000000005,-0.021151735125192216
5.04,-0.02115161492247759
5.0440000000000005,-0.021152720787452152
5.048,-0.021151687044106367
5.0520000000000005,-0.021149307030356765
5.056,-0.021147576111266147
5.0600000000000005,-0.02114882621949826
5.064,-0.021147528030180295
5.0680000000000005,-0.021142864164852795
5.072,-0.0211388734347272
5.0760000000000005,-0.021137647367038014
5.08,-0.02113726271835121
5.0840000000000005,-0.021137983934638966
5.088,-0.021138608988755022
5.0920000000000005,-0.02113851282658332
5.096,-0.021137695448123862
5.1000000000000005,-0.021138440704954548
5.104,-0.021139738894272512
5.1080000000000005,-0.02113995525915884
5.112,-0.02113836858332577
5.1160000000000005,-0.021135627961432292
5.12,-0.021135652001975216
5.124,-0.021136204934462496
5.128,-0.021134329772114328
5.132,-0.02113334410985439
5.136,-0.021134137447770925
5.14,-0.02113541159654596
5.144,-0.02113750312378046
5.148,-0.021138560907669173
5.152,-0.02113959465101496
5.156,-0.02113918596178523
5.16,-0.021135892407404468
5.164,-0.021136373218262974
5.168,-0.02113817625898237
5.172,-0.021138584948212098
5.176,-0.02113726271835121
5.18,-0.02113654150206345
5.184,-0.02113803201572482
5.188,-0.02113954656992911
5.192,-0.021138560907669173
5.196,-0.021136637664235153
5.2,-0.02113471442080113
5.204,-0.021130170758188255
5.208,-0.021126204068605586
5.212,-0.021123559608883808
5.216,-0.021122045054679517
5.22,-0.021124713554944222
5.224,-0.021130435204160435
5.228,-0.021137238677808284
5.232,-0.02114055627273197
5.236,-0.021140219705131014
5.24,-0.021139714853729584
5.244,-0.021140989002504624
5.248,-0.021143200732453748
5.252,-0.021144522962314637
5.256,-0.021144354678514162
5.26,-0.02114457104340049
5.264,-0.021148730057326558
5.268,-0.021151158152162012
5.272,-0.021151134111619084
5.276,-0.02115086966564691
5.28,-0.021149619557414793
5.284,-0.021149571476328944
5.288,-0.021149667638500645
5.292,-0.02114851369244023
5.296,-0.021149090665470438
5.3,-0.021150533098045952
5.304,-0.02114993208447282
5.308,-0.021148441570811454
5.312,-0.021148393489725605
5.316,-0.02114832136809683
5.32,-0.021146374084119884
5.324,-0.021144018110913206
5.328,-0.021144787408286816
5.332,-0.0211457249894609
5.336,-0.021145917313804302
5.34,-0.021144474881228788
5.344,-0.021142551637794767
5.348,-0.021141445772820205
5.352,-0.021139907178072986
5.356,-0.02113959465101496
5.36,-0.021140219705131014
5.364,-0.021140628394360744
5.368,-0.021142503556708915
5.372,-0.021144234475799533
5.376,-0.021145749030003828
5.38,-0.02114531630023117
5.384,-0.021144474881228788
5.388,-0.02114558074620335
5.392,-0.02114723954366519
5.396,-0.021147648232894924
5.4,-0.021147576111266147
5.404,-0.021148754097869486
5.408,-0.02115024461153085
5.412,-0.021151927449535618
5.416,-0.021152336138765347
5.42,-0.021151278354876638
5.424,-0.021149811881758195
5.428,-0.021149715719586494
5.432,-0.021151182192704936
5.436,-0.02115262462528045
5.44,-0.0211545719092574
5.444,-0.02115582201748951
5.448,-0.02115471615251495
5.452,-0.02115365836862624
5.456,-0.0211522880576795
5.46,-0.02115363432808331
5.464,-0.021156038382375838
5.468,-0.021156447071605567
5.472,-0.02115736061223673
5.476,-0.02115832223395374
5.48,-0.021158490517754217
5.484,-0.021156879801378224
5.488,-0.021156543233777268
5.492,-0.02115776930146646
5.496,-0.021160389720645312
5.5,-0.02116197639647838
5.5040000000000004,-0.021163514991225596
5.508,-0.021161784072134978
5.5120000000000005,-0.021159091531327348
5.516,-0.02115800970689571
5.5200000000000005,-0.021158538598840065
5.524,-0.02115851455829714
5.5280000000000005,-0.021159091531327348
5.532,-0.021160990734218444
5.5360000000000005,-0.02116329862633927
5.54,-0.02116567864008887
5.5440000000000005,-0.0211659911671469
5.548,-0.021165895004975198
5.5520000000000005,-0.021167866329495067
5.556,-0.02116916451881303
5.5600000000000005,-0.021168226937638947
5.564,-0.02116690470777806
5.5680000000000005,-0.02116567864008887
5.572,-0.02116115901801892
5.5760000000000005,-0.021161183058561846
5.58,-0.021166760464520505
5.5840000000000005,-0.021171063721704134
5.588,-0.02117269847862305
5.5920000000000005,-0.021173852424683462
5.596,-0.0211748380869434
5.6000000000000005,-0.021173636059797135
5.604,-0.02117200130287822
5.6080000000000005,-0.021170679073017323
5.612,-0.021172313829936246
5.6160000000000005,-0.021172169586678696
5.62,-0.021171256046047533
5.6240000000000006,-0.02117010209998712
5.628,-0.021166880667235134
5.632,-0.021163466910139744
5.636,-0.02116094265313259
5.64,-0.021160221436844835
5.644,-0.0211616157883345
5.648,-0.021161735991049126
5.652,-0.02116125518019062
5.656,-0.021160654166617488
5.66,-0.021160365680102388
5.664,-0.021160654166617488
5.668,-0.021159548301642926
5.672,-0.021158250112324962
5.676,-0.021156927882464073
5.68,-0.02115380261188379
5.684,-0.021154379584913997
5.688,-0.021156687477034822
5.692,-0.021159812747615105
5.696,-0.021162096599193006
5.7,-0.021164140045341652
5.704,-0.021164236207513353
5.708,-0.021162913977652464
5.712,-0.021163514991225596
5.716,-0.02116526995085914
5.72,-0.021166616221262955
5.724,-0.021165943086061047
5.728,-0.021164885302172337
5.732,-0.021163082261452942
5.736,-0.021160990734218444
5.74,-0.021160317599016536
5.744,-0.02115974062598633
5.748,-0.021159163652956125
5.752,-0.021157384652779655
5.756,-0.02115582201748951
5.76,-0.021155749895860734
5.764,-0.02115690384192115
5.768,-0.021155942220204137
5.772,-0.02115406705785597
5.776,-0.021154235341656443
5.78,-0.021156062422918766
5.784,-0.021158538598840065
5.788,-0.021158538598840065
5.792,-0.021155605652603184
5.796,-0.02115298523342433
5.8,-0.021153273719939435
5.804,-0.021154619990343248
5.808,-0.021154692111972025
5.812,-0.021155461409345634
5.816,-0.021156711517577746
5.82,-0.0211572404095221
5.824,-0.021158466477211292
5.828,-0.021161591747791576
5.832,-0.02116522186977329
5.836,-0.021168755829583302
5.84,-0.02117142432984801
5.844,-0.021174237073370267
5.848,-0.021175823749203335
5.852,-0.02117447747879952
5.856,-0.021171352208219234
5.86,-0.0211681788565531
5.864,-0.02116750572135119
5.868,-0.021169765532386163
5.872,-0.021170270383787593
5.876,-0.021169356843156434
5.88,-0.02116933280261351
5.884,-0.021170655032474398
5.888,-0.021172578275908426
5.892,-0.02117214554613577
5.896,-0.021170150181072968
5.9,-0.021168106734924322
5.904,-0.021167289356464863
5.908,-0.021165919045518122
5.912,-0.021163418829053895
5.916,-0.02116303418036709
5.92,-0.02116495742380111
5.924,-0.02116714511320731
5.928,-0.0211686596674116
5.932,-0.021168347140353573
5.936,-0.021167121072664385
5.94,-0.021169957856729565
5.944,-0.02117269847862305
5.948,-0.021172409992107948
5.952,-0.021171159883875836
5.956,-0.021170510789216848
5.96,-0.02116974149184324
5.964,-0.021169525126956912
5.968,-0.02117200130287822
5.972,-0.02117428515445612
5.976,-0.021175511222145307
5.98,-0.021178924979240694
5.984,-0.0211840696554267
5.988,-0.021190272115501417
5.992,-0.021195368710601573
5.996,-0.02120000853538615
6.0,-0.021205297454829707
6.0040000000000004,-0.02120544169808726
6.008,-0.0212046243196278
6.0120000000000005,-0.021206066752203316
6.016,-0.021207316860435428
6.0200000000000005,-0.021207653428036384
6.024,-0.021206379279261344
6.0280000000000005,-0.021203855022254192
6.032,-0.021200657630045132
6.0360000000000005,-0.02119731599457852
6.04,-0.0211932050617383
6.0440000000000005,-0.02119200303459204
6.048,-0.021192676169793943
6.0520000000000005,-0.0211931088995666
6.056,-0.021192868494137346
6.0600000000000005,-0.021194190723998235
6.064,-0.02119837377846723
6.0680000000000005,-0.021201450967961666
6.072,-0.021202580873479152
6.0760000000000005,-0.02120229238696405
6.08,-0.021201499049047515
6.0840000000000005,-0.02120041722461588
6.088,-0.02119676306209124
6.0920000000000005,-0.02119342142662463
6.096,-0.021190368277673118
6.1000000000000005,-0.02118878160184005
6.104,-0.021189334534327333
6.1080000000000005,-0.02119142606156183
6.112,-0.021192123237306664
6.1160000000000005,-0.021190632723645297
6.12,-0.021187098763835285
6.1240000000000006,-0.021182771466108734
6.128,-0.02118334843913894
6.132000000000001,-0.021183733087825746
6.136,-0.021180896303760566
6.140000000000001,-0.02117899710086947
6.144,-0.021178684573811443
6.148,-0.02117981447932893
6.152,-0.021180127006386957
6.156,-0.02117904518195532
6.16,-0.02117661708711987
6.164,-0.021174741924771697
6.168,-0.021174044749026864
6.172,-0.021173684140882987
6.176,-0.021176184357347215
6.18,-0.021177843154809056
6.184,-0.021176929614177897
6.188,-0.02117426111391319
6.192,-0.021173636059797135
6.196,-0.021176328600604765
6.2,-0.02117873265489729
6.204,-0.021180102965844032
6.208,-0.021179790438786004
6.212,-0.021178444168382188
6.216,-0.021177025776349598
6.22,-0.021174213032827342
6.224,-0.021171207964961684
6.228,-0.021168755829583302
6.232,-0.021167529761894115
6.236,-0.0211686596674116
6.24,-0.021169957856729565
6.244,-0.021168707748497453
6.248,-0.021167674005151665
6.252,-0.02116796249166677
6.256,-0.021166712383434656
6.26,-0.02116288993710954
6.264,-0.021159548301642926
6.268,-0.02115649515269142
6.272,-0.021155341206631005
6.276,-0.021154427665999846
6.28,-0.021152456341479976
6.284,-0.021152648665823375
6.288,-0.021154427665999846
6.292,-0.02115827415286789
6.296,-0.02116125518019062
6.3,-0.0211615196261628
6.304,-0.021160221436844835
6.308,-0.021158081828524487
6.312,-0.021157817382552308
6.316,-0.02115918769349905
6.32,-0.02115974062598633
6.324,-0.021159716585443404
6.328,-0.02115774526092353
6.332,-0.021155942220204137
6.336,-0.021156567274320196
6.34,-0.021157456774408428
6.344,-0.02115974062598633
6.348,-0.021163779437197775
6.352,-0.021167818248409218
6.356,-0.02116892411338378
6.36,-0.021166760464520505
6.364,-0.021164596815657234
6.368,-0.021162913977652464
6.372,-0.021161495585619874
6.376,-0.021156302828348017
6.38,-0.021151326435962486
6.384,-0.021150533098045952
6.388,-0.021151182192704936
6.392,-0.021150316733159626
6.396,-0.021149571476328944
6.4,-0.021148802178955334
6.404,-0.021147528030180295
6.408,-0.021147792476152474
6.412,-0.021150196530445
6.416,-0.021152744827995076
6.42,-0.021155004639030053
6.424,-0.021156374949976794
6.428,-0.021157336571693802
6.432,-0.021159163652956125
6.436,-0.021160173355758986
6.44,-0.021160678207160416
6.444,-0.021159716585443404
6.448,-0.02115736061223673
6.452,-0.021156975963549925
6.456,-0.021159139612413197
6.46,-0.021160365680102388
6.464,-0.021158081828524487
6.468,-0.02115517292283053
6.472,-0.021153177557767733
6.476,-0.02115070138184643
6.48,-0.021150917746732757
6.484,-0.02115161492247759
6.488,-0.021151494719762964
6.492,-0.021150004206101598
6.496,-0.021148465611354382
6.5,-0.021147984800495876
6.5040000000000004,-0.021149763800672346
6.508,-0.02115221593605072
6.5120000000000005,-0.021152047652250244
6.516,-0.021150316733159626
6.5200000000000005,-0.021147672273437848
6.524,-0.021144474881228788
6.5280000000000005,-0.021143777705483955
6.532,-0.02114644620574866
6.5360000000000005,-0.021149715719586494
6.54,-0.02115005228718745
6.5440000000000005,-0.02114887430058411
6.548,-0.021147840557238323
6.5520000000000005,-0.02114481144882974
6.556,-0.021142912245938644
6.5600000000000005,-0.021142599718880616
6.564,-0.021141998705307485
6.5680000000000005,-0.02114202274585041
6.572,-0.02114238335399429
6.5760000000000005,-0.02114060435381782
6.58,-0.0211387772725555
6.5840000000000005,-0.021140436070017345
6.588,-0.021143994070370282
6.5920000000000005,-0.021145652867832126
6.596,-0.021145412462402872
6.6000000000000005,-0.02114298436756742
6.604,-0.02114238335399429
6.6080000000000005,-0.02114247951616599
6.612,-0.021143994070370282
6.6160000000000005,-0.02114531630023117
6.62,-0.02114675873280669
6.6240000000000006,-0.021147167422036418
6.628,-0.02114471528665804
6.632000000000001,-0.021142936286481572
6.636,-0.021138897475270126
6.640000000000001,-0.021135916447947392
6.644,-0.02113817625898237
6.648000000000001,-0.021139883137530062
6.652,-0.02113937828612863
6.656000000000001,-0.021139666772643735
6.66,-0.021139666772643735
6.664,-0.021140508191646118
6.668,-0.02114005142133054
6.672,-0.021138801313098424
6.676,-0.021139714853729584
6.68,-0.021139883137530062
6.684,-0.02113928212395693
6.688,-0.021138056056267743
6.692,-0.02113654150206345
6.696,-0.021132935420624662
6.7,-0.021130483285246283
6.704,-0.021131180460991116
6.708,-0.02113197379890765
6.712,-0.021132574812480782
6.716,-0.0211318295556501
6.72,-0.02112937742027172
6.724,-0.02112711760923675
6.728,-0.021125362649603203
6.732,-0.02112425678462864
6.736,-0.021123271122368704
6.74,-0.021123319203454557
6.744,-0.021123126879111154
6.748,-0.021121996973593665
6.752,-0.021120169892331345
6.756,-0.02111730906772324
6.76,-0.021115457945917994
6.764,-0.021117645635324193
6.768,-0.021118967865185082
6.772,-0.02111776583803882
6.776,-0.021116876337950584
6.78,-0.021115818554061874
6.784,-0.02111639552709208
6.788,-0.02111867937866998
6.792,-0.02111872745975583
6.796,-0.02111771775695297
6.8,-0.021117597554238345
6.804,-0.021118583216498277
6.808,-0.021118559175955353
6.812,-0.02111735714880909
6.816,-0.021116756135235958
6.82,-0.02111694845957936
6.824,-0.021118919784099233
6.828,-0.021121780608707338
6.832,-0.021122405662823397
6.836,-0.021122141216851218
6.84,-0.02112324708182578
6.844,-0.021124280825171565
6.848,-0.02112334324399748
6.852,-0.021121275757305907
6.856,-0.021122405662823397
6.86,-0.021125290527974426
6.864,-0.021126131946976812
6.868,-0.021125002041459322
6.872,-0.021122357581737545
6.876,-0.021119112108442636
6.88,-0.021117549473152492
6.884,-0.021117693716410046
6.888,-0.02111827068944025
6.892,-0.021118006243468074
6.896,-0.021115866635147723
6.9,-0.021118318770526102
6.904,-0.02112206909522244
6.908,-0.021124449108972043
6.912,-0.021126228109148514
6.916,-0.021127358014666
6.92,-0.021129353379728797
6.924,-0.02113120450153404
6.928,-0.02113137278533452
6.932,-0.021133704717998268
6.936,-0.021135459677631814
6.94,-0.021137431002151687
6.944,-0.02113942636721448
6.948,-0.021140484151103194
6.952,-0.021140075461873464
6.956,-0.02113800797518189
6.96,-0.021136373218262974
6.964,-0.021135099069487934
6.968,-0.021134498055914802
6.972,-0.021134786542429906
6.976,-0.02113675786694978
6.98,-0.021138945556355978
6.984,-0.021140387988931492
6.988,-0.02114146981336313
6.992,-0.02114247951616599
6.996,-0.0211431526513679
7.0,-0.02114365750276933
7.0040000000000004,-0.021144330637971234
7.008,-0.021145412462402872
7.0120000000000005,-0.02114421043525661
7.016,-0.02114120536739095
7.0200000000000005,-0.021141157286305102
7.024,-0.021142503556708915
7.0280000000000005,-0.02114238335399429
7.032,-0.021141445772820205
7.0360000000000005,-0.021140844759247074
7.04,-0.02113836858332577
7.0440000000000005,-0.02113526735328841
7.048,-0.02113365663691242
7.0520000000000005,-0.02113365663691242
7.056,-0.021131781474564248
7.0600000000000005,-0.021130363082531658
7.064,-0.021128656203983964
7.0680000000000005,-0.021127646501181103
7.072,-0.021130363082531658
7.0760000000000005,-0.021132959461167587
7.08,-0.02113457017754358
7.0840000000000005,-0.0211343057315714
7.088,-0.021133536434197794
7.0920000000000005,-0.021132622893566634
7.096,-0.021133416231483165
7.1000000000000005,-0.021134978866773308
7.104,-0.021134449974828953
7.1080000000000005,-0.021133416231483165
7.112,-0.021131901677278873
7.1160000000000005,-0.021129906312216076
7.12,-0.02113065156904676
7.1240000000000006,-0.021130363082531658
7.128,-0.02112877640669859
7.132000000000001,-0.021129521663529275
7.136,-0.02113122854207697
7.140000000000001,-0.02113187763673595
7.144,-0.02113329602876854
7.148000000000001,-0.021134377853200177
7.152,-0.021134474015371878
7.156000000000001,-0.021133824920712897
7.16,-0.021133536434197794
7.164000000000001,-0.02113425765048555
7.168,-0.021133704717998268
7.172,-0.021132262285422754
7.176,-0.021132863298995885
7.18,-0.021136132812833722
7.184,-0.021136805948035627
7.188,-0.021134474015371878
7.192,-0.021132863298995885
7.196,-0.02113452209645773
7.2,-0.021135363515460113
7.204,-0.02113786373192434
7.208,-0.021140339907845643
7.212,-0.021141301529562652
7.216,-0.02114243143508014
7.22,-0.021142816083766943
7.224,-0.02114146981336313
7.228,-0.021140628394360744
7.232,-0.02114161405662068
7.236,-0.021144643165029266
7.24,-0.021147624192351996
7.244,-0.02114954743578602
7.248,-0.021150725422389355
7.252,-0.021151134111619084
7.256,-0.02115043693587425
7.26,-0.0211481050032105
7.264,-0.02114644620574866
7.268,-0.021145893273261378
7.272,-0.021146205800319406
7.276,-0.021145027813716067
7.28,-0.0211431526513679
7.284,-0.0211433449757113
7.288,-0.02114457104340049
7.292,-0.02114526821914532
7.296,-0.021143224772996672
7.3,-0.02114171021879238
7.304,-0.02114086879979
7.308,-0.021138849394184277
7.312,-0.021139931218615914
7.316,-0.021143320935168373
7.32,-0.02114490761100144
7.324,-0.0211457249894609
7.328,-0.021145388421859947
7.332,-0.021143465178425927
7.336,-0.021141133245762177
7.34,-0.02113786373192434
7.344,-0.021134690380258205
7.348,-0.021133464312569017
7.352,-0.02113384896125582
7.356,-0.021133969163970447
7.36,-0.021132526731394933
7.364,-0.021133873001798746
7.368,-0.02113872919146965
7.372,-0.02114146981336313
7.376,-0.02114298436756742
7.38,-0.02114517205697362
7.384,-0.02114618175977648
7.388,-0.021143777705483955
7.392,-0.021139835056444213
7.396,-0.02113923404287108
7.4,-0.021141181326848026
7.404,-0.021142671840509393
7.408,-0.02114284012430987
7.412,-0.021143056489196198
7.416,-0.02114252759725184
7.42,-0.02114070051598952
7.424,-0.02113918596178523
7.428,-0.021139498488843257
7.432,-0.021142046786393337
7.436,-0.021143585381140553
7.44,-0.02114348921896885
7.444,-0.021141638097163608
7.448,-0.021140412029474417
7.452,-0.021139979299701763
7.456,-0.021140772637618297
7.46,-0.021139738894272512
7.464,-0.02113690211020733
7.468,-0.021136228975005424
7.472,-0.021137743529209715
7.476,-0.021137479083237536
7.48,-0.021138344542782846
7.484,-0.021142599718880616
7.488,-0.02114476336774389
7.492,-0.021143873867655656
7.496,-0.021140676475446596
7.5,-0.021136781907492703
7.5040000000000004,-0.021133368150397316
7.508,-0.021130242879817032
7.5120000000000005,-0.021129016812127845
7.516,-0.021129617825700976
7.5200000000000005,-0.021130579447417985
7.524,-0.02113137278533452
7.5280000000000005,-0.021131541069134997
7.532,-0.021131132379905267
7.5360000000000005,-0.021130002474387777
7.54,-0.02113120450153404
7.5440000000000005,-0.02113161319076377
7.548,-0.021129810150044375
7.5520000000000005,-0.021127333974123075
7.556,-0.02112776670389573
7.5600000000000005,-0.021128920649956143
7.564,-0.02112795902823913
7.5680000000000005,-0.021127910947153283
7.572,-0.021126805082178717
7.5760000000000005,-0.021126228109148514
7.58,-0.02112375193322721
7.5840000000000005,-0.021121299797848835
7.588,-0.021122910514224828
7.5920000000000005,-0.021125603055032454
7.596,-0.02112644447403484
7.6000000000000005,-0.021127886906610355
7.604,-0.021130579447417985
7.6080000000000005,-0.021133127744968064
7.612,-0.021133632596369495
7.6160000000000005,-0.021133175826053913
7.62,-0.02113298350171051
7.6240000000000006,-0.02113324794768269
7.628,-0.021135700083061065
7.632000000000001,-0.0211388734347272
7.636,-0.021140075461873464
7.640000000000001,-0.021141998705307485
7.644,-0.021143200732453748
7.648000000000001,-0.021141397691734353
7.652,-0.02113803201572482
7.656000000000001,-0.02113791181301019
7.66,-0.02113995525915884
7.664000000000001,-0.021141854462049935
7.668,-0.0211410611241334
7.672000000000001,-0.021140387988931492
7.676,-0.021140075461873464
7.68,-0.02114029182675979
7.684,-0.02114161405662068
7.688,-0.021141421732277278
7.692,-0.02113851282658332
7.696,-0.021139065759070604
7.7,-0.021139859096987137
7.704,-0.021140267786216867
7.708,-0.021141037083590476
7.712,-0.021141397691734353
7.716,-0.021140315867302716
7.72,-0.02113937828612863
7.724,-0.02113812817789652
7.728,-0.0211365895831493
7.732,-0.0211344018937431
7.736,-0.021133055623339288
7.74,-0.02113416148831385
7.744,-0.021137382921065834
7.748,-0.02113942636721448
7.752,-0.021138897475270126
7.756,-0.02113882535364135
7.76,-0.021138753232012576
7.764,-0.021138056056267743
7.768,-0.02113817625898237
7.772,-0.0211388734347272
7.776,-0.021138705150926723
7.78,-0.021136373218262974
7.784,-0.02113384896125582
7.788,-0.02113069965013261
7.792,-0.021129762068958526
7.796,-0.02113132470424867
7.8,-0.021132695015195407
7.804,-0.021133055623339288
7.808,-0.021132358447594455
7.812,-0.021132045920536427
7.816,-0.02113274309628126
7.82,-0.021130122677102407
7.824,-0.021128247514754235
7.828,-0.02112740609575185
7.832,-0.02112533860906028
7.836,-0.021124352946800342
7.84,-0.02112608386589096
7.844,-0.021126276190234362
7.848,-0.02112512224417395
7.852,-0.021124328906257418
7.856,-0.02112351152779796
7.86,-0.021123319203454557
7.864,-0.02112384809539891
7.868,-0.021125290527974426
7.872,-0.021125386690146127
7.876,-0.021126516595663617
7.88,-0.021127069528150896
7.884,-0.021126131946976812
7.888,-0.021125891541547558
7.892,-0.021125386690146127
7.896,-0.021126396392948988
7.9,-0.021126396392948988
7.904,-0.02112711760923675
7.908,-0.02112822347421131
7.912,-0.021128055190410833
7.916,-0.0211274541768377
7.92,-0.021127285893037223
7.924,-0.021126396392948988
7.928,-0.021124713554944222
7.932,-0.021123223041282856
7.936,-0.021123535568340884
7.94,-0.02112557901448953
7.944,-0.02112644447403484
7.948,-0.021124833757658848
7.952,-0.021122405662823397
7.956,-0.021121395960020533
7.96,-0.0211207949464474
7.964,-0.02111903998681386
7.968,-0.021118150486725624
7.972,-0.021121708487078564
7.976,-0.021124088500828163
7.98,-0.021125098203631024
7.984,-0.021124833757658848
7.988,-0.021123199000739928
7.992,-0.021122958595310676
7.996,-0.021121852730336114
8.0,-0.02112192485196489
8.004,-0.021124376987343266
8.008000000000001,-0.021125002041459322
8.012,-0.02112658871729239
8.016,-0.02112937742027172
8.02,-0.021130675609589686
8.024000000000001,-0.021129016812127845
8.028,-0.02112795902823913
8.032,-0.02112872832561274
8.036,-0.021129353379728797
8.040000000000001,-0.021129665906786825
8.044,-0.021130026514930705
8.048,-0.021130483285246283
8.052,-0.021129401460814646
8.056000000000001,-0.021129401460814646
8.06,-0.021130867933933088
8.064,-0.021131901677278873
8.068,-0.021130843893390164
8.072000000000001,-0.0211296418662439
8.076,-0.021130940055561865
8.08,-0.02113466633971528
8.084,-0.021136974231836105
8.088000000000001,-0.021138993637441827
8.092,-0.021139210002328154
8.096,-0.021139258083414006
8.1,-0.021140363948388568
8.104000000000001,-0.021141157286305102
8.108,-0.021139907178072986
8.112,-0.021137815650838488
8.116,-0.021136709785863926
8.120000000000001,-0.02113699827237903
8.124,-0.021136613623692225
8.128,-0.021134546137000654
8.132,-0.021132406528680304
8.136000000000001,-0.02113233440705153
8.14,-0.021131685312392547
8.144,-0.02113065156904676
8.148,-0.021131661271849622
8.152000000000001,-0.02113187763673595
8.156,-0.021132142082708128
8.16,-0.021132622893566634
8.164,-0.02113045924470336
8.168000000000001,-0.02112904085267077
8.172,-0.021129617825700976
8.176,-0.021129401460814646
8.18,-0.02112872832561274
8.184000000000001,-0.021127934987696207
8.188,-0.02112380001431306
8.192,-0.021122357581737545
8.196,-0.02112348748725503
8.2,-0.02112329516291163
8.204,-0.021122766270967274
8.208,-0.021122694149338497
8.212,-0.021123367284540406
8.216,-0.02112384809539891
8.22,-0.02112392021702769
8.224,-0.021123727892684286
8.228,-0.02112452123060082
8.232,-0.02112399233865646
8.236,-0.02112456931168667
8.24,-0.021123679811598434
8.244,-0.02112283839259605
8.248,-0.02112384809539891
8.252,-0.021125290527974426
8.256,-0.021126276190234362
8.26,-0.021125314568517354
8.264,-0.021125002041459322
8.268,-0.02112425678462864
8.272,-0.021125290527974426
8.276,-0.02112476163603007
8.28,-0.021125747298290008
8.284,-0.021128487920183486
8.288,-0.021128343676925936
8.292,-0.021128031149867908
8.296,-0.021128656203983964
8.3,-0.02112913701484247
8.304,-0.021129858231130227
8.308,-0.021130339041988733
8.312,-0.021128968731041992
8.316,-0.021129449541900498
8.32,-0.021131444906963295
8.324,-0.021132815217910033
8.328,-0.021135099069487934
8.332,-0.021138705150926723
8.336,-0.021142046786393337
8.34,-0.021143921948741505
8.344,-0.021140580313274895
8.348,-0.021134618258629428
8.352,-0.02113457017754358
8.356,-0.0211387772725555
8.36,-0.021142719921595242
8.364,-0.021143970029827357
8.368,-0.021143417097340075
8.372,-0.021142191029650887
8.376,-0.021140387988931492
8.38,-0.021139738894272512
8.384,-0.021139258083414006
8.388,-0.02113853686712625
8.392,-0.021137791610295564
8.396,-0.02113493078568746
8.4,-0.02113223824487983
8.404,-0.02113132470424867
8.408,-0.02113120450153404
8.412,-0.021131541069134997
8.416,-0.02113238248813738
8.42,-0.021132526731394933
8.424,-0.021131012177190638
8.428,-0.021129858231130227
8.432,-0.021128704285069813
8.436,-0.02113029096090288
8.44,-0.021133608555826567
8.444,-0.02113675786694978
8.448,-0.02113791181301019
8.452,-0.02113541159654596
8.456,-0.021135002907316233
8.46,-0.02113526735328841
8.464,-0.021133776839627045
8.468,-0.021131492988049144
8.472,-0.021131012177190638
8.476,-0.021130771771761387
8.48,-0.021131492988049144
8.484,-0.021134041285599224
8.488,-0.021136421299348822
8.492,-0.021137791610295564
8.496,-0.021137070394007806
8.5,-0.021137791610295564
8.504,-0.021139907178072986
8.508000000000001,-0.02114079667816122
8.512,-0.02114086879979
8.516,-0.021140075461873464
8.52,-0.021138584948212098
8.524000000000001,-0.021137671407580938
8.528,-0.021136373218262974
8.532,-0.02113904171852768
8.536,-0.021141926583678708
8.540000000000001,-0.021141998705307485
8.544,-0.021139714853729584
8.548,-0.02113750312378046
8.552,-0.021136253015548348
8.556000000000001,-0.021137743529209715
8.56,-0.021139089799613528
8.564,-0.021137647367038014
8.568,-0.021133127744968064
8.572000000000001,-0.021130531366332136
8.576,-0.0211322142043369
8.58,-0.021135002907316233
8.584,-0.021136204934462496
8.588000000000001,-0.021137286758894133
8.592,-0.02113745504269461
8.596,-0.021136277056091272
8.6,-0.021136108772290794
8.604000000000001,-0.021135195231659635
8.608,-0.021134377853200177
8.612,-0.02113288733953881
8.616,-0.0211342095693997
8.620000000000001,-0.02113557988034644
8.624,-0.021136108772290794
8.628,-0.021137142515636583
8.632,-0.02113699827237903
8.636000000000001,-0.021137238677808284
8.64,-0.021137022312921954
8.644,-0.021137671407580938
8.648,-0.021138753232012576
8.652000000000001,-0.021142864164852795
8.656,-0.021142719921595242
8.66,-0.021140916880875847
8.664,-0.021141541934991907
8.668000000000001,-0.021140989002504624
8.672,-0.021140315867302716
8.676,-0.021141181326848026
8.68,-0.021141253448476803
8.684000000000001,-0.02113923404287108
8.688,-0.021138897475270126
8.692,-0.021140724556532445
8.696,-0.02114070051598952
8.700000000000001,-0.021140748597075373
8.704,-0.021143320935168373
8.708,-0.021147191462579342
8.712,-0.021147119340950565
8.716,-0.021145965394890155
8.72,-0.02114632600303403
8.724,-0.021144090232541983
8.728,-0.02114221507019381
8.732,-0.021142191029650887
8.736,-0.021140171624045166
8.74,-0.021136733826406854
8.744,-0.021135892407404468
8.748,-0.02113618089391957
8.752,-0.02113553179926059
8.756,-0.021134377853200177
8.76,-0.02113348835311194
8.764,-0.021132695015195407
8.768,-0.02113324794768269
8.772,-0.021134978866773308
8.776,-0.021135627961432292
8.78,-0.021134858664058682
8.784,-0.021133127744968064
8.788,-0.02113132470424867
8.792,-0.021130891974476013
8.796,-0.021132166123251053
8.8,-0.021133776839627045
8.804,-0.02113490674514453
8.808,-0.02113481058297283
8.812,-0.02113375279908412
8.816,-0.021133873001798746
8.82,-0.02113425765048555
8.824,-0.021134137447770925
8.828,-0.02113274309628126
8.832,-0.021131180460991116
8.836,-0.02112904085267077
8.84,-0.02112853600126934
8.844,-0.02113156510967792
8.848,-0.021132286325965678
8.852,-0.021131541069134997
8.856,-0.021131348744791594
8.86,-0.021131517028592072
8.864,-0.021132695015195407
8.868,-0.021133055623339288
8.872,-0.02113298350171051
8.876,-0.021133223907139766
8.88,-0.021133271988225615
8.884,-0.021133536434197794
8.888,-0.02113365663691242
8.892,-0.02113329602876854
8.896,-0.021131853596193025
8.9,-0.021130747731218463
8.904,-0.02113106025827649
8.908,-0.021131661271849622
8.912,-0.021133680677455344
8.916,-0.02113348835311194
8.92,-0.021132911380081734
8.924,-0.02113334410985439
8.928,-0.021133632596369495
8.932,-0.021134377853200177
8.936,-0.021132622893566634
8.94,-0.02113106025827649
8.944,-0.021131012177190638
8.948,-0.021129449541900498
8.952,-0.02112675700109287
8.956,-0.021124232744085716
8.96,-0.02112502608200225
8.964,-0.02112740609575185
8.968,-0.021127237811951374
8.972,-0.02112721377140845
8.976,-0.021129762068958526
8.98,-0.021130579447417985
8.984,-0.021131012177190638
8.988,-0.021131661271849622
8.992,-0.021131300663705742
8.996,-0.021128199433668383
9.0,-0.02112584346046171
9.004,-0.021126636798378243
9.008000000000001,-0.021127838825524506
9.012,-0.021129497622986347
9.016,-0.02113069965013261
9.02,-0.02113031500144581
9.024000000000001,-0.021129353379728797
9.028,-0.021126732960549944
9.032,-0.02112384809539891
9.036,-0.021123439406169182
9.040000000000001,-0.02112223737902292
9.044,-0.021121684446535637
9.048,-0.021124184662999864
9.052,-0.021125218406345653
9.056000000000001,-0.02112553093340368
9.06,-0.02112675700109287
9.064,-0.021126636798378243
9.068,-0.02112492991983055
9.072000000000001,-0.02112389617648476
9.076,-0.021125218406345653
9.08,-0.021127237811951374
9.084,-0.02112661275783532
9.088000000000001,-0.021124881838744697
9.092,-0.02112584346046171
9.096,-0.02112928125810002
9.1,-0.021131084298819415
9.104000000000001,-0.02113029096090288
9.108,-0.021129521663529275
9.112,-0.021129713987872677
9.116,-0.02112776670389573
9.120000000000001,-0.02112699740652212
9.124,-0.021128968731041992
9.128,-0.02113081985284724
9.132,-0.021131517028592072
9.136000000000001,-0.02113288733953881
9.14,-0.021132598853023706
9.144,-0.021132526731394933
9.148,-0.021133416231483165
9.152000000000001,-0.021133320069311467
9.156,-0.0211342095693997
9.16,-0.021135099069487934
9.164,-0.021133103704425137
9.168000000000001,-0.021131180460991116
9.172,-0.021129305298642945
9.176,-0.02112872832561274
9.18,-0.021129449541900498
9.184000000000001,-0.021130483285246283
9.188,-0.021130242879817032
9.192,-0.021129449541900498
9.196,-0.021128031149867908
9.200000000000001,-0.021128247514754235
9.204,-0.021129858231130227
9.208,-0.02113170935293547
9.212,-0.021131589150220845
9.216000000000001,-0.021130122677102407
9.22,-0.02112817539312546
9.224,-0.021126276190234362
9.228,-0.021125915582090486
9.232,-0.021127358014666
9.236,-0.021128560041812263
9.24,-0.021128656203983964
9.244,-0.021128055190410833
9.248,-0.021126059825348036
9.252,-0.021124593352229593
9.256,-0.021123415365626258
9.26,-0.021123030716939453
9.264,-0.021124208703542792
9.268,-0.02112310283856823
9.272,-0.021121275757305907
9.276,-0.021119761203101616
9.28,-0.021117789878581743
9.284,-0.021117092702836914
9.288,-0.02111827068944025
9.292,-0.02111995352744502
9.296,-0.021121948892507816
9.3,-0.021123679811598434
9.304,-0.02112348748725503
9.308,-0.02112238162228047
9.312,-0.021121804649250266
9.316,-0.02112324708182578
9.32,-0.02112543477123198
9.324,-0.02112730993358015
9.328,-0.021126925284893346
9.332,-0.021124232744085716
9.336,-0.021124593352229593
9.34,-0.02112800710932498
9.344,-0.021131661271849622
9.348,-0.021131853596193025
9.352,-0.02113146894750622
9.356,-0.021132863298995885
9.36,-0.02113206996107935
9.364,-0.021129016812127845
9.368,-0.021127886906610355
9.372,-0.021129497622986347
9.376,-0.02113065156904676
9.38,-0.021130002474387777
9.384,-0.02112872832561274
9.388,-0.021127886906610355
9.392,-0.021126877203807494
9.396,-0.021126420433491916
9.4,-0.02112553093340368
9.404,-0.021126011744262187
9.408,-0.02112406446028524
9.412,-0.02111887170301338
9.416,-0.02111425591877173
9.42,-0.021113582783569822
9.424,-0.02111795816238222
9.428,-0.021122525865538023
9.432,-0.021124881838744697
9.436,-0.021126516595663617
9.44,-0.021128199433668383
9.444,-0.021127045487607972
9.448,-0.02112593962263341
9.452,-0.02112668487946409
9.456,-0.02112721377140845
9.46,-0.021127165690322598
9.464,-0.021129810150044375
9.468,-0.02113283925845296
9.472,-0.021136156853376647
9.476,-0.021135772204689842
9.48,-0.021132863298995885
9.484,-0.021131492988049144
9.488,-0.021131541069134997
9.492,-0.021131252582619893
9.496,-0.021129762068958526
9.5,-0.021130339041988733
9.504,-0.021131661271849622
9.508000000000001,-0.021131805515107172
9.512,-0.021130218839274108
9.516,-0.02112913701484247
9.52,-0.021128247514754235
9.524000000000001,-0.02112800710932498
9.528,-0.021128151352582534
9.532,-0.02112887256887029
9.536,-0.02112868024452689
9.540000000000001,-0.021129569744615124
9.544,-0.021130843893390164
9.548,-0.021131012177190638
9.552,-0.02112904085267077
9.556000000000001,-0.021125795379375856
9.56,-0.02112384809539891
9.564,-0.021122549906080947
9.568,-0.021120602622104002
9.572000000000001,-0.021121395960020533
9.576,-0.021122093135765366
9.58,-0.021120987270790804
9.584,-0.021119713122015767
9.588000000000001,-0.021118703419212907
9.592,-0.02111853513541243
9.596,-0.021117741797495895
9.6,-0.021117140783922763
9.604000000000001,-0.021116467648720855
9.608,-0.02111543390537507
9.612,-0.02111370298628445
9.616,-0.02111197206719383
9.620000000000001,-0.021110986404933897
9.624,-0.021110169026474435
9.628,-0.021108750634441845
9.632,-0.02110745244512388
9.636000000000001,-0.021108846796613547
9.64,-0.02111158741850703
9.644,-0.02111298176999669
9.648,-0.021112621161852814
9.652000000000001,-0.02111274136456744
9.656,-0.021112212472623085
9.66,-0.021110217107560288
9.664,-0.021111034486019746
9.668000000000001,-0.021113534702483974
9.672,-0.021113534702483974
9.676,-0.021112909648367918
9.68,-0.02111411167551418
9.684000000000001,-0.021115097337774117
9.688,-0.02111543390537507
9.692,-0.021116828256864735
9.696,-0.021117741797495895
9.700000000000001,-0.0211182226083544
9.704,-0.021116491689263783
9.708,-0.021116996540665213
9.712,-0.021119352513871887
9.716000000000001,-0.021121275757305907
9.72,-0.021123126879111154
9.724,-0.021124593352229593
9.728,-0.021125290527974426
9.732,-0.02112502608200225
9.736,-0.021124689514401294
9.74,-0.02112452123060082
9.744,-0.021124641433315446
9.748,-0.021125290527974426
9.752,-0.021125386690146127
9.756,-0.021123463446712107
9.76,-0.021122910514224828
9.764,-0.021124833757658848
9.768,-0.02112584346046171
9.772,-0.021125002041459322
9.776,-0.021122622027709724
9.78,-0.021121203635677134
9.784,-0.021121347878934684
9.788,-0.021121804649250266
9.792,-0.021122021014136592
9.796,-0.02112206909522244
9.8,-0.021123054757482378
9.804,-0.02112300667639653
9.808,-0.021122718189881425
9.812,-0.021122670108795573
9.816,-0.021122525865538023
9.82,-0.02112339132508333
9.824,-0.02112156424382101
9.828,-0.02112014585178842
9.832,-0.021120242013960122
9.836,-0.021121275757305907
9.84,-0.0211227903115102
9.844,-0.02112416062245694
9.848,-0.021125050122545175
9.852,-0.021124809717115924
9.856,-0.02112456931168667
9.86,-0.021125218406345653
9.864,-0.02112694932543627
9.868,-0.02112786286606743
9.872,-0.021126131946976812
9.876,-0.021124376987343266
9.88,-0.02112375193322721
9.884,-0.021123727892684286
9.888,-0.02112375193322721
9.892,-0.02112315091965408
9.896,-0.02112300667639653
9.9,-0.021122766270967274
9.904,-0.021122405662823397
9.908,-0.021121251716762983
9.912,-0.021119713122015767
9.916,-0.021119761203101616
9.92,-0.02112004968961672
9.924,-0.02112091514916203
9.928,-0.021122910514224828
9.932,-0.021122045054679517
9.936,-0.021121444041106385
9.94,-0.021125771338832932
9.944,-0.021128992771584917
9.948,-0.02113065156904676
9.952,-0.02113096409610479
9.956,-0.021130723690675538
9.96,-0.021131180460991116
9.964,-0.021131661271849622
9.968,-0.021133728758541196
9.972,-0.021135868366861543
9.976,-0.021136829988578555
9.98,-0.021136301096634197
9.984,-0.021134041285599224
9.988,-0.021132286325965678
9.992,-0.02113096409610479
9.996,-0.021129425501357574
10.0,-0.021128079230953757
10.004,-0.021127934987696207
10.008000000000001,-0.021128968731041992
10.012,-0.02112913701484247
10.016,-0.021127838825524506
10.02,-0.02112584346046171
10.024000000000001,-0.021125915582090486
10.028,-0.02112711760923675
10.032,-0.021126204068605586
10.036,-0.021123727892684286
10.040000000000001,-0.021122165257394142
10.044,-0.02112122767622006
10.048,-0.021119520797672365
10.052,-0.0211182226083544
10.056000000000001,-0.021117092702836914
10.06,-0.021117236946094464
10.064,-0.021117501392066643
10.068,-0.02111528966211752
10.072000000000001,-0.02111250095913819
10.076,-0.021112020148279682
10.08,-0.021113222175425946
10.084,-0.021115385824289217
10.088000000000001,-0.021115385824289217
10.092,-0.021116155121662827
10.096,-0.021117501392066643
10.1,-0.021117429270437867
10.104000000000001,-0.021116155121662827
10.108,-0.0211137510673703
10.112,-0.02111223651316601
10.116,-0.02111283752673914
10.120000000000001,-0.021114736729630237
10.124,-0.02111670805415011
10.128,-0.021118078365096847
10.132,-0.021118487054326576
10.136000000000001,-0.021118511094869504
10.14,-0.02111639552709208
10.144,-0.021113414499769348
10.148,-0.02111122681036315
10.152000000000001,-0.02110990458050226
10.156,-0.02110877467498477
10.16,-0.021107284161323406
10.164,-0.021109063161499873
10.168000000000001,-0.02111223651316601
10.172,-0.02111425591877173
10.176,-0.021114736729630237
10.18,-0.02111406359442833
10.184000000000001,-0.02111334237814057
10.188,-0.021112789445653292
10.192,-0.021112861567282065
10.196,-0.021113414499769348
10.200000000000001,-0.0211136549051986
10.204,-0.021113534702483974
10.208,-0.021115457945917994
10.212,-0.021119592919301138
10.216000000000001,-0.021121900811421967
10.22,-0.021122525865538023
10.224,-0.021121540203278086
10.228,-0.021119352513871887
10.232000000000001,-0.021117140783922763
10.236,-0.02111557814863262
10.24,-0.02111319813488302
10.244,-0.021113029851082543
10.248,-0.021114544405286834
10.252,-0.021115097337774117
10.256,-0.021114496324200985
10.26,-0.021115914716233575
10.264,-0.021118655338127054
10.268,-0.021119881405816242
10.272,-0.021120073730159644
10.276,-0.021119857365273317
10.28,-0.021118943824642158
10.284,-0.021116900378493512
10.288,-0.02111730906772324
10.292,-0.02111877554084168
10.296,-0.02112014585178842
10.3,-0.021120746865361553
10.304,-0.021121948892507816
10.308,-0.021125146284716876
10.312,-0.021129858231130227
10.316,-0.021133464312569017
10.32,-0.0211342095693997
10.324,-0.02113389704234167
10.328,-0.021134449974828953
10.332,-0.021134137447770925
10.336,-0.02113389704234167
10.34,-0.021135363515460113
10.344,-0.021137190596722432
10.348,-0.021136974231836105
10.352,-0.0211364934209776
10.356,-0.021137118475093655
10.36,-0.02114156597553483
10.364,-0.021144234475799533
10.368,-0.02114247951616599
10.372,-0.02114046011056027
10.376,-0.02114046011056027
10.38,-0.021140027380787612
10.384,-0.02113954656992911
10.388,-0.021141830421507007
10.392,-0.02114243143508014
10.396,-0.021140267786216867
10.4,-0.021137743529209715
10.404,-0.021136733826406854
10.408,-0.021135772204689842
10.412,-0.021134834623515758
10.416,-0.021137238677808284
10.42,-0.021140027380787612
10.424,-0.02114197466476456
10.428,-0.021142695881052317
10.432,-0.021142768002681094
10.436,-0.021141758299878233
10.44,-0.021136974231836105
10.444,-0.021133368150397316
10.448,-0.02113380088016997
10.452,-0.021135652001975216
10.456,-0.021136709785863926
10.46,-0.021137815650838488
10.464,-0.02113695019129318
10.468,-0.021135627961432292
10.472,-0.021134089366685073
10.476,-0.02113315178551099
10.48,-0.021132142082708128
10.484,-0.021131252582619893
10.488,-0.021131492988049144
10.492,-0.021132094001622276
10.496,-0.02113334410985439
10.5,-0.02113339219094024
10.504,-0.021130988136647714
10.508000000000001,-0.021129016812127845
10.512,-0.02112812731203961
10.516,-0.021128151352582534
10.52,-0.021129762068958526
10.524000000000001,-0.02113005055547363
10.528,-0.021130339041988733
10.532,-0.021129209136471244
10.536,-0.021125723257747083
10.540000000000001,-0.0211251703252598
10.544,-0.0211251703252598
10.548,-0.021123727892684286
10.552,-0.02112411254137109
10.556000000000001,-0.021125891541547558
10.56,-0.021125963663176334
10.564,-0.021124352946800342
10.568,-0.021123824054855987
10.572000000000001,-0.02112456931168667
10.576,-0.021125963663176334
10.58,-0.021126564676749466
10.584,-0.0211274541768377
10.588000000000001,-0.021126396392948988
10.592,-0.02112392021702769
10.596,-0.021122021014136592
10.6,-0.021121948892507816
10.604000000000001,-0.021120770905904477
10.608,-0.021119761203101616
10.612,-0.02111940059495774
10.616,-0.021117236946094464
10.620000000000001,-0.02111598683786235
10.624,-0.021115722391890173
10.628,-0.021115457945917994
10.632,-0.021116515729806707
10.636000000000001,-0.02111937655441481
10.64,-0.021120434338303525
10.644,-0.021118030284010998
10.648,-0.021115193499945818
10.652000000000001,-0.021113775107913225
10.656,-0.021114135716057105
10.66,-0.021117525432609568
10.664,-0.021119424635500664
10.668000000000001,-0.02111827068944025
10.672,-0.021117068662293986
10.676,-0.021116107040576978
10.68,-0.021114856932344862
10.684000000000001,-0.02111543390537507
10.688,-0.02111557814863262
10.692,-0.021114688648544388
10.696,-0.021114592486372687
10.700000000000001,-0.021115385824289217
10.704,-0.021114712689087312
10.708,-0.02111283752673914
10.712,-0.02111209226990846
10.716000000000001,-0.021112933688910842
10.72,-0.02111351066194105
10.724,-0.02111269328348159
10.728,-0.021110529634618316
10.732000000000001,-0.021108005377611164
10.736,-0.02110836598575504
10.74,-0.021109928621045184
10.744,-0.021109784377787634
10.748000000000001,-0.021106779309921976
10.752,-0.02110492818811673
10.756,-0.02110848618846967
10.76,-0.021111178729277296
10.764,-0.021110938323848045
10.768,-0.021110265188646136
10.772,-0.021110986404933897
10.776,-0.021111755702307503
10.78,-0.0211114672157924
10.784,-0.02111173166176458
10.788,-0.02111101044547682
10.792,-0.021109616093987156
10.796,-0.021109303566929128
10.8,-0.021108101539782865
10.804,-0.02110839002629797
10.808,-0.02111158741850703
10.812,-0.021115145418859966
10.816,-0.021115722391890173
10.82,-0.02111442420257221
10.824,-0.021114592486372687
10.828,-0.021115193499945818
10.832,-0.021114905013430715
10.836,-0.02111502521614534
10.84,-0.02111476077017316
10.844,-0.021114087634971256
10.848,-0.021114784810716086
10.852,-0.02111617916220575
10.856,-0.0211181264461827
10.86,-0.02112137191947761
10.864,-0.02112105939241958
10.868,-0.0211205064599323
10.872,-0.021122766270967274
10.876,-0.021124713554944222
10.88,-0.021123559608883808
10.884,-0.021122597987166796
10.888,-0.021122814352053126
10.892,-0.02112360768996966
10.896,-0.0211229826358536
10.9,-0.021122718189881425
10.904,-0.0211227903115102
10.908,-0.02112247778445217
10.912,-0.021121347878934684
10.916,-0.0211205064599323
10.92,-0.02112223737902292
10.924,-0.021124352946800342
10.928,-0.021125891541547558
10.932,-0.021125891541547558
10.936,-0.021125098203631024
10.94,-0.021124881838744697
10.944,-0.021124593352229593
10.948,-0.021122117176308294
10.952,-0.021119761203101616
10.956,-0.021121179595134206
10.96,-0.021120722824818628
10.964,-0.021118511094869504
10.968,-0.021119977567987943
10.972,-0.02112324708182578
10.976,-0.021123535568340884
10.98,-0.021121756568164413
10.984,-0.0211205064599323
10.988,-0.021121756568164413
10.992,-0.02112206909522244
10.996,-0.021120578581561075
11.0,-0.021119208270614337
11.004,-0.02111863129758413
11.008000000000001,-0.02111776583803882
11.012,-0.02111928039224311
11.016,-0.02112132383839176
11.02,-0.02112392021702769
11.024000000000001,-0.02112668487946409
11.028,-0.021127478217380626
11.032,-0.021127694582266952
11.036,-0.021127790744438654
11.040000000000001,-0.02112877640669859
11.044,-0.02112968994732975
11.048,-0.021131444906963295
11.052,-0.02113264693410956
11.056000000000001,-0.02113348835311194
11.06,-0.021135050988402085
11.064,-0.021136613623692225
11.068,-0.021137070394007806
11.072000000000001,-0.02113507502894501
11.076,-0.021133055623339288
11.08,-0.021129449541900498
11.084,-0.021125699217204155
11.088000000000001,-0.021123199000739928
11.092,-0.0211205064599323
11.096,-0.021118438973240727
11.1,-0.021117140783922763
11.104000000000001,-0.02111872745975583
11.108,-0.02112132383839176
11.112,-0.02112461739277252
11.116,-0.02112649255512069
11.120000000000001,-0.021126805082178717
11.124,-0.021125963663176334
11.128,-0.021124785676572996
11.132,-0.021124280825171565
11.136000000000001,-0.02112442506842912
11.14,-0.021123439406169182
11.144,-0.021121756568164413
11.148,-0.02112115555459128
11.152000000000001,-0.021121948892507816
11.156,-0.021122309500651696
11.16,-0.021122597987166796
11.164,-0.02112375193322721
11.168000000000001,-0.021123824054855987
11.172,-0.021121588284363935
11.176,-0.021121492122192234
11.18,-0.02112122767622006
11.184000000000001,-0.021118102405639775
11.188,-0.02111543390537507
11.192,-0.021115097337774117
11.196,-0.021116828256864735
11.200000000000001,-0.02112014585178842
11.204,-0.021122021014136592
11.208,-0.02111978524364454
11.212,-0.021116155121662827
11.216000000000001,-0.021114592486372687
11.22,-0.0211159387567765
11.224,-0.02111776583803882
11.228,-0.021118559175955353
11.232000000000001,-0.021117068662293986
11.236,-0.02111670805415011
11.24,-0.02111928039224311
11.244,-0.02112310283856823
11.248000000000001,-0.021125050122545175
11.252,-0.021125290527974426
11.256,-0.0211251703252598
11.26,-0.02112668487946409
11.264,-0.021128439839097637
11.268,-0.021130002474387777
11.272,-0.02113156510967792
11.276,-0.021129858231130227
11.28,-0.021124473149514968
11.284,-0.021120386257217672
11.288,-0.021121444041106385
11.292,-0.021122910514224828
11.296,-0.02112182868979319
11.3,-0.02112187677087904
11.304,-0.021122093135765366
11.308,-0.021121251716762983
11.312,-0.021118511094869504
11.316,-0.021118102405639775
11.32,-0.021121444041106385
11.324,-0.021122045054679517
11.328,-0.021121083432962505
11.332,-0.021120025649073795
11.336,-0.02111937655441481
11.34,-0.021118967865185082
11.344,-0.02111836685161195
11.348,-0.021118943824642158
11.352,-0.02111887170301338
11.356,-0.021118967865185082
11.36,-0.021118799581384608
11.364,-0.021119160189528485
11.368,-0.021119616959844066
11.372,-0.02111964100038699
11.376,-0.021119616959844066
11.38,-0.021119568878758214
11.384,-0.021119616959844066
11.388,-0.02112000160853087
11.392,-0.021122670108795573
11.396,-0.02112440102788619
11.4,-0.021124593352229593
11.404,-0.021121900811421967
11.408,-0.02111978524364454
11.412,-0.021121636365449788
11.416,-0.021125314568517354
11.42,-0.021128055190410833
11.424,-0.021128560041812263
11.428,-0.021128247514754235
11.432,-0.02112740609575185
11.436,-0.0211252664874315
11.44,-0.02112603578480511
11.444,-0.02112810327149668
11.448,-0.02112913701484247
11.452,-0.02113055540687506
11.456,-0.021131661271849622
11.46,-0.021131589150220845
11.464,-0.02113065156904676
11.468,-0.021130074596016554
11.472,-0.02112928125810002
11.476,-0.02112904085267077
11.48,-0.02113009863655948
11.484,-0.021130363082531658
11.488,-0.021132142082708128
11.492,-0.021133945123427523
11.496,-0.02113553179926059
11.5,-0.021137695448123862
11.504,-0.021137887772467265
11.508000000000001,-0.02113685402912148
11.512,-0.02113827242115407
11.516,-0.021140484151103194
11.52,-0.021140123542959313
11.524000000000001,-0.02114156597553483
11.528,-0.02114274396213817
11.532,-0.021142864164852795
11.536,-0.02114284012430987
11.540000000000001,-0.021141902543135783
11.544,-0.021141758299878233
11.548,-0.021140387988931492
11.552,-0.021139738894272512
11.556000000000001,-0.021142142948565038
11.56,-0.021144426800142935
11.564,-0.02114339305679715
11.568,-0.0211431526513679
11.572000000000001,-0.021142936286481572
11.576,-0.02114202274585041
11.58,-0.02114197466476456
11.584,-0.0211410611241334
11.588000000000001,-0.021138152218439444
11.592,-0.021137118475093655
11.596,-0.021138464745497472
11.6,-0.021141277489019727
11.604000000000001,-0.02114522013805947
11.608,-0.021148225205925127
11.612,-0.021149859962844048
11.616,-0.02115106198999031
11.620000000000001,-0.021151134111619084
11.624,-0.021150124408816223
11.628,-0.021148946422212888
11.632,-0.021148080962667577
11.636000000000001,-0.02114723954366519
11.64,-0.02114695105715009
11.644,-0.021148129043753426
11.648,-0.021147816516695398
11.652000000000001,-0.021144979732630218
11.656,-0.021142407394537214
11.66,-0.02114019566458809
11.664,-0.021138584948212098
11.668000000000001,-0.021138344542782846
11.672,-0.02113800797518189
11.676,-0.021138056056267743
11.68,-0.021137118475093655
11.684000000000001,-0.021136373218262974
11.688,-0.021136709785863926
11.692,-0.02113634917772005
11.696,-0.021136829988578555
11.700000000000001,-0.021137190596722432
11.704,-0.021138392623868695
11.708,-0.021139330205042783
11.712,-0.02113923404287108
11.716000000000001,-0.021138296461696994
11.72,-0.021136421299348822
11.724,-0.02113557988034644
11.728,-0.021137671407580938
11.732000000000001,-0.021140075461873464
11.736,-0.021140027380787612
11.74,-0.02113791181301019
11.744,-0.021134954826230384
11.748000000000001,-0.021134377853200177
11.752,-0.021135892407404468
11.756,-0.021132526731394933
11.76,-0.021129305298642945
11.764000000000001,-0.021130363082531658
11.768,-0.021132262285422754
11.772,-0.021132863298995885
11.776,-0.021131012177190638
11.78,-0.02112928125810002
11.784,-0.021128463879640562
11.788,-0.02112822347421131
11.792,-0.021129209136471244
11.796,-0.021129497622986347
11.8,-0.021129810150044375
11.804,-0.021131036217733566
11.808,-0.021130891974476013
11.812,-0.02112868024452689
11.816,-0.021127526298466478
11.82,-0.02112694932543627
11.824,-0.021125891541547558
11.828,-0.021126660838921167
11.832,-0.021128439839097637
11.836,-0.02112812731203961
11.84,-0.02112644447403484
11.844,-0.02112553093340368
11.848,-0.021123727892684286
11.852,-0.02112192485196489
11.856,-0.021122525865538023
11.86,-0.0211228864736819
11.864,-0.021122670108795573
11.868,-0.021124545271143744
11.872,-0.02112759842009525
11.876,-0.021129882271673152
11.88,-0.021128968731041992
11.884,-0.02112740609575185
11.888,-0.021127646501181103
11.892,-0.02113009863655948
11.896,-0.02113079581230431
11.9,-0.021127886906610355
11.904,-0.021123968298113537
11.908,-0.0211228864736819
11.912,-0.021123824054855987
11.916,-0.02112283839259605
11.92,-0.021121299797848835
11.924,-0.02112274223042435
11.928,-0.021124088500828163
11.932,-0.02112315091965408
11.936,-0.02112096323024788
11.94,-0.02111918423007141
11.944,-0.021118751500298755
11.948,-0.02111762159478127
11.952,-0.02111411167551418
11.956,-0.021110890242762196
11.96,-0.021110938323848045
11.964,-0.021114736729630237
11.968,-0.021118342811069026
11.972,-0.021120602622104002
11.976,-0.021123126879111154
11.98,-0.02112466547385837
11.984,-0.021124785676572996
11.988,-0.021122045054679517
11.992,-0.021119520797672365
11.996,-0.021118318770526102
12.0,-0.021117645635324193
12.004,-0.021117405229894942
12.008000000000001,-0.021118198567811476
12.012,-0.02111877554084168
12.016,-0.021117092702836914
12.02,-0.02111658785143548
12.024000000000001,-0.021117188865008612
12.028,-0.021116756135235958
12.032,-0.0211160349189482
12.036,-0.02111685229740766
12.040000000000001,-0.021117525432609568
12.044,-0.02111461652691561
12.048,-0.021113270256511794
12.052,-0.021114953094516564
12.056000000000001,-0.021115914716233575
12.06,-0.02111557814863262
12.064,-0.021115818554061874
12.068,-0.02111668401360718
12.072000000000001,-0.021117741797495895
12.076,-0.021119112108442636
12.08,-0.021120121811245497
12.084,-0.02112019393287427
12.088000000000001,-0.021119833324730393
12.092,-0.02111940059495774
12.096,-0.021119472716586513
12.1,-0.02112045837884645
12.104000000000001,-0.021121612324906863
12.108,-0.021121275757305907
12.112,-0.021120362216674748
12.116,-0.02112000160853087
12.120000000000001,-0.021121395960020533
12.124,-0.02112416062245694
12.128,-0.021125554973946605
12.132,-0.02112598770371926
12.136000000000001,-0.021128511960726414
12.14,-0.02113298350171051
12.144,-0.021136709785863926
12.148,-0.021136132812833722
12.152000000000001,-0.021131805515107172
12.156,-0.021128800447241514
12.16,-0.021129713987872677
12.164,-0.021129425501357574
12.168000000000001,-0.021127838825524506
12.172,-0.021126660838921167
12.176,-0.021125242446888577
12.18,-0.021124689514401294
12.184000000000001,-0.02112661275783532
12.188,-0.02112853600126934
12.192,-0.021128944690499068
12.196,-0.021128079230953757
12.200000000000001,-0.021126396392948988
12.204,-0.021125314568517354
12.208,-0.02112384809539891
12.212,-0.02112365577105551
12.216000000000001,-0.021123030716939453
12.22,-0.02112315091965408
12.224,-0.02112370385214136
12.228,-0.02112461739277252
12.232000000000001,-0.021125002041459322
12.236,-0.02112310283856823
12.24,-0.021121708487078564
12.244,-0.021120121811245497
12.248000000000001,-0.021116900378493512
12.252,-0.021116058959491125
12.256,-0.021114496324200985
12.26,-0.021113991472799555
12.264000000000001,-0.021118030284010998
12.268,-0.021122117176308294
12.272,-0.02112348748725503
12.276,-0.021124088500828163
12.280000000000001,-0.02112399233865646
12.284,-0.021123054757482378
12.288,-0.021124953960373474
12.292,-0.021126877203807494
12.296,-0.021126107906433888
12.3,-0.0211252664874315
12.304,-0.02112411254137109
12.308,-0.021122189297937067
12.312,-0.021120987270790804
12.316,-0.021118078365096847
12.32,-0.021118511094869504
12.324,-0.021123319203454557
12.328,-0.021123679811598434
12.332,-0.021122597987166796
12.336,-0.021122045054679517
12.34,-0.02112096323024788
12.344,-0.02112173252762149
12.348,-0.021120362216674748
12.352,-0.021116491689263783
12.356,-0.02111670805415011
12.36,-0.021121444041106385
12.364,-0.02112553093340368
12.368,-0.02112795902823913
12.372,-0.021128968731041992
12.376,-0.021129617825700976
12.38,-0.02112913701484247
12.384,-0.021128896609413216
12.388,-0.021128800447241514
12.392,-0.02112795902823913
12.396,-0.02112853600126934
12.4,-0.02112776670389573
12.404,-0.02112694932543627
12.408,-0.02112649255512069
12.412,-0.021126011744262187
12.416,-0.021128992771584917
12.42,-0.021131541069134997
12.424,-0.02113081985284724
12.428,-0.021130579447417985
12.432,-0.0211322142043369
12.436,-0.02113457017754358
12.44,-0.021134882704601607
12.444,-0.021133103704425137
12.448,-0.0211317333934784
12.452,-0.021131444906963295
12.456,-0.021131300663705742
12.46,-0.02113096409610479
12.464,-0.02112868024452689
12.468,-0.021126877203807494
12.472,-0.021126011744262187
12.476,-0.02112584346046171
12.48,-0.021127550339009402
12.484,-0.021128896609413216
12.488,-0.021126877203807494
12.492,-0.02112502608200225
12.496,-0.021124593352229593
12.5,-0.021123199000739928
12.504,-0.021123054757482378
12.508000000000001,-0.02112384809539891
12.512,-0.02112370385214136
12.516,-0.021123775973770135
12.52,-0.02112242970336632
12.524000000000001,-0.02111913614898556
12.528,-0.021121804649250266
12.532,-0.021126973365979195
12.536,-0.021128199433668383
12.540000000000001,-0.021128944690499068
12.544,-0.021129617825700976
12.548,-0.021128656203983964
12.552,-0.021126781041635793
12.556000000000001,-0.021126155987519737
12.56,-0.021125290527974426
12.564,-0.021124040419742314
12.568,-0.021125242446888577
12.572000000000001,-0.021127886906610355
12.576,-0.021128055190410833
12.58,-0.0211250741630881
12.584,-0.021125194365802725
12.588000000000001,-0.021128439839097637
12.592,-0.021130122677102407
12.596,-0.021128992771584917
12.6,-0.021128584082355188
12.604000000000001,-0.02112740609575185
12.608,-0.021124809717115924
12.612,-0.021123559608883808
12.616,-0.0211228864736819
12.620000000000001,-0.02112173252762149
12.624,-0.021122814352053126
12.628,-0.021125002041459322
12.632,-0.021123944257570613
12.636000000000001,-0.02112348748725503
12.64,-0.02112476163603007
12.644,-0.02112512224417395
12.648,-0.021125963663176334
12.652000000000001,-0.021125218406345653
12.656,-0.021122958595310676
12.66,-0.02112132383839176
12.664,-0.021120266054503047
12.668000000000001,-0.021118414932697803
12.672,-0.02111745331098079
12.676,-0.021116515729806707
12.68,-0.021115626229718472
12.684000000000001,-0.02111553006754677
12.688,-0.021116828256864735
12.692,-0.02111771775695297
12.696,-0.02111872745975583
12.700000000000001,-0.021120482419389373
12.704,-0.02112122767622006
12.708,-0.021121107473505433
12.712,-0.0211205064599323
12.716000000000001,-0.021121203635677134
12.72,-0.02112360768996966
12.724,-0.021125410730689055
12.728,-0.021124593352229593
12.732000000000001,-0.021124280825171565
12.736,-0.021124232744085716
12.74,-0.02112182868979319
12.744,-0.021120482419389373
12.748000000000001,-0.021123439406169182
12.752,-0.021125290527974426
12.756,-0.02112593962263341
12.76,-0.021127526298466478
12.764000000000001,-0.021129257217557096
12.768,-0.021129353379728797
12.772,-0.021127983068782056
12.776,-0.02112812731203961
12.780000000000001,-0.02112959378515805
12.784,-0.021131132379905267
12.788,-0.021131180460991116
12.792,-0.021127790744438654
12.796000000000001,-0.021124208703542792
12.8,-0.021124040419742314
12.804,-0.021122910514224828
12.808,-0.021120987270790804
12.812,-0.021118919784099233
12.816,-0.02111629936492038
12.82,-0.021113871270084926
12.824,-0.02111466460800146
12.828,-0.021118823621927532
12.832,-0.02112242970336632
12.836,-0.02112406446028524
12.84,-0.021121948892507816
12.844,-0.021119665040929915
12.848,-0.021117597554238345
12.852,-0.021115746432433097
12.856,-0.021115385824289217
12.86,-0.02111617916220575
12.864,-0.021116996540665213
12.868,-0.021117549473152492
12.872,-0.021118150486725624
12.876,-0.02111928039224311
12.88,-0.021118799581384608
12.884,-0.021117429270437867
12.888,-0.021117068662293986
12.892,-0.021115457945917994
12.896,-0.02111182782393628
12.9,-0.021111948026650906
12.904,-0.02111548198646092
12.908,-0.02111694845957936
12.912,-0.021116563810892556
12.916,-0.02111598683786235
12.92,-0.02111827068944025
12.924,-0.021119424635500664
12.928,-0.021117982202925146
12.932,-0.021117188865008612
12.936,-0.021115650270261396
12.94,-0.02111533774320337
12.944,-0.021116635932521333
12.948,-0.021118583216498277
12.952,-0.021121540203278086
12.956,-0.021123078798025302
12.96,-0.021123126879111154
12.964,-0.021122309500651696
12.968,-0.021121612324906863
12.972,-0.02112156424382101
12.976,-0.02112156424382101
12.98,-0.02112137191947761
12.984,-0.021121756568164413
12.988,-0.02112122767622006
12.992,-0.021121756568164413
12.996,-0.021124232744085716
13.0,-0.02112456931168667
13.004,-0.021123727892684286
13.008000000000001,-0.021124088500828163
13.012,-0.021123174960197003
13.016,-0.0211229826358536
13.02,-0.0211225018249951
13.024000000000001,-0.021121684446535637
13.028,-0.021121444041106385
13.032,-0.02111995352744502
13.036,-0.021116732094693034
13.040000000000001,-0.021114953094516564
13.044,-0.02111502521614534
13.048,-0.021116419567635006
13.052,-0.02111745331098079
13.056000000000001,-0.02111579451351895
13.06,-0.02111452036474391
13.064,-0.02111569835134725
13.068,-0.021118342811069026
13.072000000000001,-0.021120482419389373
13.076,-0.02112156424382101
13.08,-0.021121131514048357
13.084,-0.02111923231115726
13.088000000000001,-0.021118006243468074
13.092,-0.02111940059495774
13.096,-0.02112264606825265
13.1,-0.02112392021702769
13.104000000000001,-0.02112392021702769
13.108,-0.02112392021702769
13.112,-0.02112406446028524
13.116,-0.021125362649603203
13.120000000000001,-0.021127478217380626
13.124,-0.02112918509592832
13.128,-0.021131132379905267
13.132,-0.021131685312392547
13.136000000000001,-0.021129978433844853
13.14,-0.021128151352582534
13.144,-0.021127694582266952
13.148,-0.02112709356869382
13.152000000000001,-0.02112670892000702
13.156,-0.021126636798378243
13.16,-0.021126660838921167
13.164,-0.021125410730689055
13.168000000000001,-0.02112242970336632
13.172,-0.02112065070318985
13.176,-0.02111978524364454
13.18,-0.021120939189704955
13.184000000000001,-0.021122285460108768
13.188,-0.021121612324906863
13.192,-0.021120843027533254
13.196,-0.02112156424382101
13.200000000000001,-0.021120121811245497
13.204,-0.02111995352744502
13.208,-0.02112192485196489
13.212,-0.021122021014136592
13.216000000000001,-0.02112257394662387
13.22,-0.02112425678462864
13.224,-0.021124641433315446
13.228,-0.021125242446888577
13.232000000000001,-0.021125963663176334
13.236,-0.021125410730689055
13.24,-0.021123583649426732
13.244,-0.021124040419742314
13.248000000000001,-0.02112608386589096
13.252,-0.021125771338832932
13.256,-0.021124376987343266
13.26,-0.02112283839259605
13.264000000000001,-0.021122285460108768
13.268,-0.02112392021702769
13.272,-0.021124280825171565
13.276,-0.02112339132508333
13.280000000000001,-0.021122117176308294
13.284,-0.021123367284540406
13.288,-0.021126204068605586
13.292,-0.021127790744438654
13.296000000000001,-0.021128055190410833
13.3,-0.02112836771746886
13.304,-0.021128656203983964
13.308,-0.021129016812127845
13.312000000000001,-0.02113081985284724
13.316,-0.02113206996107935
13.32,-0.021130843893390164
13.324,-0.021128920649956143
13.328,-0.021127358014666
13.332,-0.02112711760923675
13.336,-0.021127045487607972
13.34,-0.02112699740652212
13.344,-0.021129112974299546
13.348,-0.021131348744791594
13.352,-0.02113384896125582
13.356,-0.02113389704234167
13.36,-0.021131444906963295
13.364,-0.021128031149867908
13.368,-0.02112786286606743
13.372,-0.021131036217733566
13.376,-0.021134113407227997
13.38,-0.02113608473174787
13.384,-0.02113533947491719
13.388,-0.02113452209645773
13.392,-0.021135387556003037
13.396,-0.021137887772467265
13.4,-0.021137695448123862
13.404,-0.021135700083061065
13.408,-0.021132935420624662
13.412,-0.021132406528680304
13.416,-0.02113517119111671
13.42,-0.02113810413735359
13.424,-0.02113959465101496
13.428,-0.021139907178072986
13.432,-0.021140027380787612
13.436,-0.021141926583678708
13.44,-0.021143224772996672
13.444,-0.021140989002504624
13.448,-0.02113759928595216
13.452,-0.02113851282658332
13.456,-0.021139738894272512
13.46,-0.02113928212395693
13.464,-0.021141662137706532
13.468,-0.021142960327024497
13.472,-0.021142864164852795
13.476,-0.021142551637794767
13.48,-0.021140171624045166
13.484,-0.021137527164323388
13.488,-0.021137382921065834
13.492,-0.021136277056091272
13.496,-0.021133536434197794
13.5,-0.021131901677278873
13.504,-0.021131949758364726
13.508000000000001,-0.021132935420624662
13.512,-0.021132767136824184
13.516,-0.0211317333934784
13.52,-0.0211322142043369
13.524000000000001,-0.021134329772114328
13.528,-0.02113533947491719
13.532,-0.021133175826053913
13.536,-0.02113019479873118
13.540000000000001,-0.021128319636383012
13.544,-0.021126732960549944
13.548,-0.021124280825171565
13.552,-0.02112399233865646
13.556000000000001,-0.02112548285231783
13.56,-0.021124593352229593
13.564,-0.02112206909522244
13.568,-0.02112096323024788
13.572000000000001,-0.021120602622104002
13.576,-0.02112029009504597
13.58,-0.021119929486902094
13.584,-0.021119112108442636
13.588000000000001,-0.021118607257041205
13.592,-0.021117645635324193
13.596,-0.021118703419212907
13.6,-0.021118390892154875
13.604000000000001,-0.021116659973064257
13.608,-0.021117982202925146
13.612,-0.021120843027533254
13.616,-0.021122357581737545
13.620000000000001,-0.021122597987166796
13.624,-0.02112096323024788
13.628,-0.021118102405639775
13.632,-0.021117188865008612
13.636000000000001,-0.021116635932521333
13.64,-0.021115361783746293
13.644,-0.021116371486549153
13.648,-0.021116563810892556
13.652000000000001,-0.021115385824289217
13.656,-0.0211136549051986
13.66,-0.021116058959491125
13.664,-0.021122021014136592
13.668000000000001,-0.02112694932543627
13.672,-0.021129305298642945
13.676,-0.021130002474387777
13.68,-0.021129401460814646
13.684000000000001,-0.021127237811951374
13.688,-0.021126372352406064
13.692,-0.02112661275783532
13.696,-0.02112685316326457
13.700000000000001,-0.021126276190234362
13.704,-0.021126276190234362
13.708,-0.021122958595310676
13.712,-0.021118559175955353
13.716000000000001,-0.021118823621927532
13.72,-0.021120867068076178
13.724,-0.02112242970336632
13.728,-0.021122213338479995
13.732000000000001,-0.021122357581737545
13.736,-0.021123367284540406
13.74,-0.021123944257570613
13.744,-0.021125458811774904
13.748000000000001,-0.021125915582090486
13.752,-0.021124328906257418
13.756,-0.021120482419389373
13.76,-0.02111776583803882
13.764000000000001,-0.02111949675712944
13.768,-0.021123319203454557
13.772,-0.021124280825171565
13.776,-0.021123872135941836
13.780000000000001,-0.021123199000739928
13.784,-0.021122021014136592
13.788,-0.02112019393287427
13.792,-0.02112283839259605
13.796000000000001,-0.021125554973946605
13.8,-0.02112416062245694
13.804,-0.02112315091965408
13.808,-0.021124473149514968
13.812000000000001,-0.021125747298290008
13.816,-0.02112492991983055
13.82,-0.021124449108972043
13.824,-0.02112476163603007
13.828,-0.021123199000739928
13.832,-0.02112115555459128
13.836,-0.02112122767622006
13.84,-0.0211228864736819
13.844,-0.021122549906080947
13.848,-0.021121444041106385
13.852,-0.02111918423007141
13.856,-0.02111694845957936
13.86,-0.02111634744600623
13.864,-0.021115193499945818
13.868,-0.021112813486196216
13.872,-0.021112452878052336
13.876,-0.021113053891625468
13.88,-0.021113775107913225
13.884,-0.02111401551334248
13.888,-0.021114183797142954
13.892,-0.02111351066194105
13.896,-0.021113991472799555
13.9,-0.021115049256688265
13.904,-0.02111401551334248
13.908,-0.021112957729453766
13.912,-0.021112669242938663
13.916,-0.02111300581053962
13.92,-0.02111608300003405
13.924,-0.021116876337950584
13.928,-0.021117405229894942
13.932,-0.02111964100038699
13.936,-0.021122309500651696
13.94,-0.02112365577105551
13.944,-0.02112492991983055
13.948,-0.021124713554944222
13.952,-0.0211225018249951
13.956,-0.021121444041106385
13.96,-0.021121347878934684
13.964,-0.02112173252762149
13.968,-0.021122694149338497
13.972,-0.021122910514224828
13.976,-0.02112247778445217
13.98,-0.02112257394662387
13.984,-0.021122694149338497
13.988,-0.021121804649250266
13.992,-0.02112187677087904
13.996,-0.02112389617648476
14.0,-0.021124809717115924
14.004,-0.02112553093340368
14.008000000000001,-0.021125002041459322
14.012,-0.021124208703542792
14.016,-0.02112348748725503
14.02,-0.021124208703542792
14.024000000000001,-0.02112584346046171
14.028,-0.021125747298290008
14.032,-0.021125386690146127
14.036,-0.021123367284540406
14.040000000000001,-0.02112122767622006
14.044,-0.02112014585178842
14.048,-0.021119761203101616
14.052,-0.021120386257217672
14.056000000000001,-0.021123078798025302
14.06,-0.021125242446888577
14.064,-0.021127646501181103
14.068,-0.021126732960549944
14.072000000000001,-0.02112456931168667
14.076,-0.021125651136118306
14.08,-0.021126636798378243
14.084,-0.021127165690322598
14.088000000000001,-0.021127333974123075
14.092,-0.0211272618524943
14.096,-0.02112817539312546
14.1,-0.021128247514754235
14.104000000000001,-0.02112800710932498
14.108,-0.02112644447403484
14.112,-0.021124713554944222
14.116,-0.02112384809539891
14.120000000000001,-0.021123727892684286
14.124,-0.021124713554944222
14.128,-0.02112543477123198
14.132,-0.02112375193322721
14.136000000000001,-0.021122622027709724
14.14,-0.021123030716939453
14.144,-0.021124040419742314
14.148,-0.021125651136118306
14.152000000000001,-0.021122718189881425
14.156,-0.02111918423007141
14.16,-0.021121251716762983
14.164,-0.021123054757482378
14.168000000000001,-0.021123030716939453
14.172,-0.021122934554767752
14.176,-0.021121780608707338
14.18,-0.02112137191947761
14.184000000000001,-0.021123367284540406
14.188,-0.021126420433491916
14.192,-0.021127358014666
14.196,-0.021124881838744697
14.200000000000001,-0.02112081898699033
14.204,-0.02111990544635917
14.208,-0.0211228864736819
14.212,-0.02112512224417395
14.216000000000001,-0.02112548285231783
14.22,-0.0211250741630881
14.224,-0.0211250741630881
14.228,-0.02112502608200225
14.232000000000001,-0.021124040419742314
14.236,-0.02112339132508333
14.24,-0.021122670108795573
14.244,-0.021121203635677134
14.248000000000001,-0.021120097770702572
14.252,-0.021118751500298755
14.256,-0.021118318770526102
14.26,-0.02111923231115726
14.264000000000001,-0.02111964100038699
14.268,-0.021119520797672365
14.272,-0.021119833324730393
14.276,-0.0211203141355889
14.280000000000001,-0.02111745331098079
14.284,-0.021115626229718472
14.288,-0.021116515729806707
14.292,-0.02111872745975583
14.296000000000001,-0.02112014585178842
14.3,-0.021118511094869504
14.304,-0.021118102405639775
14.308,-0.021118030284010998
14.312000000000001,-0.021118030284010998
14.316,-0.021118030284010998
14.32,-0.02111762159478127
14.324,-0.02111771775695297
14.328000000000001,-0.021117477351523715
14.332,-0.021115650270261396
14.336,-0.021114352080943432
14.34,-0.021114905013430715
14.344,-0.021116900378493512
14.348,-0.021118006243468074
14.352,-0.021118390892154875
14.356,-0.021118943824642158
14.36,-0.021118751500298755
14.364,-0.021118318770526102
14.368,-0.02111711674337984
14.372,-0.02111762159478127
14.376,-0.02112019393287427
14.38,-0.021122045054679517
14.384,-0.021122453743909246
14.388,-0.021123631730512585
14.392,-0.02112411254137109
14.396,-0.021124040419742314
14.4,-0.021123631730512585
14.404,-0.021124641433315446
14.408,-0.02112360768996966
14.412,-0.02112324708182578
14.416,-0.021124905879287625
14.42,-0.02112690124435042
14.424,-0.02112618002806266
14.428,-0.021124473149514968
14.432,-0.021123679811598434
14.436,-0.021122862433138975
14.44,-0.02112182868979319
14.444,-0.02112399233865646
14.448,-0.021126011744262187
14.452,-0.021124881838744697
14.456,-0.02112425678462864
14.46,-0.021123968298113537
14.464,-0.021124208703542792
14.468,-0.02112392021702769
14.472,-0.021122117176308294
14.476,-0.021120482419389373
14.48,-0.021120891108619103
14.484,-0.02112146808164931
14.488,-0.021120578581561075
14.492,-0.02111964100038699
14.496,-0.02111836685161195
14.5,-0.02112014585178842
14.504,-0.021125242446888577
14.508000000000001,-0.02113014671764533
14.512,-0.02113339219094024
14.516,-0.021133368150397316
14.52,-0.021132021879993503
14.524000000000001,-0.021128560041812263
14.528,-0.02112425678462864
14.532,-0.02112324708182578
14.536,-0.021124184662999864
14.540000000000001,-0.02112476163603007
14.544,-0.021124978000916398
14.548,-0.021125146284716876
14.552,-0.021126204068605586
14.556000000000001,-0.02112740609575185
14.56,-0.021127069528150896
14.564,-0.021127189730865522
14.568,-0.02112762246063818
14.572000000000001,-0.021126516595663617
14.576,-0.021125554973946605
14.58,-0.021126300230777287
14.584,-0.02112795902823913
14.588000000000001,-0.02112928125810002
14.592,-0.021130363082531658
14.596,-0.021130411163617507
14.6,-0.02113029096090288
14.604000000000001,-0.02112904085267077
14.608,-0.02112853600126934
14.612,-0.021130122677102407
14.616,-0.021131300663705742
14.620000000000001,-0.02113197379890765
14.624,-0.021134449974828953
14.628,-0.021136373218262974
14.632,-0.021138392623868695
14.636000000000001,-0.02113995525915884
14.64,-0.021140027380787612
14.644,-0.021139835056444213
14.648,-0.021141157286305102
14.652000000000001,-0.02114070051598952
14.656,-0.02113952252938618
14.66,-0.021139113840156452
14.664,-0.021139161921242305
14.668000000000001,-0.02113969081318666
14.672,-0.02113853686712625
14.676,-0.021135892407404468
14.68,-0.021132286325965678
14.684000000000001,-0.021131252582619893
14.688,-0.021131949758364726
14.692,-0.0211317333934784
14.696,-0.02112968994732975
14.700000000000001,-0.021129449541900498
14.704,-0.02113096409610479
14.708,-0.02113096409610479
14.712,-0.02113060348796091
14.716000000000001,-0.02113009863655948
14.72,-0.021130483285246283
14.724,-0.021128800447241514
14.728,-0.021126973365979195
14.732000000000001,-0.021127358014666
14.736,-0.02112968994732975
14.74,-0.02113298350171051
14.744,-0.021135099069487934
14.748000000000001,-0.021135603920889364
14.752,-0.021135147150573786
14.756,-0.021136805948035627
14.76,-0.021139065759070604
14.764000000000001,-0.02113803201572482
14.768,-0.021136469380434675
14.772,-0.021137142515636583
14.776,-0.02113786373192434
14.780000000000001,-0.021137935853553117
14.784,-0.02113863302929795
14.788,-0.02113969081318666
14.792,-0.021138945556355978
14.796000000000001,-0.021138392623868695
14.8,-0.021139618691557883
14.804,-0.021140676475446596
14.808,-0.02114120536739095
14.812000000000001,-0.02114197466476456
14.816,-0.021140772637618297
14.82,-0.02113937828612863
14.824,-0.02113841666441162
14.828000000000001,-0.02113745504269461
14.832,-0.021135772204689842
14.836,-0.021134353812657252
14.84,-0.021133824920712897
14.844000000000001,-0.021133584515283643
14.848,-0.021132021879993503
14.852,-0.02113096409610479
14.856,-0.02113069965013261
14.86,-0.021130002474387777
14.864,-0.02112868024452689
14.868,-0.021130002474387777
14.872,-0.021130579447417985
14.876,-0.021130531366332136
14.88,-0.021130531366332136
14.884,-0.02113233440705153
14.888,-0.021132935420624662
14.892,-0.0211319257178218
14.896,-0.021130723690675538
14.9,-0.02112923317701417
14.904,-0.021128055190410833
14.908,-0.021127358014666
14.912,-0.02112634831186314
14.916,-0.021125795379375856
14.92,-0.021125819419918784
14.924,-0.02112730993358015
14.928,-0.021129088933756618
14.932,-0.021130771771761387
14.936,-0.021131661271849622
14.94,-0.021131132379905267
14.944,-0.02112928125810002
14.948,-0.02112658871729239
14.952,-0.021125458811774904
14.956,-0.021125891541547558
14.96,-0.021125146284716876
14.964,-0.021125002041459322
14.968,-0.02112553093340368
14.972,-0.02112543477123198
14.976,-0.021124376987343266
14.98,-0.02112339132508333
14.984,-0.021123054757482378
14.988,-0.021121852730336114
14.992,-0.021121107473505433
14.996,-0.021121996973593665
15.0,-0.021122670108795573
15.004,-0.0211207949464474
15.008000000000001,-0.02111918423007141
15.012,-0.02111990544635917
15.016,-0.021121444041106385
15.02,-0.02112399233865646
15.024000000000001,-0.0211251703252598
15.028,-0.021124713554944222
15.032,-0.021123559608883808
15.036,-0.021123319203454557
15.040000000000001,-0.02112644447403484
15.044,-0.021129401460814646
15.048,-0.02112863216344104
15.052,-0.021127886906610355
15.056000000000001,-0.02112959378515805
15.06,-0.021128487920183486
15.064,-0.021126805082178717
15.068,-0.02112685316326457
15.072000000000001,-0.021126925284893346
15.076,-0.021126011744262187
15.08,-0.021125867501004633
15.084,-0.021126973365979195
15.088000000000001,-0.021127237811951374
15.092,-0.02112740609575185
15.096,-0.021128415798554713
15.1,-0.021128584082355188
15.104000000000001,-0.02112877640669859
15.108,-0.021129906312216076
15.112,-0.021130242879817032
15.116,-0.02113081985284724
15.120000000000001,-0.021131300663705742
15.124,-0.021131901677278873
15.128,-0.021131901677278873
15.132,-0.021131012177190638
15.136000000000001,-0.021130723690675538
15.14,-0.02113132470424867
15.144,-0.02113069965013261
15.148,-0.021129521663529275
15.152000000000001,-0.021129257217557096
15.156,-0.021130940055561865
15.16,-0.021132166123251053
15.164,-0.021131853596193025
15.168000000000001,-0.021131132379905267
15.172,-0.021128920649956143
15.176,-0.021126732960549944
15.18,-0.021126276190234362
15.184000000000001,-0.02112709356869382
15.188,-0.02112699740652212
15.192,-0.021127742663352805
15.196,-0.021129016812127845
15.200000000000001,-0.021129882271673152
15.204,-0.021129112974299546
15.208,-0.021129209136471244
15.212,-0.021129834190587303
15.216000000000001,-0.02113065156904676
15.22,-0.02113081985284724
15.224,-0.021132142082708128
15.228,-0.02113531543437426
15.232000000000001,-0.02113817625898237
15.236,-0.02114079667816122
15.24,-0.021141758299878233
15.244,-0.02114187850259286
15.248000000000001,-0.021140484151103194
15.252,-0.02113786373192434
15.256,-0.021134594218086503
15.26,-0.021133079663882212
15.264000000000001,-0.021132406528680304
15.268,-0.02113060348796091
15.272,-0.021128079230953757
15.276,-0.02112603578480511
15.280000000000001,-0.02112608386589096
15.284,-0.02112675700109287
15.288,-0.021125386690146127
15.292,-0.021122189297937067
15.296000000000001,-0.02112132383839176
15.3,-0.021120674743732776
15.304,-0.021119737162558692
15.308,-0.021118318770526102
15.312000000000001,-0.021114376121486356
15.316,-0.02111209226990846
15.32,-0.02111141913470655
15.324,-0.021110890242762196
15.328000000000001,-0.021110794080590495
15.332,-0.021113895310627854
15.336,-0.021117645635324193
15.34,-0.021119015946270935
15.344000000000001,-0.021118318770526102
15.348,-0.021116467648720855
15.352,-0.02111629936492038
15.356,-0.02111653977034963
15.36,-0.02111567431080432
15.364,-0.021114784810716086
15.368,-0.021114352080943432
15.372,-0.021115097337774117
15.376,-0.021116515729806707
15.38,-0.02111579451351895
15.384,-0.02111274136456744
15.388,-0.021111539337421176
15.392,-0.02111238075642356
15.396,-0.021111202769820224
15.4,-0.021109471850729603
15.404,-0.021108846796613547
15.408,-0.021107284161323406
15.412,-0.02110543303951816
15.416,-0.021104904147573805
15.42,-0.021105721526033263
15.424,-0.021105192634088908
15.428,-0.021104856066487952
15.432,-0.021106106174720068
15.436,-0.021105769607119112
15.44,-0.021105072431374283
15.444,-0.021105408998975235
15.448,-0.02110456757997285
15.452,-0.021103533836627063
15.456,-0.021103293431197812
15.46,-0.021103221309569035
15.464,-0.021102908782511007
15.468,-0.02110108170124869
15.472,-0.02110031240387508
15.476,-0.021100600890390182
15.48,-0.021100360484960928
15.484,-0.021097932390125477
15.488,-0.021096922687322616
15.492,-0.021097788146867927
15.496,-0.02109704289003724
15.5,-0.021095360052032476
15.504,-0.021095408133118325
15.508000000000001,-0.021096778444065066
15.512,-0.021097547741438672
15.516,-0.021097764106325002
15.52,-0.02109822087664058
15.524000000000001,-0.021099831593016573
15.528,-0.02110055280930433
15.532,-0.021099206538900517
15.536,-0.02109511964660322
15.540000000000001,-0.021091633767879057
15.544,-0.02109502348443152
15.548,-0.021098918052385413
15.552,-0.021101370187763792
15.556000000000001,-0.021101610593193043
15.56,-0.02109973543084487
15.564,-0.021098797849670788
15.568,-0.021099783511930724
15.572000000000001,-0.021098268957726433
15.576,-0.02109427822760084
15.58,-0.02109497540334567
15.584,-0.02109838916044106
15.588000000000001,-0.02110081725527651
15.592,-0.021102524133824203
15.596,-0.021103461714998287
15.6,-0.021103726160970466
15.604000000000001,-0.02110228372839495
15.608,-0.02110117786342039
15.612,-0.021101129782334537
15.616,-0.021100384525503856
15.620000000000001,-0.021097740065782074
15.624,-0.021096465917007038
15.628,-0.0210974756198099
15.632,-0.021097908349582552
15.636000000000001,-0.02109959118758732
15.64,-0.021101249985049163
15.644,-0.021102812620339306
15.648,-0.021102452012195426
15.652000000000001,-0.021102043322965697
15.656,-0.021101995241879848
15.66,-0.021102764539253454
15.664,-0.02110259625545298
15.668000000000001,-0.021103173228483187
15.672,-0.02110375020151339
15.676,-0.02110319726902611
15.68,-0.021104231012371896
15.684000000000001,-0.021104399296172374
15.688,-0.021103942525856793
15.692,-0.021104495458344075
15.696,-0.02110365403934169
15.700000000000001,-0.021101033620162836
15.704,-0.021100528768761406
15.708,-0.0211024279716525
15.712,-0.021104086769114346
15.716000000000001,-0.021102716458167605
15.72,-0.021100192201160453
15.724,-0.021099326741615142
15.728,-0.02109771602523915
15.732000000000001,-0.021096826525150915
15.736,-0.02109579278180513
15.74,-0.021094398430315464
15.744,-0.021094759038459344
15.748000000000001,-0.021093773376199408
15.752,-0.021091970335480013
15.756,-0.021092907916654097
15.76,-0.02109569661963343
15.764000000000001,-0.021095167727689074
15.768,-0.021094542673573014
15.772,-0.02109350893022723
15.776,-0.02109285983556825
15.780000000000001,-0.021092787713939472
15.784,-0.02109127315973518
15.788,-0.021090744267790822
15.792,-0.02109355701131308
15.796000000000001,-0.02109569661963343
15.8,-0.021096129349406082
15.804,-0.02109502348443152
15.808,-0.021092114578737563
15.812000000000001,-0.02109050386236157
15.816,-0.021089950929874292
15.82,-0.021091705889507834
15.824,-0.021092138619280488
15.828000000000001,-0.02109127315973518
15.832,-0.021090431740732794
15.836,-0.021088941227071428
15.84,-0.021086633334950602
15.844000000000001,-0.021087234348523734
15.848,-0.021089662443359188
15.852,-0.021091128916477627
15.856,-0.021090888511048376
15.860000000000001,-0.02109122507864933
15.864,-0.021090720227247898
15.868,-0.021091056794848854
15.872,-0.021092547308510217
15.876,-0.02109350893022723
15.88,-0.021094158024886213
15.884,-0.021096177430491934
15.888,-0.021098437241526907
15.892,-0.02109959118758732
15.896,-0.021100288363332154
15.9,-0.02110132210667794
15.904,-0.02110055280930433
15.908,-0.021099519065958545
15.912,-0.02110156251210719
15.916,-0.021104182931286047
15.92,-0.021103437674455362
15.924,-0.021101850998622294
15.928,-0.021101514431021342
15.932,-0.021103365552826586
15.936,-0.02110644274232102
15.94,-0.021109880539959335
15.944,-0.021113318337597647
15.948,-0.021117477351523715
15.952,-0.021121612324906863
15.956,-0.021125098203631024
15.96,-0.021127382055208924
15.964,-0.02112812731203961
15.968,-0.021127430136294777
15.972,-0.021127790744438654
15.976,-0.021128415798554713
15.98,-0.021127694582266952
15.984,-0.021125915582090486
15.988,-0.02112389617648476
15.992,-0.02112300667639653
15.996,-0.021121083432962505
16.0,-0.0211182226083544
16.004,-0.021118607257041205
16.008,-0.021118943824642158
16.012,-0.021119208270614337
16.016000000000002,-0.021121780608707338
16.02,-0.021123727892684286
16.024,-0.021124737595487147
16.028,-0.021126324271320215
16.032,-0.021128704285069813
16.036,-0.021131300663705742
16.04,-0.021132454609766156
16.044,-0.021132959461167587
16.048000000000002,-0.021133464312569017
16.052,-0.021131132379905267
16.056,-0.021127526298466478
16.06,-0.021126973365979195
16.064,-0.021126925284893346
16.068,-0.021128487920183486
16.072,-0.021129882271673152
16.076,-0.02113142086642037
16.080000000000002,-0.021132935420624662
16.084,-0.021134233609942626
16.088,-0.021134978866773308
16.092,-0.02113541159654596
16.096,-0.02113502694785916
16.1,-0.021134546137000654
16.104,-0.02113594048849032
16.108,-0.021138584948212098
16.112000000000002,-0.021139738894272512
16.116,-0.02113995525915884
16.12,-0.021140027380787612
16.124,-0.02113817625898237
16.128,-0.021135868366861543
16.132,-0.02113161319076377
16.136,-0.021127742663352805
16.14,-0.021126204068605586
16.144000000000002,-0.021123559608883808
16.148,-0.021122165257394142
16.152,-0.021122862433138975
16.156,-0.021121131514048357
16.16,-0.021118511094869504
16.164,-0.021120362216674748
16.168,-0.021125218406345653
16.172,-0.021130122677102407
16.176000000000002,-0.021134618258629428
16.18,-0.021133632596369495
16.184,-0.02113137278533452
16.188,-0.02113081985284724
16.192,-0.021129930352759004
16.196,-0.021127838825524506
16.2,-0.021126877203807494
16.204,-0.02112649255512069
16.208000000000002,-0.021125819419918784
16.212,-0.02112608386589096
16.216,-0.02112644447403484
16.22,-0.021126204068605586
16.224,-0.021124352946800342
16.228,-0.021122718189881425
16.232,-0.021121612324906863
