time,channel5
0.0,0.0024297776734563915
0.004,0.00242780634893652
0.008,0.0024278303894794454
0.012,0.0024299699977997934
0.016,0.0024274697813355664
0.02,0.0024271812948204632
0.024,0.00242734957862094
0.028,0.0024282390787091746
0.032,0.0024279505921940715
0.036000000000000004,0.0024249455243284136
0.04,0.0024239839026114025
0.044,0.0024250897675859653
0.048,0.0024270610921058367
0.052000000000000005,0.0024278544300223703
0.056,0.0024291285787974093
0.06,0.002431556673632861
0.064,0.0024278784705652956
0.068,0.0024261956325605273
0.07200000000000001,0.0024278303894794454
0.076,0.002431556673632861
0.08,0.0024295853491129896
0.084,0.0024290804977115587
0.088,0.002429729592370541
0.092,0.0024261475514746767
0.096,0.0024254022946439938
0.1,0.002427085132648762
0.10400000000000001,0.002427517862421417
0.108,0.002427229375906314
0.112,0.002427734227307744
0.116,0.002427085132648762
0.12,0.0024316047547187115
0.124,0.0024337684035819853
0.128,0.0024331433494659284
0.132,0.0024319653628625906
0.136,0.0024295132274842137
0.14,0.0024300661599714946
0.14400000000000002,0.002434225173897565
0.148,0.002439850660942077
0.152,0.002438432268909486
0.156,0.002437518728278326
0.16,0.002435282957786277
0.164,0.002433552038695658
0.168,0.002433840525210761
0.17200000000000001,0.0024316047547187115
0.176,0.002430522930287075
0.18,0.002436052255159885
0.184,0.0024375427688212515
0.188,0.002438504390538262
0.192,0.0024380476202226823
0.196,0.0024370859985056717
0.2,0.0024354272010438283
0.20400000000000001,0.0024364369038466895
0.20800000000000002,0.0024416296611185465
0.212,0.0024422066341487528
0.216,0.0024400189447425537
0.22,0.0024381197418514577
0.224,0.002437927417508056
0.228,0.002437302363391999
0.232,0.0024382399445660842
0.23600000000000002,0.0024386245932528886
0.24,0.002443961593782297
0.244,0.0024421104719770516
0.248,0.0024422066341487528
0.252,0.0024392736879118703
0.256,0.0024387928770533652
0.26,0.002439874701485002
0.264,0.002440884404287863
0.268,0.0024406199583156853
0.272,0.0024381197418514577
0.276,0.0024395381338840486
0.28,0.0024422547152346034
0.28400000000000003,0.002439850660942077
0.28800000000000003,0.002437494687735401
0.292,0.0024412930935175927
0.296,0.0024439375532393716
0.3,0.002441148850260041
0.304,0.0024405718772298347
0.308,0.0024420383503482757
0.312,0.0024415575394897706
0.316,0.0024412930935175927
0.32,0.002441797944919023
0.324,0.0024413411746034433
0.328,0.0024442500802974
0.332,0.0024453799858148873
0.336,0.0024456684723299905
0.34,0.002443889472153521
0.34400000000000003,0.002446822418390403
0.34800000000000003,0.0024483369725946946
0.352,0.0024484812158522464
0.356,0.002448986067253677
0.36,0.0024483369725946946
0.364,0.002445091499299784
0.368,0.0024435048234667167
0.372,0.002442495120663856
0.376,0.002441870066547799
0.38,0.00244013914745718
0.384,0.002442495120663856
0.388,0.002444947256042233
0.392,0.0024473032292489086
0.396,0.0024476397968498623
0.4,0.002446822418390403
0.404,0.002445091499299784
0.40800000000000003,0.0024471589859913568
0.41200000000000003,0.002443817350524745
0.41600000000000004,0.0024447549316988304
0.42,0.002446702215675777
0.424,0.0024453799858148873
0.428,0.0024433124991233147
0.432,0.0024448270533276063
0.436,0.002445235742557336
0.44,0.002446822418390403
0.444,0.002447062823819656
0.448,0.002442975931522361
0.452,0.002438432268909486
0.456,0.0024385284310811874
0.46,0.002439970863656703
0.464,0.0024377110526217285
0.468,0.0024378072147934293
0.47200000000000003,0.0024362686200462124
0.47600000000000003,0.0024379033769651305
0.48,0.00244379330998182
0.484,0.0024441058370398483
0.488,0.0024401872285430303
0.492,0.0024419181476336496
0.496,0.002441701782747322
0.5,0.0024402593501718062
0.504,0.0024412690529746674
0.508,0.002445980999388019
0.512,0.002447110904905506
0.516,0.002444538566812503
0.52,0.002444153918125699
0.524,0.0024430240126082116
0.528,0.002442134512519977
0.532,0.0024447549316988304
0.536,0.002448024445536666
0.54,0.002445235742557336
0.544,0.0024435769450954926
0.548,0.0024430240126082116
0.552,0.002441028647545415
0.556,0.00244105268808834
0.56,0.0024433124991233147
0.5640000000000001,0.0024430240126082116
0.5680000000000001,0.0024430240126082116
0.5720000000000001,0.0024457405939587664
0.5760000000000001,0.0024459569588450936
0.58,0.002445428066900738
0.584,0.00244516362092856
0.588,0.0024447549316988304
0.592,0.002444514526269578
0.596,0.0024418219854619484
0.6,0.00244379330998182
0.604,0.0024443462424691012
0.608,0.0024460290804738695
0.612,0.002447471513049385
0.616,0.0024453078641861114
0.62,0.0024448270533276063
0.624,0.002445091499299784
0.628,0.0024454761479865885
0.632,0.002445091499299784
0.636,0.0024475917157640117
0.64,0.002446197364274346
0.644,0.0024461012021026454
0.648,0.0024468704994762536
0.652,0.002445235742557336
0.656,0.002445644431787065
0.66,0.0024479282833649654
0.664,0.0024473032292489086
0.668,0.0024468704994762536
0.672,0.0024453799858148873
0.676,0.002445980999388019
0.68,0.0024463175669889726
0.684,0.0024485533374810223
0.6880000000000001,0.002449971729513613
0.6920000000000001,0.0024463175669889726
0.6960000000000001,0.0024432163369516135
0.7000000000000001,0.002444442404640802
0.704,0.0024463175669889726
0.708,0.002448721621281499
0.712,0.002448024445536666
0.716,0.002448024445536666
0.72,0.002447808080650339
0.724,0.0024486014185668725
0.728,0.00244968324299851
0.732,0.002452327702720289
0.736,0.0024550442840708436
0.74,0.0024530248784651217
0.744,0.0024520151756622604
0.748,0.0024486254591097978
0.752,0.0024495389997409587
0.756,0.002448793742910275
0.76,0.002449875567341912
0.764,0.0024488658645390507
0.768,0.0024505727430867447
0.772,0.0024528085135787944
0.776,0.0024522796216344383
0.78,0.002453529729866552
0.784,0.0024511977972028016
0.788,0.0024468464589333283
0.792,0.0024492985943117052
0.796,0.0024511256755740257
0.8,0.0024524719459778407
0.804,0.00245242386489199
0.808,0.0024504284998291934
0.812,0.002453529729866552
0.8160000000000001,0.0024555731760151993
0.8200000000000001,0.0024534816487807014
0.8240000000000001,0.0024533854866090007
0.8280000000000001,0.0024562943923029574
0.8320000000000001,0.002456799243704388
0.836,0.00245790510867895
0.84,0.0024570396491336408
0.844,0.0024551885273283954
0.848,0.0024570396491336408
0.852,0.0024521594189198122
0.856,0.0024522555810915134
0.86,0.002454996202984993
0.864,0.0024525440676066166
0.868,0.0024549240813562176
0.872,0.002456414595017584
0.876,0.002452327702720289
0.88,0.0024532893244372995
0.884,0.0024540105407250576
0.888,0.002454443270497712
0.892,0.002455284689500096
0.896,0.0024579291492218755
0.9,0.0024617515955469922
0.904,0.002462376649663049
0.908,0.002458626324966708
0.912,0.002458289757365754
0.916,0.002459419662883242
0.92,0.0024554048922147227
0.924,0.0024542990272401607
0.928,0.0024541307434396836
0.932,0.0024543951894118615
0.936,0.0024545634732123386
0.9400000000000001,0.0024567511626185376
0.9440000000000001,0.002454876000270367
0.9480000000000001,0.002457352176191669
0.9520000000000001,0.0024568473247902384
0.9560000000000001,0.002455861662530303
0.96,0.0024561020679595555
0.964,0.002457736824878473
0.968,0.0024559337841590784
0.972,0.0024534335676948513
0.976,0.0024520872972910363
0.98,0.0024550442840708436
0.984,0.0024557414598156764
0.988,0.002455717419272751
0.992,0.002454731757012815
0.996,0.0024529527568363458
1.0,0.0024508131485159973
1.004,0.002451293959374503
1.008,0.0024511977972028016
1.012,0.002450236175485791
1.016,0.0024493947564834064
1.02,0.0024533614460660754
1.024,0.0024542749866972354
1.028,0.0024546836759269646
1.032,0.0024554048922147227
1.036,0.002455789540901527
1.04,0.0024535537704094773
1.044,0.0024576406627067724
1.048,0.002459179257453989
1.052,0.0024554529733005733
1.056,0.002453529729866552
1.06,0.002454996202984993
1.064,0.0024547557975557405
1.068,0.0024577608654213984
1.072,0.002459539865597868
1.076,0.0024588907709388857
1.08,0.0024564626761034345
1.084,0.002459972595370523
1.088,0.0024616073522894404
1.092,0.002461583311746515
1.096,0.0024607659332870563
1.1,0.002461463109031889
1.104,0.0024625449334635258
1.108,0.002461294825231412
1.112,0.0024597802710271204
1.116,0.0024602851224285512
1.12,0.0024617756360899175
1.124,0.002463362311922985
1.1280000000000001,0.0024604053251431773
1.1320000000000001,0.002459972595370523
1.1360000000000001,0.0024607899738299816
1.1400000000000001,0.0024598523926558963
1.1440000000000001,0.0024558376219873776
1.1480000000000001,0.002457183892391192
1.1520000000000001,0.0024583859195374553
1.156,0.002459900473741747
1.16,0.0024607899738299816
1.164,0.0024626651361781523
1.168,0.002462448771291825
1.172,0.002460261081885626
1.176,0.002461270784688487
1.18,0.0024601408791709994
1.184,0.0024627612983498534
1.188,0.002462376649663049
1.192,0.002460814014372907
1.196,0.0024592513790827647
1.2,0.0024578570275930996
1.204,0.002457808946507249
1.208,0.0024579772303077257
1.212,0.0024600206764563734
1.216,0.0024637710011527142
1.22,0.0024635065551805364
1.224,0.002460814014372907
1.228,0.002460261081885626
1.232,0.0024610544198021595
1.236,0.0024614871495748144
1.24,0.002459083095282288
1.244,0.002457544500535071
1.248,0.0024575925816209218
1.252,0.0024571358113053415
1.256,0.0024559578247020037
1.26,0.0024579772303077257
1.264,0.0024621843253196467
1.268,0.0024602130007997753
1.272,0.0024576406627067724
1.276,0.0024565588382751352
1.28,0.002458001270850651
1.284,0.0024596119872266438
1.288,0.002457616622163847
1.292,0.0024563905544746586
1.296,0.002456799243704388
1.3,0.0024589388520247363
1.304,0.0024612227036026365
1.308,0.002461030379259234
1.312,0.0024597321899412702
1.316,0.002459419662883242
1.32,0.002459636027769569
1.324,0.0024577849059643237
1.328,0.002458794608767185
1.332,0.0024564626761034345
1.336,0.0024550923651566942
1.34,0.002458073392479427
1.344,0.0024605014873148785
1.348,0.002460814014372907
1.352,0.0024587465276813343
1.356,0.0024596119872266438
1.36,0.002460477446771953
1.364,0.0024584820817091565
1.368,0.002459443703426167
1.372,0.0024590590547393628
1.3760000000000001,0.002459443703426167
1.3800000000000001,0.0024590350141964375
1.3840000000000001,0.0024595879466837185
1.3880000000000001,0.0024615111901177397
1.3920000000000001,0.002462376649663049
1.3960000000000001,0.0024616073522894404
1.4000000000000001,0.0024628093794357036
1.4040000000000001,0.0024601649197139247
1.408,0.0024607899738299816
1.412,0.0024585061222520818
1.416,0.0024597321899412702
1.42,0.0024579291492218755
1.424,0.002459443703426167
1.428,0.002460814014372907
1.432,0.0024585782438808572
1.436,0.002458626324966708
1.44,0.0024589628925676616
1.444,0.0024605976494865797
1.448,0.0024577608654213984
1.452,0.002458097433022352
1.456,0.0024581214735652774
1.46,0.0024608620954587575
1.464,0.0024636988795239383
1.468,0.0024624728118347503
1.472,0.0024629536226932554
1.476,0.0024635786768093123
1.48,0.002462088163147946
1.484,0.002462208365862572
1.488,0.002462280487491348
1.492,0.002459972595370523
1.496,0.0024622564469484226
1.5,0.0024620641226050207
1.504,0.002463290190294209
1.508,0.0024646364606980237
1.512,0.002462568974006451
1.516,0.0024612227036026365
1.52,0.002461030379259234
1.524,0.0024628093794357036
1.528,0.00246018896025685
1.532,0.0024610544198021595
1.536,0.002460333203514402
1.54,0.0024596119872266438
1.544,0.0024592273385398394
1.548,0.0024616073522894404
1.552,0.00246201604151917
1.556,0.002460261081885626
1.56,0.002464660501240949
1.564,0.0024641556498395186
1.568,0.0024651413120994545
1.572,0.0024669443528188492
1.576,0.0024668722311900733
1.58,0.002469588812540628
1.584,0.0024729064074643144
1.588,0.002474877731984186
1.592,0.002472690042577987
1.596,0.0024681463799651124
1.6,0.002466415460874493
1.604,0.002467304960962728
1.608,0.0024667279879325215
1.612,0.002464588379612173
1.616,0.002464924947213127
1.62,0.002467833852907084
1.624,0.002468506988108991
1.6280000000000001,0.0024677857718212333
1.6320000000000001,0.0024662712176169417
1.6360000000000001,0.002466415460874493
1.6400000000000001,0.002468603150280692
1.6440000000000001,0.002469588812540628
1.6480000000000001,0.002467593447477831
1.6520000000000001,0.0024680021367075606
1.6560000000000001,0.002469011839510422
1.6600000000000001,0.002468098298879262
1.6640000000000001,0.0024677136501924575
1.668,0.002469709015255254
1.672,0.0024731948939794176
1.676,0.0024712716505453963
1.68,0.002469228204396749
1.684,0.002471752461403902
1.688,0.0024707427586010407
1.692,0.0024711033667449197
1.696,0.0024701177044849838
1.7,0.0024711995289166204
1.704,0.0024714639748887987
1.708,0.002474973894155887
1.712,0.0024769692592186837
1.716,0.0024769452186757584
1.72,0.0024724015560628836
1.724,0.0024684108259372902
1.728,0.002466776069018372
1.732,0.002468026177250486
1.736,0.0024684348664802155
1.74,0.0024665356635891196
1.744,0.0024677136501924575
1.748,0.002465574041872109
1.752,0.0024630978659508068
1.756,0.0024655980824150343
1.76,0.002465574041872109
1.764,0.0024664635419603437
1.768,0.00246749728530613
1.772,0.00246795405562171
1.776,0.0024712716505453963
1.78,0.002473146812893567
1.784,0.002473050650721866
1.788,0.0024719928668331544
1.792,0.0024703821504571616
1.796,0.0024700215423132826
1.8,0.002469300326025525
1.804,0.0024694445692830763
1.808,0.0024700936639420585
1.812,0.002469516690911852
1.816,0.002469853258512806
1.82,0.0024701657855708344
1.824,0.002469372447654301
1.828,0.0024699013395986565
1.832,0.0024711995289166204
1.836,0.002471968826290229
1.84,0.002472593880406286
1.844,0.0024707427586010407
1.848,0.00246795405562171
1.852,0.002468482947566066
1.856,0.002470334069371311
1.86,0.002471415893802948
1.864,0.0024722813533482576
1.868,0.0024729064074643144
1.872,0.002470069623399133
1.8760000000000001,0.002470959123487368
1.8800000000000001,0.002473002569636015
1.8840000000000001,0.0024746373265549333
1.8880000000000001,0.002472786204749688
1.8920000000000001,0.0024747575292695598
1.8960000000000001,0.0024742767184110542
1.9000000000000001,0.0024720649884619303
1.9040000000000001,0.002473242975065268
1.9080000000000001,0.0024736757048379227
1.9120000000000001,0.002473218934522343
1.9160000000000001,0.002474877731984186
1.92,0.0024731227723506417
1.924,0.0024753104617568408
1.928,0.0024766086510748047
1.932,0.0024751902590422143
1.936,0.0024743969211256807
1.94,0.0024728102452926132
1.944,0.0024719928668331544
1.948,0.002473627623752072
1.952,0.002473218934522343
1.956,0.002472593880406286
1.96,0.002472329434434108
1.964,0.002473627623752072
1.968,0.002473916110267175
1.972,0.0024736516642949974
1.976,0.002474973894155887
1.98,0.0024765365294460292
1.984,0.0024782434079937228
1.988,0.0024777625971352177
1.992,0.002479637759483388
1.996,0.0024817773678037364
2.0,0.0024818014083466617
2.004,0.0024818014083466617
2.008,0.002478339570165424
2.012,0.002477281786276712
2.016,0.0024786761377663777
2.02,0.0024790367459102563
2.024,0.0024784357323371247
2.028,0.002478531894508826
2.032,0.0024784116917941994
2.036,0.002479156948624883
2.04,0.002477137543019161
2.044,0.0024766807727035806
2.048,0.002475959556415823
2.052,0.0024763922861884774
2.056,0.002477281786276712
2.06,0.0024778587593069184
2.064,0.002478051083650321
2.068,0.0024775943133347406
2.072,0.0024788684621097797
2.076,0.0024768250159611324
2.08,0.0024760316780445984
2.084,0.0024802387730565195
2.088,0.0024818735299754376
2.092,0.0024808878677155016
2.096,0.0024821620164905407
2.1,0.002483291922008028
2.104,0.0024821620164905407
2.108,0.0024799743270843416
2.112,0.002482017773232989
2.116,0.0024816090840032597
2.12,0.0024792050297107334
2.124,0.0024772337051908616
2.128,0.0024775943133347406
2.132,0.002480984029887203
2.136,0.0024807676650008756
2.14,0.0024819456516042135
2.144,0.002481921611061288
2.148,0.002481633124546185
2.152,0.0024800464487131175
2.156,0.002478988664824406
2.16,0.002481272516402306
2.164,0.002480455137942847
2.168,0.0024800464487131175
2.172,0.002480455137942847
2.176,0.0024797820027409397
2.18,0.0024791329080819575
2.184,0.0024809599893442775
2.188,0.002482258178662242
2.192,0.0024814167596598573
2.196,0.0024834842463514304
2.2,0.0024845179896972164
2.204,0.0024847343545835437
2.208,0.002485744057386405
2.212,0.0024886289225374363
2.216,0.0024873307332194724
2.22,0.002483844854495309
2.224,0.002485816179015181
2.228,0.0024855276925000776
2.232,0.0024859844628156574
2.236,0.00248622486824491
2.24,0.0024856238546717784
2.244,0.002489590544254447
2.248,0.0024893020577393438
2.2520000000000002,0.0024874749764770237
2.2560000000000002,0.0024855036519571523
2.2600000000000002,0.00248622486824491
2.2640000000000002,0.0024854555708713017
2.2680000000000002,0.0024844458680684405
2.2720000000000002,0.002483099597664626
2.2760000000000002,0.002481993732690064
2.2800000000000002,0.0024817292867178858
2.2840000000000003,0.0024812965569452313
2.2880000000000003,0.002482642827349046
2.2920000000000003,0.0024827870706065976
2.2960000000000003,0.0024831236382075513
2.3000000000000003,0.0024856238546717784
2.3040000000000003,0.002487426895391173
2.308,0.002487931746792604
2.312,0.002486465273674163
2.316,0.00248617678715906
2.32,0.002487426895391173
2.324,0.002489326098282269
2.328,0.002491345503887991
2.332,0.0024885327603657355
2.336,0.0024880279089643047
2.34,0.0024875951791916502
2.344,0.0024869701250755934
2.348,0.0024898549902266248
2.352,0.002492691774291806
2.356,0.0024905521659714575
2.36,0.0024889414495954647
2.364,0.00248987903076955
2.368,0.002490768530857785
2.372,0.0024921148012615997
2.376,0.002491345503887991
2.38,0.0024883163954794083
2.384,0.00248617678715906
2.388,0.0024885087198228103
2.392,0.002487571138648725
2.396,0.0024858883006439567
2.4,0.0024857200168434796
2.404,0.0024849747600127967
2.408,0.0024874749764770237
2.412,0.002488749125252063
2.416,0.0024899030713124754
2.42,0.0024934851122083396
2.424,0.002496610382788624
2.428,0.0024969229098466524
2.432,0.002495913207043791
2.436,0.0024937255176375925
2.44,0.002492259044519151
2.444,0.002490864693029486
2.448,0.002487378814305323
2.452,0.0024832678814651027
2.456,0.0024836044490660564
2.46,0.002483652530151907
2.464,0.0024844218275255152
2.468,0.0024850949627274227
2.472,0.002485215165442049
2.476,0.002484493949154291
2.48,0.002484085259924562
2.484,0.0024859844628156574
2.488,0.002488701044166212
2.492,0.0024893741793681197
2.496,0.0024881721522218565
2.5,0.0024867056791034155
2.504,0.0024893741793681197
2.508,0.002488845287423764
2.512,0.002489253976653493
2.516,0.0024899992334841766
2.52,0.002491850355289422
2.524,0.0024915378282313935
2.528,0.0024921628823474503
2.532,0.002493388950036639
2.536,0.0024932687473220123
2.54,0.0024942544095819482
2.544,0.0024923792472337776
2.548,0.0024939899636097704
2.552,0.0024950237069555565
2.556,0.0024938216798092933
2.56,0.0024931966256932364
2.564,0.0024936293554658913
2.568,0.0024924754094054788
2.572,0.0024938457203522186
2.576,0.0024961055313871936
2.58,0.0024998318155406095
2.584,0.0024995673695684317
2.588,0.002497235436904681
2.592,0.002498293220793392
2.596,0.0024960814908442683
2.6,0.0024940380446956205
2.604,0.0024931004635215357
2.608,0.00249261965266303
2.612,0.002494230369039023
2.616,0.002496874828760802
2.62,0.0024997356533689088
2.624,0.00249855766676557
2.628,0.0024982210991646167
2.632,0.0024963940179022967
2.636,0.0024952400718418837
2.64,0.0024975479639627093
2.644,0.0024983893829650934
2.648,0.0025016348562600043
2.652,0.002502957086120894
2.656,0.002501682937345855
2.66,0.0025025724374340896
2.664,0.0025021637482043604
2.668,0.0025022839509189865
2.672,0.002503726383494502
2.676,0.002504976491726616
2.68,0.002505144775527093
2.684,0.0025042071943530077
2.688,0.0025042793159817836
2.692,0.0025040148700096053
2.696,0.0025038946672949793
2.7,0.0025030772888355204
2.704,0.0025054573025851215
2.708,0.00250485628901199
2.712,0.00250673145136016
2.716,0.0025074767081908434
2.72,0.002504880329554915
2.724,0.002504351437610559
2.728,0.002504495680868111
2.732,0.0025039187078379046
2.736,0.00250211566711851
2.74,0.0025012502075732004
2.744,0.0025005289912854423
2.748,0.002501851221146332
2.7520000000000002,0.0025016348562600043
2.7560000000000002,0.0024993510046821044
2.7600000000000002,0.002498148977535841
2.7640000000000002,0.002498846153280674
2.7680000000000002,0.0025001924236844886
2.7720000000000002,0.002500865558886396
2.7760000000000002,0.0025034138564364737
2.7800000000000002,0.002501562734631229
2.7840000000000003,0.002503173451007221
2.7880000000000003,0.0025034619375223243
2.7920000000000003,0.0025025724374340896
2.7960000000000003,0.002503798505123278
2.8000000000000003,0.0025060823567011783
2.8040000000000003,0.002506322762130431
2.8080000000000003,0.002505625586385598
2.8120000000000003,0.002504423559239335
2.816,0.002502957086120894
2.82,0.0025037504240374275
2.824,0.0025022839509189865
2.828,0.0025046639646685875
2.832,0.0025048082079261393
2.836,0.002502596477977015
2.84,0.0025002645453132645
2.844,0.0025021637482043604
2.848,0.0025036542618657267
2.852,0.0025044475997822602
2.856,0.00250673145136016
2.86,0.00250673145136016
2.864,0.0025047601268402887
2.868,0.0025042552754388583
2.872,0.0025051688160700183
2.876,0.0025040389105525306
2.88,0.0025028609239491927
2.884,0.00250079343725762
2.888,0.0025022118292902106
2.892,0.0025044475997822602
2.896,0.002505048613355392
2.9,0.002507019937875263
2.904,0.00250764499199132
2.908,0.0025077651947059466
2.912,0.0025097605597687433
2.916,0.0025092076272814623
2.92,0.0025065631675596834
2.924,0.0025066593297313846
2.928,0.0025064910459309075
2.932,0.0025074045865620675
2.936,0.002508630654251256
2.94,0.0025082940866503023
2.944,0.002507885397420573
2.948,0.002507356505476217
2.952,0.0025081979244786015
2.956,0.002510025005740921
2.96,0.0025095922759682666
2.964,0.002508366208279078
2.968,0.002508895100223434
2.972,0.0025091595461956117
2.976,0.002507068018961114
2.98,0.0025024522347194635
2.984,0.002504062951095456
2.988,0.0025064189243021316
2.992,0.0025043754781534843
2.996,0.0025032215320930718
3.0,0.0025038946672949793
3.004,0.00250764499199132
3.008,0.0025083902488220035
3.012,0.0025084142893649288
3.016,0.0025059140729007012
3.02,0.0025043754781534843
3.024,0.002501562734631229
3.028,0.0025029811266638192
3.032,0.002505986194529477
3.036,0.002504231234895933
3.04,0.002504159113267157
3.044,0.0025060102350724024
3.048,0.002507620951448395
3.052,0.0025058659918148506
3.056,0.002504519721411036
3.06,0.0025059140729007012
3.064,0.002510169248998473
3.068,0.0025088710596805086
3.072,0.0025101452084555476
3.076,0.002510265411170174
3.08,0.0025104096544277255
3.084,0.0025099288435692204
3.088,0.002511924208632017
3.092,0.002511731884288615
3.096,0.002512981992520729
3.1,0.002510529857142352
3.104,0.0025073324649332917
3.108,0.00250947207325364
3.112,0.002513198357407056
3.116,0.002515217763012778
3.12,0.0025149533170406003
3.124,0.0025150494792123015
3.128,0.002511828046460316
3.132,0.002509327829996089
3.136,0.0025109625869150064
3.14,0.002512741587091476
3.144,0.0025114193572305867
3.148,0.0025104096544277255
3.152,0.002516299587444415
3.156,0.0025165159523307425
3.16,0.002513655127722636
3.164,0.0025106260193140527
3.168,0.0025125011816622233
3.172,0.002513823411523113
3.176,0.0025112270328871843
3.18,0.002509736519225818
3.184,0.0025148331143259738
3.188,0.0025133666412075328
3.192,0.002511924208632017
3.196,0.002514232100752842
3.2,0.002513679168265561
3.204,0.0025139916953235896
3.208,0.002510890465286231
3.212,0.002510265411170174
3.216,0.002512549262748074
3.22,0.0025165399928736678
3.224,0.002517934344363333
3.228,0.002518318993050137
3.232,0.0025194729391105498
3.236,0.0025185353579364645
3.24,0.0025197133445398023
3.244,0.0025176218173053044
3.248,0.002515145641384002
3.2520000000000002,0.0025160832225580875
3.2560000000000002,0.0025153379657274046
3.2600000000000002,0.002514376344010394
3.2640000000000002,0.0025179103038204076
3.2680000000000002,0.0025163717090731907
3.2720000000000002,0.0025164438307019666
3.2760000000000002,0.0025186074795652403
3.2800000000000002,0.0025258196424428198
3.2840000000000003,0.002526132169500848
3.2880000000000003,0.0025239925611804997
3.2920000000000003,0.002522598209690834
3.2960000000000003,0.0025209153716860655
3.3000000000000003,0.0025167082766741444
3.3040000000000003,0.002516660195588294
3.3080000000000003,0.0025180064659921088
3.3120000000000003,0.0025196412229110264
3.3160000000000003,0.0025186315201081656
3.3200000000000003,0.0025162515063585646
3.3240000000000003,0.0025144244250962446
3.3280000000000003,0.002516395749616116
3.332,0.0025179824254491835
3.336,0.0025167803983029203
3.34,0.002517862222734557
3.344,0.002517309290247276
3.348,0.002516564033416593
3.352,0.002518318993050137
3.356,0.002518655560651091
3.36,0.002516107263101013
3.364,0.0025153379657274046
3.368,0.002514929276497675
3.372,0.002515145641384002
3.376,0.0025159630198434615
3.38,0.0025166361550453685
3.384,0.0025154581684420307
3.388,0.0025175256551336037
3.392,0.002518871925537418
3.396,0.002519400817481774
3.4,0.0025230790205493393
3.404,0.0025226703313196096
3.408,0.002520314358112934
3.412,0.0025235598314078452
3.416,0.002522790534034236
3.42,0.0025223337637186563
3.424,0.0025212038582011686
3.428,0.0025207230473426635
3.432,0.002518583439022315
3.436,0.0025179824254491835
3.44,0.002521131736572393
3.444,0.002524930142354585
3.448,0.0025269735885032323
3.452,0.002528127534563645
3.456,0.0025266370209022786
3.46,0.002526180250586699
3.464,0.0025218289123172255
3.468,0.0025226222502337595
3.472,0.002523151142178115
3.476,0.0025211798176582433
3.48,0.00252130002037287
3.484,0.0025234877097790693
3.488,0.0025258196424428198
3.492,0.0025256753991852684
3.496,0.002524713777468258
3.5,0.0025227184124054602
3.504,0.0025242570071526776
3.508,0.002525771561356969
3.512,0.002529954615825965
3.516,0.002532959683691623
3.52,0.0025306998726566483
3.524,0.0025285602643363
3.528,0.00253130088622978
3.532,0.002532046143060463
3.536,0.002532406751204342
3.54,0.002531661494373659
3.544,0.002529329561709908
3.548,0.0025312047240580787
3.552,0.002530195021255218
3.556,0.002530531588856171
3.56,0.0025319018998029115
3.564,0.0025317336160024344
3.568,0.002530964318628826
3.572,0.002529497845510385
3.576,0.0025335847378076797
3.58,0.0025321182646892387
3.584,0.002530771994285424
3.588,0.002531132602429303
3.592,0.002532502913376043
3.596,0.002530940278085901
3.6,0.0025317336160024344
3.604,0.002532286548489716
3.608,0.002530531588856171
3.612,0.0025268774263315316
3.616,0.0025290891562806555
3.62,0.0025322625079467905
3.624,0.002534426156810064
3.628,0.00253495504875442
3.632,0.002535507981241701
3.636,0.002536974454360142
3.64,0.0025371186976176937
3.644,0.0025363734407870104
3.648,0.0025330318053203987
3.652,0.002530483507770321
3.656,0.0025319259403458368
3.66,0.0025314451294873312
3.664,0.002530940278085901
3.668,0.0025332962512925766
3.672,0.0025319740214316874
3.676,0.0025303392645127693
3.68,0.002530315223969844
3.684,0.002531781697088285
3.688,0.0025312047240580787
3.692,0.002530122899626442
3.696,0.0025287045075938516
3.7,0.002531685534916584
3.704,0.0025341376702949607
3.708,0.0025320942241463134
3.712,0.002530747953742499
3.716,0.0025310845213434526
3.72,0.002534522318981765
3.724,0.0025323827106614166
3.728,0.002529329561709908
3.732,0.002530243102341068
3.736,0.002530243102341068
3.74,0.0025303633050556946
3.744,0.002530964318628826
3.748,0.002531949980888762
3.7520000000000002,0.0025320942241463134
3.7560000000000002,0.002531324926772705
3.7600000000000002,0.002530050777997666
3.7640000000000002,0.002531397048401481
3.7680000000000002,0.0025332241296638007
3.7720000000000002,0.0025315653322019577
3.7760000000000002,0.002528776629222627
3.7800000000000002,0.002524112763895126
3.7840000000000003,0.002525483074841866
3.7880000000000003,0.002525579237013567
3.7920000000000003,0.0025246897369253325
3.7960000000000003,0.002523054980006414
3.8000000000000003,0.0025244012504102293
3.8040000000000003,0.002527021669589083
3.8080000000000003,0.0025264927776447272
3.8120000000000003,0.0025243531693243788
3.8160000000000003,0.0025228866962059373
3.8200000000000003,0.00252541095321309
3.8240000000000003,0.002524713777468258
3.8280000000000003,0.0025238002368370978
3.8320000000000003,0.0025228386151200867
3.8360000000000003,0.002522502047519133
3.84,0.0025234396286932187
3.844,0.002524281047695603
3.848,0.0025244012504102293
3.852,0.0025235838719507705
3.856,0.002525074385612137
3.86,0.0025244012504102293
3.864,0.00252541095321309
3.868,0.002526396615473026
3.872,0.0025277669264197663
3.876,0.002531036440257602
3.88,0.002531036440257602
3.884,0.0025277188453339157
3.888,0.002528199656192421
3.892,0.0025295218860533104
3.896,0.0025309162375429755
3.9,0.0025307239131995736
3.904,0.002530122899626442
3.908,0.002529401683338684
3.912,0.002528199656192421
3.916,0.0025273341966471114
3.92,0.002526757223616905
3.924,0.0025285602643363
3.928,0.002527935210220243
3.932,0.0025260840884149976
3.936,0.0025269976290461576
3.94,0.002527454399361738
3.944,0.0025286804670509263
3.948,0.0025281756156494955
3.952,0.002527598642619289
3.956,0.0025273341966471114
3.96,0.0025312528051439293
3.964,0.0025328875620628474
3.968,0.0025282477372782714
3.972,0.002526685101988129
3.976,0.0025258196424428198
3.98,0.002528295818364122
3.984,0.002527574602076364
3.988,0.002529497845510385
3.992,0.002529497845510385
3.996,0.0025304594672273958
4.0,0.002532286548489716
4.0040000000000004,0.002528920872480179
4.008,0.0025278871291343923
4.0120000000000005,0.0025274303588188126
4.016,0.0025285602643363
4.0200000000000005,0.0025293776427957586
4.024,0.0025288968319372536
4.0280000000000005,0.0025288727913943283
4.032,0.0025291853184523567
4.0360000000000005,0.0025288006697655524
4.04,0.002529690169853787
4.0440000000000005,0.002526829345245681
4.048,0.0025275024804475884
4.0520000000000005,0.0025284641021645986
4.056,0.0025288727913943283
4.0600000000000005,0.0025294497644245345
4.064,0.0025285362237933745
4.0680000000000005,0.0025275265209905133
4.072,0.002525651358642343
4.0760000000000005,0.0025270697506749335
4.08,0.0025263004533013253
4.0840000000000005,0.002525290750498464
4.088,0.002528199656192421
4.0920000000000005,0.002531156642972228
4.096,0.0025275265209905133
4.1,0.0025275505615334386
4.104,0.0025286083454221504
4.108,0.002530411386141545
4.112,0.002532238467403865
4.116,0.002532863521519922
4.12,0.0025352675758124484
4.124,0.0025387534545366114
4.128,0.00253865729236491
4.132,0.0025389457788800134
4.136,0.002535171413640747
4.14,0.0025329116026057727
4.144,0.002531493210573182
4.148,0.0025287285481367765
4.152,0.0025286083454221504
4.156,0.002528367939992898
4.16,0.0025302190617981428
4.164,0.0025318057376312103
4.168,0.0025340174675803346
4.172,0.0025330077647774734
4.176,0.0025300026969118155
4.18,0.002530483507770321
4.184,0.002530603710484947
4.188,0.0025297142103967124
4.192,0.0025309162375429755
4.196,0.002532070183603388
4.2,0.002531781697088285
4.204,0.002532575035004819
4.208,0.002533536656721829
4.212,0.0025315412916590324
4.216,0.0025296420887679365
4.22,0.002526685101988129
4.224,0.0025284400616216733
4.228,0.0025311806835151534
4.232,0.0025319980619746127
4.236,0.002532142305232164
4.24,0.0025325269539189683
4.244,0.002531589372744883
4.248,0.002533055845863324
4.252,0.00253130088622978
4.256,0.0025303392645127693
4.26,0.002529209358995282
4.264,0.0025290891562806555
4.268,0.0025296420887679365
4.272,0.002529666129310862
4.276,0.002529666129310862
4.28,0.002530603710484947
4.284,0.002532430791747267
4.288,0.0025330798864062493
4.292,0.002531949980888762
4.296,0.0025308441159141997
4.3,0.0025310123997146767
4.304,0.0025299305752830396
4.308,0.0025308441159141997
4.312,0.0025301709807122926
4.316,0.002530411386141545
4.32,0.0025279832913060935
4.324,0.002529281480624058
4.328,0.0025298103725684136
4.332,0.002530315223969844
4.336,0.0025303392645127693
4.34,0.0025294497644245345
4.344,0.0025285362237933745
4.348,0.0025298103725684136
4.352,0.0025292333995382073
4.356,0.0025282477372782714
4.36,0.002529137237366506
4.364,0.002528776629222627
4.368,0.00252718995338956
4.372,0.0025270457101320082
4.376,0.0025266129803593533
4.38,0.0025256753991852684
4.384,0.0025247618585541084
4.388,0.0025244733720390052
4.392,0.0025242329666097523
4.396,0.0025264206560159513
4.4,0.0025283198589070473
4.404,0.002530122899626442
4.408,0.0025318057376312103
4.412,0.0025310123997146767
4.416,0.002530940278085901
4.42,0.0025320942241463134
4.424,0.002531853818717061
4.428,0.0025288968319372536
4.432,0.0025293776427957586
4.436,0.00253130088622978
4.44,0.002530940278085901
4.444,0.0025288247103084777
4.448,0.0025306517915707977
4.452,0.002531685534916584
4.456,0.0025309883591717514
4.46,0.002532623116090669
4.464,0.0025340895892091105
4.468,0.002533200089120876
4.472,0.00253130088622978
4.476,0.002530603710484947
4.48,0.0025295218860533104
4.484,0.002532695237719445
4.488,0.0025327192782623703
4.492,0.0025297863320254883
4.496,0.002530531588856171
4.5,0.002528007331849019
4.5040000000000004,0.0025268053047027557
4.508,0.002527478439904663
4.5120000000000005,0.002527093791217859
4.516,0.0025278871291343923
4.5200000000000005,0.002529305521166983
4.524,0.0025287285481367765
4.5280000000000005,0.0025299786563688902
4.532,0.0025301469401693673
4.5360000000000005,0.002528367939992898
4.54,0.0025295218860533104
4.5440000000000005,0.0025323586701184913
4.548,0.0025330077647774734
4.5520000000000005,0.002534305954095438
4.556,0.0025313730078585558
4.5600000000000005,0.002530964318628826
4.564,0.0025335126161789043
4.5680000000000005,0.002534305954095438
4.572,0.0025350512109261207
4.5760000000000005,0.00253586858938558
4.58,0.0025338011026940074
4.5840000000000005,0.0025356522244992523
4.588,0.002535724346128028
4.5920000000000005,0.0025338251432369323
4.596,0.0025336568594364556
4.6000000000000005,0.002538993859965864
4.604,0.0025394987113672948
4.6080000000000005,0.0025382005220493304
4.612,0.002542840346833906
4.616,0.0025426239819475787
4.62,0.002539835278968248
4.624,0.0025398833600540987
4.628,0.002540340130369679
4.632,0.0025422393332607744
4.636,0.002542359535975401
4.64,0.0025410613466574365
4.644,0.0025407247790564832
4.648,0.0025430567117202337
4.652,0.00254363368475044
4.656,0.0025421912521749242
4.66,0.0025426239819475787
4.664,0.002544667428096226
4.668,0.0025466868337019485
4.672,0.0025477926986765104
4.676,0.0025487783609364463
4.68,0.002550677563827542
4.684,0.0025489226041939977
4.688,0.002546566630987322
4.692,0.0025480571446486883
4.696,0.0025479850230199124
4.7,0.0025455088470986106
4.704,0.002546758955330724
4.708,0.002549764023196382
4.712,0.0025516391855445525
4.716,0.002550148671883186
4.72,0.0025496438204817558
4.724,0.0025497159421105317
4.728,0.002547408049989706
4.732,0.002549018766365699
4.736,0.0025485619960501187
4.74,0.002547552293247258
4.744,0.002545292482212283
4.748,0.0025471676445604535
4.752,0.002550292915140738
4.756,0.002549379374509578
4.76,0.0025475282527043326
4.764,0.0025492832123378767
4.768,0.002549211090709101
4.772,0.0025481533068203895
4.776,0.0025491389690803254
4.78,0.0025474320905326314
4.784,0.002544811671353778
4.788,0.0025451241984118063
4.792,0.002545364603841059
4.796,0.002547119563474603
4.8,0.0025448837929825537
4.804,0.0025445472253816
4.808,0.002547552293247258
4.812,0.0025528412126908156
4.816,0.0025539230371224527
4.82,0.0025523604018323105
4.824,0.0025505573611129158
4.828,0.0025528171721478903
4.832,0.002555125064268716
4.836,0.0025563030508720538
4.84,0.002557264672589064
4.844,0.0025555818345842957
4.848,0.0025544759696097337
4.852,0.002555173145354566
4.856,0.0025561347670715767
4.86,0.0025545961723243598
4.864,0.002555173145354566
4.868,0.002554980821011164
4.872,0.002552528685632787
4.876,0.0025503650367695134
4.88,0.00254957169885298
4.884,0.0025506535232846165
4.888,0.002552408482918161
4.892,0.0025543557668951072
4.896,0.002557000226616886
4.9,0.0025563030508720538
4.904,0.002555798199470623
4.908,0.0025572887131319892
4.912,0.002560269740454722
4.916,0.002559332159280637
4.92,0.0025606784296844515
4.924,0.0025590677133084587
4.928,0.002556447294129605
4.932,0.0025560145643569506
4.936,0.0025569040644451853
4.94,0.002556254969786203
4.944,0.0025558222400135482
4.948,0.00255642325358668
4.952,0.0025572165915032138
4.956,0.0025590196322226085
4.96,0.002559740848510366
4.964,0.0025624333893179956
4.968,0.0025621689433458178
4.972,0.0025620247000882664
4.976,0.002557985888876822
4.98,0.0025559905238140253
4.984,0.002555702037298922
4.988,0.0025543076858092566
4.992,0.002554067280380004
4.996,0.0025548606182965376
5.0,0.0025569281049881106
5.0040000000000004,0.002556976186073961
5.008,0.002555341429155043
5.0120000000000005,0.002553442226263947
5.016,0.0025528171721478903
5.0200000000000005,0.0025562068887003526
5.024,0.002554692334496061
5.0280000000000005,0.0025557260778418475
5.032,0.0025550048615540894
5.0360000000000005,0.0025548125372106874
5.04,0.002555125064268716
5.0440000000000005,0.0025582984159348504
5.048,0.002559740848510366
5.0520000000000005,0.0025561347670715767
5.056,0.0025540191992941535
5.0600000000000005,0.002553778793864901
5.064,0.002554500010152659
5.0680000000000005,0.0025581060915914485
5.072,0.002557168510417363
5.0760000000000005,0.002555149104811641
5.08,0.002555341429155043
5.0840000000000005,0.002553490307349798
5.088,0.002555173145354566
5.0920000000000005,0.002558058010505598
5.096,0.0025572887131319892
5.1000000000000005,0.002554764456124837
5.104,0.002556327091414979
5.1080000000000005,0.002558418618649477
5.112,0.0025562790103291285
5.1160000000000005,0.0025577454834475695
5.12,0.0025570483077027367
5.124,0.002558058010505598
5.128,0.002557505078018317
5.132,0.0025545240506955843
5.136,0.0025548125372106874
5.14,0.0025566876995588577
5.144,0.0025555818345842957
5.148,0.002555317388612118
5.152,0.0025535624289785737
5.156,0.002556327091414979
5.16,0.0025568559833593347
5.164,0.00255413940200878
5.168,0.00255505294263994
5.172,0.002557625280732943
5.176,0.002559885091767918
5.18,0.0025596446863386654
5.184,0.002556952145531036
5.188,0.0025577695239904948
5.192,0.0025566396184730075
5.196,0.0025591398349372346
5.2,0.002560918835113704
5.204,0.002561279443257583
5.208,0.0025618804568307146
5.212,0.0025615198486868356
5.216,0.002561159240542957
5.22,0.0025572165915032138
5.224,0.0025621689433458178
5.228,0.0025615198486868356
5.232,0.0025575771996470924
5.236,0.002557985888876822
5.24,0.002559548524166964
5.244,0.0025554856724125945
5.248,0.0025565434563013063
5.252,0.0025590677133084587
5.256,0.002557264672589064
5.26,0.0025557741589276976
5.264,0.002556086685985726
5.268,0.00255505294263994
5.272,0.0025536826316931997
5.276,0.0025559424427281747
5.28,0.0025558222400135482
5.284,0.002553081618120068
5.288,0.0025519997936884315
5.292,0.0025553654696979684
5.296,0.002556230929243278
5.3,0.002556591537387157
5.304,0.002555173145354566
5.308,0.0025546442534102104
5.312,0.002556327091414979
5.316,0.002554764456124837
5.32,0.002554788496667762
5.324,0.0025536585911502744
5.328,0.002550917969256795
5.332,0.0025534662668068725
5.336,0.00255550971295552
5.34,0.0025547404155819116
5.344,0.002554067280380004
5.348,0.0025536105100644243
5.352,0.0025540913209229294
5.356,0.0025565674968442316
5.36,0.0025576733618187936
5.364,0.0025558462805564735
5.368,0.0025554856724125945
5.372,0.0025576493212758683
5.376,0.002557072348245662
5.38,0.002556952145531036
5.384,0.002559260037651861
5.388,0.002563539254292558
5.392,0.002561279443257583
5.396,0.002559380240366487
5.4,0.0025587311457075054
5.404,0.0025596927674245156
5.408,0.0025612313621717325
5.412,0.002560918835113704
5.416,0.002558130132134374
5.42,0.002557529118561242
5.424,0.002558250334849
5.428,0.0025612313621717325
5.432,0.0025604139837122736
5.436,0.002561087118914181
5.44,0.002561567929772686
5.444,0.002561087118914181
5.448,0.002560269740454722
5.452,0.0025591157943943093
5.456,0.0025600533755683946
5.46,0.0025613275243434337
5.464,0.0025622170244316684
5.468,0.002562553592032622
5.472,0.002562192983888743
5.476,0.0025637075380930347
5.48,0.0025612554027146578
5.484,0.002560365902626423
5.488,0.002562192983888743
5.492,0.0025613034838005084
5.496,0.0025628661190906506
5.5,0.002564020065151063
5.5040000000000004,0.0025657029031558314
5.508,0.0025624093487750703
5.5120000000000005,0.002563370970492081
5.516,0.0025653182544690275
5.5200000000000005,0.0025641162273227643
5.524,0.002567025133016721
5.5280000000000005,0.0025653182544690275
5.532,0.002563827740807661
5.5360000000000005,0.002564500876009568
5.54,0.0025660875518426357
5.5440000000000005,0.0025652220922973263
5.548,0.0025637075380930347
5.5520000000000005,0.002562265105517519
5.556,0.0025643325922090916
5.5600000000000005,0.002565270173383177
5.564,0.002561712173030238
5.5680000000000005,0.0025612313621717325
5.572,0.002563635416464259
5.5760000000000005,0.002562385308232145
5.58,0.0025624333893179956
5.5840000000000005,0.0025629863218052766
5.588,0.002564548957095419
5.5920000000000005,0.0025651018895827
5.596,0.00256464511926712
5.6000000000000005,0.002564909565239298
5.604,0.0025648855246963725
5.6080000000000005,0.002563587335378408
5.612,0.0025620727811741166
5.6160000000000005,0.0025645249165524935
5.62,0.0025657029031558314
5.6240000000000006,0.0025642364300373904
5.628,0.002563178646148679
5.632,0.0025634190515779315
5.636,0.002563587335378408
5.64,0.002563034402891127
5.644,0.0025631305650628284
5.648,0.0025657029031558314
5.652,0.002567505943875226
5.656,0.0025649816868680737
5.66,0.0025644287543807927
5.664,0.00256555865989828
5.668,0.0025666885654157673
5.672,0.0025654384571836535
5.676,0.002564837443610522
5.68,0.002562890159633576
5.684,0.002562745916376024
5.688,0.0025652461328402516
5.692,0.0025650297679539243
5.696,0.0025637796597218106
5.7,0.002564909565239298
5.704,0.0025663519978148135
5.708,0.0025648614841534472
5.712,0.002564164308408615
5.716,0.0025639479435222872
5.72,0.0025648134030675966
5.724,0.0025640441056939884
5.728,0.002562120862259967
5.732,0.002564164308408615
5.736,0.0025669770519308704
5.74,0.0025685156466780873
5.744,0.0025707273766272117
5.748,0.0025709197009706137
5.752,0.0025649816868680737
5.756,0.002568683930478564
5.76,0.002570318687397482
5.764,0.0025684675655922367
5.768,0.0025662317951001875
5.772,0.0025648134030675966
5.776,0.002564020065151063
5.78,0.002562625713661398
5.784,0.0025651018895827
5.788,0.0025646691598100453
5.792,0.002562625713661398
5.796,0.002562914200176501
5.8,0.0025637796597218106
5.804,0.0025672655384459736
5.808,0.002570751417170137
5.812,0.0025745257824094036
5.816,0.002573852647207496
5.82,0.00257241021463198
5.824,0.0025703667684833327
5.828,0.002569549390023874
5.832,0.0025654384571836535
5.836,0.0025625055109467715
5.84,0.0025638758218935113
5.844,0.0025646691598100453
5.848,0.0025688281737361158
5.852,0.002571713038887147
5.856,0.0025700782819682295
5.86,0.0025678184709332546
5.864,0.0025675540249610767
5.868,0.002567025133016721
5.872,0.0025671453357313475
5.876,0.0025665683627011412
5.88,0.0025675540249610767
5.884,0.0025681069574483577
5.888,0.002567025133016721
5.892,0.002566111592385561
5.896,0.0025662317951001875
5.9,0.0025670732141025716
5.904,0.0025646691598100453
5.908,0.002566111592385561
5.912,0.0025677703898474044
5.916,0.0025662317951001875
5.92,0.002566303916728963
5.924,0.0025637796597218106
5.928,0.002563587335378408
5.932,0.0025667847275874685
5.936,0.0025657990653275326
5.94,0.002565366335554878
5.944,0.002565366335554878
5.948,0.002565847146413383
5.952,0.002567578065504002
5.956,0.002565678862612906
5.96,0.002564020065151063
5.964,0.0025694291873092473
5.968,0.0025699821197965283
5.972,0.0025660635112997104
5.976,0.002566760687044543
5.98,0.0025679146331049557
5.984,0.0025679867547337316
5.988,0.0025671453357313475
5.992,0.002569308984594621
5.996,0.002568635849392714
6.0,0.0025673857411606
6.0040000000000004,0.0025667126059586926
6.008,0.0025661596734714116
6.0120000000000005,0.0025677703898474044
6.016,0.002567746349304479
6.0200000000000005,0.0025657990653275326
6.024,0.0025646210787241947
6.0280000000000005,0.0025684675655922367
6.032,0.002568395443963461
6.0360000000000005,0.002568924335907817
6.04,0.002568010795276657
6.0440000000000005,0.002570222525225781
6.048,0.00257103990368524
6.0520000000000005,0.002572121728116877
6.056,0.0025743094175230763
6.0600000000000005,0.0025732516336343645
6.064,0.0025718332416017737
6.0680000000000005,0.0025710879847710903
6.072,0.002569597471109724
6.0760000000000005,0.002569044538622443
6.08,0.00257103990368524
6.0840000000000005,0.0025702706063116315
6.088,0.0025687079710214893
6.0920000000000005,0.002569044538622443
6.096,0.002568203119620059
6.1000000000000005,0.002571304349657418
6.104,0.0025723140524602788
6.1080000000000005,0.0025697176738243505
6.112,0.002569044538622443
6.1160000000000005,0.002571568795629596
6.12,0.00257373244449287
6.1240000000000006,0.002575391241954713
6.128,0.0025699821197965283
6.132000000000001,0.0025709677820564643
6.136,0.0025711120253140156
6.140000000000001,0.0025684675655922367
6.144,0.002568635849392714
6.148,0.0025693570656804715
6.152,0.00256875605210734
6.156,0.0025701984846828556
6.16,0.0025706312144555105
6.164,0.002571160106399866
6.168,0.0025701744441399307
6.172,0.0025692368629658454
6.176,0.002569885957624827
6.18,0.0025673617006176748
6.184,0.0025671453357313475
6.188,0.002567457862789376
6.192,0.002568203119620059
6.196,0.002568203119620059
6.2,0.002567722308761554
6.204,0.002566760687044543
6.208,0.0025690204980795177
6.212,0.002571688998344222
6.216,0.002570607173912585
6.22,0.002571664957801297
6.224,0.002571424552372044
6.228,0.002569597471109724
6.232,0.002567674227675703
6.236,0.002567650187132778
6.24,0.0025688281737361158
6.244,0.002569693633281425
6.248,0.0025685156466780873
6.252,0.0025670732141025716
6.256,0.002569765754910201
6.26,0.0025714726334578946
6.264,0.0025709918225993895
6.268,0.002570318687397482
6.272,0.002572121728116877
6.276,0.002570511011740884
6.28,0.0025710879847710903
6.284,0.0025714005118291187
6.288,0.002569958079253603
6.292,0.002569958079253603
6.296,0.0025708475793418378
6.3,0.002570390809026258
6.304,0.00257012636305408
6.308,0.00256875605210734
6.312,0.0025696695927385
6.316,0.0025718092010588484
6.32,0.002570679295541361
6.324,0.0025687079710214893
6.328,0.0025693570656804715
6.332,0.002572049606488101
6.336,0.002570751417170137
6.34,0.0025688041331931905
6.344,0.0025715207145437452
6.348,0.002574213255351375
6.352,0.0025750546743537593
6.356,0.0025762807420429477
6.36,0.0025759441744419944
6.364,0.0025750546743537593
6.368,0.0025734920390636175
6.372,0.002572482336260756
6.376,0.0025720736470310262
6.38,0.00257373244449287
6.384,0.0025740690120938238
6.388,0.0025736122417782436
6.392,0.0025745257824094036
6.396,0.0025753672014117877
6.4,0.0025738286066645712
6.404,0.0025721698092027274
6.408,0.0025722659713744286
6.412,0.0025744536607806277
6.416,0.0025748623500103573
6.42,0.0025732275930914397
6.424,0.0025708475793418378
6.428,0.0025709197009706137
6.432,0.002571592836172521
6.436,0.0025719534443164
6.44,0.0025732516336343645
6.444,0.002572530417346607
6.448,0.0025717370794300725
6.452,0.0025747421472957313
6.456,0.002573852647207496
6.46,0.002574477701323553
6.464,0.0025750787148966846
6.468,0.0025748142689245067
6.472,0.0025740449715508985
6.476,0.002572722741690009
6.48,0.0025725784984324575
6.484,0.0025741170931796744
6.488,0.0025774587286462856
6.492,0.0025780837827623425
6.496,0.002575920133899069
6.5,0.0025752469986971616
6.5040000000000004,0.0025736122417782436
6.508,0.0025753191203259375
6.5120000000000005,0.002575823971727368
6.516,0.00257830014764867
6.5200000000000005,0.00257647306638635
6.524,0.0025743815391518522
6.5280000000000005,0.002574020931007973
6.532,0.002573996890465048
6.5360000000000005,0.0025749585121820585
6.54,0.002573804566121646
6.5440000000000005,0.0025749585121820585
6.548,0.002576569228558051
6.5520000000000005,0.002576376904214649
6.556,0.00257601629607077
6.5600000000000005,0.0025786126747066986
6.564,0.0025753672014117877
6.5680000000000005,0.002571929403773475
6.572,0.0025739728499221226
6.5760000000000005,0.002572554457889532
6.58,0.002572530417346607
6.5840000000000005,0.0025748863905532826
6.588,0.0025757037690127414
6.5920000000000005,0.0025748863905532826
6.596,0.0025754152824976383
6.6000000000000005,0.002573996890465048
6.604,0.002573371836348991
6.6080000000000005,0.002574766187838656
6.612,0.002575896093356144
6.6160000000000005,0.0025766894312726774
6.62,0.002576809633987304
6.6240000000000006,0.002577915498961866
6.628,0.002581064810085075
6.632000000000001,0.002578059742219417
6.636,0.0025778914584189405
6.640000000000001,0.0025817379452869826
6.644,0.002586401810614484
6.648000000000001,0.002587315351245644
6.652,0.002585416148354548
6.656000000000001,0.0025844785671804626
6.66,0.002581930269630385
6.664,0.00258149753985773
6.668,0.0025792617693656803
6.672,0.0025778914584189405
6.676,0.002577939539504791
6.68,0.0025802474316256162
6.684,0.0025787328774213246
6.688,0.002577218323217033
6.692,0.00257692983670193
6.696,0.002576737512358528
6.7,0.0025774346881033607
6.704,0.0025775308502750615
6.708,0.0025770740799594817
6.712,0.0025783241881915954
6.716,0.002575198917611311
6.72,0.002573516079606543
6.724,0.002574718106752806
6.728,0.0025752469986971616
6.732,0.0025757758906415173
6.736,0.002578853080135951
6.74,0.002580872485741673
6.744,0.0025796944991383353
6.748,0.002579406012623232
6.752,0.002581136931713851
6.756,0.0025821947156025628
6.76,0.002581689864201132
6.764,0.0025803435937973174
6.768,0.0025771942826741077
6.772,0.0025793579315373815
6.776,0.0025830842156907975
6.78,0.0025815456209435806
6.784,0.002577001958330706
6.788,0.002577001958330706
6.792,0.0025775308502750615
6.796,0.0025792617693656803
6.8,0.00257921368827983
6.804,0.002577578931360912
6.808,0.0025807042019411965
6.812,0.0025818100669157584
6.816,0.002579406012623232
6.82,0.0025804397559690186
6.824,0.0025840939184936583
6.828,0.002582843810261545
6.832,0.0025823629994030394
6.836,0.002580680161398271
6.84,0.002581016728999225
6.844,0.0025821706750596375
6.848,0.0025805599586836447
6.852,0.0025793579315373815
6.856,0.0025818100669157584
6.86,0.0025825312832035165
6.864,0.0025835650265493026
6.868,0.0025835650265493026
6.872,0.002583589067092228
6.876,0.002583949675236107
6.88,0.002583613107635153
6.884,0.0025829399724332457
6.888,0.0025839737157790322
6.892,0.0025837092698068544
6.896,0.002583949675236107
6.9,0.0025835409860063773
6.904,0.0025842141212082848
6.908,0.0025819543101733102
6.912,0.0025804397559690186
6.916,0.0025790934855652037
6.92,0.002580776323569972
6.924,0.0025817139047440573
6.928,0.0025813292560572534
6.932,0.0025783722692774456
6.936,0.0025785405530779227
6.94,0.0025798147018529618
6.944,0.002580872485741673
6.948,0.002581305215514328
6.952,0.002583949675236107
6.956,0.0025839015941502563
6.96,0.002578973282850577
6.964,0.0025791415666510543
6.968,0.0025797185396812606
6.972,0.0025797185396812606
6.976,0.0025801753099968404
6.98,0.002582146634516712
6.984,0.0025803435937973174
6.988,0.0025798147018529618
6.992,0.0025825072426605912
6.996,0.0025842622022941354
7.0,0.0025834688643776014
7.0040000000000004,0.0025827476480898438
7.008,0.0025813292560572534
7.0120000000000005,0.0025786126747066986
7.016,0.0025796223775095594
7.0200000000000005,0.002580223391082691
7.024,0.002580319553254392
7.0280000000000005,0.002581858148001609
7.032,0.0025817379452869826
7.0360000000000005,0.0025825072426605912
7.04,0.0025804157154260933
7.0440000000000005,0.0025788049990501005
7.048,0.0025802714721685415
7.0520000000000005,0.0025833486616629753
7.056,0.002582555323746442
7.0600000000000005,0.00258058399922657
7.064,0.0025795021747949333
7.0680000000000005,0.002581016728999225
7.072,0.0025817379452869826
7.0760000000000005,0.0025820264318020857
7.08,0.002582218756145488
7.0840000000000005,0.0025843824050087614
7.088,0.002583877553607331
7.0920000000000005,0.0025851997834682207
7.096,0.0025867143376725123
7.1000000000000005,0.002584959378038968
7.104,0.002585055540210669
7.1080000000000005,0.0025838294725214804
7.112,0.0025855844321550246
7.1160000000000005,0.002583661188721004
7.12,0.0025827476480898438
7.1240000000000006,0.002582050472345011
7.128,0.002581930269630385
7.132000000000001,0.0025822908777742635
7.136,0.0025813773371431035
7.140000000000001,0.0025844785671804626
7.144,0.0025827957291756944
7.148000000000001,0.002582146634516712
7.152,0.0025826274453752173
7.156000000000001,0.0025830120940620216
7.16,0.0025835409860063773
7.164000000000001,0.002585223824011146
7.168,0.0025851036212965195
7.172,0.002585223824011146
7.176,0.0025844545266375373
7.18,0.0025844545266375373
7.184,0.0025848151347814164
7.188,0.0025876519188465976
7.192,0.002586594134957886
7.196,0.0025853921078116226
7.2,0.002588276972962654
7.204,0.0025917868922297428
7.208,0.0025910416353990594
7.212,0.0025911137570278353
7.216,0.0025914022435429384
7.22,0.0025913060813712373
7.224,0.0025903685001971524
7.228,0.0025917868922297428
7.232,0.002590104054224974
7.236,0.0025914022435429384
7.24,0.0025920272976589953
7.244,0.002589190513593814
7.248,0.0025893828379372165
7.252,0.0025913060813712373
7.256,0.002590993554313209
7.26,0.0025907050677981057
7.264,0.002590464662368853
7.268,0.0025940467032647173
7.272,0.0025913060813712373
7.276,0.0025885895000206825
7.28,0.0025866662565866617
7.284,0.002585271905096996
7.288,0.002583661188721004
7.292,0.002585344026725772
7.296,0.0025863777700715586
7.3,0.0025875797972178217
7.304,0.0025857286754125764
7.308,0.0025874836350461205
7.312,0.0025885895000206825
7.316,0.0025906810272551804
7.32,0.002589070310879188
7.324,0.002589695364995245
7.328,0.00258971940553817
7.332,0.0025888299054499355
7.336,0.0025899598109674227
7.34,0.0025916666895151163
7.344,0.0025939986221788667
7.348,0.0025938062978354648
7.352,0.0025914743651717143
7.356,0.0025911137570278353
7.36,0.0025905608245405543
7.364,0.0025905127434547037
7.368,0.002591161838113686
7.372,0.002593061041004782
7.376,0.002591282040828312
7.38,0.002590440621825928
7.384,0.0025895992028235437
7.388,0.002589911729881572
7.392,0.0025890462703362627
7.396,0.002589358797394291
7.4,0.00258971940553817
7.404,0.0025905127434547037
7.408,0.0025918830544014435
7.412,0.002590536783997629
7.416,0.0025906569867122555
7.42,0.0025913301219141626
7.424,0.002591233959742462
7.428,0.002591282040828312
7.432,0.0025910656759419847
7.436,0.0025930850815477067
7.44,0.002593205284262333
7.444,0.002593902460007166
7.448,0.0025935899329491375
7.452,0.0025918830544014435
7.456,0.0025903204191113018
7.46,0.002592147500373622
7.464,0.0025949602438958773
7.468,0.002593061041004782
7.472,0.002591282040828312
7.476,0.00258971940553817
7.48,0.0025915945678863404
7.484,0.0025934456896915857
7.488,0.0025960901494133646
7.492,0.0025987586496780696
7.496,0.0025991192578219487
7.5,0.002595729541269486
7.5040000000000004,0.0025957776223553366
7.508,0.0025945755952090734
7.5120000000000005,0.0025929648788330806
7.516,0.0025918830544014435
7.5200000000000005,0.00259063294616933
7.524,0.002590440621825928
7.5280000000000005,0.002589767486624021
7.532,0.0025919551760302194
7.5360000000000005,0.0025885895000206825
7.54,0.002585896959213053
7.5440000000000005,0.002585993121384754
7.548,0.002587098986359316
7.5520000000000005,0.002591233959742462
7.556,0.002592988919376006
7.5600000000000005,0.0025893107163084406
7.564,0.002587098986359316
7.5680000000000005,0.002587796162104149
7.572,0.0025896472839093943
7.5760000000000005,0.0025927965950326036
7.58,0.002591907094944369
7.5840000000000005,0.0025916666895151163
7.588,0.0025908733515985828
7.5920000000000005,0.0025933014464340344
7.596,0.0025931331626335573
7.6000000000000005,0.002590104054224974
7.604,0.002590464662368853
7.6080000000000005,0.0025888299054499355
7.612,0.0025898396082527963
7.6160000000000005,0.0025914022435429384
7.62,0.00258971940553817
7.6240000000000006,0.002588517378391907
7.628,0.0025880365675334015
7.632000000000001,0.0025905608245405543
7.636,0.0025893828379372165
7.640000000000001,0.002588012526990476
7.644,0.0025872672701597933
7.648000000000001,0.0025874836350461205
7.652,0.0025897434460810955
7.656000000000001,0.0025920513382019206
7.66,0.002593181243719408
7.664000000000001,0.0025933014464340344
7.668,0.0025921234598306965
7.672000000000001,0.002590801229969807
7.676,0.002591714770600967
7.68,0.0025902963785683765
7.684,0.002589983851510348
7.688,0.0025916666895151163
7.692,0.0025908493110556575
7.696,0.0025915945678863404
7.7,0.0025905608245405543
7.704,0.002589070310879188
7.708,0.002590272338025451
7.712,0.0025892385946796647
7.716,0.002589623243366469
7.72,0.0025908733515985828
7.724,0.0025928687166613795
7.728,0.002593349527519885
7.732,0.0025919551760302194
7.736,0.0025926763923179775
7.74,0.002591738811143892
7.744,0.0025923879058028744
7.748,0.0025911377975707606
7.752,0.00259108971648491
7.756,0.0025909214326844334
7.76,0.002589551121737693
7.764,0.002591714770600967
7.768,0.0025910416353990594
7.772,0.00258971940553817
7.776,0.0025914262840858637
7.78,0.0025932293248052585
7.784,0.00259063294616933
7.788,0.0025908733515985828
7.792,0.0025931331626335573
7.796,0.0025965950008147954
7.8,0.0025935658924062122
7.804,0.0025934216491486604
7.808,0.0025916666895151163
7.812,0.002591450324628789
7.816,0.0025908733515985828
7.82,0.0025894549595659924
7.824,0.002589983851510348
7.828,0.0025905127434547037
7.832,0.002588517378391907
7.836,0.0025868345403871383
7.84,0.0025915464868004902
7.844,0.0025914262840858637
7.848,0.0025914262840858637
7.852,0.002591907094944369
7.856,0.0025936620545779134
7.86,0.0025962584332138417
7.864,0.0025954170142114576
7.868,0.0025947919600954007
7.872,0.0025957535818124113
7.876,0.0025946957979236995
7.88,0.002590801229969807
7.884,0.002592820635575529
7.888,0.002595441054754383
7.892,0.002596282473756767
7.896,0.002594671757380774
7.9,0.002595080446610504
7.904,0.0025930370004618565
7.908,0.002592267703088248
7.912,0.002593902460007166
7.916,0.0025952487304109805
7.92,0.0025949842844388026
7.924,0.0025933254869769597
7.928,0.0025930850815477067
7.932,0.002590608905626405
7.936,0.0025925802301462763
7.94,0.0025935899329491375
7.944,0.0025940707438076426
7.948,0.0025947679195524754
7.952,0.0025947919600954007
7.956,0.0025948881222671014
7.96,0.0025945034735802975
7.964,0.002594527514123223
7.968,0.002594190946522269
7.972,0.002593349527519885
7.976,0.0025937101356637636
7.98,0.0025970758116733005
7.984,0.0025947919600954007
7.988,0.0025955131763831583
7.992,0.002597604703617657
7.996,0.002597604703617657
8.0,0.0025944313519515217
8.004,0.002591161838113686
8.008000000000001,0.0025928927572043048
8.012,0.0025922436625453226
8.016,0.002588998189250412
8.02,0.0025910656759419847
8.024000000000001,0.0025901280947678994
8.028,0.0025898396082527963
8.032,0.002584983418581893
8.036,0.0025829399724332457
8.040000000000001,0.002583108256233723
8.044,0.0025858729186701277
8.048,0.0025839015941502563
8.052,0.0025829399724332457
8.056000000000001,0.0025834448238346765
8.06,0.0025828197697186197
8.064,0.002583108256233723
8.068,0.0025852478645540713
8.072000000000001,0.0025869066620159142
8.076,0.002584791094238491
8.08,0.0025855363510691744
8.084,0.002584021796864883
8.088000000000001,0.002587339391788569
8.092,0.002586329688985708
8.096,0.0025866662565866617
8.1,0.002586762418758363
8.104000000000001,0.002585271905096996
8.108,0.0025863777700715586
8.112,0.0025889260676216362
8.116,0.0025892385946796647
8.120000000000001,0.002585512310526249
8.124,0.002586618175500811
8.128,0.0025907771894268816
8.132,0.002589166473050889
8.136000000000001,0.0025892385946796647
8.14,0.002592435986888725
8.144,0.0025912099191995365
8.148,0.002590248297482526
8.152000000000001,0.0025888779865357856
8.156,0.0025898636487957215
8.16,0.0025876519188465976
8.164,0.002590104054224974
8.168000000000001,0.0025898396082527963
8.172,0.0025891183919650386
8.176,0.002587964445904626
8.18,0.002587796162104149
8.184000000000001,0.0025887577838211596
8.188,0.002588276972962654
8.192,0.0025882048513338786
8.196,0.0025876999999324478
8.2,0.0025879404053617007
8.204,0.0025873874728744193
8.208,0.0025902242569396006
8.212,0.0025917628516868175
8.216,0.0025918830544014435
8.22,0.0025895030406518425
8.224,0.002588012526990476
8.228,0.0025888299054499355
8.232,0.002590993554313209
8.236,0.002589767486624021
8.24,0.0025898396082527963
8.244,0.0025903925407400772
8.248,0.0025926042706892016
8.252,0.002590969513770284
8.256,0.002591378203000013
8.26,0.0025914743651717143
8.264,0.0025896713244523196
8.268,0.0025906810272551804
8.272,0.0025928927572043048
8.276,0.0025948400411812513
8.28,0.0025943592303227458
8.284,0.002594551554666148
8.288,0.0025970758116733005
8.292,0.002596835406244048
8.296,0.002594263068151045
8.3,0.002594719838466625
8.304,0.002595729541269486
8.308,0.002595921865612888
8.312,0.0025944794330373722
8.316,0.0025945996357519983
8.32,0.002598902892935621
8.324,0.002599984717367258
8.328,0.0026002972444252865
8.332,0.0025998645146526316
8.336,0.0025993596632512012
8.34,0.0025997443119380056
8.344,0.0025996721903092297
8.348,0.00259702773058745
8.352,0.002597123892759151
8.356,0.00259611418995629
8.36,0.0025945996357519983
8.364,0.002593613973492063
8.368,0.002594527514123223
8.372,0.00259200325711607
8.376,0.0025908733515985828
8.38,0.002592484067974575
8.384,0.002592724473403828
8.388,0.0025923879058028744
8.392,0.0025926042706892016
8.396,0.0025929648788330806
8.4,0.0025918590138585187
8.404,0.0025936860951208383
8.408,0.0025945996357519983
8.412,0.002592484067974575
8.416,0.002591738811143892
8.42,0.0025947919600954007
8.424,0.0025955131763831583
8.428,0.002592724473403828
8.432,0.0025915464868004902
8.436,0.0025952727709539058
8.44,0.002596474798100169
8.444,0.002594647716837849
8.448,0.002593061041004782
8.452,0.0025933014464340344
8.456,0.0025959459061558133
8.46,0.0025966190413577207
8.464,0.0025957535818124113
8.468,0.0025995039065087526
8.472,0.002598518244248817
8.476,0.0025984701631629665
8.48,0.0025958257034411868
8.484,0.002591354162457088
8.488,0.0025920994192877712
8.492,0.0025958737845270374
8.496,0.0025992154199936494
8.5,0.0026007780552837916
8.504,0.0025988788523926957
8.508000000000001,0.002597099852216226
8.512,0.002596018027784589
8.516,0.0025949121628100267
8.52,0.002594671757380774
8.524000000000001,0.00259702773058745
8.528,0.0025942390276081197
8.532,0.0025948400411812513
8.536,0.0025949602438958773
8.540000000000001,0.0025958978250699627
8.544,0.0025953929736685323
8.548,0.0025926763923179775
8.552,0.002593469730234511
8.556000000000001,0.0025936860951208383
8.56,0.002597941271218611
8.564,0.0026008261363696422
8.568,0.0025990230956502475
8.572000000000001,0.0025995760281375285
8.576,0.002598518244248817
8.58,0.0025990230956502475
8.584,0.002599167338907799
8.588000000000001,0.0025962343926709164
8.592,0.0025918830544014435
8.596,0.002593109122090632
8.6,0.0025962343926709164
8.604000000000001,0.002597244095473778
8.608,0.002597316217102554
8.612,0.0025976768252464325
8.616,0.0025977489468752084
8.620000000000001,0.0025990230956502475
8.624,0.002595729541269486
8.628,0.002595729541269486
8.632,0.002596691162986496
8.636000000000001,0.002598614406420518
8.64,0.0025996721903092297
8.644,0.0026009703796271936
8.648,0.0025983259199054147
8.652000000000001,0.002599455825422902
8.656,0.0026010425012559695
8.66,0.002601932001344204
8.664,0.0026039273664070013
8.668000000000001,0.0026028695825182895
8.672,0.002600080879538959
8.676,0.0025981816766478634
8.68,0.002600802095826717
8.684000000000001,0.002599167338907799
8.688,0.0025995760281375285
8.692,0.0025972681360167033
8.696,0.002598975014564397
8.700000000000001,0.002596739244072347
8.704,0.002597171973845002
8.708,0.002596402676471393
8.712,0.0026002251227965107
8.716,0.002598518244248817
8.72,0.0025968113657011227
8.724,0.0025995760281375285
8.728,0.0026005616903974644
8.732,0.0026008501769125675
8.736,0.0026002010822535854
8.74,0.002597797027961059
8.744,0.0025968834873298986
8.748,0.0025972921765596286
8.752,0.002597724906332283
8.756,0.002598253798276639
8.76,0.0025992875416224253
8.764,0.0026000087579101834
8.768,0.002596643081900646
8.772,0.00259702773058745
8.776,0.002597532581988881
8.78,0.0025969556089586745
8.784,0.0025953208520397564
8.788,0.002594527514123223
8.792,0.002596643081900646
8.796,0.002596691162986496
8.8,0.0025959699466987386
8.804,0.0025955852980119342
8.808,0.0025989269334785463
8.812,0.002598085514476162
8.816,0.002597316217102554
8.82,0.0025958016628982615
8.824,0.002596378635928468
8.828,0.0025968113657011227
8.832,0.0025943351897798205
8.836,0.0025911377975707606
8.84,0.0025914262840858637
8.844,0.002594166905979344
8.848,0.0025942390276081197
8.852,0.002594190946522269
8.856,0.002594671757380774
8.86,0.002595633379097785
8.864,0.0025947679195524754
8.868,0.0025963305548426176
8.872,0.0025942390276081197
8.876,0.0025965228791860195
8.88,0.0025968834873298986
8.884,0.0025963065142996923
8.888,0.00259428710869397
8.892,0.0025927965950326036
8.896,0.0025915464868004902
8.9,0.0025924600274316503
8.904,0.0025905127434547037
8.908,0.00259063294616933
8.912,0.0025921234598306965
8.916,0.0025901521353108247
8.92,0.0025918590138585187
8.924,0.002596354595385543
8.928,0.0025927965950326036
8.932,0.0025926042706892016
8.936,0.0025972681360167033
8.94,0.002595633379097785
8.944,0.0025934937707774363
8.948,0.0025952487304109805
8.952,0.0025953208520397564
8.956,0.0025946236762949236
8.96,0.002593397608605735
8.964,0.002592988919376006
8.968,0.0025940707438076426
8.972,0.00259383033837839
8.976,0.0025940467032647173
8.98,0.0025947679195524754
8.984,0.0025935178113203616
8.988,0.0025938543789213154
8.992,0.0025939986221788667
8.996,0.0025953929736685323
9.0,0.0025958257034411868
9.004,0.0025956093385548595
9.008000000000001,0.002596835406244048
9.012,0.0025975566225318065
9.016,0.002595368933125607
9.02,0.0025950323655246532
9.024000000000001,0.0025925081085175004
9.028,0.0025952727709539058
9.032,0.002598518244248817
9.036,0.0025997683524809304
9.040000000000001,0.002600657852569165
9.044,0.002600609771483315
9.048,0.002599407744337052
9.052,0.002598157636104938
9.056000000000001,0.002598157636104938
9.06,0.0026008501769125675
9.064,0.0025996000686804538
9.068,0.0025987586496780696
9.072000000000001,0.0025995760281375285
9.076,0.0025980133928473863
9.08,0.0025970758116733005
9.084,0.002597508541445956
9.088000000000001,0.0025990952172790234
9.092,0.002601980082430055
9.096,0.002600609771483315
9.1,0.0025992394605365747
9.104000000000001,0.0026013790688569232
9.108,0.0026026051365461117
9.112,0.0026000568389960336
9.116,0.0026013309877710726
9.120000000000001,0.0026022926094880832
9.124,0.0026017396770008023
9.128,0.002600874217455493
9.132,0.002600321284968212
9.136000000000001,0.0026009703796271936
9.14,0.0025997923930238557
9.144,0.002596402676471393
9.148,0.0025965228791860195
9.152000000000001,0.0025989269334785463
9.156,0.002599816433566781
9.16,0.0025992875416224253
9.164,0.002597724906332283
9.168000000000001,0.0026036869609777484
9.172,0.002605730407126396
9.176,0.0026089518398783812
9.18,0.0026074372856740896
9.184000000000001,0.002607653650560417
9.188,0.0026068122315580327
9.192,0.002609288407479335
9.196,0.0026060910152702747
9.200000000000001,0.002600513609311614
9.204,0.002601018460713044
9.208,0.0026037590826065242
9.212,0.002601932001344204
9.216000000000001,0.0026007780552837916
9.22,0.002600080879538959
9.224,0.002599696230852155
9.228,0.002599960676824333
9.232,0.002598975014564397
9.236,0.0026005616903974644
9.24,0.0026032061501192433
9.244,0.002602701298717813
9.248,0.0026026051365461117
9.252,0.0026016675553720264
9.256,0.0026025810960031864
9.26,0.0026049851502957127
9.264,0.002604456258351357
9.268,0.002601355028313998
9.272,0.0026017637175437276
9.276,0.002601980082430055
9.28,0.0026037590826065242
9.284,0.0026008501769125675
9.288,0.0026017637175437276
9.292,0.0026002010822535854
9.296,0.0026006338120262403
9.3,0.002601787758086653
9.304,0.002601571393200325
9.308,0.0026009703796271936
9.312,0.0026015954337432505
9.316,0.0026029417041470654
9.32,0.0026030138257758413
9.324,0.0026023166500310085
9.328,0.0026050572719244886
9.332,0.002605850609841022
9.336,0.0026018358391725034
9.34,0.0026027974608895136
9.344,0.0026030619068616915
9.348,0.0026027493798036635
9.352,0.0026027974608895136
9.356,0.0026053217178966664
9.36,0.0026076296100174916
9.364,0.002602629177089037
9.368,0.0026021243256876066
9.372,0.002603662920434823
9.376,0.0026037831231494495
9.38,0.002604384136722581
9.384,0.0026049851502957127
9.388,0.0026031340284904674
9.392,0.0026002972444252865
9.396,0.0025998404741097063
9.4,0.00260017704171066
9.404,0.0026000568389960336
9.408,0.0026018598797154283
9.412,0.0026032061501192433
9.416,0.0026057063665834708
9.42,0.002608302745219399
9.424,0.0026070526369872853
9.428,0.002603446555548496
9.432,0.0026013790688569232
9.436,0.0026013069472281473
9.44,0.002601282906685222
9.444,0.0025990952172790234
9.448,0.002596402676471393
9.452,0.0026004895687686885
9.456,0.0026020522040588307
9.46,0.0026029657446899907
9.464,0.0026007540147408663
9.468,0.002599696230852155
9.472,0.0026017396770008023
9.476,0.002600513609311614
9.48,0.002599335622708276
9.484,0.0025990952172790234
9.488,0.0025976768252464325
9.492,0.002598253798276639
9.496,0.002599527947051678
9.5,0.002601162703970596
9.504,0.00260109058234182
9.508000000000001,0.0026017396770008023
9.512,0.0026005857309403897
9.516,0.0026015954337432505
9.52,0.0026028695825182895
9.524000000000001,0.0026014752310286244
9.528,0.002601571393200325
9.532,0.0026033023122909445
9.536,0.0026047687854093855
9.540000000000001,0.0026017637175437276
9.544,0.002600537649854539
9.548,0.0026046966637806096
9.552,0.0026054178800683676
9.556000000000001,0.002601907960801279
9.56,0.002600537649854539
9.564,0.0026014752310286244
9.568,0.0026030138257758413
9.572000000000001,0.002604456258351357
9.576,0.0026021002851446813
9.58,0.0026025810960031864
9.584,0.0026051774746391147
9.588000000000001,0.002602533014917336
9.592,0.002601811798629578
9.596,0.0026021724067734568
9.6,0.0026006338120262403
9.604000000000001,0.0025989269334785463
9.608,0.002602076244601756
9.612,0.0026009222985413434
9.616,0.002598614406420518
9.620000000000001,0.0025997683524809304
9.624,0.0026001530011677348
9.628,0.0026004895687686885
9.632,0.0026041437312933286
9.636000000000001,0.002601811798629578
9.64,0.002602076244601756
9.644,0.0026024128122027097
9.648,0.002602629177089037
9.652000000000001,0.0026041437312933286
9.656,0.0026046245421518337
9.66,0.00260428797455088
9.664,0.002601715636457877
9.668000000000001,0.0026010665417988948
9.672,0.002600249163339436
9.676,0.0025989269334785463
9.68,0.0025975806630747318
9.684000000000001,0.0025981335955620128
9.688,0.0025993115821653506
9.692,0.00260246089328856
9.696,0.002602484933831485
9.700000000000001,0.002602893623061215
9.704,0.0026038552447782254
9.708,0.00260565828549762
9.712,0.0026048409070381614
9.716000000000001,0.002602340690573934
9.72,0.0026036869609777484
9.724,0.002604576461065983
9.728,0.002603999488035777
9.732,0.00260565828549762
9.736,0.0026037831231494495
9.74,0.002604360096179656
9.744,0.002604937069209862
9.748,0.0026050572719244886
9.752,0.002603542717720197
9.756,0.002603735042063599
9.76,0.0026028695825182895
9.764,0.0026037831231494495
9.768,0.002606355461242453
9.772,0.0026060188936414992
9.776,0.002608230623590623
9.78,0.0026070766775302106
9.784,0.00260474474486646
9.788,0.0026040475691216274
9.792,0.0026032061501192433
9.796,0.002603662920434823
9.8,0.0026069324342726592
9.804,0.0026090960831359326
9.808,0.0026100096237670926
9.812,0.0026106587184260748
9.816,0.0026080623397901465
9.82,0.002605826569298097
9.824,0.0026062592990707518
9.828,0.0026053457584395917
9.832,0.0026062592990707518
9.836,0.002607317082959463
9.84,0.0026059467720127233
9.844,0.0026060188936414992
9.848,0.0026064516234141537
9.852,0.0026067881910151075
9.856,0.002607821934360894
9.86,0.0026056102044117696
9.864,0.00260520151518204
9.868,0.002610322150825121
9.872,0.002608014258704296
9.876,0.002605441920611293
9.88,0.0026054178800683676
9.884,0.0026030619068616915
9.888,0.0026035667582631223
9.892,0.002607389204588239
9.896,0.0026058986909268727
9.9,0.002604816866495236
9.904,0.0026047928259523108
9.908,0.0026042639340079546
9.912,0.002606740109929257
9.916,0.0026060188936414992
9.92,0.002604456258351357
9.924,0.0026040475691216274
9.928,0.0026014031093998485
9.932,0.002600729974197941
9.936,0.0026008261363696422
9.94,0.002600537649854539
9.944,0.002599431784879977
9.948,0.002602821501432439
9.952,0.002603903325864076
9.956,0.002604576461065983
9.96,0.0026034225150055705
9.964,0.0026027493798036635
9.968,0.0026014031093998485
9.972,0.002599816433566781
9.976,0.0025974123792742547
9.98,0.0025974845009030306
9.984,0.0026002010822535854
9.988,0.0026011146228847454
9.992,0.0026002010822535854
9.996,0.002603446555548496
10.0,0.0026046005016089084
10.004,0.00260702859644436
10.008000000000001,0.002609360529108111
10.012,0.0026115482185143095
10.016,0.0026094566912798116
10.02,0.002608663353363278
10.024000000000001,0.0026063073801566024
10.028,0.0026047928259523108
10.032,0.002602533014917336
10.036,0.002601811798629578
10.040000000000001,0.0025996481497663044
10.044,0.002599696230852155
10.048,0.0025998645146526316
10.052,0.002599912595738482
10.056000000000001,0.002598085514476162
10.06,0.002598061473933237
10.064,0.0026005616903974644
10.068,0.002599431784879977
10.072000000000001,0.002599527947051678
10.076,0.002599431784879977
10.08,0.002601811798629578
10.084,0.0026013790688569232
10.088000000000001,0.0025988548118497704
10.092,0.0025980374333903116
10.096,0.0025991192578219487
10.1,0.0025981816766478634
10.104000000000001,0.0025989509740214716
10.108,0.002601282906685222
10.112,0.0026016194742861758
10.116,0.0025983259199054147
10.120000000000001,0.002599888555195557
10.124,0.002601811798629578
10.128,0.002599407744337052
10.132,0.0025973402576454792
10.136000000000001,0.0025965228791860195
10.14,0.0025987346091351443
10.144,0.002600609771483315
10.148,0.002602533014917336
10.152000000000001,0.0025996000686804538
10.156,0.002599407744337052
10.16,0.0026017396770008023
10.164,0.0026013309877710726
10.168000000000001,0.00260109058234182
10.172,0.0026010425012559695
10.176,0.002600994420170119
10.18,0.0026007780552837916
10.184000000000001,0.002599696230852155
10.188,0.00260200412297298
10.192,0.002601282906685222
10.196,0.0025992154199936494
10.200000000000001,0.0026003934065969873
10.204,0.0025983259199054147
10.208,0.002598494203705892
10.212,0.0026009703796271936
10.216000000000001,0.002603542717720197
10.22,0.002602340690573934
10.224,0.002601523312114475
10.228,0.0026041437312933286
10.232000000000001,0.0026050332313815633
10.236,0.002602557055460261
10.24,0.0026003934065969873
10.244,0.0026011867445135213
10.248,0.0026009703796271936
10.252,0.002600874217455493
10.256,0.0026013069472281473
10.26,0.002601234825599372
10.264,0.0026023887716597844
10.268,0.0026035907988060476
10.272,0.0026030859474046168
10.276,0.0026014992715715497
10.28,0.0026020522040588307
10.284,0.0026060910152702747
10.288,0.00260885567770668
10.292,0.002608663353363278
10.296,0.002606908393729734
10.3,0.002606283339613677
10.304,0.0026062592990707518
10.308,0.002608086380333072
10.312,0.0026111395292845803
10.316,0.0026089037587925306
10.32,0.0026088316371637547
10.324,0.00260702859644436
10.328,0.0026060429341844245
10.332,0.002607821934360894
10.336,0.0026061150558132
10.34,0.002605441920611293
10.344,0.0026063314206995277
10.348,0.002608663353363278
10.352,0.002606211217984901
10.356,0.0026065958666717055
10.36,0.002608302745219399
10.364,0.00260657182612878
10.368,0.0026032061501192433
10.372,0.0026022926094880832
10.376,0.002603182109576318
10.38,0.002605297677353741
10.384,0.0026056823260405455
10.388,0.0026052255557249653
10.392,0.002606379501785378
10.396,0.0026074132451311643
10.4,0.002607870015446744
10.404,0.002607461326217015
10.408,0.0026062592990707518
10.412,0.0026051774746391147
10.416,0.002606547785585855
10.42,0.0026072449613306877
10.424,0.002607533447845791
10.428,0.002608495069562801
10.432,0.002609576893994438
10.436,0.002608639312820353
10.44,0.0026058746503839474
10.444,0.0026065237450429296
10.448,0.0026077017316462675
10.452,0.002608495069562801
10.456,0.0026071487991589865
10.46,0.002604816866495236
10.464,0.002607389204588239
10.468,0.0026081344614189224
10.472,0.002606355461242453
10.476,0.002605273636810816
10.48,0.0026060669747273494
10.484,0.0026075094073028655
10.488,0.0026068603126438833
10.492,0.002607581528931641
10.496,0.002608639312820353
10.5,0.0026084229479340255
10.504,0.0026056102044117696
10.508000000000001,0.0026038552447782254
10.512,0.0026038552447782254
10.516,0.0026035667582631223
10.52,0.002603614839348973
10.524000000000001,0.002603903325864076
10.528,0.002605850609841022
10.532,0.0026080623397901465
10.536,0.0026090960831359326
10.540000000000001,0.0026107308400548507
10.544,0.002612077110458665
10.548,0.0026126300429459466
10.552,0.0026129666105469003
10.556000000000001,0.0026121011510015905
10.56,0.002609408610193961
10.564,0.0026100096237670926
10.568,0.0026122453942591423
10.572000000000001,0.0026114280157996834
10.576,0.002609144164221783
10.58,0.002606667988300481
10.584,0.002606667988300481
10.588000000000001,0.002609408610193961
10.592,0.002611307813085057
10.596,0.0026104423535397475
10.6,0.0026081825425047726
10.604000000000001,0.0026098172994236907
10.608,0.0026099615426812424
10.612,0.002609288407479335
10.616,0.0026074372856740896
10.620000000000001,0.002607317082959463
10.624,0.002609552853451513
10.628,0.0026083508263052496
10.632,0.002608783556077904
10.636000000000001,0.002609144164221783
10.64,0.002611956907744039
10.644,0.0026094566912798116
10.648,0.00260885567770668
10.652000000000001,0.0026094326507368863
10.656,0.002611764583400637
10.66,0.0026109952860270285
10.664,0.002611668421228936
10.668000000000001,0.002611019326569954
10.672,0.0026091922453076338
10.676,0.0026081344614189224
10.68,0.0026093845696510357
10.684000000000001,0.002611764583400637
10.688,0.002612870448375199
10.692,0.002612317515887918
10.696,0.002612029029372815
10.700000000000001,0.002613038732175676
10.704,0.00261342338086248
10.708,0.0026107067995119254
10.712,0.002610057704852943
10.716000000000001,0.0026077017316462675
10.72,0.0026063314206995277
10.724,0.0026094566912798116
10.728,0.002608374866848175
10.732000000000001,0.0026080623397901465
10.736,0.0026072690018736125
10.74,0.0026072209207877624
10.744,0.0026078940559896694
10.748000000000001,0.0026123896375166936
10.752,0.0026133512592337042
10.756,0.0026127262051176474
10.76,0.0026096249750802887
10.764,0.0026111635698275056
10.768,0.002610754880597776
10.772,0.0026100096237670926
10.776,0.0026110674076558044
10.78,0.0026101538670246444
10.784,0.002608783556077904
10.788,0.0026081825425047726
10.792,0.002608639312820353
10.796,0.0026074132451311643
10.8,0.0026105144751685234
10.804,0.0026081585019618477
10.808,0.002608495069562801
10.812,0.0026093364885651856
10.816,0.0026104183129968222
10.82,0.002610129826481719
10.824,0.0026113318536279823
10.828,0.0026111635698275056
10.832,0.002609144164221783
10.836,0.0026111876103704305
10.84,0.002611860745572338
10.844,0.0026123415564308435
10.848,0.0026159716784125583
10.852,0.00261844785433386
10.856,0.0026193133138791695
10.86,0.002619289273336244
10.864,0.002619529678765497
10.868,0.00261616400275596
10.872,0.002616909259586643
10.876,0.0026141926782360884
10.88,0.002611379934713833
10.884,0.0026119088266581885
10.888,0.0026109952860270285
10.892,0.0026088316371637547
10.896,0.0026106587184260748
10.9,0.002613399340319555
10.904,0.0026126300429459466
10.908,0.0026116924617718613
10.912,0.002612702164574722
10.916,0.002610105785938794
10.92,0.0026098172994236907
10.924,0.0026091922453076338
10.928,0.0026099615426812424
10.932,0.0026105385157114487
10.936,0.0026090720425930073
10.94,0.002611740542857712
10.944,0.0026118367050294126
10.948,0.0026093845696510357
10.952,0.0026050572719244886
10.956,0.002606836272100958
10.96,0.002607821934360894
10.964,0.0026045043394372076
10.968,0.0026065958666717055
10.972,0.0026064997045000043
10.976,0.0026051774746391147
10.98,0.00260474474486646
10.984,0.0026062592990707518
10.988,0.0026088316371637547
10.992,0.002608783556077904
10.996,0.0026101538670246444
11.0,0.0026097451777949148
11.004,0.0026119809482869644
11.008000000000001,0.0026119809482869644
11.012,0.002610057704852943
11.016,0.0026106346778831495
11.02,0.0026113318536279823
11.024000000000001,0.002612077110458665
11.028,0.0026119809482869644
11.032,0.002613399340319555
11.036,0.0026143850025794908
11.040000000000001,0.0026125579213171707
11.044,0.0026118367050294126
11.048,0.002609504772365662
11.052,0.0026107789211407013
11.056000000000001,0.002610129826481719
11.06,0.0026092643669364097
11.064,0.0026096249750802887
11.068,0.0026106346778831495
11.072000000000001,0.002611379934713833
11.076,0.0026119088266581885
11.08,0.0026131589348903023
11.084,0.0026141686376931635
11.088000000000001,0.0026149138945238464
11.092,0.00261570723244038
11.096,0.002613567624120032
11.1,0.0026146254080087433
11.104000000000001,0.002615034097238473
11.108,0.0026142167187790137
11.112,0.002617125624472971
11.116,0.0026150100566955476
11.120000000000001,0.002613759948463434
11.124,0.0026121011510015905
11.128,0.002611956907744039
11.132,0.0026149860161526223
11.136000000000001,0.0026170775433871202
11.14,0.002615082178324323
11.144,0.002612654083488872
11.148,0.002614312880950715
11.152000000000001,0.002616861178500793
11.156,0.002616139962213035
11.16,0.002613231056519078
11.164,0.0026123415564308435
11.168000000000001,0.0026125579213171707
11.172,0.0026121011510015905
11.176,0.002614312880950715
11.18,0.00261342338086248
11.184000000000001,0.0026128223672893486
11.188,0.0026144811647511915
11.192,0.002614961975609697
11.196,0.0026189046246494403
11.200000000000001,0.002619914327452301
11.204,0.0026184718948767853
11.208,0.0026178708813036538
11.212,0.002619169070621618
11.216000000000001,0.0026191931111645434
11.22,0.0026186882597631126
11.224,0.002617269867730522
11.228,0.002618519975962636
11.232000000000001,0.002618039165104131
11.236,0.002617967043475355
11.24,0.0026163803676422875
11.244,0.0026172217866446716
11.248000000000001,0.0026167409757861665
11.252,0.002615226421581875
11.256,0.0026142647998648643
11.26,0.0026164044081852128
11.264,0.0026162601649276614
11.268,0.0026134474214054054
11.272,0.002614961975609697
11.276,0.0026175823947885506
11.28,0.002616765016329092
11.284,0.0026149138945238464
11.288,0.0026115482185143095
11.292,0.002612942570003975
11.296,0.0026166688541573906
11.3,0.002615322583753576
11.304,0.0026132791376049284
11.308,0.002613952272806836
11.312,0.0026122453942591423
11.316,0.0026126060024030213
11.32,0.002614240759321939
11.324,0.0026126300429459466
11.328,0.002611379934713833
11.332,0.002613038732175676
11.336,0.002613399340319555
11.34,0.002615034097238473
11.344,0.0026140724755214623
11.348,0.002613615705205882
11.352,0.002615779354069156
11.356,0.002615875516240857
11.36,0.002617798759674878
11.364,0.002618063205647056
11.368,0.0026193373544220948
11.372,0.0026206836248259097
11.376,0.0026197460436518244
11.38,0.0026153947053823515
11.384,0.0026156110702686792
11.388,0.002615226421581875
11.392,0.0026132791376049284
11.396,0.002610947204941178
11.4,0.0026121973131732917
11.404,0.00261662077307154
11.408,0.002615947637869633
11.412,0.0026139282322639105
11.416,0.00261388015117806
11.42,0.0026164044081852128
11.424,0.002615322583753576
11.428,0.0026178468407607285
11.432,0.0026152745026677255
11.436,0.002615514908096978
11.44,0.0026161880432988855
11.444,0.002616332286556437
11.448,0.0026191931111645434
11.452,0.0026181112867329063
11.456,0.0026173900704451487
11.46,0.0026170054217583443
11.464,0.002616428448728138
11.468,0.0026164765298139886
11.472,0.0026145773269228927
11.476,0.002614240759321939
11.48,0.0026133752997766295
11.484,0.0026131589348903023
11.488,0.0026133031781478537
11.492,0.0026121973131732917
11.496,0.002610562556254374
11.5,0.002613952272806836
11.504,0.0026143609620365655
11.508000000000001,0.002611788623943562
11.512,0.0026144811647511915
11.516,0.0026140003538926864
11.52,0.0026144571242082667
11.524000000000001,0.00261616400275596
11.528,0.0026156110702686792
11.532,0.002616885219043718
11.536,0.0026168130974149424
11.540000000000001,0.0026166688541573906
11.544,0.0026161880432988855
11.548,0.0026153947053823515
11.552,0.002616765016329092
11.556000000000001,0.0026164044081852128
11.56,0.0026148177323521453
11.564,0.0026152023810389496
11.568,0.002614240759321939
11.572000000000001,0.0026159235973267077
11.576,0.002617606435331476
11.58,0.002616500570356914
11.584,0.002615418745925277
11.588000000000001,0.0026130868132615264
11.592,0.0026121973131732917
11.596,0.002612077110458665
11.6,0.0026135195430341813
11.604000000000001,0.002616885219043718
11.608,0.002615803394612081
11.612,0.0026136637862917327
11.616,0.0026140724755214623
11.620000000000001,0.00261570723244038
11.624,0.0026165967325286147
11.628,0.0026157553135262306
11.632,0.0026146494485516686
11.636000000000001,0.002617967043475355
11.64,0.0026147215701804445
11.644,0.0026119088266581885
11.648,0.002612702164574722
11.652000000000001,0.0026133752997766295
11.656,0.0026131108538044517
11.66,0.0026132791376049284
11.664,0.0026116443806860107
11.668000000000001,0.002608230623590623
11.672,0.0026092643669364097
11.676,0.002610466394082673
11.68,0.0026104183129968222
11.684000000000001,0.0026122694348020676
11.688,0.002612581961860096
11.692,0.002611788623943562
11.696,0.002613856110635135
11.700000000000001,0.002614144597150238
11.704,0.0026154668270111274
11.708,0.002617678556960252
11.712,0.0026203951383108066
11.716000000000001,0.002622438584459454
11.72,0.002621885651972173
11.724,0.002617967043475355
11.728,0.0026171977461017463
11.732000000000001,0.0026144571242082667
11.736,0.0026179430029324297
11.74,0.0026152745026677255
11.744,0.0026106346778831495
11.748000000000001,0.002610875083312402
11.752,0.0026109231643982526
11.756,0.0026102981102821957
11.76,0.0026135195430341813
11.764000000000001,0.002613591664662957
11.768,0.0026145532863799674
11.772,0.0026143850025794908
11.776,0.002612581961860096
11.78,0.002610105785938794
11.784,0.0026133512592337042
11.788,0.002612846407832274
11.792,0.002614505205294117
11.796,0.002611860745572338
11.8,0.002611860745572338
11.804,0.0026140003538926864
11.808,0.0026143850025794908
11.812,0.0026152745026677255
11.816,0.002615514908096978
11.82,0.0026143609620365655
11.824,0.002615034097238473
11.828,0.0026138320700922098
11.832,0.002612774286203498
11.836,0.002614673489094594
11.84,0.0026160197594984084
11.844,0.0026178708813036538
11.848,0.002618159367818757
11.852,0.0026132791376049284
11.856,0.002610105785938794
11.86,0.0026090960831359326
11.864,0.0026123896375166936
11.868,0.0026132791376049284
11.872,0.0026151302594101737
11.876,0.0026152745026677255
11.88,0.0026135195430341813
11.884,0.0026128944889181245
11.888,0.0026124377186025442
11.892,0.0026129185294610498
11.896,0.0026141926782360884
11.9,0.0026138320700922098
11.904,0.00261250984023132
11.908,0.0026140724755214623
11.912,0.0026147215701804445
11.916,0.0026146254080087433
11.92,0.002614601367465818
11.924,0.0026143850025794908
11.928,0.002613591664662957
11.932,0.002612581961860096
11.936,0.0026121011510015905
11.94,0.0026142647998648643
11.944,0.0026155629891828286
11.948,0.0026147215701804445
11.952,0.0026139041917209852
11.956,0.002613783989006359
11.96,0.002613856110635135
11.964,0.0026153466242965014
11.968,0.002617269867730522
11.972,0.0026154668270111274
11.976,0.002615034097238473
11.98,0.002610490434625598
11.984,0.002610129826481719
11.988,0.0026125579213171707
11.992,0.0026134714619483307
11.996,0.002612317515887918
12.0,0.0026148417728950706
12.004,0.002614312880950715
12.008000000000001,0.002614505205294117
12.012,0.0026139041917209852
12.016,0.0026151302594101737
12.02,0.0026140003538926864
12.024000000000001,0.0026144330836653414
12.028,0.002614673489094594
12.032,0.00261388015117806
12.036,0.0026129666105469003
12.040000000000001,0.002611788623943562
12.044,0.00261250984023132
12.048,0.002615322583753576
12.052,0.002616909259586643
12.056000000000001,0.0026170775433871202
12.06,0.002617967043475355
12.064,0.002619145030078693
12.068,0.002619649881480123
12.072000000000001,0.002621068273512714
12.076,0.002620202813967404
12.08,0.0026204913004825073
12.084,0.0026211403951414895
12.088000000000001,0.002622005854686799
12.092,0.0026194815976796466
12.096,0.002618519975962636
12.1,0.002618183408361682
12.104000000000001,0.0026185680570484865
12.108,0.002617702597503177
12.112,0.0026154908675540527
12.116,0.002615779354069156
12.120000000000001,0.0026159235973267077
12.124,0.002615947637869633
12.128,0.002617341989359298
12.132,0.0026152745026677255
12.136000000000001,0.002615947637869633
12.14,0.002615995718955483
12.144,0.0026163082460135116
12.148,0.00261662077307154
12.152000000000001,0.0026175823947885506
12.156,0.002617125624472971
12.16,0.002616332286556437
12.164,0.002616909259586643
12.168000000000001,0.002617341989359298
12.172,0.0026160918811271843
12.176,0.0026189286651923656
12.18,0.002618592097591412
12.184000000000001,0.002618736340848963
12.188,0.0026181353272758316
12.192,0.0026193854355079454
12.196,0.002620347057224956
12.200000000000001,0.002622294341201902
12.204,0.002622174138487276
12.208,0.002619000786821141
12.212,0.002618736340848963
12.216000000000001,0.0026190969489928422
12.22,0.0026172939082734475
12.224,0.0026198902869093758
12.228,0.002619722003108899
12.232000000000001,0.0026208759491693117
12.236,0.002620611503197134
12.24,0.002619625840937198
12.244,0.0026189286651923656
12.248000000000001,0.0026188325030206644
12.252,0.002618087246189981
12.256,0.0026189286651923656
12.26,0.0026191931111645434
12.264000000000001,0.002618519975962636
12.268,0.0026191209895357675
12.272,0.0026174381515309993
12.276,0.002613591664662957
12.280000000000001,0.0026163082460135116
12.284,0.0026177266380461024
12.288,0.002616500570356914
12.292,0.0026163082460135116
12.296,0.0026171977461017463
12.3,0.0026166688541573906
12.304,0.0026164044081852128
12.308,0.002613495502491256
12.312,0.0026140003538926864
12.316,0.0026167409757861665
12.32,0.002616500570356914
12.324,0.002617125624472971
12.328,0.0026166448136144653
12.332,0.002617678556960252
12.336,0.0026197700841947497
12.34,0.0026193133138791695
12.344,0.002618231489447533
12.348,0.0026173660299022234
12.352,0.0026165967325286147
12.356,0.0026189286651923656
12.36,0.0026171737055588214
12.364,0.002617245827187597
12.368,0.002616067840584259
12.372,0.002613783989006359
12.376,0.002614144597150238
12.38,0.00261479369180922
12.384,0.002615082178324323
12.388,0.002617053502844195
12.392,0.0026152985432106508
12.396,0.002615226421581875
12.4,0.0026165486514427645
12.404,0.0026170294623012696
12.408,0.0026184238137909347
12.412,0.0026200104896240022
12.416,0.0026186642192201877
12.42,0.002618255529990458
12.424,0.002615995718955483
12.428,0.0026143850025794908
12.432,0.0026148417728950706
12.436,0.002614505205294117
12.44,0.0026177266380461024
12.444,0.002617125624472971
12.448,0.002616332286556437
12.452,0.002618712300306038
12.456,0.0026189286651923656
12.46,0.002617125624472971
12.464,0.002617341989359298
12.468,0.0026164765298139886
12.472,0.002616067840584259
12.476,0.002616981381215419
12.48,0.00261479369180922
12.484,0.002614673489094594
12.488,0.002616428448728138
12.492,0.002616139962213035
12.496,0.0026175583542456253
12.5,0.0026175583542456253
12.504,0.002618808462477739
12.508000000000001,0.002615442786468202
12.512,0.002615154299953099
12.516,0.0026148417728950706
12.52,0.002612221353716217
12.524000000000001,0.002612029029372815
12.528,0.0026135195430341813
12.532,0.0026143609620365655
12.536,0.002611500137428459
12.540000000000001,0.002612654083488872
12.544,0.0026144330836653414
12.548,0.002615779354069156
12.552,0.002615514908096978
12.556000000000001,0.00261250984023132
12.56,0.0026155629891828286
12.564,0.0026138080295492845
12.568,0.0026147215701804445
12.572000000000001,0.0026181353272758316
12.576,0.0026234963683481652
12.58,0.0026238810170349696
12.584,0.002622294341201902
12.588000000000001,0.0026183997732480094
12.592,0.0026168130974149424
12.596,0.0026152504621248
12.6,0.002609649015623214
12.604000000000001,0.002608014258704296
12.608,0.002607749812732118
12.612,0.002607557488388716
12.616,0.0026076055694745663
12.620000000000001,0.002607749812732118
12.624,0.0026094326507368863
12.628,0.002609937502138317
12.632,0.0026096009345373634
12.636000000000001,0.0026114760968855336
12.64,0.0026125579213171707
12.644,0.0026105385157114487
12.648,0.002608567191191577
12.652000000000001,0.0026079902181613706
12.656,0.00260885567770668
12.66,0.002608014258704296
12.664,0.002610057704852943
12.668000000000001,0.002611524177971384
12.672,0.002610201948110495
12.676,0.002610466394082673
12.68,0.002609697096709064
12.684000000000001,0.0026101779075675697
12.688,0.002610105785938794
12.692,0.002611403975256758
12.696,0.0026107308400548507
12.700000000000001,0.0026105385157114487
12.704,0.0026112597319992064
12.708,0.0026131108538044517
12.712,0.002614144597150238
12.716000000000001,0.002611740542857712
12.72,0.0026107067995119254
12.724,0.0026127502456605727
12.728,0.0026137118673775833
12.732000000000001,0.0026140243944356117
12.736,0.002614312880950715
12.74,0.0026123415564308435
12.744,0.002610586596797299
12.748000000000001,0.002610610637340224
12.752,0.0026115482185143095
12.756,0.0026121732726303664
12.76,0.0026133031781478537
12.764000000000001,0.0026133512592337042
12.768,0.002609937502138317
12.772,0.002608783556077904
12.776,0.002608495069562801
12.780000000000001,0.0026093845696510357
12.784,0.0026111395292845803
12.788,0.002612942570003975
12.792,0.0026141926782360884
12.796000000000001,0.0026177506785890277
12.8,0.0026210442329697888
12.804,0.0026205634221112832
12.808,0.0026208519086263864
12.812,0.002623568489976941
12.816,0.002623087679118436
12.82,0.002624121422464222
12.824,0.0026223905033736033
12.828,0.0026225828277170057
12.832,0.00261936139496502
12.836,0.002620996151883938
12.84,0.0026210442329697888
12.844,0.0026183036110763087
12.848,0.002618255529990458
12.852,0.002617894921846579
12.856,0.0026203230166820307
12.86,0.0026185680570484865
12.864,0.002616236124384736
12.868,0.002615322583753576
12.872,0.002614865813437996
12.876,0.0026151783404960243
12.88,0.002615442786468202
12.884,0.0026161880432988855
12.888,0.0026160438000413337
12.892,0.002614865813437996
12.896,0.002616067840584259
12.9,0.002618952705735291
12.904,0.0026208519086263864
12.908,0.0026205634221112832
12.912,0.0026179430029324297
12.916,0.0026188325030206644
12.92,0.0026207317059117603
12.924,0.002621549084371219
12.928,0.00262118847622734
12.932,0.0026213808005707425
12.936,0.0026200345301669275
12.94,0.002621068273512714
12.944,0.002619794124737675
12.948,0.0026194575571367213
12.952,0.0026201787734244793
12.956,0.002620539381568358
12.96,0.0026204672599395825
12.964,0.002621332719484892
12.968,0.0026227751520604076
12.972,0.002622438584459454
12.976,0.00261936139496502
12.98,0.0026156110702686792
12.984,0.002612702164574722
12.988,0.0026139282322639105
12.992,0.0026183036110763087
12.996,0.0026183997732480094
13.0,0.0026170294623012696
13.004,0.0026171737055588214
13.008000000000001,0.0026169573406724937
13.012,0.0026175102731597747
13.016,0.002618231489447533
13.02,0.002617798759674878
13.024000000000001,0.002617774719131953
13.028,0.0026170054217583443
13.032,0.0026152023810389496
13.036,0.0026144330836653414
13.040000000000001,0.0026150100566955476
13.044,0.002613327218690779
13.048,0.0026152745026677255
13.052,0.002616428448728138
13.056000000000001,0.002615418745925277
13.06,0.0026156831918974547
13.064,0.002617414110988074
13.068,0.0026174862326168494
13.072000000000001,0.0026152504621248
13.076,0.002614769651266295
13.08,0.002612990651089825
13.084,0.0026120049888298897
13.088000000000001,0.002611019326569954
13.092,0.0026089518398783812
13.096,0.002612702164574722
13.1,0.0026125579213171707
13.104000000000001,0.0026123896375166936
13.108,0.0026118367050294126
13.112,0.0026123415564308435
13.116,0.002611500137428459
13.120000000000001,0.002609841339966616
13.124,0.0026132791376049284
13.128,0.00261479369180922
13.132,0.002613399340319555
13.136000000000001,0.0026101538670246444
13.14,0.002609937502138317
13.144,0.0026105144751685234
13.148,0.0026126781240317968
13.152000000000001,0.0026149860161526223
13.156,0.0026149138945238464
13.16,0.0026158274351550065
13.164,0.0026165967325286147
13.168000000000001,0.002616789056872017
13.172,0.0026161159216701096
13.176,0.002617798759674878
13.18,0.0026155629891828286
13.184000000000001,0.0026151783404960243
13.188,0.002617341989359298
13.192,0.002615875516240857
13.196,0.0026139041917209852
13.200000000000001,0.0026150100566955476
13.204,0.0026149379350667717
13.208,0.0026145532863799674
13.212,0.00261388015117806
13.216000000000001,0.0026149860161526223
13.22,0.002614601367465818
13.224,0.0026170294623012696
13.228,0.0026168371379578677
13.232000000000001,0.0026177506785890277
13.236,0.0026174862326168494
13.24,0.0026161880432988855
13.244,0.0026153947053823515
13.248000000000001,0.0026146254080087433
13.252,0.0026175102731597747
13.256,0.0026184718948767853
13.26,0.0026170054217583443
13.264000000000001,0.0026154668270111274
13.268,0.0026171737055588214
13.272,0.002617822800217803
13.276,0.0026191209895357675
13.280000000000001,0.002618327651619234
13.284,0.002619433516593796
13.288,0.0026183036110763087
13.292,0.0026183997732480094
13.296000000000001,0.002616428448728138
13.3,0.002615322583753576
13.304,0.0026111635698275056
13.308,0.002612702164574722
13.312000000000001,0.0026157553135262306
13.316,0.0026139041917209852
13.32,0.0026158514756979318
13.324,0.0026124377186025442
13.328,0.0026096249750802887
13.332,0.002612581961860096
13.336,0.0026138080295492845
13.34,0.002615034097238473
13.344,0.0026165486514427645
13.348,0.0026164524892710633
13.352,0.0026196018003942726
13.356,0.0026208038275405358
13.36,0.002619866246366451
13.364,0.002618736340848963
13.368,0.0026184959354197106
13.372,0.0026163803676422875
13.376,0.0026177506785890277
13.38,0.002619289273336244
13.384,0.0026198181652806003
13.388,0.0026219337330580235
13.392,0.0026195537193084224
13.396,0.0026183757327050846
13.4,0.0026174621920739246
13.404,0.0026171737055588214
13.408,0.0026233040440047633
13.412,0.0026264052740421224
13.416,0.0026267899227289267
13.42,0.0026254196117821865
13.424,0.002623207881833062
13.428,0.00262301555748966
13.432,0.0026198422058235256
13.436,0.002618712300306038
13.44,0.002618087246189981
13.444,0.0026185440165055612
13.448,0.0026178708813036538
13.452,0.0026177266380461024
13.456,0.0026186401786772624
13.46,0.0026171977461017463
13.464,0.002615418745925277
13.468,0.002617053502844195
13.472,0.0026161880432988855
13.476,0.002616428448728138
13.48,0.00261565915135453
13.484,0.002613856110635135
13.488,0.002610490434625598
13.492,0.002611307813085057
13.496,0.0026144811647511915
13.5,0.0026156831918974547
13.504,0.0026181112867329063
13.508000000000001,0.002616692894700316
13.512,0.002617630475874401
13.516,0.002619914327452301
13.52,0.002617606435331476
13.524000000000001,0.002616067840584259
13.528,0.0026159235973267077
13.532,0.002615034097238473
13.536,0.0026155629891828286
13.540000000000001,0.002618880584106515
13.544,0.0026179430029324297
13.548,0.002617269867730522
13.552,0.002616428448728138
13.556000000000001,0.002616765016329092
13.56,0.0026138080295492845
13.564,0.0026162842054705863
13.568,0.002619000786821141
13.572000000000001,0.0026175583542456253
13.576,0.0026196739220230485
13.58,0.0026185440165055612
13.584,0.002618519975962636
13.588000000000001,0.0026187603813918885
13.592,0.0026191209895357675
13.596,0.0026183757327050846
13.6,0.0026165246108998392
13.604000000000001,0.0026166688541573906
13.608,0.0026165246108998392
13.612,0.002618808462477739
13.616,0.0026190488679069916
13.620000000000001,0.002618808462477739
13.624,0.0026197700841947497
13.628,0.002620611503197134
13.632,0.0026198422058235256
13.636000000000001,0.0026170294623012696
13.64,0.0026169333001295684
13.644,0.00261936139496502
13.648,0.0026218375708863223
13.652000000000001,0.0026201306923386287
13.656,0.0026193373544220948
13.66,0.0026187603813918885
13.664,0.0026198422058235256
13.668000000000001,0.0026173900704451487
13.672,0.0026165486514427645
13.676,0.0026171977461017463
13.68,0.0026201306923386287
13.684000000000001,0.0026210442329697888
13.688,0.0026216452465429203
13.692,0.002618063205647056
13.696,0.0026179910840182802
13.700000000000001,0.0026184718948767853
13.704,0.0026166448136144653
13.708,0.0026183516921621593
13.712,0.002622366462830678
13.716000000000001,0.0026193854355079454
13.72,0.0026213808005707425
13.724,0.0026235204088910905
13.728,0.002620058570709853
13.732000000000001,0.0026205634221112832
13.736,0.002625010922552457
13.74,0.0026260446658982434
13.744,0.002625179206352934
13.748000000000001,0.002624001219749596
13.752,0.0026190969489928422
13.756,0.002619722003108899
13.76,0.0026200104896240022
13.764000000000001,0.0026201306923386287
13.768,0.0026236165710627917
13.772,0.002624289706264699
13.776,0.0026223183817448274
13.780000000000001,0.002620827868083461
13.784,0.002622270300658977
13.788,0.0026224145439165286
13.792,0.0026246503144085782
13.796000000000001,0.0026238810170349696
13.8,0.002624554152236877
13.804,0.002624818598209055
13.808,0.002624914760380756
13.812000000000001,0.0026246983954944284
13.816,0.0026256119361255884
13.82,0.0026255878955826636
13.824,0.0026253234496104853
13.828,0.0026279679093322646
13.832,0.002628280436390293
13.836,0.0026305162068823423
13.84,0.0026280159904181147
13.844,0.002627847706617638
13.848,0.002626934165986478
13.852,0.0026285208418195456
13.856,0.002631213382627175
13.86,0.0026292660986502285
13.864,0.002626285071327496
13.868,0.00262799194987519
13.872,0.002630708531225744
13.876,0.0026310931799125485
13.88,0.0026291699364785277
13.884,0.0026266697200143002
13.888,0.002624289706264699
13.892,0.002625371530696336
13.896,0.002625371530696336
13.9,0.00262301555748966
13.904,0.002624890719837831
13.908,0.0026276073011883855
13.912,0.0026259004226406916
13.916,0.002625660017211439
13.92,0.0026257802199260655
13.924,0.002627751544445937
13.928,0.002627294774130357
13.932,0.00262529940906756
13.936,0.002624001219749596
13.94,0.0026246503144085782
13.944,0.002626092746984094
13.948,0.0026287852877917234
13.952,0.002628280436390293
13.956,0.002629121855392677
13.96,0.002628737206705873
13.964,0.002626862044357702
13.968,0.0026255638550397383
13.972,0.0026275111390166844
13.976,0.0026284487201907697
13.98,0.0026277275039030116
13.984,0.002624289706264699
13.988,0.0026251311252670833
13.992,0.002628328517476143
13.996,0.0026293622608219297
14.0,0.0026280640715039653
14.004,0.002629482463536556
14.008000000000001,0.002630011355480912
14.012,0.0026296267067941075
14.016,0.0026254436523251118
14.02,0.0026284968012766203
14.024000000000001,0.0026302517609101644
14.028,0.0026277275039030116
14.032,0.0026288814499634246
14.036,0.0026289295310492748
14.040000000000001,0.0026282323553044424
14.044,0.0026291458959356024
14.048,0.0026290737743068266
14.052,0.0026283765985619938
14.056000000000001,0.0026293382202790044
14.06,0.0026297709500516593
14.064,0.002626188909155795
14.068,0.0026280640715039653
14.072000000000001,0.0026288093283346487
14.076,0.002630396004167716
14.08,0.0026324394503163635
14.084,0.0026328481395460927
14.088000000000001,0.002631573990771054
14.092,0.002631213382627175
14.096,0.002629097814849752
14.1,0.002629218017564378
14.104000000000001,0.002631838436743232
14.108,0.0026317422745715307
14.112,0.0026306123690540435
14.116,0.0026304440852535664
14.120000000000001,0.0026286891256200222
14.124,0.0026305402474252676
14.128,0.002631309544798876
14.132,0.0026296988284228834
14.136000000000001,0.002628328517476143
14.14,0.002631117220455474
14.144,0.002630756612311595
14.148,0.002629097814849752
14.152000000000001,0.002629121855392677
14.156,0.0026289054905063495
14.16,0.0026262610307845706
14.164,0.002626188909155795
14.168000000000001,0.002629843071680435
14.172,0.0026331847071470464
14.176,0.002633304909861673
14.18,0.0026306364095969688
14.184000000000001,0.0026301555987384632
14.188,0.0026337376396343274
14.192,0.002633593396376776
14.196,0.0026335693558338508
14.200000000000001,0.0026337376396343274
14.204,0.00263484350460889
14.208,0.0026346752208084127
14.212,0.0026344588559220855
14.216000000000001,0.0026340982477782065
14.22,0.0026336174369197014
14.224,0.0026321028827154098
14.228,0.002630852774483296
14.232000000000001,0.002632247125972961
14.236,0.0026322711665158864
14.24,0.002634218450492833
14.244,0.0026377524103028465
14.248000000000001,0.0026403968700246254
14.252,0.0026424403161732727
14.256,0.002642560518887899
14.26,0.0026430413297464043
14.264000000000001,0.002642752843231301
14.268,0.00264311345137518
14.272,0.002640805559254355
14.276,0.002639170802335437
14.280000000000001,0.0026369831129292383
14.284,0.0026356608830683487
14.288,0.0026376562481311453
14.292,0.0026356608830683487
14.296000000000001,0.0026352762343815443
14.3,0.0026342665315786835
14.304,0.002633857842348954
14.308,0.002633304909861673
14.312000000000001,0.0026365503831565834
14.316,0.0026347473424371886
14.32,0.0026330885449753457
14.324,0.0026361416939268537
14.328000000000001,0.0026345309775508614
14.332,0.0026341222883211318
14.336,0.00263443481537916
14.34,0.0026374879643306687
14.344,0.002637992815732099
14.348,0.0026361176533839284
14.352,0.0026369109913004624
14.356,0.0026376802886740706
14.36,0.0026363580588131814
14.364,0.002636406139899032
14.368,0.002635252193838619
14.372,0.0026319826800007833
14.376,0.0026339780450635804
14.38,0.0026361416939268537
14.384,0.0026391227212495864
14.388,0.0026399160591661203
14.392,0.0026390265590778856
14.396,0.0026409498025119064
14.4,0.0026427768837742264
14.404,0.002644002951463415
14.408,0.002640541113282177
14.412,0.0026422479918298707
14.416,0.0026428009243171517
14.42,0.0026413104106557854
14.424,0.0026416950593425898
14.428,0.0026384015049618287
14.432,0.00263849766713353
14.436,0.00263854574821938
14.44,0.002638257261704277
14.444,0.002640637275453878
14.448,0.0026360695722980783
14.452,0.002635877247954676
14.456,0.0026358051263259004
14.46,0.002634699261351338
14.464,0.00263671866695706
14.468,0.0026387621131057078
14.472,0.0026384015049618287
14.476,0.002638161099532576
14.48,0.002635781085782975
14.484,0.0026358532074117506
14.488,0.00263941120776469
14.492,0.002642897086488853
14.496,0.0026435942622336857
14.5,0.0026428009243171517
14.504,0.0026415267755421127
14.508000000000001,0.0026392188834212875
14.512,0.0026377283697599212
14.516,0.0026374639237877434
14.52,0.0026349396667805906
14.524000000000001,0.002633785720720178
14.528,0.0026339059234348045
14.532,0.0026343626937503843
14.536,0.002633377031490449
14.540000000000001,0.002632463490859289
14.544,0.002632391369230513
14.548,0.00263534835601032
14.552,0.00263854574821938
14.556000000000001,0.0026359974506693024
14.56,0.0026340020856065057
14.564,0.0026325356124880643
14.568,0.002635131991123993
14.572000000000001,0.002634482896465011
14.576,0.002632391369230513
14.58,0.002633304909861673
14.584,0.002635781085782975
14.588000000000001,0.002634627139722562
14.592,0.0026350358289522918
14.596,0.0026336174369197014
14.6,0.0026350839100381424
14.604000000000001,0.002636430180441957
14.608,0.0026353723965532455
14.612,0.0026369109913004624
14.616,0.002635516639810797
14.620000000000001,0.002633425112576299
14.624,0.002634050166692356
14.628,0.0026352281532956937
14.632,0.002636045531755153
14.636000000000001,0.002635540680353722
14.64,0.0026350839100381424
14.644,0.002634699261351338
14.648,0.0026358051263259004
14.652000000000001,0.0026368388696716865
14.656,0.002638834234734483
14.66,0.002637968775189174
14.664,0.0026369109913004624
14.668000000000001,0.002637079275100939
14.672,0.002636237856098555
14.676,0.0026337616801772527
14.68,0.0026361416939268537
14.684000000000001,0.0026395554510222413
14.688,0.0026393871672217646
14.692,0.002637367761616042
14.696,0.002637223518358491
14.700000000000001,0.0026412382890270095
14.704,0.0026431615324610308
14.708,0.0026432096135468814
14.712,0.002640517072739252
14.716000000000001,0.0026403247483958495
14.72,0.0026407815187114297
14.724,0.0026391227212495864
14.728,0.002639339086135914
14.732000000000001,0.002638064937360875
14.736,0.0026343146126645337
14.74,0.0026362138155556296
14.744,0.002637776450845772
14.748000000000001,0.002636406139899032
14.752,0.002637223518358491
14.756,0.002636334018270256
14.76,0.0026365503831565834
14.764000000000001,0.002636430180441957
14.768,0.002634699261351338
14.772,0.0026345550180937867
14.776,0.0026378245319316224
14.780000000000001,0.0026398679780802697
14.784,0.0026389303969061844
14.788,0.002633377031490449
14.792,0.0026308046933974454
14.796000000000001,0.0026319826800007833
14.8,0.002632679855745616
14.804,0.0026349156262376653
14.808,0.0026366465453282846
14.812000000000001,0.00263484350460889
14.816,0.002634074207235281
14.82,0.002634146328864057
14.824,0.0026354445181820214
14.828000000000001,0.0026372956399872667
14.832,0.0026374879643306687
14.836,0.0026358291668688253
14.84,0.0026353002749244696
14.844000000000001,0.0026372715994443414
14.848,0.0026376802886740706
14.852,0.0026366225047853593
14.856,0.0026362618966414802
14.86,0.0026351560316669183
14.864,0.002636790788585836
14.868,0.002639723734822718
14.872,0.0026390025185349603
14.876,0.0026371273561867897
14.88,0.002637992815732099
14.884,0.0026384015049618287
14.888,0.0026369350318433877
14.892,0.0026378245319316224
14.896,0.002640156464595373
14.9,0.002641550816085038
14.904,0.0026380889779038003
14.908,0.0026379447346462485
14.912,0.0026376562481311453
14.916,0.0026397477753656432
14.92,0.0026397477753656432
14.924,0.0026367667480429106
14.928,0.0026377524103028465
14.932,0.0026378245319316224
14.936,0.0026390265590778856
14.94,0.00264128637011286
14.944,0.0026428490054030023
14.948,0.0026423201134586466
14.952,0.0026411180863123835
14.956,0.002639988180794896
14.96,0.0026402285862241488
14.964,0.002639603532108092
14.968,0.002639988180794896
14.972,0.0026409017214260562
14.976,0.0026397718159085685
14.98,0.002639627572651017
14.984,0.0026393871672217646
14.988,0.002637872613017473
14.992,0.0026382332211613516
14.996,0.0026390025185349603
15.0,0.002638064937360875
15.004,0.002636430180441957
15.008000000000001,0.0026391948428783622
15.012,0.002642079708029394
15.016,0.0026374879643306687
15.02,0.002638257261704277
15.024000000000001,0.0026401083835095223
15.028,0.00263854574821938
15.032,0.0026380408968179497
15.036,0.0026382813022472022
15.040000000000001,0.0026383774644189034
15.044,0.002637704329216996
15.048,0.002637343721073117
15.052,0.002638064937360875
15.056000000000001,0.0026389544374491097
15.06,0.0026401083835095223
15.064,0.002637872613017473
15.068,0.0026365023020707328
15.072000000000001,0.0026361176533839284
15.076,0.0026371273561867897
15.08,0.002639723734822718
15.084,0.002643185573003956
15.088000000000001,0.00264402699200634
15.092,0.002644652046122397
15.096,0.0026437144649483118
15.1,0.0026403968700246254
15.104000000000001,0.002638906356363259
15.108,0.002636790788585836
15.112,0.0026353002749244696
15.116,0.002635877247954676
15.120000000000001,0.002634579058636712
15.124,0.0026322711665158864
15.128,0.002636959072386313
15.132,0.0026396516131939425
15.136000000000001,0.0026383053427901275
15.14,0.0026340982477782065
15.144,0.002634482896465011
15.148,0.00263534835601032
15.152000000000001,0.0026355647208966475
15.156,0.002635324315467395
15.16,0.002637872613017473
15.164,0.002637512004873594
15.168000000000001,0.002635492599267872
15.172,0.0026361416939268537
15.176,0.0026406613159968033
15.18,0.0026414065728274866
15.184000000000001,0.0026390025185349603
15.188,0.002640541113282177
15.192,0.002640709397082654
15.196,0.0026411421268553088
15.200000000000001,0.0026399400997090456
15.204,0.0026420316269435435
15.208,0.0026433538568044327
15.212,0.002642007586400618
15.216000000000001,0.0026429451675747035
15.22,0.0026434259784332086
15.224,0.002644002951463415
15.228,0.0026431615324610308
15.232000000000001,0.0026397477753656432
15.236,0.002643618302776611
15.24,0.002646527208470568
15.244,0.0026471282220436997
15.248000000000001,0.00264260859997375
15.252,0.002644555883950696
15.256,0.00264671953281397
15.26,0.0026459742759832867
15.264000000000001,0.002645998316526212
15.268,0.0026456857894681836
15.272,0.0026450607353521267
15.276,0.002645012654266276
15.280000000000001,0.002644844370465799
15.284,0.0026476571139880554
15.288,0.00264671953281397
15.292,0.0026459742759832867
15.296000000000001,0.002646382965213017
15.3,0.002644363559607294
15.304,0.0026459502354403614
15.308,0.0026451809380667528
15.312000000000001,0.002647056100414924
15.316,0.0026432336540898067
15.32,0.0026447001272082477
15.324,0.0026490755060206463
15.328000000000001,0.0026526575469165104
15.332,0.0026505419791390873
15.336,0.002649315911449899
15.34,0.0026499409655659557
15.344000000000001,0.002649965006108881
15.348,0.0026516478441136492
15.352,0.0026487389384196925
15.356,0.0026492918709069735
15.36,0.0026492918709069735
15.364,0.0026478975194173084
15.368,0.0026490755060206463
15.372,0.002647440749101728
15.376,0.002646863776071522
15.38,0.0026484504519045894
15.384,0.0026456857894681836
15.388,0.0026435702216907604
15.392,0.002645204978609678
15.396,0.0026466954922710452
15.4,0.0026481619653894862
15.404,0.002646527208470568
15.408,0.0026493880330786747
15.412,0.002648258127561187
15.416,0.002648065803217785
15.42,0.002648402370818739
15.424,0.002646887816614447
15.428,0.0026490274249347957
15.432,0.0026503256142527596
15.436,0.0026490033843918704
15.44,0.0026481619653894862
15.444,0.002649339951992824
15.448,0.0026506621818537133
15.452,0.0026490033843918704
15.456,0.0026481138843036356
15.46,0.0026477292356168313
15.464,0.0026489553033060198
15.468,0.0026495563168791514
15.472,0.002649892884480105
15.476,0.002649724600679628
15.48,0.002649604397965002
15.484,0.002651431479227322
15.488,0.002654508668721756
15.492,0.0026518642089999765
15.496,0.002651623803570724
15.5,0.0026515997630277986
15.504,0.0026515276413990227
15.508000000000001,0.0026504938980532367
15.512,0.002649700560136703
15.516,0.0026510227899975924
15.52,0.0026519363306287524
15.524000000000001,0.002649892884480105
15.528,0.002648762978962618
15.532,0.0026480417626748597
15.536,0.002645493465124781
15.540000000000001,0.002647056100414924
15.544,0.0026476571139880554
15.548,0.00264443568123607
15.552,0.0026430653702893296
15.556000000000001,0.002643906789291714
15.56,0.0026460223570691373
15.564,0.0026466954922710452
15.568,0.0026471282220436997
15.572000000000001,0.00264849853299044
15.576,0.002649892884480105
15.58,0.0026476811545309807
15.584,0.002649243789821123
15.588000000000001,0.0026490995465635716
15.592,0.0026487389384196925
15.596,0.002647777316702682
15.6,0.0026481619653894862
15.604000000000001,0.0026497726817654786
15.608,0.002646118519240838
15.612,0.0026463348841271653
15.616,0.0026501813709952082
15.620000000000001,0.0026480177221319345
15.624,0.0026480177221319345
15.628,0.002647609032902205
15.632,0.002646791654442746
15.636000000000001,0.0026478253977885325
15.64,0.0026488351005913933
15.644,0.0026492197492781976
15.648,0.0026483783302758135
15.652000000000001,0.002647849438331458
15.656,0.00264946015470745
15.66,0.002647849438331458
15.664,0.0026464070057559417
15.668000000000001,0.002646286803041315
15.672,0.0026442673974355927
15.676,0.00264534922186723
15.68,0.0026450366948092014
15.684000000000001,0.0026456136678394077
15.688,0.0026477292356168313
15.692,0.0026472724653012515
15.696,0.002647296505844177
15.700000000000001,0.002648330249189963
15.704,0.0026494841952503755
15.708,0.0026475369112734294
15.712,0.002647705195073906
15.716000000000001,0.002646959938243223
15.72,0.00264758499235928
15.724,0.0026460223570691373
15.728,0.002647777316702682
15.732000000000001,0.0026496524790508525
15.736,0.0026505660196820126
15.74,0.002649339951992824
15.744,0.002648426411361664
15.748000000000001,0.002647705195073906
15.752,0.002649604397965002
15.756,0.002653018155060389
15.76,0.002650926627825891
15.764000000000001,0.002650445816967386
15.768,0.0026485706546192154
15.772,0.0026497726817654786
15.776,0.002650878546740041
15.780000000000001,0.0026499409655659557
15.784,0.002647416708558803
15.788,0.0026490274249347957
15.792,0.0026518642089999765
15.796000000000001,0.0026511910737980694
15.8,0.0026499169250230304
15.804,0.002651503600856098
15.808,0.0026518882495429018
15.812000000000001,0.002652272898229706
15.816,0.002651359357598546
15.82,0.0026523931009443326
15.824,0.002651792087371201
15.828000000000001,0.002648787019505543
15.832,0.0026482340870182617
15.836,0.0026501813709952082
15.84,0.0026526575469165104
15.844000000000001,0.0026521526955150796
15.848,0.00265128723596977
15.852,0.002651263195426845
15.856,0.00265037369533861
15.860000000000001,0.0026488591411343186
15.864,0.0026490033843918704
15.868,0.002649700560136703
15.872,0.002650229452081059
15.876,0.00265128723596977
15.88,0.0026534749253759693
15.884,0.002650085208823507
15.888,0.0026488351005913933
15.892,0.0026514555197702473
15.896,0.002649676519593778
15.9,0.0026474888301875788
15.904,0.002647609032902205
15.908,0.00265078238456834
15.912,0.0026534268442901187
15.916,0.002655013520123186
15.92,0.0026536912902622965
15.924,0.0026584272772185733
15.928,0.002659845669251164
15.932,0.002657297371701086
15.936,0.0026541480605778768
15.94,0.002650734303482489
15.944,0.0026495803574220766
15.948,0.002652248857686781
15.952,0.002652176736058005
15.956,0.002648762978962618
15.96,0.0026494841952503755
15.964,0.0026515276413990227
15.968,0.0026513112765126955
15.972,0.0026499169250230304
15.976,0.0026502054115381335
15.98,0.002649171668192347
15.984,0.0026483062086470376
15.988,0.002648137924846561
15.992,0.0026510949116263683
15.996,0.002652345019858482
16.0,0.0026532104794037914
16.004,0.0026525854252877346
16.008,0.0026524892631160334
16.012,0.002652248857686781
16.016000000000002,0.0026514074386843967
16.02,0.0026522248171438555
16.024,0.0026520324928004536
16.028,0.0026499890466518063
16.032,0.002649532276336226
16.036,0.0026494120736215996
16.04,0.0026513833981414714
16.044,0.0026507583440254145
16.048000000000002,0.0026503977358815355
16.052,0.002651263195426845
16.056,0.002652970073974539
16.06,0.0026501813709952082
16.064,0.0026522248171438555
16.068,0.002652994114517464
16.072,0.0026512391548839196
16.076,0.0026527777496311365
16.080000000000002,0.002651816127914126
16.084,0.002652176736058005
16.088,0.0026526575469165104
16.092,0.0026531143172320902
16.096,0.0026524892631160334
16.1,0.0026536672497193712
16.104,0.002654268263292503
16.108,0.0026523931009443326
16.112000000000002,0.002652729668545286
16.116,0.002652056533343379
16.12,0.0026520084522575283
16.124,0.0026534268442901187
16.128,0.0026554222093529154
16.132,0.0026536191686335206
16.136,0.002654220182206652
16.14,0.0026500611682805817
16.144000000000002,0.002649820762851329
16.148,0.0026504938980532367
16.152,0.0026538595740627736
16.156,0.00265535008772414
16.16,0.002655013520123186
16.164,0.002653258560489642
16.168,0.00265352300646182
16.172,0.002654628871436382
16.176000000000002,0.0026535951280905958
16.18,0.002652465222573108
16.184,0.0026525854252877346
16.188,0.0026517440062853504
16.192,0.0026543403849212787
16.196,0.002656095344554823
16.2,0.0026543884660071293
16.204,0.0026536912902622965
16.208000000000002,0.0026552298850095134
16.212,0.0026537874524339977
16.216,0.0026533306821184175
16.22,0.0026548692768656344
16.224,0.002656744439213805
16.228,0.0026563117094411505
16.232,0.0026569608041001323
16.236,0.0026557828174967944
16.240000000000002,0.002652248857686781
16.244,0.0026541480605778768
16.248,0.002655710695868019
16.252,0.0026547731146939336
16.256,0.0026563357499840754
16.26,0.002655710695868019
16.264,0.0026537874524339977
16.268,0.0026521286549721543
16.272000000000002,0.0026521526955150796
16.276,0.002654556749807606
16.28,0.002654099979492026
