time,channel4
0.0,0.012233390875664258
0.004,0.012231131064629284
0.008,0.012224543955867763
0.012,0.012208797400251714
0.016,0.012215745117157116
0.02,0.012223101523292246
0.024,0.012228606807622132
0.028,0.012229664591510843
0.032,0.012228053875134851
0.036000000000000004,0.012233342794578408
0.04,0.012241396376458371
0.044,0.012245242863326414
0.048,0.012246348728300976
0.052000000000000005,0.012241708903516401
0.056,0.012237670092304956
0.06,0.01223389572706569
0.064,0.012238054740991761
0.068,0.012239112524880472
0.07200000000000001,0.01223745372741863
0.076,0.01223983374116823
0.08,0.012239136565423397
0.084,0.01223759797067618
0.088,0.012234064010866167
0.092,0.012234256335209569
0.096,0.012238054740991761
0.1,0.012238799997822443
0.10400000000000001,0.012230578132142003
0.108,0.012227140334503691
0.112,0.012228246199478253
0.116,0.012228943375223086
0.12,0.01223120318625806
0.124,0.012235097754211954
0.128,0.012233318754035483
0.132,0.012229328023909889
0.136,0.012227356699390018
0.14,0.01222577002355695
0.14400000000000002,0.01222577002355695
0.148,0.012212090954632476
0.152,0.012195719344900371
0.156,0.01220749921093375
0.16,0.012218077049820867
0.164,0.012220961914971898
0.168,0.012218341495793044
0.17200000000000001,0.012221707171802581
0.176,0.012227380739932943
0.18,0.01222968863205377
0.184,0.012230025199654722
0.188,0.012229352064452815
0.192,0.012229760753682544
0.196,0.012224447793696061
0.2,0.01222942418608159
0.20400000000000001,0.01223581897049971
0.20800000000000002,0.012236492105701617
0.212,0.012238799997822443
0.216,0.012238583632936116
0.22,0.012237093119274749
0.224,0.01223718928144645
0.228,0.012235290078555354
0.232,0.012233246632406708
0.23600000000000002,0.012235698767785085
0.24,0.012231852280917043
0.244,0.012233414916207185
0.248,0.012238944241079994
0.252,0.012241588700801774
0.256,0.01224110788994327
0.26,0.012239497173567275
0.264,0.012237742213933731
0.268,0.012233967848694466
0.272,0.012240699200713539
0.276,0.01224663721481608
0.28,0.012246036201242948
0.28400000000000003,0.012227164375046616
0.28800000000000003,0.012217115428103855
0.292,0.012230481969970302
0.296,0.012238896159994144
0.3,0.012241204052114969
0.304,0.012242309917089533
0.308,0.01224110788994327
0.312,0.012238824038365369
0.316,0.012238439389678564
0.32,0.012240675160170614
0.324,0.012243415782064095
0.328,0.012238030700448835
0.332,0.012233967848694466
0.336,0.012234328456838344
0.34,0.012240458795284287
0.34400000000000003,0.012241708903516401
0.34800000000000003,0.012237381605789853
0.352,0.012239785660082379
0.356,0.012241131930486194
0.36,0.012241877187316877
0.364,0.012240675160170614
0.368,0.012240699200713539
0.372,0.012238751916736592
0.376,0.012219134833709578
0.38,0.012223726577408302
0.384,0.012233655321636437
0.388,0.012241540619715923
0.392,0.012240819403428166
0.396,0.012237670092304956
0.4,0.012239689497910678
0.404,0.012238824038365369
0.40800000000000003,0.012242430119804158
0.41200000000000003,0.01224257436306171
0.41600000000000004,0.012239953943882855
0.42,0.012235025632583177
0.424,0.012238655754564893
0.428,0.012240939606142792
0.432,0.012246156403957573
0.436,0.012247454593275538
0.44,0.012247719039247717
0.444,0.01224536306604104
0.448,0.012239977984425781
0.452,0.012241204052114969
0.456,0.012242357998175381
0.46,0.012241180011572044
0.464,0.012235049673126103
0.468,0.012239280808680949
0.47200000000000003,0.012241997390031503
0.47600000000000003,0.012243127295548991
0.48,0.012245290944412264
0.484,0.012245074579525938
0.488,0.012242550322518784
0.492,0.012240627079084763
0.496,0.012241396376458371
0.5,0.012242670525233411
0.504,0.012239521214110202
0.508,0.012225241131612595
0.512,0.012213749752094319
0.516,0.012226130631700829
0.52,0.012236612308416245
0.524,0.012239184646509247
0.528,0.012239064443794622
0.532,0.012239809700625305
0.536,0.012243560025321645
0.54,0.012244161038894776
0.544,0.012241420417001297
0.548,0.01224110788994327
0.552,0.012242718606319262
0.556,0.012244569728124507
0.56,0.01224668529590193
0.5640000000000001,0.012249305715080783
0.5680000000000001,0.012252695431633246
0.5720000000000001,0.012250219255711943
0.5760000000000001,0.012247166106760434
0.58,0.012244810133553758
0.584,0.012245074579525938
0.588,0.012247430552732613
0.592,0.012245146701154713
0.596,0.01224348790369287
0.6,0.012239593335738977
0.604,0.012244305282152328
0.608,0.012246949741874107
0.612,0.012249714404310512
0.616,0.012249858647568064
0.62,0.012249690363767588
0.624,0.012248031566305745
0.628,0.012245988120157097
0.632,0.012246901660788257
0.636,0.012243752349665047
0.64,0.012242742646862186
0.644,0.012224447793696061
0.648,0.012222356266461563
0.652,0.012229279942824038
0.656,0.012225048807269193
0.66,0.012220433023027543
0.664,0.012224543955867763
0.668,0.012243223457720692
0.672,0.012271687460544203
0.676,0.012296040530527495
0.68,0.01231611438387009
0.684,0.012331019520483754
0.6880000000000001,0.012331620534056885
0.6920000000000001,0.012322340884487732
0.6960000000000001,0.012312099613201571
0.7000000000000001,0.012290559286740535
0.704,0.012268826635936097
0.708,0.012259162337680141
0.712,0.0122530319992342
0.716,0.012244377403781105
0.72,0.012238295146421012
0.724,0.012238751916736592
0.728,0.012242838809033887
0.732,0.012233006226977455
0.736,0.012213100657435336
0.74,0.01222379869903708
0.744,0.01222988095639717
0.748,0.012238198984249311
0.752,0.012242886890119738
0.756,0.012247358431103837
0.76,0.012249522079967112
0.764,0.01224937783670956
0.768,0.01224993076919684
0.772,0.012251733809916236
0.776,0.012246829539159482
0.78,0.012241444457544222
0.784,0.012244665890296208
0.788,0.012245843876899545
0.792,0.01224805560684867
0.796,0.012252863715433722
0.8,0.01225276755326202
0.804,0.012251180877428955
0.808,0.01224942591779541
0.812,0.01225216653968889
0.8160000000000001,0.012248632579878876
0.8200000000000001,0.012243704268579196
0.8240000000000001,0.01223384764597984
0.8280000000000001,0.012237020997645974
0.8320000000000001,0.012245627512013219
0.836,0.012246925701331183
0.84,0.012247911363591117
0.844,0.012254522512895565
0.848,0.012252935837062499
0.852,0.012249401877252484
0.856,0.012248416214992548
0.86,0.012246300647215125
0.864,0.012241204052114969
0.868,0.012225914266814502
0.872,0.012221899496145983
0.876,0.012233006226977455
0.88,0.012238174943706387
0.884,0.012242454160347083
0.888,0.012240098187140407
0.892,0.012241853146773951
0.896,0.012247791160876492
0.9,0.012250916431456775
0.904,0.01225033945842657
0.908,0.012244185079437702
0.912,0.012242886890119738
0.916,0.012244978417354236
0.92,0.01224622852558635
0.924,0.012249762485396363
0.928,0.012254282107466314
0.932,0.01225252714783277
0.936,0.012252455026203993
0.9400000000000001,0.012252743512719096
0.9440000000000001,0.012252743512719096
0.9480000000000001,0.012250315417883644
0.9520000000000001,0.012251325120686506
0.9560000000000001,0.01225271947217617
0.96,0.01224911339073738
0.964,0.012251445323401132
0.968,0.012259378702566468
0.972,0.012259450824195245
0.976,0.012256133229271559
0.98,0.012259931635053749
0.984,0.012261325986543415
0.988,0.012261854878487771
0.992,0.012260700932427359
0.996,0.01225911425659429
1.0,0.012255988986014007
1.004,0.01223435249738127
1.008,0.012233294713492559
1.012,0.012243896592922599
1.016,0.012253657053350256
1.02,0.012261398108172191
1.024,0.012259787391796197
1.028,0.012258970013336739
1.032,0.012260172040483002
1.036,0.012261542351429743
1.04,0.012260700932427359
1.044,0.012256565959044213
1.048,0.012250627944941674
1.052,0.012253368566835152
1.056,0.01225445039126679
1.06,0.01225317624249175
1.064,0.012254137864208762
1.068,0.01225308008032005
1.072,0.012254161904751686
1.076,0.01225901809442259
1.08,0.012263104986719885
1.084,0.012260460526998106
1.088,0.01225901809442259
1.092,0.012247983485219894
1.096,0.012240218389855034
1.1,0.012249233593452008
1.104,0.012252935837062499
1.108,0.012254931202125296
1.112,0.012255075445382846
1.116,0.012258849810622113
1.12,0.01226363387866424
1.124,0.012262984784005258
1.1280000000000001,0.01226171063523022
1.1320000000000001,0.012258657486278711
1.1360000000000001,0.01225252714783277
1.1400000000000001,0.01224038667365551
1.1440000000000001,0.012252911796519573
1.1480000000000001,0.012259378702566468
1.1520000000000001,0.012262816500204781
1.156,0.012268345825077591
1.16,0.01226582156807044
1.164,0.012261975081202397
1.168,0.012270797960455968
1.172,0.0122713989740291
1.176,0.012269716136024332
1.18,0.012268417946706368
1.184,0.012264234892237371
1.188,0.012267456324989358
1.192,0.012268634311592695
1.196,0.012269187244079976
1.2,0.012270413311769165
1.204,0.012270196946882837
1.208,0.012269379568423378
1.212,0.012269307446794603
1.216,0.012267552487161059
1.22,0.012269908460367735
1.224,0.012270870082084745
1.228,0.012250724107113375
1.232,0.012243439822607019
1.236,0.012258945972793815
1.24,0.01226906704136535
1.244,0.012270918163170596
1.248,0.012269716136024332
1.252,0.012274211717551355
1.256,0.012276519609672182
1.26,0.01227267312280414
1.264,0.012269235325165826
1.268,0.01226856218996392
1.272,0.012262816500204781
1.276,0.012262936702919407
1.28,0.01226779289259031
1.284,0.012267360162817657
1.288,0.01226495610852513
1.292,0.012267167838474254
1.296,0.012268345825077591
1.3,0.012264859946353429
1.304,0.012266638946529898
1.308,0.012268345825077591
1.312,0.012265941770785065
1.316,0.012260773054056134
1.32,0.012258248797048982
1.324,0.01226180679740192
1.328,0.012266951473587927
1.332,0.012272096149773933
1.336,0.01227510121763959
1.34,0.012270918163170596
1.344,0.012267720770961535
1.348,0.012268586230506844
1.352,0.012269091081908275
1.356,0.01226856218996392
1.36,0.012268225622362966
1.364,0.012252695431633246
1.368,0.012255604337327202
1.372,0.01226805733856249
1.3760000000000001,0.012278154366591099
1.3800000000000001,0.01228190469128744
1.3840000000000001,0.012279091947765185
1.3880000000000001,0.012274956974382039
1.3920000000000001,0.01227536566361177
1.3960000000000001,0.012279692961338316
1.4000000000000001,0.01227957275862369
1.4040000000000001,0.012274716568952787
1.408,0.012269716136024332
1.412,0.012272889487690467
1.416,0.012277216785417013
1.42,0.012278034163876473
1.424,0.0122782505287628
1.428,0.012271591298372502
1.432,0.012265509041012411
1.436,0.012258368999763607
1.44,0.012255580296784276
1.444,0.012262816500204781
1.448,0.012283034596804928
1.452,0.012293396070805717
1.456,0.012305416342268349
1.46,0.01234260706217373
1.464,0.012363570415604562
1.468,0.012361382726198362
1.472,0.012350059630480562
1.476,0.01233479388572302
1.48,0.012313950735006816
1.484,0.012297531044188861
1.488,0.012285582894355006
1.492,0.012275774352841499
1.496,0.012270557555026717
1.5,0.012269403608966303
1.504,0.012268706433221472
1.508,0.012269884419824809
1.512,0.012273394339091897
1.516,0.012275245460897142
1.52,0.012274908893296188
1.524,0.012273153933662644
1.528,0.012275485866326395
1.532,0.012274355960808907
1.536,0.01227363474452115
1.54,0.01226815350073419
1.544,0.012265629243727037
1.548,0.012268874717021948
1.552,0.012268586230506844
1.556,0.012266350460014796
1.56,0.01226723996010303
1.564,0.012267504406075208
1.568,0.012265749446441664
1.572,0.012269716136024332
1.576,0.012270822000998894
1.58,0.01226861027104977
1.584,0.01226586964915629
1.588,0.012260388405369329
1.592,0.012264932067982204
1.596,0.012269403608966303
1.6,0.012271230690228624
1.604,0.012271807663258829
1.608,0.012271687460544203
1.612,0.012269355527880454
1.616,0.012266230257300169
1.62,0.012261854878487771
1.624,0.012265148432868533
1.6280000000000001,0.012267360162817657
1.6320000000000001,0.01225125299905773
1.6360000000000001,0.012243391741521168
1.6400000000000001,0.01225759970239
1.6440000000000001,0.012265028230153905
1.6480000000000001,0.01226906704136535
1.6520000000000001,0.012269427649509229
1.6560000000000001,0.012269595933309705
1.6600000000000001,0.012266566824901123
1.6640000000000001,0.012266807230330376
1.668,0.012267696730418609
1.672,0.012265436919383635
1.676,0.012262936702919407
1.68,0.012262455892060903
1.684,0.012263417513777913
1.688,0.012266590865444047
1.692,0.012270269068511613
1.696,0.012271519176743727
1.7,0.012268466027792219
1.704,0.012267720770961535
1.708,0.012268586230506844
1.712,0.012269956541453585
1.716,0.012271278771314474
1.72,0.012262984784005258
1.724,0.012249401877252484
1.728,0.01226084517568491
1.732,0.012273610703978224
1.736,0.012279741042424167
1.74,0.012280293974911448
1.744,0.012282481664317647
1.748,0.01228363561037806
1.752,0.012284669353723845
1.756,0.012283467326577582
1.76,0.012280967110113354
1.764,0.012277216785417013
1.768,0.012274163636465506
1.772,0.012277913961161846
1.776,0.012277072542159463
1.78,0.012279644880252466
1.784,0.012283106718433703
1.788,0.01228601562412766
1.792,0.012286833002587118
1.796,0.012285582894355006
1.8,0.012287097448559298
1.804,0.012289910192081553
1.808,0.01228769846213243
1.812,0.01226829774399174
1.816,0.012258849810622113
1.82,0.012269403608966303
1.824,0.012278418812563276
1.828,0.012285534813269156
1.832,0.012287193610730999
1.836,0.012286592597157867
1.84,0.012287409975617326
1.844,0.012287313813445624
1.848,0.012284717434809696
1.852,0.012280173772196822
1.856,0.012276495569129256
1.86,0.012278274569305726
1.864,0.012282577826489349
1.868,0.012287914827018756
1.872,0.012292170003116528
1.8760000000000001,0.012288900489278692
1.8800000000000001,0.01228382793472146
1.8840000000000001,0.012286664718786642
1.8880000000000001,0.012289789989366928
1.8920000000000001,0.012288828367649916
1.8960000000000001,0.012288275435162635
1.9000000000000001,0.012284621272637995
1.9040000000000001,0.012282289339974245
1.9080000000000001,0.01229140070574292
1.9120000000000001,0.012292194043659454
1.9160000000000001,0.012291785354429723
1.92,0.012291112219227816
1.924,0.01228962170556645
1.928,0.01228971786773815
1.932,0.01229094393542734
1.936,0.012293516273520343
1.94,0.012294766381752456
1.944,0.01228875624602114
1.948,0.012267023595216702
1.952,0.012271687460544203
1.956,0.012279909326224643
1.96,0.01228313075897663
1.964,0.01229104009759904
1.968,0.012295030827724634
1.972,0.012298276301019545
1.976,0.012300415909339894
1.98,0.012302603598746091
1.984,0.012301449652685679
1.988,0.012296569422471851
1.992,0.012291280503028293
1.996,0.01229281909777551
2.0,0.012294165368179325
2.004,0.012296545381928925
2.008,0.012299478328165808
2.012,0.01229921388219363
2.016,0.012297074273873282
2.02,0.012296280935956748
2.024,0.012297795490161039
2.028,0.012295824165641168
2.032,0.012292001719316051
2.036,0.012286905124215895
2.04,0.012282938434633227
2.044,0.012289285137965495
2.048,0.012295607800754841
2.052,0.012297290638759608
2.056,0.012296569422471851
2.06,0.012297074273873282
2.064,0.012299646611966284
2.068,0.01230012742282479
2.072,0.012301978544630035
2.076,0.01230063227422622
2.08,0.012287145529645148
2.084,0.012269788257653107
2.088,0.012280582461426551
2.092,0.012290751611083938
2.096,0.012294141327636399
2.1,0.012291208381399518
2.104,0.012287986948647533
2.108,0.012287626340503652
2.112,0.012290342921854209
2.116,0.01228743401616025
2.12,0.012288852408192842
2.124,0.012290439084025908
2.128,0.012285895421413034
2.132,0.012287986948647533
2.136,0.012288515840591888
2.14,0.012293468192434492
2.144,0.01229789165233274
2.148,0.012297074273873282
2.152,0.012293997084378849
2.156,0.012296280935956748
2.16,0.012300944801284248
2.164,0.012302483396031466
2.168,0.012299526409251658
2.172,0.01227971700188124
2.176,0.01227952467753784
2.18,0.012286736840415419
2.184,0.01229190555714435
2.188,0.012296088611613345
2.192,0.012299430247079957
2.196,0.012297362760388385
2.2,0.01229793973341859
2.204,0.01229820417939077
2.208,0.012300896720198398
2.212,0.012301762179743709
2.216,0.012297675287446413
2.22,0.012298468625362947
2.224,0.012298925395678527
2.228,0.012300103382281864
2.232,0.012303661382634803
2.236,0.012304863409781066
2.24,0.012304815328695217
2.244,0.01230419027457916
2.248,0.012303252693405074
2.2520000000000002,0.012302218950059288
2.2560000000000002,0.012302892085261195
2.2600000000000002,0.012298636909163423
2.2640000000000002,0.012291785354429723
2.2680000000000002,0.01228551077272623
2.2720000000000002,0.01228368369146391
2.2760000000000002,0.012282289339974245
2.2800000000000002,0.012303348855576775
2.2840000000000003,0.012335875710154657
2.2880000000000003,0.012367272659215053
2.2920000000000003,0.012393957661862095
2.2960000000000003,0.012408766636304056
2.3000000000000003,0.012405256717036968
2.3040000000000003,0.012385230944780223
2.308,0.012344746670494079
2.312,0.012328351020219048
2.316,0.012320249357253236
2.32,0.01231346992414831
2.324,0.012308685856106184
2.328,0.012308445450676931
2.332,0.012305464423354198
2.336,0.012302339152773914
2.34,0.012299093679479003
2.344,0.012300367828254043
2.348,0.012299574490337509
2.352,0.012294766381752456
2.356,0.012296641544100626
2.36,0.012298612868620499
2.364,0.012298684990249274
2.368,0.012299406206537033
2.372,0.012297122354959132
2.376,0.012296136692699196
2.38,0.01229839650373417
2.384,0.012299286003822405
2.388,0.012299959139024314
2.392,0.012296329017042598
2.396,0.01229135262465707
2.4,0.01229418940872225
2.404,0.01229479042229538
2.408,0.012298035895590292
2.412,0.012297290638759608
2.416,0.01229606457107042
2.42,0.012291184340856591
2.424,0.012289477462308898
2.428,0.012291280503028293
2.432,0.012292386368002855
2.436,0.012292145962573603
2.44,0.012290727570541012
2.444,0.012288612002763589
2.448,0.012287506137789027
2.452,0.012290967975970265
2.456,0.012295800125098243
2.46,0.012295728003469467
2.464,0.012293756678949596
2.468,0.012295920327812869
2.472,0.01229911772002193
2.476,0.012297242557673758
2.48,0.012295391435868512
2.484,0.012282698029203974
2.488,0.012262576094775528
2.492,0.01226810541964834
2.496,0.012273778987778702
2.5,0.012279644880252466
2.504,0.012285414610554529
2.508,0.012290150597510806
2.512,0.012287626340503652
2.516,0.012282962475176152
2.52,0.012284452988837518
2.524,0.012285318448382827
2.528,0.012279043866679334
2.532,0.012256806364473466
2.536,0.012267672689875685
2.54,0.012279741042424167
2.544,0.012286760880958343
2.548,0.0122918574760585
2.552,0.012293155665376464
2.556,0.012293612435692044
2.56,0.012293756678949596
2.564,0.012296497300843074
2.568,0.012297338719845459
2.572,0.012296785787358178
2.576,0.012293035462661837
2.58,0.012296040530527495
2.584,0.01230053611205452
2.588,0.012303252693405074
2.592,0.01230596927475563
2.596,0.012307459788416995
2.6,0.012304382598922562
2.604,0.012301738139200782
2.608,0.012301978544630035
2.612,0.012304647044894739
2.616,0.012302291071688063
2.62,0.012297122354959132
2.624,0.01229885327404975
2.628,0.012302627639289018
2.632,0.01230053611205452
2.636,0.012304767247609366
2.64,0.012307051099187265
2.644,0.012307988680361351
2.648,0.012305728869326377
2.652,0.012303661382634803
2.656,0.012302723801460719
2.66,0.012303445017748476
2.664,0.012294574057409054
2.668,0.012275317582525919
2.672,0.012286496434986166
2.676,0.012300680355312071
2.68,0.012309094545335913
2.684,0.012309455153479792
2.688,0.012305849072041002
2.692,0.012305873112583928
2.696,0.01230642604507121
2.7,0.01230981576162367
2.704,0.01230839736959108
2.708,0.012304502801637187
2.712,0.01229916580110778
2.716,0.012300223584996491
2.72,0.01230332481503385
2.724,0.012304863409781066
2.728,0.012309551315651493
2.732,0.012310873545512382
2.736,0.012310897586055308
2.74,0.012308421410134007
2.744,0.012305224017924946
2.748,0.012309575356194419
2.7520000000000002,0.012309094545335913
2.7560000000000002,0.012303180571776299
2.7600000000000002,0.012306377963985359
2.7640000000000002,0.012305392301725422
2.7680000000000002,0.012305728869326377
2.7720000000000002,0.012308421410134007
2.7760000000000002,0.01230981576162367
2.7800000000000002,0.012310200410310475
2.7840000000000003,0.01231159476180014
2.7880000000000003,0.01230834928850523
2.7920000000000003,0.012306906855929714
2.7960000000000003,0.012310248491396326
2.8000000000000003,0.012305921193669779
2.8040000000000003,0.012307772315475024
2.8080000000000003,0.012309407072393941
2.8120000000000003,0.012308421410134007
2.816,0.012306377963985359
2.82,0.01230666645050046
2.824,0.012308782018277885
2.828,0.012308709896649108
2.832,0.012308613734477407
2.836,0.012311378396913814
2.84,0.012310056167052923
2.844,0.012303084409604597
2.848,0.01230373350426358
2.852,0.012311065869855784
2.856,0.01231397477554974
2.86,0.012311402437456738
2.864,0.012309431112936867
2.868,0.012307868477646724
2.872,0.012313349721433685
2.876,0.012318013586761186
2.88,0.012319287735536224
2.884,0.012314888316180902
2.888,0.012303925828606982
2.892,0.012273057771490943
2.896,0.012276567690758033
2.9,0.01229505486826756
2.904,0.01230200258517296
2.908,0.012309022423707138
2.912,0.01231565761355451
2.916,0.012317508735359755
2.92,0.012317340451559279
2.924,0.012312796788946404
2.928,0.012310873545512382
2.932,0.012311907288858169
2.936,0.012311378396913814
2.94,0.012317220248844652
2.944,0.012314575789122872
2.948,0.01231346992414831
2.952,0.012318686721963092
2.956,0.012318542478705542
2.96,0.012316090343327165
2.964,0.012316859640700773
2.968,0.012315008518895528
2.972,0.012308181004704754
2.976,0.012302387233859765
2.98,0.0122987090307922
2.984,0.012303805625892355
2.988,0.012306209680184881
2.992,0.0123103206130251
2.996,0.012315393167582333
3.0,0.012317821262417783
3.004,0.012311979410486945
3.008,0.012314263262064844
3.012,0.012315849937897912
3.016,0.012312748707860553
3.02,0.012312075572658645
3.024,0.01231058505899728
3.028,0.012312171734830346
3.032,0.01231738853264513
3.036,0.012320441681596638
3.04,0.012323542911633996
3.044,0.012323350587290595
3.048,0.012323206344033043
3.052,0.012319359857165
3.056,0.0123146959918375
3.06,0.01231839823544799
3.064,0.012322821695346238
3.068,0.01232123501951317
3.072,0.012317628938074381
3.076,0.012323566952176922
3.08,0.012325418073982167
3.084,0.01232570656049727
3.088,0.012329889614966266
3.092,0.01232950496627946
3.096,0.012323542911633996
3.1,0.01232291785751794
3.104,0.012324119884664203
3.108,0.012328687587820002
3.112,0.012322220681773107
3.116,0.012296353057585524
3.12,0.0122987090307922
3.124,0.01231296507274688
3.128,0.012323590992719846
3.132,0.012327870209360544
3.136,0.01231976854639473
3.14,0.01231524892432478
3.144,0.012312628505145928
3.148,0.012313758410663414
3.152,0.012335058331695197
3.156,0.012362632834430476
3.16,0.012376504227698353
3.164,0.012402011243742057
3.168,0.012431364746653803
3.172,0.012433336071173676
3.176,0.012424032381061599
3.18,0.01240321327088832
3.184,0.012374484822092632
3.188,0.01235260792803064
3.192,0.01233758258870235
3.196,0.012326908587643534
3.2,0.012320345519424937
3.204,0.012316186505498867
3.208,0.01231606630278424
3.212,0.012321018654626844
3.216,0.01232515362800999
3.22,0.012327822128274693
3.224,0.012325466155068018
3.228,0.012323639073805697
3.232,0.012325682519954344
3.236,0.012323494830548145
3.24,0.012323134222404266
3.244,0.012324768979323185
3.248,0.012312844870032254
3.2520000000000002,0.012296449219757224
3.2560000000000002,0.012307555950588696
3.2600000000000002,0.012313205478176133
3.2640000000000002,0.01231794146513241
3.2680000000000002,0.012319431978793776
3.2720000000000002,0.012319119451735748
3.2760000000000002,0.012319912789652282
3.2800000000000002,0.012318494397619692
3.2840000000000003,0.012322773614260388
3.2880000000000003,0.01232484110095196
3.2920000000000003,0.012319672384223029
3.2960000000000003,0.012315922059526687
3.3000000000000003,0.012318157830018737
3.3040000000000003,0.012319840668023507
3.3080000000000003,0.01232068208702589
3.3120000000000003,0.012318278032733363
3.3160000000000003,0.012316306708213492
3.3200000000000003,0.012312941032203956
3.3240000000000003,0.01231322951871906
3.3280000000000003,0.012313109316004432
3.332,0.01231378245120634
3.336,0.012310056167052923
3.34,0.012303805625892355
3.344,0.01230611351801318
3.348,0.012307604031674546
3.352,0.012307267464073592
3.356,0.012307099180273116
3.36,0.01230428643675086
3.364,0.012302242990602213
3.368,0.012304070071864534
3.372,0.012305825031498078
3.376,0.012305632707154675
3.38,0.012305103815210319
3.384,0.012286568556614941
3.388,0.012278899623421782
3.392,0.012292891219404285
3.396,0.012301858341915408
3.4,0.012308132923618903
3.404,0.012311137991484561
3.408,0.012310849504969457
3.412,0.0123125083024313
3.416,0.012315873978440837
3.42,0.012318157830018737
3.424,0.012319047330106973
3.428,0.012311859207772318
3.432,0.012316186505498867
3.436,0.012315369127039406
3.44,0.012317701059703158
3.444,0.012323615033262772
3.448,0.01232488918203781
3.452,0.012324576654979782
3.456,0.012320946532998069
3.46,0.01232149946548535
3.464,0.012323999681949577
3.468,0.01232524979018169
3.472,0.012325369992896316
3.476,0.012326187371355775
3.48,0.01233214942600124
3.484,0.012329144358135582
3.488,0.012327725966102992
3.492,0.01232854334456245
3.496,0.012328976074335106
3.5,0.012329649209537013
3.504,0.012324071803578352
3.508,0.012323086141318416
3.512,0.012325922925383597
3.516,0.012326139290269924
3.52,0.012309383031851017
3.524,0.012311137991484561
3.528,0.012318830965220644
3.532,0.01232712495252986
3.536,0.012333303372061653
3.54,0.01233702965621507
3.544,0.012331452250256407
3.548,0.012331836898943212
3.552,0.012332534074688045
3.556,0.012334072669435262
3.56,0.01233383226400601
3.564,0.012324624736065633
3.568,0.012327461520130815
3.572,0.012330105979852592
3.576,0.012332269628715867
3.58,0.01233489004789472
3.584,0.012333591858576756
3.588,0.012329168398678508
3.592,0.012330634871796949
3.596,0.012330081939309668
3.6,0.012328254858047349
3.604,0.012327774047188843
3.608,0.01231423922152192
3.612,0.012304142193493309
3.616,0.012315393167582333
3.62,0.01232347079000522
3.624,0.012330610831254024
3.628,0.012334986210066422
3.632,0.012334192872149888
3.636,0.01232976941225164
3.64,0.012323326546747669
3.644,0.01232880779053463
3.648,0.012328591425648301
3.652,0.012325778682126046
3.656,0.012323566952176922
3.66,0.012327413439044964
3.664,0.012333327412604579
3.668,0.01233219750708709
3.672,0.012329601128451162
3.676,0.012330370425824771
3.68,0.01233022618256722
3.684,0.012329577087908238
3.688,0.012331860939486138
3.692,0.012332341750344642
3.696,0.012322893816975013
3.7,0.012318205911104588
3.704,0.012321932195258003
3.708,0.012323855438692025
3.712,0.012321571587114125
3.716,0.012323590992719846
3.72,0.012326908587643534
3.724,0.012332125385458316
3.728,0.012336476723727789
3.732,0.012336188237212685
3.736,0.012334817926265946
3.74,0.012330634871796949
3.744,0.01231108991039871
3.748,0.012314936397266753
3.7520000000000002,0.012326307574070402
3.7560000000000002,0.01232931264193606
3.7600000000000002,0.012330130020395519
3.7640000000000002,0.012332630236859746
3.7680000000000002,0.012334914088437645
3.7720000000000002,0.012336332480470237
3.7760000000000002,0.012336861372414592
3.7800000000000002,0.012335707426354179
3.7840000000000003,0.012337318142730171
3.7880000000000003,0.012334096709978187
3.7920000000000003,0.012331764777314437
3.7960000000000003,0.012334553480293766
3.8000000000000003,0.012334673683008394
3.8040000000000003,0.012335779547982956
3.8080000000000003,0.012339890480823176
3.8120000000000003,0.012343472521719039
3.8160000000000003,0.012345876576011565
3.8200000000000003,0.012343256156832712
3.8240000000000003,0.012342775345974206
3.8280000000000003,0.012342366656744477
3.8320000000000003,0.012335779547982956
3.8360000000000003,0.012335178534409824
3.84,0.0123353468182103
3.844,0.012336813291328741
3.848,0.012339073102363717
3.852,0.012338472088790586
3.856,0.012334866007351796
3.86,0.012331043561026678
3.864,0.012334192872149888
3.868,0.012332077304372465
3.872,0.012326523938956729
3.876,0.012320898451912218
3.88,0.01232099461408392
3.884,0.012334264993778665
3.888,0.012339073102363717
3.892,0.012338399967161809
3.896,0.01233895289964909
3.9,0.012341525237742092
3.904,0.01234215029185815
3.908,0.012339121183449566
3.912,0.012339025021277867
3.916,0.012339626034850998
3.92,0.012338159561732556
3.924,0.01233214942600124
3.928,0.012338063399560855
3.932,0.012341501197199168
3.936,0.012338880778020315
3.94,0.012335467020924928
3.944,0.012337919156303303
3.948,0.012340635737653859
3.952,0.012342751305431282
3.956,0.012342991710860535
3.96,0.012342366656744477
3.964,0.012345131319180882
3.968,0.012340707859282634
3.972,0.012339577953765148
3.976,0.012340804021454335
3.98,0.012343472521719039
3.984,0.01234453030560775
3.988,0.012346693954471025
3.992,0.012346165062526669
3.996,0.012346044859812043
4.0,0.012345011116466256
4.0040000000000004,0.012340563616025082
4.008,0.012339674115936849
4.0120000000000005,0.01232803849316102
4.016,0.012315801856812062
4.0200000000000005,0.012314816194552125
4.024,0.012319119451735748
4.0280000000000005,0.012329985777137967
4.032,0.01235082892785417
4.0360000000000005,0.012375181997837464
4.04,0.012399126378591026
4.0440000000000005,0.012420618623966212
4.048,0.012431052219595775
4.0520000000000005,0.012425306529836637
4.056,0.012408862798475757
4.0600000000000005,0.012392515229286579
4.064,0.012378283227874824
4.0680000000000005,0.012364267591349395
4.072,0.012351910752285807
4.0760000000000005,0.012346453549041772
4.08,0.012347078603157828
4.0840000000000005,0.012343809089319993
4.088,0.012339626034850998
4.0920000000000005,0.012338616332048136
4.096,0.012336789250785817
4.1,0.012335491061467852
4.104,0.012308229085790604
4.108,0.012296208814327973
4.112,0.012310801423883607
4.116,0.012323278465661818
4.12,0.012329577087908238
4.124,0.012333543777490906
4.128,0.01233986644028025
4.132,0.012341260791769915
4.136,0.012339265426707118
4.14,0.012341957967514748
4.144,0.012343592724433666
4.148,0.01233808744010378
4.152,0.012338159561732556
4.156,0.012335995912869283
4.16,0.012337462385987723
4.164,0.012339049061820791
4.168,0.012338255723904257
4.172,0.012336789250785817
4.176,0.012334577520836693
4.18,0.012334866007351796
4.184,0.012334625601922543
4.188,0.012335875710154657
4.192,0.012332510034145119
4.196,0.012333543777490906
4.2,0.012340010683537801
4.204,0.012337895115760378
4.208,0.012336741169699966
4.212,0.012340034724080727
4.216,0.012340635737653859
4.22,0.012336236318298536
4.224,0.012338760575305687
4.228,0.012340755940368485
4.232,0.012342078170229375
4.236,0.012334577520836693
4.24,0.012315825897354986
4.244,0.012323062100775491
4.248,0.012331668615142736
4.252,0.012336645007528265
4.256,0.012340082805166578
4.26,0.01233945775105052
4.264,0.012335154493866898
4.268,0.012333615899119682
4.272,0.012337654710331125
4.276,0.012344217778549722
4.28,0.01234073189982556
4.284,0.01233657288589949
4.288,0.012342462818916178
4.292,0.01234717476532953
4.296,0.012348521035733345
4.3,0.01234854507627627
4.304,0.012349170130392327
4.308,0.012346020819269117
4.312,0.012343688886605367
4.316,0.012343809089319993
4.32,0.012349098008763552
4.324,0.01235042023862444
4.328,0.0123284952634766
4.332,0.012323807357606175
4.336,0.01233438519649329
4.34,0.012340996345797738
4.344,0.012343328278461487
4.348,0.012345083238095033
4.352,0.012345491927324762
4.356,0.012349242252021103
4.36,0.012349723062879608
4.364,0.012348689319533823
4.368,0.01234443414343605
4.372,0.012348016184331914
4.376,0.012351237617083899
4.38,0.012351550144141929
4.384,0.012352319441515536
4.388,0.01235087700894002
4.392,0.012346165062526669
4.396,0.012345876576011565
4.4,0.012345996778726193
4.404,0.012345828494925715
4.408,0.012351213576540974
4.412,0.012352920455088668
4.416,0.012346405467955922
4.42,0.012350083671023486
4.424,0.012351453981970227
4.428,0.012354459049835885
4.432,0.012355468752638746
4.436,0.01235356954974765
4.44,0.01235717563118644
4.444,0.012359916253079922
4.448,0.012358786347562434
4.452,0.01235835361778978
4.456,0.012359627766564818
4.46,0.012353833995719828
4.464,0.012355540874267521
4.468,0.012358089171817601
4.472,0.012359627766564818
4.476,0.01236164717217054
4.48,0.012358930590819986
4.484,0.012355468752638746
4.488,0.012360949996425709
4.492,0.012364916686008377
4.496,0.01236388294266259
4.5,0.01236429163189232
4.5040000000000004,0.012354266725492483
4.508,0.012342919589231758
4.5120000000000005,0.012353906117348604
4.516,0.012358906550277061
4.5200000000000005,0.012358233415075153
4.524,0.012360421104481352
4.5280000000000005,0.01236515709143763
4.532,0.012370373889252412
4.5360000000000005,0.012373306835489293
4.54,0.012371455713684048
4.5440000000000005,0.012370421970338262
4.548,0.012369893078393906
4.5520000000000005,0.012368354483646688
4.556,0.012370542173052888
4.5600000000000005,0.012372898146259564
4.564,0.01237123934879772
4.5680000000000005,0.012371359551512346
4.572,0.01235402632006323
4.5760000000000005,0.012342318575658626
4.58,0.012356959266300113
4.5840000000000005,0.012367969834959885
4.588,0.012373306835489293
4.5920000000000005,0.012372729862459087
4.596,0.012371359551512346
4.6000000000000005,0.012370253686537784
4.604,0.01236876317287642
4.6080000000000005,0.012368402564732539
4.612,0.012361791415428092
4.616,0.01236150292891299
4.62,0.012367969834959885
4.624,0.012372369254315209
4.628,0.012372369254315209
4.632,0.012369219943192
4.636,0.01237119126771187
4.64,0.012372393294858133
4.644,0.012375470484352566
4.648,0.012379220809048908
4.652,0.012377057160185634
4.656,0.012374100173405827
4.66,0.012369123781020298
4.664,0.012364003145377216
4.668,0.01236972479459343
4.672,0.012374484822092632
4.676,0.01237438865992093
4.68,0.01237301834897419
4.684,0.01235881038810536
4.688,0.012347102643700755
4.692,0.012359387361135565
4.696,0.01236748902410138
4.7,0.012372032686714255
4.704,0.012370109443280233
4.708,0.01236748902410138
4.712,0.012367416902472604
4.716,0.012365830226639537
4.72,0.012364580118407423
4.724,0.012369171862106149
4.728,0.012367296699757977
4.732,0.01236580618609661
4.736,0.012371479754226974
4.74,0.012373619362547321
4.744,0.012372369254315209
4.748,0.012371720159656227
4.752,0.012371167227168946
4.756,0.012373571281461472
4.76,0.012378860200905029
4.764,0.012377321606157812
4.768,0.012373763605804873
4.772,0.012369844997308055
4.776,0.012371311470426496
4.78,0.012377249484529037
4.784,0.01238265860668722
4.788,0.012384221241977363
4.792,0.012385567512381178
4.796,0.012375518565438417
4.8,0.012374076132862902
4.804,0.012380134349680069
4.808,0.01238018243076592
4.812,0.01238215375528579
4.816,0.0123808315254249
4.82,0.012362200104657821
4.824,0.012362680915516327
4.828,0.012376936957471009
4.832,0.012388067728845405
4.836,0.012389389958706294
4.84,0.012388284093731732
4.844,0.012385519431295327
4.848,0.012389029350562415
4.852,0.012389341877620443
4.856,0.012385880039439206
4.86,0.012383740431118858
4.864,0.01237535028163794
4.868,0.012377153322357335
4.872,0.012377610092672915
4.876,0.012370494091967037
4.88,0.012364267591349395
4.884,0.012362632834430476
4.888,0.012372513497572759
4.892,0.012405136514322342
4.896,0.012441966626083845
4.9,0.012468026574614833
4.904,0.012486441630495584
4.908,0.01248057573802182
4.912,0.012468579507102114
4.916,0.012455597613922469
4.92,0.012434033246918509
4.924,0.012409415730963038
4.928,0.012391385323769091
4.932,0.012363402131804084
4.936,0.012357103509557665
4.94,0.012364988807637152
4.944,0.012366599524013144
4.948,0.012370325808166561
4.952,0.012369508429707101
4.956,0.012368282362017913
4.96,0.012373402997660994
4.964,0.012373907849062424
4.968,0.012375614727610118
4.972,0.012380014146965442
4.976,0.012377249484529037
4.98,0.012375181997837464
4.984,0.012378090903531421
4.988,0.012380302633480545
4.992,0.012382033552571163
4.996,0.012380903647053677
5.0,0.012370974902825543
5.0040000000000004,0.012371071064997245
5.008,0.012377465849415363
5.0120000000000005,0.012379100606334282
5.016,0.012381889309313613
5.0200000000000005,0.01237758605212999
5.024,0.012372585619201536
5.0280000000000005,0.012373643403090247
5.032,0.012374220376120453
5.0360000000000005,0.01237698503855686
5.04,0.012379509295564011
5.0440000000000005,0.012360445145024277
5.048,0.012355011982323166
5.0520000000000005,0.012367200537586276
5.056,0.012373042389517116
5.0600000000000005,0.012376287862812026
5.064,0.012374653105893108
5.0680000000000005,0.012371095105540169
5.072,0.012373643403090247
5.0760000000000005,0.012376816754756381
5.08,0.012377057160185634
5.0840000000000005,0.012376287862812026
5.088,0.01237063833522459
5.0920000000000005,0.012366695686184846
5.096,0.012371744200199151
5.1000000000000005,0.012373979970691201
5.104,0.012376936957471009
5.1080000000000005,0.012373691484176098
5.112,0.012364772442750825
5.1160000000000005,0.012368931456676896
5.12,0.012370662375767514
5.124,0.012369075699934447
5.128,0.01236982095676513
5.132,0.012365950429354162
5.136,0.012365782145553686
5.14,0.012371575916398675
5.144,0.012374436741006781
5.148,0.012377345646700738
5.152,0.012375879173582297
5.156,0.01237489351132236
5.16,0.012375879173582297
5.164,0.012371960565085478
5.168,0.012374316538292154
5.172,0.012377201403443186
5.176,0.012374244416663379
5.18,0.012356742901413784
5.184,0.012360156658509175
5.188,0.012370782578482141
5.192,0.012376335943897877
5.196,0.012379028484705505
5.2,0.012376624430412979
5.204,0.01237484543023651
5.208,0.012379990106422517
5.212,0.012381384457912183
5.216,0.012382754768858922
5.22,0.012383427904060829
5.224,0.012381504660626808
5.228,0.012385134782608522
5.232,0.012389029350562415
5.236,0.012389774607393099
5.24,0.012391433404854942
5.244,0.012390760269653035
5.248,0.012386192566497235
5.252,0.012390351580423306
5.256,0.01239621747289707
5.26,0.012397082932442379
5.264,0.01239311624285971
5.268,0.012387538836901048
5.272,0.012388476418075134
5.276,0.012387562877443975
5.28,0.012391529567026643
5.284,0.01239261139145828
5.288,0.012389197634362893
5.292,0.012370758537939215
5.296,0.012374412700463855
5.3,0.012385182863694373
5.304,0.012391433404854942
5.308,0.012394366351091824
5.312,0.012392923918516308
5.316,0.012389990972279425
5.32,0.012389269755991668
5.324,0.012387274390928871
5.328,0.012385904079982132
5.332,0.012384557809578317
5.336,0.012383716390575932
5.34,0.012389125512734116
5.344,0.012394318270005974
5.348,0.012396121310725369
5.352,0.012392827756344607
5.356,0.012389558242506772
5.36,0.012388668742418537
5.364,0.012391529567026643
5.368,0.012394318270005974
5.372,0.012395255851180058
5.376,0.01239585686475319
5.38,0.012388837026219013
5.384,0.01238479821500757
5.388,0.012387923485587853
5.392,0.012390856431824736
5.396,0.012392034418428073
5.4,0.01239128916159739
5.404,0.012371407632598197
5.408,0.01237297026788834
5.412,0.012386384890840636
5.416,0.012395207770094209
5.42,0.0123991023380481
5.424,0.012398068594702315
5.428,0.012397395459500407
5.432,0.012402227608628386
5.436,0.012404727825092613
5.44,0.012404799946721388
5.444,0.012401818919398656
5.448,0.012395640499866863
5.452,0.012399775473250009
5.456,0.012402948824916143
5.46,0.012402996906001993
5.464,0.01240326135197417
5.468,0.012398501324474969
5.472,0.012397707986558435
5.476,0.012402083365370834
5.48,0.012404583581835061
5.484,0.012405473081923295
5.488,0.012403189230345396
5.492,0.012398405162303268
5.496,0.012395736662038564
5.5,0.012398333040674493
5.5040000000000004,0.012398116675788166
5.508,0.01239905425696225
5.5120000000000005,0.012397299297328706
5.516,0.012394414432177675
5.5200000000000005,0.012401217905825525
5.524,0.012402924784373218
5.5280000000000005,0.012403766203375601
5.532,0.012400905378767495
5.5360000000000005,0.012392370986029027
5.54,0.012373643403090247
5.5440000000000005,0.012384702052835869
5.548,0.012398573446103745
5.5520000000000005,0.012401314067997224
5.556,0.012396794445927275
5.5600000000000005,0.012391072796711063
5.564,0.012393140283402635
5.5680000000000005,0.012395352013351759
5.572,0.012399583148906606
5.5760000000000005,0.012402347811343011
5.58,0.01240220356808546
5.5840000000000005,0.012398260919045716
5.588,0.012398934054247624
5.5920000000000005,0.012401410230168925
5.596,0.012405473081923295
5.6000000000000005,0.012406338541468605
5.604,0.012403117108716619
5.6080000000000005,0.01239982355433586
5.612,0.01240398256826193
5.6160000000000005,0.012403790243918527
5.62,0.012402948824916143
5.6240000000000006,0.01240544904138037
5.628,0.012406218338753978
5.632,0.01240818966327385
5.636,0.012413045852944754
5.64,0.012413430501631557
5.644,0.012410762001366853
5.648,0.012400544770623616
5.652,0.012379389092849385
5.656,0.012386553174641114
5.66,0.012399895675964634
5.664,0.012405112473779416
5.668,0.012405809649524249
5.672,0.012404391257491659
5.676,0.012407396325357317
5.68,0.012414704650406597
5.684,0.012418527096731713
5.688,0.012417565475014703
5.692,0.012418719421075116
5.696,0.012412084231227742
5.7,0.012415425866694354
5.704,0.012412156352856519
5.708,0.01241275736642965
5.712,0.012406675109069558
5.716,0.012399342743477353
5.72,0.012393044121230934
5.724,0.0123922507833144
5.728,0.012410353312137124
5.732,0.012445692910237262
5.736,0.012476801372782554
5.74,0.01250194778068238
5.744,0.012522839012484433
5.748,0.012524618012660903
5.752,0.012511539957309558
5.756,0.012491802671567917
5.76,0.01246312230385808
5.764,0.012437086395870017
5.768,0.01242727785435651
5.772,0.012422517826857308
5.776,0.012418166488587835
5.78,0.012414271920633942
5.784,0.012400905378767495
5.788,0.012381384457912183
5.792,0.01239042370205208
5.796,0.012402636297858115
5.8,0.012407877136215821
5.804,0.012407059757756363
5.808,0.012401265986911374
5.812,0.012407155919928064
5.816,0.012413045852944754
5.82,0.012414464244977344
5.824,0.012415834555924083
5.828,0.012414295961176868
5.832,0.012415233542350952
5.836,0.012420570542880361
5.84,0.012418575177817564
5.844,0.012413646866517886
5.848,0.012414320001719792
5.852,0.012410545636480527
5.856,0.012408333906531403
5.86,0.012411843825798491
5.864,0.01241102644733903
5.868,0.012409872501278618
5.872,0.012407059757756363
5.876,0.01240229973025716
5.88,0.0124104254337659
5.884,0.012410858163538555
5.888,0.012410112906707871
5.892,0.012413767069232511
5.896,0.012406266419839829
5.9,0.012386288728668935
5.904,0.012396842527013126
5.908,0.012405785608981324
5.912,0.012407949257844598
5.916,0.012409439771505965
5.92,0.012406146217125203
5.924,0.012408670474132355
5.928,0.012409704217478142
5.932,0.012408958960647459
5.936,0.012406987636127588
5.94,0.012404727825092613
5.944,0.012398309000131566
5.948,0.012402131446456684
5.952,0.012402732460029816
5.956,0.012400737094967019
5.96,0.012402732460029816
5.964,0.012404463379120434
5.968,0.012405280757579894
5.972,0.012407564609157793
5.976,0.012406987636127588
5.98,0.012407949257844598
5.984,0.012409824420192768
5.988,0.012405304798122819
5.992,0.01240910320390501
5.996,0.01241001674453617
6.0,0.012409079163362084
6.0040000000000004,0.012415257582893878
6.008,0.012405713487352548
6.0120000000000005,0.012385495390752402
6.016,0.012399991838136335
6.0200000000000005,0.01240951189313474
6.024,0.012416002839724561
6.0280000000000005,0.012420859029395465
6.032,0.012420859029395465
6.0360000000000005,0.012422734191743634
6.04,0.012421171556453493
6.0440000000000005,0.012425402692008338
6.048,0.01243143686828258
6.0520000000000005,0.0124287924085608
6.056,0.012424994002778609
6.0600000000000005,0.012430595449280196
6.064,0.012431148381767477
6.0680000000000005,0.012430787773623598
6.072,0.012428383719331072
6.0760000000000005,0.012426027746124396
6.08,0.01242819139498767
6.0840000000000005,0.012428576043674474
6.088,0.012430451206022644
6.0920000000000005,0.012432326368370815
6.096,0.012428455840959847
6.1000000000000005,0.012422301461970979
6.104,0.012426244111010723
6.1080000000000005,0.012429994435707064
6.112,0.012431605152083056
6.1160000000000005,0.012432518692714216
6.12,0.012426676840783378
6.1240000000000006,0.0124241285432333
6.128,0.012428912611275426
6.132000000000001,0.012426893205669705
6.136,0.01242655663806875
6.140000000000001,0.012429008773447128
6.144,0.012413310298916931
6.148,0.01240321327088832
6.152,0.012416339407325514
6.156,0.012425979665038545
6.16,0.01243143686828258
6.164,0.01243138878719673
6.168,0.012425667137980517
6.172,0.012426171989381948
6.176,0.012426388354268274
6.18,0.012423912178346973
6.184,0.01242275823228656
6.188,0.012424777637892282
6.192,0.012427422097614061
6.196,0.012427398057071135
6.2,0.01242960978702026
6.204,0.012431364746653803
6.208,0.012431100300681626
6.212,0.012424152583776224
6.216,0.012426700881326302
6.22,0.012431004138509925
6.224,0.012432999503572722
6.228,0.012431989800769861
6.232,0.012426268151553649
6.236,0.012422133178170503
6.24,0.012424609354091806
6.244,0.01243148494936843
6.248,0.012435115071350145
6.252,0.012432999503572722
6.256,0.012420810948309614
6.26,0.01241083412299563
6.264,0.012426268151553649
6.268,0.0124333601117166
6.272,0.012435259314607696
6.276,0.012433840922575106
6.28,0.012427758665215014
6.284,0.01243239848999959
6.288,0.012437591247271448
6.292,0.012439923179935197
6.296,0.012440548234051255
6.3,0.012436797909354914
6.304,0.0124333601117166
6.308,0.01243367263877463
6.312,0.012436749828269063
6.316,0.012437182558041718
6.32,0.01243650942283981
6.324,0.012431677273711833
6.328,0.012430306962765092
6.332,0.012435018909178443
6.336,0.012441197328710237
6.34,0.0124423031936848
6.344,0.012439562571791319
6.348,0.01243408132800436
6.352,0.012435908409266679
6.356,0.012436701747183213
6.36,0.012435884368723754
6.364,0.01243458617940579
6.368,0.012426292192096573
6.372,0.012409271487705487
6.376,0.01241905598867607
6.38,0.012425018043321535
6.384,0.012433432233345377
6.388,0.012436220936324707
6.392,0.012431821516969385
6.396,0.012435403557865248
6.4,0.012438264382473354
6.404,0.01243549972003695
6.408,0.012435740125466202
6.412,0.012434009206375583
6.416,0.012430595449280196
6.42,0.012430715651994821
6.424,0.012434658301034565
6.428,0.01243920196364744
6.432,0.012442231072056022
6.436,0.012433119706287347
6.44,0.012429056854532978
6.444,0.012437711449986073
6.448,0.012446486248153794
6.452,0.01244518805883583
6.456,0.01244194258554092
6.46,0.012441005004366835
6.464,0.01244509189666413
6.468,0.012449298991676051
6.472,0.012446221802181617
6.476,0.012447592113128356
6.48,0.012447087261726926
6.484,0.012447303626613254
6.488,0.012449106667332649
6.492,0.012449563437648229
6.496,0.012447039180641075
6.5,0.01245057314045109
6.5040000000000004,0.012431316665567953
6.508,0.012424609354091806
6.5120000000000005,0.01243965873396302
6.516,0.012444563004719774
6.5200000000000005,0.012437759531071924
6.524,0.012427446138156986
6.5280000000000005,0.012423094799887513
6.532,0.012432542733257142
6.5360000000000005,0.012451222235110072
6.54,0.01247915734598923
6.5440000000000005,0.012498822510102096
6.548,0.012513799768344535
6.5520000000000005,0.012530604107849293
6.556,0.01253315240539937
6.5600000000000005,0.012526493175009073
6.564,0.01251250157902657
6.5680000000000005,0.012491802671567917
6.572,0.012468964155788917
6.5760000000000005,0.01245783338441452
6.58,0.012453602248859672
6.5840000000000005,0.012451150113481295
6.588,0.0124492509105902
6.5920000000000005,0.012445981396752364
6.596,0.012444659166891475
6.6000000000000005,0.01244285612617208
6.604,0.01244088480165221
6.6080000000000005,0.01244518805883583
6.612,0.012449755761991631
6.6160000000000005,0.01242924917887638
6.62,0.012417156785784974
6.6240000000000006,0.012433552436060003
6.628,0.012442639761285753
6.632000000000001,0.012443481180288136
6.636,0.012447856559100535
6.640000000000001,0.012444058153318343
6.644,0.01244163005848289
6.648000000000001,0.012439778936677645
6.652,0.012443000369429632
6.656000000000001,0.012445837153494812
6.66,0.012440596315137106
6.664,0.012439226004190364
6.668,0.012440307828622002
6.672,0.01244153389631119
6.676,0.012444298558747596
6.68,0.012441606017939966
6.684,0.012436413260668109
6.688,0.012440692477308807
6.692,0.012441005004366835
6.696,0.012442928247800855
6.7,0.01244559674806556
6.704,0.012443481180288136
6.708,0.012439899139392273
6.712,0.012443096531601333
6.716,0.012438624990617233
6.72,0.012438168220301653
6.724,0.012437639328357298
6.728,0.012424897840606908
6.732,0.012417132745242048
6.736,0.012429874232992438
6.74,0.01243595649035253
6.744,0.012437254679670494
6.748,0.012434225571261911
6.752,0.012425787340695143
6.756,0.012426460475897051
6.76,0.012426580678611677
6.764,0.01242997039516414
6.768,0.012431364746653803
6.772,0.012432614854885917
6.776,0.012432590814342993
6.78,0.012436028611981306
6.784,0.012437687409443149
6.788,0.012437639328357298
6.792,0.012441557936854116
6.796,0.012443625423545688
6.8,0.012446414126525019
6.804,0.012449948086335032
6.808,0.012448746059188769
6.812,0.012447327667156179
6.816,0.01244838545104489
6.82,0.012448289288873189
6.824,0.012452159816284157
6.828,0.012456967924869212
6.832,0.012457064087040913
6.836,0.012458674803416905
6.84,0.012456679438354108
6.844,0.012460117235992422
6.848,0.01246509362837795
6.852,0.012467305358327074
6.856,0.012461463506396236
6.86,0.01245514084360689
6.864,0.012437398922928045
6.868,0.012439971261021048
6.872,0.01245112607293837
6.876,0.012454347505690355
6.88,0.01245824207364425
6.884,0.012459155614275411
6.888,0.01246139138476746
6.892,0.012464949385120399
6.896,0.012464853222948697
6.9,0.012467930412443132
6.904,0.012466680304211018
6.908,0.012458145911472549
6.912,0.012460165317078272
6.916,0.012464107966118014
6.92,0.012463362709287332
6.924,0.012460838452280179
6.928,0.01245783338441452
6.932,0.012462232803769844
6.936,0.012468819912531365
6.94,0.012466728385296869
6.944,0.012468122736786534
6.948,0.012469733453162527
6.952,0.012466391817695915
6.956,0.012466175452809588
6.96,0.012469084358503545
6.964,0.012471512453338995
6.968,0.012472642358856484
6.972,0.012470502750536135
6.976,0.012450380816107687
6.98,0.012446366045439168
6.984,0.012454708113834236
6.988,0.012461367344224535
6.992,0.012466728385296869
6.996,0.012466896669097345
7.0,0.012472065385826276
7.0040000000000004,0.012477522589070311
7.008,0.012478147643186369
7.0120000000000005,0.01247458964283343
7.016,0.012474253075232476
7.0200000000000005,0.0124696132504479
7.024,0.01247093548030879
7.0280000000000005,0.012471728818225324
7.032,0.012473411656230091
7.0360000000000005,0.012474854088805607
7.04,0.012473628021116418
7.0440000000000005,0.012468964155788917
7.048,0.012472450034513081
7.0520000000000005,0.012475431061835813
7.056,0.012474757926633906
7.0600000000000005,0.01247413287251785
7.064,0.012469324763932798
7.0680000000000005,0.012469637290990826
7.072,0.012472209629083828
7.0760000000000005,0.01247235387234138
7.08,0.01247463772391928
7.0840000000000005,0.012469853655877152
7.088,0.012453506086687972
7.0920000000000005,0.01244965959981993
7.096,0.012462881898428826
7.1000000000000005,0.01246829102058701
7.104,0.012472017304740426
7.1080000000000005,0.012470959520851714
7.112,0.012474397318490028
7.1160000000000005,0.012479373710875557
7.12,0.01247788319721419
7.1240000000000006,0.012478628454044873
7.128,0.01247920542707508
7.132000000000001,0.012469685372076676
7.136,0.012469949818048854
7.140000000000001,0.01247098356139464
7.144,0.012466752425839793
7.148000000000001,0.012469517088276198
7.152,0.012468603547645039
7.156000000000001,0.01246559847977938
7.16,0.012466800506925644
7.164000000000001,0.012470863358680013
7.168,0.012469541128819124
7.172,0.012470382547821509
7.176,0.012468964155788917
7.18,0.012466584142039317
7.184,0.012471031642480491
7.188,0.012473099129172063
7.192,0.012474854088805607
7.196,0.012474830048262681
7.2,0.012474926210434382
7.204,0.012482907670685571
7.208,0.012485600211493201
7.212,0.012482595143627543
7.216,0.012478003399928817
7.22,0.012476440764638675
7.224,0.012480719981279371
7.228,0.012488725482073484
7.232,0.01248971114433342
7.236,0.01248961498216172
7.24,0.012491201657994786
7.244,0.01248920629293199
7.248,0.012485600211493201
7.252,0.012489759225419271
7.256,0.012493437428486836
7.26,0.012499183118245974
7.264,0.012493894198802416
7.268,0.012471464372253145
7.272,0.012468363142215786
7.276,0.012479782400105286
7.28,0.012489687103790495
7.284,0.01249742815861243
7.288,0.012492932577085405
7.292,0.01249062468496458
7.296,0.01249112953636601
7.3,0.01248961498216172
7.304,0.012486032941265855
7.308,0.012479902602819913
7.312,0.012478412089158546
7.316,0.012497187753183177
7.32,0.012524113161259471
7.324,0.012546855514866772
7.328,0.012563924300343707
7.332,0.01256558309780555
7.336,0.01255776992135484
7.34,0.012548971082644194
7.344,0.01253949910873164
7.348,0.012526228729036895
7.352,0.01251194864653929
7.356,0.01248884568478811
7.36,0.01246317038494393
7.364,0.012475695507807992
7.368,0.012487114765697492
7.372,0.012493701874459013
7.376,0.012492091158083021
7.38,0.012484398184346938
7.384,0.012483893332945506
7.388,0.012486321427780958
7.392,0.012484494346518637
7.396,0.01248153735973883
7.4,0.01247843612970147
7.404,0.012475647426722141
7.408,0.012481104629966176
7.412,0.012482186454397812
7.416,0.012479349670332632
7.42,0.012476585007896227
7.424,0.012474397318490028
7.428,0.012475839751065544
7.432,0.012479421791961407
7.436,0.012487210927869193
7.44,0.01248985538759097
7.444,0.012482595143627543
7.448,0.012458963289932009
7.452,0.012455982262609274
7.456,0.01247454156174758
7.46,0.012481777765168083
7.464,0.012483196157200675
7.468,0.012480215129877941
7.472,0.012479590075761885
7.476,0.012485095360091769
7.48,0.012487691738727697
7.484,0.012490384279535327
7.488,0.012490408320078254
7.492,0.012483532724801627
7.496,0.012482330697655364
7.5,0.012486369508866809
7.5040000000000004,0.01248737921166967
7.508,0.012487210927869193
7.5120000000000005,0.012483845251859655
7.516,0.012479325629789706
7.5200000000000005,0.012482162413854888
7.524,0.01247971027847651
7.5280000000000005,0.01247870057567365
7.532,0.012482138373311961
7.5360000000000005,0.012483220197743599
7.54,0.01248372504914503
7.5440000000000005,0.012484302022175237
7.548,0.012488485076644231
7.5520000000000005,0.012491778631024993
7.556,0.012488533157730082
7.5600000000000005,0.012484253941089386
7.564,0.012486249306152181
7.5680000000000005,0.012485744454750751
7.572,0.012487811941442325
7.5760000000000005,0.012490865090393833
7.58,0.012489374576732467
7.5840000000000005,0.01248889376587396
7.588,0.012491249739080636
7.5920000000000005,0.012491610347224517
7.596,0.01249331722577221
7.6000000000000005,0.012487451333298445
7.604,0.012471320128995593
7.6080000000000005,0.012468435263844562
7.612,0.012487234968412118
7.6160000000000005,0.012495048144862828
7.62,0.012499736050733255
7.6240000000000006,0.012498245537071889
7.628,0.012494615415090175
7.632000000000001,0.012497860888385084
7.636,0.012501202523851696
7.640000000000001,0.01250194778068238
7.644,0.012501803537424827
7.648000000000001,0.012498726347930394
7.652,0.012495985726036914
7.656000000000001,0.012498101293814337
7.66,0.012499856253447881
7.664000000000001,0.012497091591011476
7.668,0.012492740252742003
7.672000000000001,0.012491009333651385
7.676,0.012495408753006707
7.68,0.012501875659053602
7.684,0.012502380510455035
7.688,0.01250418355117443
7.692,0.012500192821048835
7.696,0.012478892900017052
7.7,0.012482282616569513
7.704,0.012490648725507505
7.708,0.012500914037336592
7.712,0.012504760524204635
7.716,0.012499928375076658
7.72,0.012500865956250742
7.724,0.012503101726742792
7.728,0.01250346233488667
7.732,0.012504279713346129
7.736,0.01250194778068238
7.74,0.012492836414913704
7.744,0.012494615415090175
7.748,0.012499495645304002
7.752,0.0125039671862881
7.756,0.012502981524028166
7.76,0.01249706755046855
7.764,0.012493028739257107
7.768,0.012497668564041681
7.772,0.01250418355117443
7.776,0.012506683767638655
7.78,0.012504784564747561
7.784,0.012496779063953448
7.788,0.012497572401869982
7.792,0.012501370807652172
7.796,0.012499712010190329
7.8,0.012501779496881903
7.804,0.012500120699420058
7.808,0.012480311292049642
7.812,0.012484542427604488
7.816,0.0124971156315544
7.82,0.01250300556457109
7.824,0.012504303753889055
7.828,0.012502885361856465
7.832,0.012503943145745176
7.836,0.012501635253624351
7.84,0.012502236267197483
7.844,0.012502933442942316
7.848,0.012499135037160124
7.852,0.012497788766756309
7.856,0.01249738007752658
7.86,0.012497283915354878
7.864,0.012495168347577456
7.868,0.012499591807475703
7.872,0.012497788766756309
7.876,0.01249524046920623
7.88,0.012497860888385084
7.884,0.012500457267021012
7.888,0.012503943145745176
7.892,0.012502140105025782
7.896,0.01249418268531752
7.9,0.01249112953636601
7.904,0.01249468753671895
7.908,0.012497957050556785
7.912,0.012496586739610046
7.916,0.012495288550292081
7.92,0.012489999630848523
7.924,0.012493846117716565
7.928,0.012494903901605276
7.932,0.012495048144862828
7.936,0.012495937644951063
7.94,0.012488821644245186
7.944,0.012469877696420079
7.948,0.012479469873047258
7.952,0.012488364873929606
7.956,0.012494543293461398
7.96,0.012495889563865213
7.964,0.012491201657994786
7.968,0.012497860888385084
7.972,0.012503342132172045
7.976,0.012504640321490009
7.98,0.012503486375429597
7.984,0.012499159077703048
7.988,0.012498053212728486
7.992,0.012499014834445496
7.996,0.012494567334004324
8.0,0.012498149374900187
8.004,0.012500385145392237
8.008000000000001,0.012497307955897803
8.012,0.0125015871725385
8.016,0.012507789632613219
8.02,0.012511924605996363
8.024000000000001,0.012512020768168064
8.028,0.012509833078761865
8.032,0.012500192821048835
8.036,0.012502596875341361
8.040000000000001,0.012509736916590164
8.044,0.012510530254506698
8.048,0.01251163611948126
8.052,0.012503390213257895
8.056000000000001,0.012482282616569513
8.06,0.012490817009307983
8.064,0.012500481307563939
8.068,0.012501563131995574
8.072000000000001,0.012492067117540097
8.076,0.01248747537384137
8.08,0.012497091591011476
8.084,0.012510987024822277
8.088000000000001,0.012540003960133071
8.092,0.012563299246227651
8.096,0.01258974384344544
8.1,0.01260380756105672
8.104000000000001,0.012603062304226037
8.108,0.012594167303343689
8.112,0.012575103152803956
8.116,0.012549884623275354
8.120000000000001,0.012524954580261856
8.124,0.012513727646715758
8.128,0.012511972687082214
8.132,0.012507477105555189
8.136000000000001,0.012507308821754713
8.14,0.012507188619040087
8.144,0.012501106361679995
8.148,0.012504063348459802
8.152000000000001,0.012505097091805589
8.156,0.012503895064659326
8.16,0.012503943145745176
8.164,0.012500457267021012
8.168000000000001,0.012478556332416098
8.172,0.012483172116657748
8.176,0.012492836414913704
8.18,0.012500192821048835
8.184000000000001,0.01250473648366171
8.188,0.012500433226478088
8.192,0.012499976456162508
8.196,0.01250052938864979
8.2,0.01250437587551783
8.204,0.012506491443295254
8.208,0.012505505781035318
8.212,0.012499543726389853
8.216,0.012498750388473319
8.22,0.012498029172185562
8.224,0.012497860888385084
8.228,0.012498053212728486
8.232,0.012494110563688742
8.236,0.012491562266138666
8.24,0.012495673198978886
8.244,0.012495528955721334
8.248,0.012499543726389853
8.252,0.012499952415619582
8.256,0.01249829361815774
8.26,0.012497235834269028
8.264,0.01249418268531752
8.268,0.012493894198802416
8.272,0.012497548361327056
8.276,0.012499904334533731
8.28,0.012494927942148203
8.284,0.01249665886123882
8.288,0.012500553429192714
8.292,0.01250103424005122
8.296,0.01249834169924359
8.3,0.012483124035571898
8.304,0.012464757060776996
8.308,0.01247696965658303
8.312,0.012489494779447092
8.316,0.012491826712110844
8.32,0.01248879760370226
8.324,0.0124878840630711
8.328,0.012489807306505122
8.332,0.012489566901075869
8.336,0.012490215995734851
8.34,0.012494567334004324
8.344,0.012490696806593355
8.348,0.01248915821184614
8.352,0.012491057414737234
8.356,0.012494375009660922
8.36,0.012496899266668074
8.364,0.012500361104849311
8.368,0.012498149374900187
8.372,0.012499543726389853
8.376,0.012500865956250742
8.38,0.012501707375253126
8.384,0.012502596875341361
8.388,0.012501707375253126
8.392,0.012500553429192714
8.396,0.01250245263208381
8.4,0.01250437587551783
8.404,0.012509592673332614
8.408,0.012511251470794457
8.412,0.012496081888208615
8.416,0.012480359373135493
8.42,0.012487138806240416
8.424,0.012490552563335804
8.428,0.012503438294343746
8.432,0.012509232065188733
8.436,0.012503678699772997
8.44,0.012505746186464571
8.444,0.012507933875870769
8.448,0.012506467402752328
8.452,0.01250783771369907
8.456,0.012504135470088579
8.46,0.012499495645304002
8.464,0.01249661078015297
8.468,0.012497668564041681
8.472,0.012500841915707817
8.476,0.01250057746973564
8.48,0.012495625117893035
8.484,0.01249418268531752
8.488,0.012497500280241205
8.492,0.012499086956074273
8.496,0.012497307955897803
8.5,0.012495096225948679
8.504,0.01249112953636601
8.508000000000001,0.012491177617451861
8.512,0.012488965887502737
8.516,0.012492331563512274
8.52,0.012497259874811952
8.524000000000001,0.01249103337419431
8.528,0.012478051481014668
8.532,0.012487715779270624
8.536,0.012496298253094942
8.540000000000001,0.01250021686159176
8.544,0.012501779496881903
8.548,0.012499062915531347
8.552,0.012502717078055987
8.556000000000001,0.012505457699949468
8.56,0.012504303753889055
8.564,0.012501899699596529
8.568,0.012506178916237225
8.572000000000001,0.012503678699772997
8.576,0.012505433659406543
8.58,0.012506275078408926
8.584,0.012508438727272201
8.588000000000001,0.012512790065541672
8.592,0.01250442395660368
8.596,0.012504111429545653
8.6,0.012507164578497161
8.604000000000001,0.012510506213963773
8.608,0.012511323592423232
8.612,0.01250783771369907
8.616,0.012501394848195098
8.620000000000001,0.012504351834974906
8.624,0.012504784564747561
8.628,0.012507260740668862
8.632,0.012511251470794457
8.636000000000001,0.012506707808181581
8.64,0.012502140105025782
8.644,0.01250560194320702
8.648,0.012510001362562343
8.652000000000001,0.012511155308622755
8.656,0.012510049443648193
8.66,0.012490696806593355
8.664,0.012476801372782554
8.668000000000001,0.01249011983356315
8.672,0.012496490577438344
8.676,0.012496779063953448
8.68,0.012501154442765845
8.684000000000001,0.01250295748348524
8.688,0.012503390213257895
8.692,0.012504159510631503
8.696,0.012502140105025782
8.700000000000001,0.012502837280770614
8.704,0.012500337064306387
8.708,0.01249925523987475
8.712,0.012503390213257895
8.716,0.012505361537777766
8.72,0.012505866389179197
8.724,0.01250889549758778
8.728,0.012509111862474108
8.732,0.012515891295579031
8.736,0.012521949512396198
8.74,0.012520410917648982
8.744,0.01252077152579286
8.748,0.012515001795490798
8.752,0.012513703606172833
8.756,0.012517141403811145
8.76,0.012519978187876327
8.764,0.012519088687788092
8.768,0.012518151106614006
8.772,0.012504159510631503
8.776,0.012489398617275391
8.78,0.01250031302376346
8.784,0.012510602376135474
8.788,0.012517622214669651
8.792,0.01251752605249795
8.796,0.012515771092864406
8.8,0.012518415552586185
8.804,0.012518848282358839
8.808,0.012515867255036107
8.812,0.012514977754947872
8.816,0.012514496944089366
8.82,0.0125129102682563
8.824,0.012517213525439922
8.828,0.012515698971235629
8.832,0.012506034672979675
8.836,0.012497740685670458
8.84,0.01249468753671895
8.844,0.012498173415443114
8.848,0.012513198754771403
8.852,0.01254406681188744
8.856,0.012573468395885037
8.86,0.01260106693916324
8.864,0.012616068237948603
8.868,0.01261837613006943
8.872,0.012608255061497892
8.876,0.012589984248874694
8.88,0.012560799029763424
8.884,0.012523776593658519
8.888,0.012497740685670458
8.892,0.01250391910520225
8.896,0.012509328227360434
8.9,0.012515819173950256
8.904,0.012516636552409715
8.908,0.012512717943912897
8.912,0.012513439160200654
8.916,0.012515819173950256
8.92,0.012515987457750732
8.924,0.012514088254859636
8.928,0.012506828010896207
8.932,0.012500361104849311
8.936,0.012505024970176812
8.94,0.012513511281829431
8.944,0.012515410484720527
8.948,0.012516275944265836
8.952,0.012509592673332614
8.956,0.012507597308269816
8.96,0.01250884741650193
8.964,0.012512549660112421
8.968,0.012512982389885074
8.972,0.0125083425651005
8.976,0.012504472037689531
8.98,0.012510241767991596
8.984,0.012511371673509082
8.988,0.01251168420056711
8.992,0.01251031388962037
8.996,0.012502861321313539
9.0,0.012502861321313539
9.004,0.012503534456515447
9.008000000000001,0.012503029605114017
9.012,0.012506395281123553
9.016,0.0125083425651005
9.02,0.012489639022704644
9.024000000000001,0.012484830914119591
9.028,0.012501298686023397
9.032,0.012507669429898591
9.036,0.012510241767991596
9.040000000000001,0.012506996294696685
9.044,0.01250021686159176
9.048,0.01250021686159176
9.052,0.012502476672626734
9.056000000000001,0.012504039307916878
9.06,0.012506731848724506
9.064,0.012504760524204635
9.068,0.012503390213257895
9.072000000000001,0.012504111429545653
9.076,0.012506683767638655
9.08,0.012507909835327844
9.084,0.01250879933541608
9.088000000000001,0.012502019902311154
9.092,0.012498822510102096
9.096,0.012503390213257895
9.1,0.012507765592070293
9.104000000000001,0.012512213092511467
9.108,0.012508102159671247
9.112,0.012503294051086194
9.116,0.012509448430075062
9.120000000000001,0.012514352700831816
9.124,0.01251432866028889
9.128,0.01250839064618635
9.132,0.01249281237437078
9.136000000000001,0.012487331130583819
9.14,0.012501394848195098
9.144,0.01251173228165296
9.148,0.01251488159277617
9.152000000000001,0.01251218905196854
9.156,0.01250848680835805
9.16,0.012512790065541672
9.164,0.01251853575530081
9.168000000000001,0.012522334161083002
9.172,0.012519857985161701
9.176,0.012514448863003517
9.18,0.012516203822637061
9.184000000000001,0.012518295349871558
9.188,0.012519136768873942
9.192,0.012521925471853273
9.196,0.012516925038924818
9.200000000000001,0.012512790065541672
9.204,0.012515626849606854
9.208,0.01251752605249795
9.212,0.012516732714581416
9.216000000000001,0.012512525619569495
9.22,0.012508270443471723
9.224,0.01250711649741131
9.228,0.012512213092511467
9.232,0.012514088254859636
9.236,0.012513174714228477
9.24,0.012511251470794457
9.244,0.012492596009484451
9.248,0.012474806007719757
9.252,0.012492692171656153
9.256,0.012506587605466956
9.26,0.01251204480871099
9.264,0.012513895930516234
9.268,0.012510289849077445
9.272,0.012513006430428
9.276,0.012515698971235629
9.28,0.012518319390414484
9.284,0.012515362403634676
9.288,0.012513439160200654
9.292,0.012513559362915282
9.296,0.012517814539013053
9.3,0.012519232931045643
9.304,0.012516324025351687
9.308,0.012515097957662497
9.312,0.012511203389708606
9.316,0.012514977754947872
9.32,0.012515410484720527
9.324,0.012514184417031338
9.328,0.012511756322195887
9.332,0.012510049443648193
9.336,0.012510578335592548
9.34,0.012509929240933566
9.344,0.012509208024645809
9.348,0.012508823375959004
9.352,0.012509616713875538
9.356,0.012508366605643424
9.36,0.012509135903017032
9.364,0.01251346320074358
9.368,0.012514400781917666
9.372,0.01251113126807983
9.376,0.012507356902840563
9.38,0.01248783598198525
9.384,0.012491706509396216
9.388,0.012507909835327844
9.392,0.012512429457397794
9.396,0.012513006430428
9.4,0.01251173228165296
9.404,0.012510386011249146
9.408,0.012518776160730063
9.412,0.012518295349871558
9.416,0.01251702120109652
9.42,0.012516708674038491
9.424,0.012511251470794457
9.428,0.012513775727801608
9.432,0.012518631917472512
9.436,0.012516083619922434
9.44,0.012515218160377125
9.444,0.01251533836309175
9.448,0.0125152902820059
9.452,0.012517333728154547
9.456,0.012515578768521003
9.46,0.012516684633495565
9.464,0.012517165444354071
9.468,0.012512309254683168
9.472,0.01250807811912832
9.476,0.012510482173420847
9.48,0.012516732714581416
9.484,0.012517622214669651
9.488,0.012512669862827046
9.492,0.012494326928575071
9.496,0.012494615415090175
9.5,0.012505385578320692
9.504,0.01251173228165296
9.508000000000001,0.012511563997852485
9.512,0.012509280146274584
9.516,0.012508126200214171
9.52,0.012512838146627523
9.524000000000001,0.012513102592599702
9.528,0.012514448863003517
9.532,0.01251706928218237
9.536,0.012516444228066312
9.540000000000001,0.01251629998480876
9.544,0.012518728079644213
9.548,0.012517453930869175
9.552,0.012517141403811145
9.556000000000001,0.012518704039101287
9.56,0.01251752605249795
9.564,0.012521781228595721
9.568,0.012524473769403351
9.572000000000001,0.01251848767421496
9.576,0.01251666059295264
9.58,0.012514040173773786
9.584,0.012517862620098904
9.588000000000001,0.012523776593658519
9.592,0.01252310345845661
9.596,0.012519930106790476
9.6,0.01252118021502259
9.604000000000001,0.012505842348636272
9.608,0.012503582537601298
9.612,0.012515819173950256
9.616,0.01251940121484612
9.620000000000001,0.012520002228419251
9.624,0.012519978187876327
9.628,0.012518655958015438
9.632,0.012519593539189522
9.636000000000001,0.012515458565806378
9.64,0.012508943578673631
9.644,0.012505722145921645
9.648,0.012515771092864406
9.652000000000001,0.01254548520392003
9.656,0.012576882152980425
9.66,0.012604913426031282
9.664,0.01262633354977769
9.668000000000001,0.012629410739272125
9.672,0.012612894886282469
9.676,0.012599912993102827
9.68,0.012578877518043222
9.684000000000001,0.01255502929946136
9.688,0.012538417284300003
9.692,0.012525074782976483
9.696,0.012521276377194291
9.700000000000001,0.012525459431663286
9.704,0.01252771924269826
9.708,0.012522454363797628
9.712,0.012518175147156932
9.716000000000001,0.012515482606349302
9.72,0.01251798282281353
9.724,0.01252346406660049
9.728,0.012524185282888248
9.732,0.012521829309681572
9.736,0.012515073917119573
9.74,0.012493677833916089
9.744,0.012495985726036914
9.748,0.012507717510984442
9.752,0.012513102592599702
9.756,0.012513174714228477
9.76,0.01251336703857188
9.764,0.012512333295226092
9.768,0.012517886660641828
9.772,0.01252113213393674
9.776,0.012519136768873942
9.78,0.012515049876576648
9.784,0.012511876524910513
9.788,0.012518583836386661
9.792,0.012522069715110825
9.796,0.012520939809593337
9.8,0.012518511714757886
9.804,0.012516179782094135
9.808,0.012517165444354071
9.812,0.012519160809416868
9.816,0.012518127066071081
9.82,0.012518247268785707
9.824,0.012515146038748348
9.828,0.01250930418681751
9.832,0.012510073484191118
9.836,0.012514136335945487
9.84,0.012509111862474108
9.844,0.012507885794784918
9.848,0.01250442395660368
9.852,0.012485215562806396
9.856,0.012493485509572686
9.86,0.012505049010719738
9.864,0.012510794700478877
9.868,0.012512429457397794
9.872,0.012508462767815125
9.876,0.012503197888914493
9.88,0.012505674064835794
9.884,0.012509208024645809
9.888,0.012510962984279353
9.892,0.012511491876223708
9.896,0.012506323159494777
9.9,0.012506178916237225
9.904,0.012508198321842948
9.908,0.012510073484191118
9.912,0.012510890862650576
9.916,0.012505722145921645
9.92,0.01250153909145265
9.924,0.012510890862650576
9.928,0.012516131701008284
9.932,0.012517285647068697
9.936,0.012519737782447074
9.94,0.012515963417207808
9.944,0.012513439160200654
9.948,0.012518824241815914
9.952,0.012523584269315116
9.956,0.012524473769403351
9.96,0.01252478629646138
9.964,0.01252026667439143
9.968,0.012527094188582204
9.972,0.012533392810828624
9.976,0.012533921702772979
9.98,0.012531830175538482
9.984,0.012520987890679187
9.988,0.012503029605114017
9.992,0.012511251470794457
9.996,0.012522454363797628
10.0,0.012532575432369164
10.004,0.012535893027292851
10.008000000000001,0.012531806134995556
10.012,0.012531469567394602
10.016,0.012536109392179178
10.02,0.012534811202861214
10.024000000000001,0.012534642919060738
10.028,0.012532046540424809
10.032,0.01252721439129683
10.036,0.012528416418443093
10.040000000000001,0.012529065513102075
10.044,0.01253122916196535
10.048,0.012535820905664075
10.052,0.012533488973000325
10.056000000000001,0.012532310986396986
10.06,0.01253457079743196
10.064,0.012533248567571072
10.068,0.012532960081055968
10.072000000000001,0.012530964715993171
10.076,0.012525219026234035
10.08,0.012525098823519407
10.084,0.012530796432192695
10.088000000000001,0.012535412216434345
10.092,0.012533488973000325
10.096,0.01252341598551464
10.1,0.012505024970176812
10.104000000000001,0.012517934741727679
10.108,0.012526541256094923
10.112,0.012531445526851677
10.116,0.012534330392002708
10.120000000000001,0.012530387742962966
10.124,0.01253091663490732
10.128,0.012533440891914474
10.132,0.012531830175538482
10.136000000000001,0.012533248567571072
10.14,0.012532719675626715
10.144,0.012530580067306368
10.148,0.012532383108025763
10.152000000000001,0.01253168593228093
10.156,0.012532070580967733
10.16,0.012534691000146588
10.164,0.012529474202331806
10.168000000000001,0.012529305918531328
10.172,0.012534354432545634
10.176,0.012532743716169642
10.18,0.012534642919060738
10.184000000000001,0.012536470000323057
10.188,0.012537287378782517
10.192,0.012541927203567092
10.196,0.012543369636142608
10.200000000000001,0.012546422785094116
10.204,0.012547504609525754
10.208,0.012538417284300003
10.212,0.012515819173950256
10.216000000000001,0.012522983255741985
10.22,0.012529161675273777
10.224,0.01253529201371972
10.228,0.012540677095334978
10.232000000000001,0.012537575865297619
10.236,0.012539330824931163
10.24,0.012543489838857233
10.244,0.012543345595599682
10.248,0.012536806567924011
10.252,0.012533080283770596
10.256,0.012531758053909705
10.26,0.012539090419501912
10.264,0.01253858556810048
10.268,0.012541181946736408
10.272,0.01254228781171097
10.276,0.012537864351812722
10.28,0.012537071013896188
10.284,0.012542504176597299
10.288,0.012541903163024167
10.292,0.012541975284652942
10.296,0.012535989189464553
10.3,0.012530243499705414
10.304,0.01253351301354325
10.308,0.012535484338063122
10.312,0.01253091663490732
10.316,0.012532118662053584
10.32,0.012531469567394602
10.324,0.012524666093746754
10.328,0.012531205121422424
10.332,0.012539523149274565
10.336,0.012544691866003497
10.34,0.012546951677038471
10.344,0.01253113299979365
10.348,0.012517357768697474
10.352,0.012527911567041663
10.356,0.012535436256977272
10.36,0.012541590635966137
10.364,0.012545966014778536
10.368,0.012539979919590145
10.372,0.012542383973882671
10.376,0.012548658555586166
10.38,0.012550966447706991
10.384,0.01254594197423561
10.388,0.012541758919766615
10.392,0.012542984987455803
10.396,0.012550028866532906
10.4,0.012551904028881075
10.404,0.012550509677391412
10.408,0.012549668258389027
10.412,0.012543706203743562
10.416,0.012544691866003497
10.42,0.012546903595952622
10.424,0.01254990866381828
10.428,0.012550677961191888
10.432,0.01254863451504324
10.436,0.012543297514513833
10.44,0.012546134298579013
10.444,0.012547144001381873
10.448,0.012545701568806359
10.452,0.0125471680419248
10.456,0.012539354865474089
10.46,0.012517429890326249
10.464,0.012523488107143415
10.468,0.01253219078368236
10.472,0.012539643351989193
10.476,0.012548778758300792
10.48,0.012565775422148952
10.484,0.012593494168141782
10.488,0.012620107049160048
10.492,0.012633617834284046
10.496,0.01263751240223794
10.5,0.01262760769855273
10.504,0.01260837526421252
10.508000000000001,0.012588349491955775
10.512,0.012567746746668825
10.516,0.012558875786329403
10.52,0.012551879988338151
10.524000000000001,0.012538249000499527
10.528,0.01253945102764579
10.532,0.012544403379488395
10.536,0.01254620642020779
10.540000000000001,0.012545990055321461
10.544,0.012539210622216537
10.548,0.012535532419148971
10.552,0.012539811635789669
10.556000000000001,0.012542408014425598
10.56,0.012545004393061526
10.564,0.01254223973062512
10.568,0.012529474202331806
10.572000000000001,0.012511876524910513
10.576,0.012524305485602873
10.58,0.012537383540954216
10.584,0.01254082133859253
10.588000000000001,0.012543802365915263
10.592,0.012539378906017013
10.596,0.012541542554880287
10.6,0.012548297947442286
10.604000000000001,0.012545869852606835
10.608,0.0125427926631124
10.612,0.01254173487922369
10.616,0.012540172243933547
10.620000000000001,0.012545461163377106
10.624,0.012544499541660096
10.628,0.012544571663288871
10.632,0.012545845812063909
10.636000000000001,0.01254233589279682
10.64,0.012537816270726872
10.644,0.012540220325019398
10.648,0.012541133865650558
10.652000000000001,0.012539691433075043
10.656,0.01253868173027218
10.66,0.01253452271634611
10.664,0.012533320689199847
10.668000000000001,0.012537647986926395
10.672,0.012535844946207
10.676,0.012533633216257877
10.68,0.012535075648833391
10.684000000000001,0.01253396978385883
10.688,0.012537143135524965
10.692,0.012537455662582993
10.696,0.012538008595070274
10.700000000000001,0.012537551824754694
10.704,0.012521108093393813
10.708,0.01251250157902657
10.712,0.012525243066776959
10.716000000000001,0.012533873621687128
10.72,0.012537287378782517
10.724,0.012536013230007477
10.728,0.01253259947291209
10.732000000000001,0.012535460297520196
10.736,0.012536445959780132
10.74,0.012534642919060738
10.744,0.012533849581144204
10.748000000000001,0.012534426554174409
10.752,0.012539258703302388
10.756,0.012546278541836564
10.76,0.012548730677214941
10.764,0.012549475934045625
10.768,0.012548971082644194
10.772,0.012545268839033704
10.776,0.012547480568982828
10.78,0.012551928069424002
10.784,0.012553082015484414
10.788,0.012553322420913667
10.792,0.012551206853136243
10.796,0.012549163406987597
10.8,0.012552673326254685
10.804,0.01255644769149395
10.808,0.012556423650951026
10.812,0.012555726475206194
10.816,0.012541494473794438
10.82,0.012529233796902553
10.824,0.012543369636142608
10.828,0.01255315413711319
10.832,0.012554308083173602
10.836,0.012551014528792842
10.84,0.012547408447354053
10.844,0.012556063042807146
10.848,0.012558419016013822
10.852,0.01255584667792082
10.856,0.012552529082997133
10.86,0.01254858643395739
10.864,0.012546831474323845
10.868,0.012550533717934336
10.872,0.012552048272138627
10.876,0.012554668691317482
10.88,0.01255269736679761
10.884,0.012549163406987597
10.888,0.012550245231419233
10.892,0.01255082220444944
10.896,0.012554235961544827
10.9,0.01255863538090015
10.904,0.012554812934575032
10.908,0.01254639874455119
10.912,0.012546903595952622
10.916,0.012549836542189503
10.92,0.012552673326254685
10.924,0.012554356164259452
10.928,0.012552072312681553
10.932,0.012554187880458976
10.936,0.01255442828588823
10.94,0.012555534150862791
10.944,0.012558274772756272
10.948,0.012558995989044029
10.952,0.012539090419501912
10.956,0.012534811202861214
10.96,0.012548249866356435
10.964,0.01255731315103926
10.968,0.01256091923247805
10.972,0.012559404678273758
10.976,0.012556952542895381
10.98,0.012560414381076619
10.984,0.012563082881341324
10.988,0.012563371367856426
10.992,0.012563323286770576
10.996,0.012557120826695859
11.0,0.012557649718640214
11.004,0.012558202651127495
11.008000000000001,0.012556111123892997
11.012,0.012556303448236399
11.016,0.012558995989044029
11.02,0.012560847110849274
11.024000000000001,0.012562890556997922
11.028,0.012562097219081388
11.032,0.012561640448765808
11.036,0.012561207718993153
11.040000000000001,0.012554836975117958
11.044,0.012556952542895381
11.048,0.012565246530204598
11.052,0.012569429584673593
11.056000000000001,0.01256548693563385
11.06,0.012564188746315886
11.064,0.012543850447001114
11.068,0.012540003960133071
11.072000000000001,0.012553923434486799
11.076,0.012560414381076619
11.08,0.012562602070482818
11.084,0.012559236394473282
11.088000000000001,0.012555101421090136
11.092,0.012561303881164854
11.096,0.012563828138172006
11.1,0.012565607138348476
11.104000000000001,0.01256493400314657
11.108,0.012562529948854043
11.112,0.01256173661093751
11.116,0.012564140665230036
11.120000000000001,0.012563731976000306
11.124,0.012560438421619545
11.128,0.01256005377293274
11.132,0.012559356597187907
11.136000000000001,0.012564068543601259
11.14,0.012563515611113978
11.144,0.01256584754377773
11.148,0.012570751814534483
11.152000000000001,0.012566256233007458
11.156,0.01256132792170778
11.16,0.012562121259624312
11.164,0.012563034800255474
11.168000000000001,0.012565294611290448
11.172,0.01256466955717439
11.176,0.012549235528616372
11.18,0.012541566595423213
11.184000000000001,0.012552024231595703
11.188,0.012555606272491566
11.192,0.012558419016013822
11.196,0.012558154570041644
11.200000000000001,0.012557241029410485
11.204,0.012559981651303965
11.208,0.01256416470577296
11.212,0.012567794827754676
11.216000000000001,0.012567890989926377
11.22,0.012566304314093309
11.224,0.012562169340710163
11.228,0.012564765719346092
11.232000000000001,0.012568107354812704
11.236,0.012568900692729238
11.24,0.012566785124951813
11.244,0.012567289976353245
11.248000000000001,0.012568756449471686
11.252,0.012565823503234803
11.256,0.012568948773815088
11.26,0.012564982084232418
11.264,0.012557842042983616
11.268,0.012558467097099672
11.272,0.012565967746492355
11.276,0.012570150800961351
11.28,0.012568371800784881
11.284,0.012561376002793629
11.288,0.012547384406811126
11.292,0.012540677095334978
11.296,0.012554668691317482
11.3,0.012562121259624312
11.304,0.012566232192464532
11.308,0.012568660287299985
11.312,0.012565246530204598
11.316,0.012564885922060719
11.32,0.012557120826695859
11.324,0.01255320221819904
11.328,0.012553346461456592
11.332,0.012558274772756272
11.336,0.012581570058850852
11.34,0.012612390034881038
11.344,0.012641551213449382
11.348,0.012664654175200562
11.352,0.01266866894586908
11.356,0.012653715728169566
11.36,0.012640998280962101
11.364,0.01262126099522046
11.368,0.012600634209390584
11.372,0.012582603802196637
11.376,0.012571232625392987
11.38,0.01256178469202336
11.384,0.012563852178714932
11.388,0.012566544719522562
11.392,0.0125678188682976
11.396,0.012564405111202213
11.4,0.01255781800244069
11.404,0.01255584667792082
11.408,0.012558154570041644
11.412,0.012558274772756272
11.416,0.012558683461986
11.42,0.012559909529675188
11.424,0.012556928502352457
11.428,0.012559885489132264
11.432,0.012560847110849274
11.436,0.012560390340533694
11.44,0.012560486502705396
11.444,0.012555149502175986
11.448,0.01255279352896931
11.452,0.01255767375918314
11.456,0.012564909962603643
11.46,0.012565366732919223
11.464,0.012560702867591722
11.468,0.012540484770991575
11.472,0.012523992958544845
11.476,0.012539691433075043
11.48,0.012552120393767404
11.484,0.012555702434663267
11.488,0.012553057974941488
11.492,0.012551182812593318
11.496,0.012557433353753887
11.5,0.012561904894737986
11.504,0.012559524880988385
11.508000000000001,0.012558755583614776
11.512,0.01255375515068632
11.516,0.012554284042630677
11.52,0.012558370934927971
11.524000000000001,0.012562001056909687
11.528,0.012562890556997922
11.532,0.012563683894914456
11.536,0.012539186581673611
11.540000000000001,0.01253305624322767
11.544,0.012548057542013035
11.548,0.012554957177832584
11.552,0.012558491137642598
11.556000000000001,0.012555990921178371
11.56,0.012551230893679169
11.564,0.01255452444805993
11.568,0.012556784259094905
11.572000000000001,0.012556880421266606
11.576,0.012558298813299196
11.58,0.012550461596305561
11.584,0.012550653920648962
11.588000000000001,0.012558851745786477
11.592,0.012565655219434327
11.596,0.012566592800608413
11.6,0.012565270570747522
11.604000000000001,0.012565655219434327
11.608,0.012565462895090924
11.612,0.012566881287123514
11.616,0.012566328354636233
11.620000000000001,0.012565535016719701
11.624,0.012561135597364378
11.628,0.012561231759536079
11.632,0.012563876219257857
11.636000000000001,0.012565535016719701
11.64,0.012570703733448632
11.644,0.012570198882047202
11.648,0.012553562826342918
11.652000000000001,0.012550341393590934
11.656,0.012566833206037664
11.66,0.012572146166024149
11.664,0.012577555288182333
11.668000000000001,0.01257654558537947
11.672,0.012574646382488374
11.676,0.012578853477500295
11.68,0.01258019974790411
11.684000000000001,0.012575511842033685
11.688,0.012574982950089329
11.692,0.012571352828107615
11.696,0.012572242328195848
11.700000000000001,0.012573780922943065
11.704,0.012573756882400141
11.708,0.012574718504117151
11.712,0.012573468395885037
11.716000000000001,0.01256558309780555
11.72,0.012566833206037664
11.724,0.012567698665582975
11.728,0.012572074044395372
11.732000000000001,0.012576112855606817
11.736,0.012573925166200617
11.74,0.01257142494973639
11.744,0.012572266368738774
11.748000000000001,0.012576834071894574
11.752,0.01257644942320777
11.756,0.012573997287829392
11.76,0.012572290409281699
11.764000000000001,0.012573059706655308
11.768,0.012573949206743543
11.772,0.012572074044395372
11.776,0.012572266368738774
11.78,0.012565703300520177
11.784,0.012543586001028935
11.788,0.012548538352871539
11.792,0.012557793961897766
11.796,0.012563082881341324
11.8,0.012568059273726853
11.804,0.012572819301226055
11.808,0.01257832458555594
11.812,0.012580752680391391
11.816,0.01258019974790411
11.82,0.012574886787917627
11.824,0.01257366072022844
11.828,0.012572602936339728
11.832,0.012576184977235592
11.836,0.01257690619352335
11.84,0.012575704166377088
11.844,0.01257786781524036
11.848,0.012574934869003478
11.852,0.012572146166024149
11.856,0.012574261733801571
11.86,0.012574430017602048
11.864,0.012574069409458169
11.868,0.012574982950089329
11.872,0.012573227990455784
11.876,0.012577387004381855
11.88,0.01258046419387629
11.884,0.01258065651821969
11.888,0.01257786781524036
11.892,0.01257604073397804
11.896,0.012558106488955794
11.9,0.012560077813475666
11.904,0.012570198882047202
11.908,0.0125768581124375
11.912,0.012579767018131457
11.916,0.012575848409634638
11.92,0.012575752247462938
11.924,0.012580127626275335
11.928,0.012580993085820644
11.932,0.012582219153509834
11.936,0.012582555721110786
11.94,0.01257700235569505
11.944,0.012577507207096482
11.948,0.012576713869179948
11.952,0.012578997720757847
11.956,0.012579526612702204
11.96,0.012580223788447037
11.964,0.012581449856136224
11.968,0.012583469261741947
11.972,0.012585777153862773
11.976,0.012585320383547193
11.98,0.012587171505352438
11.984,0.012585176140289641
11.988,0.012587171505352438
11.992,0.01258741191078169
11.996,0.012587532113496317
12.0,0.01259188345176579
12.004,0.0125906573840766
12.008000000000001,0.012570847976706184
12.012,0.012574862747374703
12.016,0.012584238559115555
12.02,0.01258563291060522
12.024000000000001,0.012583829869885826
12.028,0.01257878135587152
12.032,0.012579863180303158
12.036,0.012584214518572629
12.040000000000001,0.012584430883458958
12.044,0.012580007423560708
12.048,0.012576209017778518
12.052,0.012576954274609201
12.056000000000001,0.012586858978294408
12.06,0.012587724437839719
12.064,0.01258284420762589
12.068,0.012587291708067064
12.072000000000001,0.012589455356930337
12.076,0.012588950505528907
12.08,0.012589623640730813
12.084,0.01259188345176579
12.088000000000001,0.01259431154660124
12.092,0.0125928450734828
12.096,0.012587363829695839
12.1,0.012588541816299178
12.104000000000001,0.012590993951677554
12.108,0.012590344857018572
12.112,0.012592316181538443
12.116,0.012589166870415234
12.120000000000001,0.012583493302284872
12.124,0.01258563291060522
12.128,0.012591234357106807
12.132,0.012596354992749888
12.136000000000001,0.012597581060439076
12.14,0.01258705130263781
12.144,0.012568660287299985
12.148,0.012575439720404908
12.152000000000001,0.012585897356577398
12.156,0.012590585262447825
12.16,0.012588205248698223
12.164,0.01258426259965848
12.168000000000001,0.012587339789152914
12.172,0.012590128492132245
12.176,0.01259330184379838
12.18,0.01259161900579361
12.184000000000001,0.012586113721463725
12.188,0.012574862747374703
12.192,0.01257274717959728
12.196,0.012577290842210154
12.200000000000001,0.012587532113496317
12.204,0.012614072872885808
12.208,0.012642296470280066
12.212,0.012674919487029649
12.216000000000001,0.012703263287138538
12.22,0.012702037219449345
12.224,0.01268506459614411
12.228,0.012671361486676708
12.232000000000001,0.012646599727463688
12.236,0.012625155563174353
12.24,0.01261152457533573
12.244,0.01260106693916324
12.248000000000001,0.012593710533028109
12.252,0.012588205248698223
12.256,0.012569381503587742
12.26,0.012576377301578994
12.264000000000001,0.012585488667347669
12.268,0.012589359194758636
12.272,0.012590897789505853
12.276,0.012586786856665633
12.280000000000001,0.012586979181009036
12.284,0.012592147897737967
12.288,0.01259161900579361
12.292,0.012590681424619526
12.296,0.012590128492132245
12.3,0.012587075343180737
12.304,0.012587940802726046
12.308,0.012589960208331768
12.312,0.012592484465338921
12.316,0.01259330184379838
12.32,0.012585055937575014
12.324,0.012589094748786459
12.328,0.012590296775932722
12.332,0.012588205248698223
12.336,0.01258964768127374
12.34,0.012586594532322231
12.344,0.012580848842563093
12.348,0.012583228856312694
12.352,0.012589263032586935
12.356,0.012591186276020957
12.36,0.012588277370327
12.364,0.012582050869709356
12.368,0.012560414381076619
12.372,0.012567746746668825
12.376,0.012577555288182333
12.38,0.012583781788799975
12.384,0.012588085045983598
12.388,0.012581594099393776
12.392,0.01258010358573241
12.396,0.012583517342827798
12.4,0.012582772085997115
12.404,0.01258056035604799
12.408,0.012578396707184716
12.412,0.012577507207096482
12.416,0.01257868519369982
12.42,0.012578925599129072
12.424,0.012580295910075812
12.428,0.012581041166906495
12.432,0.012577338923296004
12.436,0.012574742544660076
12.44,0.012581762383194254
12.444,0.012586858978294408
12.448,0.012588613937927953
12.452,0.012586834937751484
12.456,0.012583829869885826
12.46,0.012582171072423983
12.464,0.01258777251892557
12.468,0.012589142829872309
12.472,0.01258974384344544
12.476,0.012592220019366742
12.48,0.012588205248698223
12.484,0.012591017992220479
12.488,0.01259193153285164
12.492,0.012593566289770557
12.496,0.012596066506234785
12.5,0.012588373532498701
12.504,0.012575103152803956
12.508000000000001,0.012585897356577398
12.512,0.012594287506058316
12.516,0.01260056208776181
12.52,0.012602365128481204
12.524000000000001,0.01259623479003526
12.528,0.012598302276726835
12.532,0.012604288371915224
12.536,0.012601307344592493
12.540000000000001,0.012603230588026513
12.544,0.012604072007028897
12.548,0.012600129357989154
12.552,0.012604432615172776
12.556000000000001,0.012602365128481204
12.56,0.012604096047571822
12.564,0.012605851007205366
12.568,0.01260010531744623
12.572000000000001,0.012600129357989154
12.576,0.012601211182420791
12.58,0.012601331385135417
12.584,0.012602268966309503
12.588000000000001,0.012601235222963716
12.592,0.012595874181891382
12.596,0.012593542249227633
12.6,0.012596162668406486
12.604000000000001,0.012597821465868329
12.608,0.012597340655009824
12.612,0.012591907492308714
12.616,0.012573901125657693
12.620000000000001,0.012582724004911264
12.624,0.012594479830401717
12.628,0.012600321682332556
12.632,0.012601331385135417
12.636000000000001,0.012594359627687091
12.64,0.012594960641260223
12.644,0.012599768749845275
12.648,0.012602918060968485
12.652000000000001,0.01260380756105672
12.656,0.012599912993102827
12.66,0.01259481639800267
12.664,0.012599360060615546
12.668000000000001,0.01260111502024909
12.672,0.012600177439075004
12.676,0.01260010531744623
12.68,0.012593277803255453
12.684000000000001,0.01259289315456865
12.688,0.012596571357636215
12.692,0.01259705216849472
12.696,0.012598951371385817
12.700000000000001,0.012599720668759425
12.704,0.012598566722699012
12.708,0.012599985114731602
12.712,0.012603062304226037
12.716000000000001,0.012600489966133032
12.72,0.012604168169200599
12.724,0.012604913426031282
12.728,0.012605249993632234
12.732000000000001,0.012608014656068641
12.736,0.012604673020602029
12.74,0.012600273601246706
12.744,0.012598182074012207
12.748000000000001,0.01258426259965848
12.752,0.012577435085467705
12.756,0.012589599600187889
12.76,0.012597196411752273
12.764000000000001,0.01260695687217993
12.768,0.01260517787200346
12.772,0.012599792790388201
12.776,0.012600826533733987
12.780000000000001,0.012601187141877865
12.784,0.012606331818063872
12.788,0.012604168169200599
12.792,0.012600441885047182
12.796000000000001,0.012598158033469283
12.8,0.012605538480147338
12.804,0.012606836669465302
12.808,0.012610010021131438
12.812,0.012608351223669594
12.816,0.012602293006852427
12.82,0.012604865344945431
12.824,0.012605995250462918
12.828,0.012609216683214904
12.832,0.012608014656068641
12.836,0.01260705303435163
12.84,0.012605346155803936
12.844,0.012608543548012996
12.848,0.012611236088820626
12.852,0.012611813061850833
12.856,0.012610010021131438
12.86,0.012604528777344477
12.864,0.012605129790917609
12.868,0.012608711831813474
12.872,0.012608904156156875
12.876,0.012608615669641773
12.88,0.012610274467103616
12.884,0.012585560788976444
12.888,0.012579767018131457
12.892,0.01259334992488423
12.896,0.01260116310133494
12.9,0.012610538913075793
12.904,0.012609072439957352
12.908,0.012602004520337325
12.912,0.012600874614819837
12.916,0.01260202856088025
12.92,0.012605442317975637
12.924,0.012604600898973254
12.928,0.012601932398708549
12.932,0.012602461290652905
12.936,0.012605826966662442
12.94,0.012605923128834143
12.944,0.012605249993632234
12.948,0.012601667952736371
12.952,0.012599239857900919
12.956,0.012604793223316655
12.96,0.012608687791270548
12.964,0.012614986413516967
12.968,0.012612173669994712
12.972,0.012597749344239554
12.976,0.012585296343004267
12.98,0.012600586128304734
12.984,0.012610899521219672
12.988,0.012614433481029686
12.992,0.01261421711614336
12.996,0.012611644778050355
13.0,0.01261522681894622
13.004,0.012617414508352418
13.008000000000001,0.012616957738036838
13.012,0.012617678954324597
13.016,0.012614289237772134
13.02,0.012608543548012996
13.024000000000001,0.012612173669994712
13.028,0.012615250859489145
13.032,0.012614289237772134
13.036,0.012614120953971658
13.040000000000001,0.01261258235922444
13.044,0.01261126012936355
13.048,0.01260837526421252
13.052,0.012603422912369915
13.056000000000001,0.01259892733084289
13.06,0.012601403506764194
13.064,0.012603639277256242
13.068,0.012633040861253839
13.072000000000001,0.012659701823357957
13.076,0.012677251419693399
13.08,0.01269744547575062
13.084,0.01268927169115603
13.088000000000001,0.012662754972309466
13.092,0.012663139620996269
13.096,0.012655687052689438
13.1,0.01263857018612665
13.104000000000001,0.012625275765888979
13.108,0.01261344781876975
13.112,0.01260933688592953
13.116,0.012608014656068641
13.120000000000001,0.012608495466927145
13.124,0.012609096480500277
13.128,0.012605490399061487
13.132,0.012598614803784863
13.136000000000001,0.01260111502024909
13.14,0.012604552817887403
13.144,0.012607077074894555
13.148,0.012607437683038434
13.152000000000001,0.01259746085772445
13.156,0.012593542249227633
13.16,0.012597821465868329
13.164,0.01260161987165052
13.168000000000001,0.012607317480323808
13.172,0.012606860710008229
13.176,0.012603735439427943
13.18,0.01260375947997087
13.184000000000001,0.012605394236889786
13.188,0.01260938496701538
13.192,0.012606043331548768
13.196,0.012601788155450997
13.200000000000001,0.012598326317269759
13.204,0.012601451587850044
13.208,0.0126042643313723
13.212,0.012605298074718085
13.216000000000001,0.012601331385135417
13.22,0.012581546018307925
13.224,0.01257827650447009
13.228,0.012593373965427155
13.232000000000001,0.012595417411575802
13.236,0.012599937033645751
13.24,0.01259887924975704
13.244,0.012601595831107596
13.248000000000001,0.012608447385841295
13.252,0.01260705303435163
13.256,0.01260380756105672
13.26,0.012602196844680728
13.264000000000001,0.012601667952736371
13.268,0.012600802493191062
13.272,0.012604552817887403
13.276,0.01260116310133494
13.280000000000001,0.012598542682156088
13.284,0.012599263898443845
13.288,0.012592484465338921
13.292,0.012596138627863561
13.296000000000001,0.012600465925590108
13.3,0.012597316614466898
13.304,0.012593782654656886
13.308,0.012592460424795995
13.312000000000001,0.012593734573571035
13.316,0.012599672587673574
13.32,0.012599360060615546
13.324,0.012598206114555133
13.328,0.012597701263153703
13.332,0.012587171505352438
13.336,0.012576761950265799
13.34,0.012590897789505853
13.344,0.012603326750198214
13.348,0.01261162073750743
13.352,0.012608687791270548
13.356,0.012604023925943047
13.36,0.012611596696964504
13.364,0.012614818129716491
13.368,0.012620732103276106
13.372,0.012619554116672767
13.376,0.012612053467280084
13.38,0.012609601331901707
13.384,0.01261573167034765
13.388,0.012618135724640177
13.392,0.012612365994338114
13.396,0.012610322548189466
13.4,0.012610034061674363
13.404,0.012612414075423965
13.408,0.012615106616231593
13.412,0.012618255927354802
13.416,0.012620155130245898
13.42,0.012614048832342881
13.424,0.012610370629275317
13.428,0.012616068237948603
13.432,0.012619217549071813
13.436,0.01261669329206466
13.44,0.012621188873591685
13.444,0.012607365561409659
13.448,0.01259334992488423
13.452,0.012601908358165624
13.456,0.012610923561762598
13.46,0.012615563386547173
13.464,0.012615972075776903
13.468,0.012610058102217287
13.472,0.012609985980588512
13.476,0.012609144561586128
13.48,0.012612317913252263
13.484,0.012618712697670382
13.488,0.012615419143289622
13.492,0.012611476494249879
13.496,0.012612630440310291
13.5,0.01261938583287229
13.504,0.012619433913958141
13.508000000000001,0.012615779751433501
13.512,0.012612918926825395
13.516,0.01261198134565131
13.52,0.012613688224199003
13.524000000000001,0.012615491264918397
13.528,0.012615948035233977
13.532,0.012613808426913628
13.536,0.012610779318505046
13.540000000000001,0.01261491429188819
13.544,0.012618905022013785
13.548,0.01262075614381903
13.552,0.012618255927354802
13.556000000000001,0.012614241156686284
13.56,0.012614144994514583
13.564,0.012616380765006633
13.568,0.01261928967070059
13.572000000000001,0.012618135724640177
13.576,0.012613519940398527
13.58,0.012593830735742734
13.584,0.012592147897737967
13.588000000000001,0.012608279102040819
13.592,0.01261477004863064
13.596,0.012619193508528888
13.6,0.012616452886635408
13.604000000000001,0.012612606399767365
13.608,0.012618784819299159
13.612,0.012617414508352418
13.616,0.012616909656950987
13.620000000000001,0.012618856940927934
13.624,0.012615467224375471
13.628,0.012616476927178334
13.632,0.012618953103099635
13.636000000000001,0.012619770481559094
13.64,0.012620034927531273
13.644,0.012618664616584532
13.648,0.012610586994161644
13.652000000000001,0.012616789454236362
13.656,0.012618448251698205
13.66,0.012623160198111556
13.664,0.012622799589967678
13.668000000000001,0.012619602197758617
13.672,0.012617582792152896
13.676,0.012619193508528888
13.68,0.012620275332960524
13.684000000000001,0.012621741806078966
13.688,0.012621020589791207
13.692,0.012600994817534465
13.696,0.012596138627863561
13.700000000000001,0.012607341520866733
13.704,0.012612245791623487
13.708,0.012617678954324597
13.712,0.012618352089526504
13.716000000000001,0.012612005386194234
13.72,0.012612293872709337
13.724,0.012620876346533656
13.728,0.012616861575865137
13.732000000000001,0.012616741373150511
13.736,0.012614096913428732
13.74,0.012613784386370704
13.744,0.012613640143113152
13.748000000000001,0.012609216683214904
13.752,0.012603951804314272
13.756,0.012607942534439864
13.76,0.012605057669288834
13.764000000000001,0.012610490831989942
13.768,0.012612221751080562
13.772,0.01261116396719185
13.776,0.012612341953795188
13.780000000000001,0.012608495466927145
13.784,0.012604841304402505
13.788,0.012607245358695032
13.792,0.012609601331901707
13.796000000000001,0.012606259696435097
13.8,0.012603567155627467
13.804,0.012588926464985982
13.808,0.012587940802726046
13.812000000000001,0.012600634209390584
13.816,0.01260984173733096
13.82,0.012615803791976425
13.824,0.01261207750782301
13.828,0.012606716466750677
13.832,0.012612894886282469
13.836,0.01261710198129439
13.84,0.012614962372974041
13.844,0.01261162073750743
13.848,0.012610659115790419
13.852,0.012614096913428732
13.856,0.012617823197582149
13.86,0.012618953103099635
13.864,0.012617823197582149
13.868,0.01261883290038501
13.872,0.012617174102923167
13.876,0.012619145427443038
13.88,0.01262029937350345
13.884,0.01261847229224113
13.888,0.012620684022190255
13.892,0.012617582792152896
13.896,0.012610971642848448
13.9,0.012615851873062276
13.904,0.012618352089526504
13.908,0.012613471859312676
13.912,0.012605754845033667
13.916,0.012598230155098058
13.92,0.012608856075071024
13.924,0.01264126272693428
13.928,0.012673525135539983
13.932,0.01269977740841437
13.936,0.012720452275330101
13.94,0.012718913680582884
13.944,0.01270802331463774
13.948,0.012691675745448557
13.952,0.0126681160133818
13.956,0.012643330213625853
13.96,0.012619193508528888
13.964,0.012586858978294408
13.968,0.012594575992573418
13.972,0.01260837526421252
13.976,0.012614890251345266
13.98,0.012619265630157663
13.984,0.012616380765006633
13.988,0.012616957738036838
13.992,0.012620275332960524
13.996,0.012619722400473243
14.0,0.012617991481382625
14.004,0.012617991481382625
14.008000000000001,0.012612197710537636
14.012,0.012614169035057509
14.016,0.012619506035586916
14.02,0.012617005819122689
14.024000000000001,0.012619265630157663
14.028,0.012615972075776903
14.032,0.01260928880484368
14.036,0.012609865777873886
14.040000000000001,0.012613688224199003
14.044,0.012617029859665615
14.048,0.012613568021484377
14.052,0.01259234022208137
14.056000000000001,0.01259599438460601
14.06,0.01261056295361872
14.064,0.012614818129716491
14.068,0.012617702994867521
14.072000000000001,0.012616525008264184
14.076,0.01261883290038501
14.08,0.012623376562997883
14.084,0.012622006252051144
14.088000000000001,0.012619361792329364
14.092,0.012618183805726027
14.096,0.012611716899679132
14.1,0.012612365994338114
14.104000000000001,0.012613471859312676
14.108,0.01260979365624511
14.112,0.012609481129187082
14.116,0.012608279102040819
14.120000000000001,0.012605514439604414
14.124,0.01260796657498279
14.128,0.012611548615878654
14.132,0.0126113082104494
14.136000000000001,0.012606860710008229
14.14,0.01260161987165052
14.144,0.012604600898973254
14.148,0.012605658682861965
14.152000000000001,0.012607846372268163
14.156,0.012609937899502661
14.16,0.01260984173733096
14.164,0.012587604235125092
14.168000000000001,0.012584214518572629
14.172,0.012600177439075004
14.176,0.01260741364249551
14.18,0.012609048399414426
14.184000000000001,0.01260431241245815
14.188,0.012603158466397738
14.192,0.01260765404792476
14.196,0.01261070719687627
14.200000000000001,0.012612414075423965
14.204,0.012611332250992327
14.208,0.01260746172358136
14.212,0.012608759912899324
14.216000000000001,0.01261486621080234
14.22,0.01261933775178644
14.224,0.012621020589791207
14.228,0.01261517873786037
14.232000000000001,0.012609457088644156
14.236,0.012610466791447018
14.24,0.012615539346004248
14.244,0.012619145427443038
14.248000000000001,0.012621645643907265
14.252,0.01261974644101617
14.256,0.012617390467809493
14.26,0.012616068237948603
14.264000000000001,0.012616669251521734
14.268,0.012619193508528888
14.272,0.012615611467633023
14.276,0.012612101548365935
14.280000000000001,0.012610875480676747
14.284,0.012611212048277701
14.288,0.012616044197405678
14.292,0.012617991481382625
14.296000000000001,0.012613207413340497
14.3,0.012596258830578187
14.304,0.012602100682509026
14.308,0.012613543980941451
14.312000000000001,0.012616933697493914
14.316,0.01261436135940091
14.32,0.01260938496701538
14.324,0.012609769615702185
14.328000000000001,0.01261253427813859
14.332,0.012612606399767365
14.336,0.01261061103470457
14.34,0.0126113082104494
14.344,0.012609216683214904
14.348,0.012611139926648925
14.352,0.012611380332078178
14.356,0.012608182939869117
14.36,0.01260700495326578
14.364,0.012605754845033667
14.368,0.012605490399061487
14.372,0.012605995250462918
14.376,0.012608182939869117
14.38,0.01261248619705274
14.384,0.012614649845916013
14.388,0.012612005386194234
14.392,0.012613015088997096
14.396,0.01261436135940091
14.4,0.012614072872885808
14.404,0.012613423778226825
14.408,0.012612606399767365
14.412,0.012591186276020957
14.416,0.012593061438369127
14.42,0.01260339887182699
14.424,0.012608976277785651
14.428,0.01261106780502015
14.432,0.01261202942673716
14.436,0.012614144994514583
14.44,0.012620058968074197
14.444,0.012619866643730795
14.448,0.012618784819299159
14.452,0.012616092278491529
14.456,0.012608327183126669
14.46,0.012614697927001864
14.464,0.012621140792505835
14.468,0.012620491697846853
14.472,0.012620732103276106
14.476,0.012620058968074197
14.48,0.01261664521097881
14.484,0.012618736738213308
14.488,0.01261710198129439
14.492,0.012613856507999479
14.496,0.01261299104845417
14.5,0.012610779318505046
14.504,0.012613976710714106
14.508000000000001,0.012622102414222845
14.512,0.012623857373856389
14.516,0.01262618930652014
14.52,0.012623256360283257
14.524000000000001,0.012618856940927934
14.528,0.012618856940927934
14.532,0.012619698359930319
14.536,0.012620227251874675
14.540000000000001,0.012620780184361956
14.544,0.012607197277609181
14.548,0.012588277370327
14.552,0.012602821898796784
14.556000000000001,0.012610202345474839
14.56,0.012616837535322212
14.564,0.01262390545494224
14.568,0.012618087643554326
14.572000000000001,0.012615972075776903
14.576,0.012614962372974041
14.58,0.012612365994338114
14.584,0.012613327616055124
14.588000000000001,0.012615130656774519
14.592,0.012615298940574995
14.596,0.012616981778579764
14.6,0.01262070806273318
14.604000000000001,0.012620852305990731
14.608,0.012618953103099635
14.612,0.012614818129716491
14.616,0.01261563550817595
14.620000000000001,0.012619457954501066
14.624,0.012617029859665615
14.628,0.012618784819299159
14.632,0.012622246657480397
14.636000000000001,0.012620587860018554
14.64,0.012621381197935088
14.644,0.012627751941810282
14.648,0.012629074171671171
14.652000000000001,0.012622318779109172
14.656,0.012613303575512198
14.66,0.012598350357812685
14.664,0.012607485764124285
14.668000000000001,0.012616741373150511
14.672,0.012623328481912032
14.676,0.012627199009323001
14.68,0.01262400161711394
14.684000000000001,0.012627848103981983
14.688,0.012633569753198196
14.692,0.012631141658362743
14.696,0.012629362658186274
14.700000000000001,0.012626165265977214
14.704,0.012624578590144146
14.708,0.012627030725522523
14.712,0.012627030725522523
14.716000000000001,0.01262953094198675
14.72,0.012632920658539213
14.724,0.012628160631040011
14.728,0.012622895752139379
14.732000000000001,0.012620179170788825
14.736,0.012613664183656077
14.74,0.012610130223846064
14.744,0.012612101548365935
14.748000000000001,0.012625347887517756
14.752,0.012657538174494682
14.756,0.012692396961736314
14.76,0.012722038951163169
14.764000000000001,0.012743555237081278
14.768,0.012732256181906406
14.772,0.012697637800094022
14.776,0.012686218542204522
14.780000000000001,0.012671674013734738
14.784,0.012653715728169566
14.788,0.012638257659068623
14.792,0.012624482427972445
14.796000000000001,0.012627896185067834
14.8,0.012627896185067834
14.804,0.012625347887517756
14.808,0.01262340060354081
14.812000000000001,0.012622342819652098
14.816,0.012621862008793592
14.82,0.012626886482264971
14.824,0.012626766279550346
14.828000000000001,0.012630853171847641
14.832,0.01263436309111473
14.836,0.012629603063615527
14.84,0.012625347887517756
14.844000000000001,0.012629915590673555
14.848,0.012631093577276892
14.852,0.012630781050218864
14.856,0.012627247090408852
14.86,0.012621116751962909
14.864,0.012627030725522523
14.868,0.012630540644789611
14.872,0.01262989155013063
14.876,0.012626237387605991
14.88,0.012623352522454959
14.884,0.012621910089879443
14.888,0.012623472725169584
14.892,0.012621116751962909
14.896,0.01262176584662189
14.9,0.012623184238654482
14.904,0.012617366427266567
14.908,0.012618736738213308
14.912,0.012624843036116325
14.916,0.01262811254995416
14.92,0.012627896185067834
14.924,0.012624891117202176
14.928,0.012602509371738756
14.932,0.01259842247944146
14.936,0.012610779318505046
14.94,0.012617991481382625
14.944,0.012619025224728412
14.948,0.012618231886811878
14.952,0.01261522681894622
14.956,0.012618784819299159
14.96,0.012621597562821414
14.964,0.01262212645476577
14.968,0.012618087643554326
14.972,0.012617510670524119
14.976,0.012618953103099635
14.98,0.01261907330581426
14.984,0.012621140792505835
14.988,0.012624145860371493
14.992,0.012621357157392162
14.996,0.012618255927354802
15.0,0.012624674752315847
15.004,0.012625996982176738
15.008000000000001,0.012627078806608374
15.012,0.01262852123918389
15.016,0.01262532384697483
15.02,0.012629314577100424
15.024000000000001,0.012633497631569419
15.028,0.012631045496191044
15.032,0.012630564685332538
15.036,0.012624674752315847
15.040000000000001,0.012603422912369915
15.044,0.012607317480323808
15.048,0.01261938583287229
15.052,0.012630468523160836
15.056000000000001,0.012635156429031263
15.06,0.012633569753198196
15.064,0.012631045496191044
15.068,0.01263359379374112
15.072000000000001,0.012633353388311869
15.076,0.012637776848210117
15.08,0.012639050996985155
15.084,0.012633689955912821
15.088000000000001,0.01263628633454875
15.092,0.012639002915899304
15.096,0.012638137456353995
15.1,0.012636069969662423
15.104000000000001,0.01263578148314732
15.108,0.012631454185420773
15.112,0.012632896617996287
15.116,0.012634387131657654
15.120000000000001,0.012635204510117114
15.124,0.012635637239889768
15.128,0.0126294828609009
15.132,0.01262760769855273
15.136000000000001,0.01263116569890567
15.14,0.012634651577629833
15.144,0.012630588725875462
15.148,0.012626261428148915
15.152000000000001,0.012611740940222056
15.156,0.012606427980235573
15.16,0.012621934130422369
15.164,0.012629362658186274
15.168000000000001,0.012633377428854793
15.172,0.012630155996102808
15.176,0.012628160631040011
15.18,0.012633257226140168
15.184000000000001,0.012633425509940644
15.188,0.012632367726051932
15.192,0.01263953180784366
15.196,0.012638810591555904
15.200000000000001,0.012635012185773712
15.204,0.012634026523513775
15.208,0.012638498064497874
15.212,0.012638714429384202
15.216000000000001,0.012638377861783248
15.22,0.012637848969838892
15.224,0.012639652010558286
15.228,0.01263724795626576
15.232000000000001,0.012637656645495491
15.236,0.012636454618349228
15.24,0.012637079672465284
15.244,0.012639820294358764
15.248000000000001,0.012638137456353995
15.252,0.012640685753904073
15.256,0.012641743537792785
15.26,0.012636358456177527
15.264000000000001,0.0126203474545893
15.268,0.012615707629804724
15.272,0.0126317667124788
15.276,0.012639339483500258
15.280000000000001,0.012643666781226807
15.284,0.012646263159862734
15.288,0.012642152227022514
15.292,0.012645998713890556
15.296000000000001,0.01264871529524111
15.3,0.012648643173612336
15.304,0.0126476575113524
15.308,0.012644436078600415
15.312000000000001,0.012639219280785633
15.316,0.01264359465959803
15.32,0.012647801754609951
15.324,0.01265131167387704
15.328000000000001,0.01264943651152887
15.332,0.012641334848563055
15.336,0.012642416672994693
15.34,0.012643786983941432
15.344000000000001,0.01264460436240089
15.348,0.012645037092173546
15.352,0.012640829997161625
15.356,0.012638546145583724
15.36,0.012642272429737141
15.364,0.012646070835519333
15.368,0.012646984376150493
15.372,0.012646070835519333
15.376,0.01262897800949947
15.38,0.012613375697140975
15.384,0.012623665049512987
15.388,0.012635733402061469
15.392,0.012640709794446998
15.396,0.012643210010911225
15.4,0.012638089375268145
15.404,0.01264126272693428
15.408,0.012641190605305504
15.412,0.012641382929648906
15.416,0.012643786983941432
15.42,0.012638449983412023
15.424,0.01263775280766719
15.428,0.01264263303788102
15.432,0.012644796686744293
15.436,0.012645037092173546
15.44,0.012642608997338094
15.444,0.01264482072728722
15.448,0.012651095308990713
15.452,0.012651071268447786
15.456,0.012649965403473224
15.46,0.012651936727993097
15.464,0.012642272429737141
15.468,0.01263994049707339
15.472,0.01264720074103682
15.476,0.012651287633334115
15.48,0.012652080971250649
15.484,0.012649196106099617
15.488,0.012637175834636985
15.492,0.01262705476606545
15.496,0.012640228983588494
15.5,0.012650975106276085
15.504,0.012655037958030456
15.508000000000001,0.012656889079835702
15.512,0.012649244187185467
15.516,0.012650710660303908
15.52,0.012654773512058277
15.524000000000001,0.012657009282550327
15.528,0.012658139188067814
15.532,0.012655663012146512
15.536,0.012652922390253032
15.540000000000001,0.012651479957677517
15.544,0.012646912254521716
15.548,0.012640301105217269
15.552,0.012633497631569419
15.556000000000001,0.012625924860547961
15.56,0.0126362382534629
15.564,0.012665183067144916
15.568,0.01269516162417272
15.572000000000001,0.012722351478221197
15.576,0.012739756831299087
15.58,0.01274456493988414
15.584,0.012741680074733109
15.588000000000001,0.012729804046528029
15.592,0.01270629239554712
15.596,0.012686819555777653
15.6,0.012671073000161607
15.604000000000001,0.01265693716092155
15.608,0.012652465619937452
15.612,0.012651479957677517
15.616,0.012654292701199773
15.620000000000001,0.012655759174318213
15.624,0.012652441579394528
15.628,0.0126499413629303
15.632,0.012649340349357168
15.636000000000001,0.012653234917311061
15.64,0.01265506199857338
15.644,0.012651912687450171
15.648,0.01264729690320852
15.652000000000001,0.012650878944104386
15.656,0.012653811890341267
15.66,0.012652802187538406
15.664,0.012651431876591667
15.668000000000001,0.01263532471283174
15.672,0.012626742239007421
15.676,0.012639075037528081
15.68,0.012644267794799938
15.684000000000001,0.012649869241301523
15.688,0.012652850268624257
15.692,0.012647994078953353
15.696,0.012649628835872272
15.700000000000001,0.0126545090660861
15.704,0.012657105444722028
15.708,0.012655134120202156
15.712,0.012652056930707723
15.716000000000001,0.01265364360654079
15.72,0.012657610296123459
15.724,0.012654124417399295
15.728,0.012653523403826163
15.732000000000001,0.012653571484912014
15.736,0.012648354687097232
15.74,0.012650157727816627
15.744,0.012651672282020918
15.748000000000001,0.01265258582265208
15.752,0.012651239552248264
15.756,0.012646383362577361
15.76,0.012625804657833336
15.764000000000001,0.012629867509587705
15.768,0.012640108780873866
15.772,0.012644916889458919
15.776,0.0126523213766799
15.780000000000001,0.012649797119672748
15.784,0.012646912254521716
15.788,0.012648643173612336
15.792,0.012649652876415196
15.796000000000001,0.012651960768536022
15.8,0.012648955700670364
15.804,0.012643859105570207
15.808,0.012647080538322194
15.812000000000001,0.012649051862842065
15.816,0.012652922390253032
15.82,0.012654485025543175
15.824,0.012651984809078948
15.828000000000001,0.012652201173965275
15.832,0.012653018552424733
15.836,0.012651960768536022
15.84,0.012654581187714875
15.844000000000001,0.01265131167387704
15.848,0.012634964104687861
15.852,0.012633112982882616
15.856,0.012651624200935067
15.860000000000001,0.012661264458648099
15.864,0.012661048093761772
15.868,0.012655999579747466
15.872,0.012649965403473224
15.876,0.01265693716092155
15.88,0.012662538607423137
15.884,0.012660711526160818
15.888,0.012660567282903266
15.892,0.012656840998749851
15.896,0.012658692120555096
15.9,0.012668091972838873
15.904,0.012664029121084504
15.908,0.01266008647204476
15.912,0.012660567282903266
15.916,0.01265501391748753
15.92,0.012660687485617892
15.924,0.012663620431854775
15.928,0.012661793350592454
15.932,0.012663067499367494
15.936,0.012661528904620276
15.94,0.012658307471868292
15.944,0.012662466485794362
15.948,0.012666601459177506
15.952,0.012663572350768924
15.956,0.012661024053218846
15.96,0.01265861999892632
15.964,0.012660374958559864
15.968,0.012663620431854775
15.972,0.01266953440541439
15.976,0.012671265324505009
15.98,0.0126637406345694
15.984,0.012640469389017746
15.988,0.012635541077718066
15.992,0.012652465619937452
15.996,0.012664221445427906
16.0,0.012668524702611528
16.004,0.012664894580629813
16.008,0.012660374958559864
16.012,0.012662057796564633
16.016000000000002,0.012664293567056681
16.02,0.012665375391488319
16.024,0.01266446185085716
16.028,0.012659004647613124
16.032,0.012658427674582917
16.036,0.01266446185085716
16.04,0.012666865905149685
16.044,0.012662923256109942
16.048000000000002,0.012659221012499451
16.052,0.012662346283079735
16.056,0.012666745702435058
16.06,0.01266789964849547
16.064,0.012670471986588475
16.068,0.012669221878356361
16.072,0.012662754972309466
16.076,0.01266085576941837
16.080000000000002,0.012659701823357957
16.084,0.012662202039822185
16.088,0.012662298201993886
16.092,0.012666312972662404
16.096,0.01264917206555669
16.1,0.012646768011264164
16.104,0.012658523836754618
16.108,0.012662538607423137
16.112000000000002,0.012666625499720433
16.116,0.01266588024288975
16.12,0.012663668512940625
16.124,0.01266862086478323
16.128,0.012670015216272895
16.132,0.012674582919428695
16.136,0.012674991608658424
16.14,0.012669293999985136
16.144000000000002,0.012666048526690225
16.148,0.01266917379727051
16.152,0.01267328473011073
16.156,0.012673957865312637
16.16,0.012668933391841258
16.164,0.012664077202170354
16.168,0.012666216810490703
16.172,0.012666986107864311
16.176000000000002,0.012666817824063835
16.18,0.012665110945516141
16.184,0.012660927891047145
16.188,0.01265958162064333
16.192,0.01265962970172918
16.196,0.01265816322861074
16.2,0.01266140870190565
16.204,0.012663548310225998
16.208000000000002,0.012648258524925531
16.212,0.012639964537616316
16.216,0.012654172498485146
16.22,0.012660567282903266
16.224,0.012661985674935856
16.228,0.012656720796035224
16.232,0.012657369890694206
16.236,0.012662298201993886
16.240000000000002,0.012665735999632197
16.244,0.012667106310578938
16.248,0.012667058229493088
16.252,0.012665183067144916
16.256,0.012666505297005807
16.26,0.012668500662068602
16.264,0.012668789148583706
16.268,0.012667154391664787
16.272000000000002,0.012667322675465265
16.276,0.012666625499720433
16.28,0.012671169162333308
16.284,0.012675712824946181
16.288,0.012672611594908822
16.292,0.012674510797799918
16.296,0.012672130784050318
16.3,0.012666312972662404
16.304000000000002,0.012668091972838873
16.308,0.01267186633807814
16.312,0.012673765540969235
16.316,0.012673477054454133
16.32,0.012668476621525678
16.324,0.012673813622055085
16.328,0.012676313838519313
16.332,0.012677371622408024
16.336000000000002,0.012677371622408024
16.34,0.012670111378444596
16.344,0.012646359322034435
16.348,0.012648186403296756
16.352,0.012652754106452556
16.356,0.01265227329559405
16.36,0.01265861999892632
16.364,0.012668284297182275
16.368000000000002,0.012698118610952528
16.372,0.012725693113687809
16.376,0.012752570440678252
16.38,0.012764037779653603
16.384,0.012763460806623397
16.388,0.012758652698038345
16.392,0.012752498319049477
16.396,0.012729227073497822
16.4,0.012707181895635355
16.404,0.012692973934766521
16.408,0.012676602325034416
16.412,0.012667130351121863
16.416,0.012671529770477186
16.42,0.012676650406120267
16.424,0.012673597257168758
16.428,0.012671361486676708
16.432,0.012671577851563037
16.436,0.01267186633807814
16.44,0.012673477054454133
16.444,0.012673597257168758
16.448,0.012669678648671941
16.452,0.012665375391488319
16.456,0.012644291835342863
16.46,0.012648955700670364
16.464,0.01265962970172918
16.468,0.01266501478334444
16.472,0.012665543675288795
16.476,0.012663067499367494
16.48,0.012659100809784826
16.484,0.012665375391488319
16.488,0.012666024486147301
16.492,0.01266693802677846
16.496,0.012667058229493088
16.5,0.012662153958736334
16.504,0.012663380026425522
16.508,0.012663620431854775
16.512,0.012666024486147301
16.516000000000002,0.012664389729228382
16.52,0.012662298201993886
16.524,0.012662610729051914
16.528,0.012665808121260974
16.532,0.012662586688508988
16.536,0.01266318770208212
16.54,0.012659004647613124
16.544,0.012655278363459707
16.548000000000002,0.012658283431325365
16.552,0.012662129918193408
16.556,0.012660759607246668
16.56,0.012654436944457325
16.564,0.012649797119672748
16.568,0.012630083874474032
16.572,0.012634339050571803
16.576,0.012647032457236343
16.580000000000002,0.012654124417399295
16.584,0.01265547068780311
16.588,0.012652345417222826
16.592,0.012649412470985943
16.596,0.012654989876944606
16.6,0.012654917755315829
16.604,0.012657129485264953
16.608,0.012655663012146512
16.612000000000002,0.012652129052336498
16.616,0.01265359552545494
16.62,0.01266008647204476
16.624,0.012661649107334904
16.628,0.012662298201993886
16.632,0.012662033756021707
16.636,0.012659509499014555
16.64,0.012660326877474013
16.644000000000002,0.012661264458648099
16.648,0.012664774377915187
16.652,0.012667683283609144
16.656,0.012664798418458112
16.66,0.012665856202346825
16.664,0.012667106310578938
16.668,0.012672130784050318
16.672,0.012679895879415178
16.676000000000002,0.012678573649554287
16.68,0.012671481689391336
16.684,0.012671481689391336
16.688,0.012674029986941414
16.692,0.012679559311814224
