time,channel1
0.0,-0.008250666250864616
0.004,-0.008249344021003725
0.008,-0.008265066536076848
0.012,-0.00828987637637572
0.016,-0.008296607728394793
0.02,-0.008286558781452033
0.024,-0.008285525038106248
0.028,-0.008286005848964752
0.032,-0.008282688254041066
0.036000000000000004,-0.008279562983460782
0.04,-0.008276485793966348
0.044,-0.008275139523562533
0.048,-0.008281101578207998
0.052000000000000005,-0.008286654943623734
0.056,-0.00828978021420402
0.06,-0.00829444407953152
0.064,-0.008292881444241378
0.068,-0.008287832930227073
0.07200000000000001,-0.008277663780569686
0.076,-0.008266533009195288
0.08,-0.008269754441947275
0.084,-0.008269345752717545
0.088,-0.008260570954549823
0.092,-0.008258142859714372
0.096,-0.008273168199042662
0.1,-0.008293458417271584
0.10400000000000001,-0.008299420471917049
0.108,-0.008287929092398774
0.112,-0.008280620767349494
0.116,-0.008283313308157122
0.12,-0.00828074097006412
0.124,-0.008275836699307365
0.128,-0.008272855671984634
0.132,-0.008271701725924221
0.136,-0.008271677685381295
0.14,-0.008271052631265239
0.14400000000000002,-0.008270211212262854
0.148,-0.008269562117603872
0.152,-0.008269610198689723
0.156,-0.008268384131000533
0.16,-0.008265018454990997
0.164,-0.00826206146821119
0.168,-0.008266821495710392
0.17200000000000001,-0.008269249590545844
0.176,-0.00826896110403074
0.18,-0.008263744306215959
0.184,-0.00825754184614124
0.188,-0.008258936197630906
0.192,-0.00826932171217462
0.196,-0.00827809651034234
0.2,-0.008270403536606257
0.20400000000000001,-0.008266557049738214
0.20800000000000002,-0.00826206146821119
0.212,-0.008257325481254914
0.216,-0.008255979210851099
0.22,-0.0082584553867724
0.224,-0.00826215763038289
0.228,-0.00826119600866588
0.232,-0.008260979643779554
0.23600000000000002,-0.00825891215708798
0.24,-0.008257253359626137
0.244,-0.008259248724688934
0.248,-0.008258743873287504
0.252,-0.008257589927227091
0.256,-0.008263119252099901
0.26,-0.008262662481784321
0.264,-0.008259152562517233
0.268,-0.008259296805774785
0.272,-0.008262686522327247
0.276,-0.008258022656999747
0.28,-0.008261700860067311
0.28400000000000003,-0.008263816427844734
0.28800000000000003,-0.008261965306039488
0.292,-0.008260378630206422
0.296,-0.008262181670925817
0.3,-0.008261845103324863
0.304,-0.008257253359626137
0.308,-0.008249608466975904
0.312,-0.00824511288544888
0.316,-0.008252974142985441
0.32,-0.008260306508577646
0.324,-0.008263047130471126
0.328,-0.008266316644308961
0.332,-0.008262662481784321
0.336,-0.008255931129765248
0.34,-0.008253527075472722
0.34400000000000003,-0.008252541413212786
0.34800000000000003,-0.008253022224071292
0.352,-0.008268528374258085
0.356,-0.00827261526655538
0.36,-0.008267566752541075
0.364,-0.008264561684675417
0.368,-0.008254993548591162
0.372,-0.008252805859184963
0.376,-0.008255330116192117
0.38,-0.008258263062428998
0.384,-0.008253671318730274
0.388,-0.00825333475112932
0.392,-0.008252132723983056
0.396,-0.008253575156558573
0.4,-0.008251844237467953
0.404,-0.00824831027765794
0.40800000000000003,-0.008242588628441726
0.41200000000000003,-0.00824607450716589
0.41600000000000004,-0.008253286670043469
0.42,-0.008259873778804992
0.424,-0.008264321279246164
0.428,-0.008269465955432171
0.432,-0.008275788618221515
0.436,-0.008273649009901168
0.44,-0.008267302306568898
0.444,-0.008276894483196077
0.448,-0.0082791062131452
0.452,-0.008269850604118976
0.456,-0.008263239454814528
0.46,-0.008254969508048238
0.464,-0.008249127656117398
0.468,-0.008258094778628522
0.47200000000000003,-0.00828078905114997
0.47600000000000003,-0.008281822794495757
0.48,-0.008253046264614216
0.484,-0.00824835835874379
0.488,-0.008243910858302617
0.492,-0.00824708420996875
0.496,-0.008248839169602295
0.5,-0.008257613967770016
0.504,-0.008261821062781937
0.508,-0.008261388333009283
0.512,-0.008253022224071292
0.516,-0.008253190507871768
0.52,-0.00825927276523186
0.524,-0.008261869143867787
0.528,-0.008260498832921048
0.532,-0.008256219616280352
0.536,-0.008252252926697682
0.54,-0.00824506480436303
0.544,-0.008251123021180196
0.548,-0.008261941265496564
0.552,-0.008261724900610235
0.556,-0.008250497967064138
0.56,-0.008245834101736637
0.5640000000000001,-0.0082470361288829
0.5680000000000001,-0.008253911724159525
0.5720000000000001,-0.008256700427138856
0.5760000000000001,-0.008256411940623752
0.58,-0.008248694926344743
0.584,-0.008244487831332822
0.588,-0.008243670452873364
0.592,-0.008247324615398004
0.596,-0.008241771249982268
0.6,-0.008238141128000554
0.604,-0.008236217884566532
0.608,-0.008235809195336802
0.612,-0.008239030628088787
0.616,-0.008243357925815336
0.62,-0.008233597465387679
0.624,-0.008231722303039507
0.628,-0.00824516096653473
0.632,-0.008256604264967155
0.636,-0.008252060602354281
0.64,-0.0082538876836166
0.644,-0.008259633373375739
0.648,-0.008261965306039488
0.652,-0.008257613967770016
0.656,-0.00825703699473981
0.66,-0.008248598764173042
0.664,-0.00824876704797352
0.668,-0.008251171102266046
0.672,-0.008241362560752538
0.676,-0.008242324182469549
0.68,-0.008247372696483854
0.684,-0.008247877547885285
0.6880000000000001,-0.008247204412683378
0.6920000000000001,-0.00824977675077638
0.6960000000000001,-0.008247973710056986
0.7000000000000001,-0.008244511871875748
0.704,-0.008237876682028375
0.708,-0.008219509707233473
0.712,-0.0082128745173861
0.716,-0.008230255829921066
0.72,-0.008238381533429805
0.724,-0.00823693910085429
0.728,-0.008239872047091172
0.732,-0.008242997317671457
0.736,-0.008239343155146817
0.74,-0.008246290872052217
0.744,-0.00824785350734236
0.748,-0.008241747209439343
0.752,-0.00823602556022313
0.756,-0.008230977046208825
0.76,-0.008230255829921066
0.764,-0.008233333019415501
0.768,-0.008229775019062562
0.772,-0.008226241059252548
0.776,-0.008224534180704854
0.78,-0.008224486099619004
0.784,-0.00822496691047751
0.788,-0.00822693823499738
0.792,-0.008219846274834427
0.796,-0.008209917530606292
0.8,-0.008208835706174656
0.804,-0.008216793125882919
0.808,-0.008235809195336802
0.812,-0.008240881749894033
0.8160000000000001,-0.00822862107300215
0.8200000000000001,-0.008221649315553822
0.8240000000000001,-0.008227611370199287
0.8280000000000001,-0.008231193411095152
0.8320000000000001,-0.008222130126412326
0.836,-0.008225039032106285
0.84,-0.008228837437888476
0.844,-0.008229726937976712
0.848,-0.008226409343053024
0.852,-0.008223596599530768
0.856,-0.008226697829568128
0.86,-0.008228452789201672
0.864,-0.008220399207321708
0.868,-0.008213379368787532
0.872,-0.00822003859917783
0.876,-0.00823241947878434
0.88,-0.00822684207282568
0.884,-0.008218331720630134
0.888,-0.008228597032459223
0.892,-0.008239992249805799
0.896,-0.008237636276599123
0.9,-0.008230448154264469
0.904,-0.008225856410565743
0.908,-0.00822100022089484
0.912,-0.008216793125882919
0.916,-0.008218043234115032
0.92,-0.008222490734556206
0.924,-0.00821931738289007
0.928,-0.00822588045110867
0.932,-0.008235063938506119
0.936,-0.008226409343053024
0.9400000000000001,-0.00821424482833284
0.9440000000000001,-0.008214220787789914
0.9480000000000001,-0.008227659451285138
0.9520000000000001,-0.008235713033165101
0.9560000000000001,-0.00823150593815318
0.96,-0.008227010356626156
0.964,-0.008227250762055409
0.968,-0.008226144897080847
0.972,-0.008219509707233473
0.976,-0.008220351126235858
0.98,-0.008227322883684185
0.984,-0.008232900289642846
0.988,-0.008228572991916299
0.992,-0.008217874950314554
0.996,-0.008213451490416307
1.0,-0.00821708161239802
1.004,-0.008219076977460818
1.008,-0.008223332153558591
1.012,-0.008226048734909145
1.016,-0.008225736207851117
1.02,-0.008224413977990229
1.024,-0.008225904491651594
1.028,-0.008226072775452072
1.032,-0.00822227436966988
1.036,-0.008217971112486256
1.04,-0.008211191679381332
1.044,-0.008209364598119011
1.048,-0.008212369665984669
1.052,-0.008217562423256526
1.056,-0.008210302179293097
1.06,-0.008213667855302633
1.064,-0.008220327085692931
1.068,-0.008219004855832043
1.072,-0.008215230490592777
1.076,-0.008207417314142066
1.08,-0.008210206017121396
1.084,-0.008210254098207246
1.088,-0.008204171840847155
1.092,-0.008197584732085633
1.096,-0.008201214854067348
1.1,-0.008210903192866228
1.104,-0.008216672923168291
1.108,-0.008214485233762094
1.112,-0.008218019193572106
1.116,-0.00822027900460708
1.12,-0.008219581828862248
1.124,-0.008211985017297866
1.1280000000000001,-0.00821191289566909
1.1320000000000001,-0.008214581395933795
1.1360000000000001,-0.008216793125882919
1.1400000000000001,-0.00821780282868578
1.1440000000000001,-0.008217586463799453
1.1480000000000001,-0.008216456558281965
1.1520000000000001,-0.008221769518268448
1.156,-0.008221529112839195
1.16,-0.008206503773510905
1.164,-0.008193906529018068
1.168,-0.008201936070355105
1.172,-0.00820825873314445
1.176,-0.008203570827274024
1.18,-0.008202969813700892
1.184,-0.008210230057664322
1.188,-0.008206648016768457
1.192,-0.008199964745835234
1.196,-0.008203811232703277
1.2,-0.008204532448991034
1.204,-0.008204219921933006
1.208,-0.008203330421844771
1.212,-0.008206287408624578
1.216,-0.008209773287348742
1.22,-0.008209821368434593
1.224,-0.008212537949785147
1.228,-0.008220134761349529
1.232,-0.008217995153029182
1.236,-0.008211648449696912
1.24,-0.008211432084810585
1.244,-0.008215422814936178
1.248,-0.008219197180175445
1.252,-0.008217947071943331
1.256,-0.008213427449873382
1.26,-0.008205854678851923
1.264,-0.008201575462211227
1.268,-0.00820688842219771
1.272,-0.00821145612535351
1.276,-0.008209508841376563
1.28,-0.008201335056781974
1.284,-0.008193618042502964
1.288,-0.00819282470458643
1.292,-0.008205854678851923
1.296,-0.008216192112309787
1.3,-0.008214749679734271
1.304,-0.008205566192336821
1.308,-0.008196671191454473
1.312,-0.008199243529547475
1.316,-0.00821013389549262
1.32,-0.008212489868699296
1.324,-0.008208979949432208
1.328,-0.008205133462564166
1.332,-0.008202200516327283
1.336,-0.008201166772981498
1.34,-0.008195565326479911
1.344,-0.008192920866758132
1.348,-0.008195252799421883
1.352,-0.008197464529371007
1.356,-0.008200325353979113
1.36,-0.008200325353979113
1.364,-0.008199532016062579
1.368,-0.008201599502754151
1.372,-0.0081991714079187
1.3760000000000001,-0.008195709569737463
1.3800000000000001,-0.008198281907830465
1.3840000000000001,-0.008198955043032374
1.3880000000000001,-0.00820109465135272
1.3920000000000001,-0.008195685529194537
1.3960000000000001,-0.008191839042326494
1.4000000000000001,-0.0081968875563408
1.4040000000000001,-0.008205590232879745
1.408,-0.008200301313436187
1.412,-0.008195757650823313
1.416,-0.008195252799421883
1.42,-0.008198402110545093
1.424,-0.00819542108322236
1.428,-0.008189434988033968
1.432,-0.008188064677087228
1.436,-0.008197152002312979
1.44,-0.008187223258084844
1.444,-0.008186982852655593
1.448,-0.008186526082340011
1.452,-0.008189795596177848
1.456,-0.00818967539346322
1.46,-0.008188737812289137
1.464,-0.00818633375799661
1.468,-0.008182944041444148
1.472,-0.00818623759582491
1.476,-0.008187151136456069
1.48,-0.00817815997340202
1.484,-0.008176092486710447
1.488,-0.008180323622265295
1.492,-0.00818496344704987
1.496,-0.008180299581722368
1.5,-0.008174962581192961
1.504,-0.00817171710789805
1.508,-0.00817140458084002
1.512,-0.008175467432594391
1.516,-0.008172967216130164
1.52,-0.008167870621030008
1.524,-0.008170611242923488
1.528,-0.00816998618880743
1.532,-0.008158086120059426
1.536,-0.008161283512268485
1.54,-0.00817825613557372
1.544,-0.008179169676204882
1.548,-0.008181501608868632
1.552,-0.008181982419727138
1.556,-0.008173568229703295
1.56,-0.008177775324715216
1.564,-0.008177366635485487
1.568,-0.008177366635485487
1.572,-0.008178929270775629
1.576,-0.008177871486886918
1.58,-0.008176236729968
1.584,-0.008176885824626981
1.588,-0.008175611675851941
1.592,-0.008178015730144468
1.596,-0.008182727676557821
1.6,-0.008185588501165927
1.604,-0.008185564460623001
1.608,-0.008181285243982305
1.612,-0.008185949109309806
1.616,-0.008180203419550667
1.62,-0.00816943325632015
1.624,-0.008170683364552263
1.6280000000000001,-0.008174650054134931
1.6320000000000001,-0.008170563161837638
1.6360000000000001,-0.008167942742658783
1.6400000000000001,-0.008169721742835253
1.6440000000000001,-0.008176236729968
1.6480000000000001,-0.008178328257202497
1.6520000000000001,-0.008175755919109493
1.6560000000000001,-0.00817171710789805
1.6600000000000001,-0.00817364035133207
1.6640000000000001,-0.00817364035133207
1.668,-0.008169625580663552
1.672,-0.008166211823568165
1.676,-0.008164144336876593
1.68,-0.008167726377772456
1.684,-0.008175178946079288
1.688,-0.008176525216483103
1.692,-0.00817537127042269
1.696,-0.008163711607103937
1.7,-0.008153518416903625
1.704,-0.00815755722811507
1.708,-0.008172847013415536
1.712,-0.008185660622794702
1.716,-0.008179049473490255
1.72,-0.00817272681070091
1.724,-0.00817272681070091
1.728,-0.008175443392051465
1.732,-0.008177174311142085
1.736,-0.008176356932682625
1.74,-0.008175275108250989
1.744,-0.008175852081281194
1.748,-0.008172366202557032
1.752,-0.0081716690268122
1.756,-0.008170971851067367
1.76,-0.008167918702115858
1.764,-0.008166908999312997
1.768,-0.008164384742305844
1.772,-0.008170034269893281
1.776,-0.008176693500283579
1.78,-0.008175491473137316
1.784,-0.008174842378478334
1.788,-0.008176429054311402
1.792,-0.00817140458084002
1.796,-0.008161740282584066
1.8,-0.008161571998783588
1.804,-0.008167437891257352
1.808,-0.008171043972696142
1.812,-0.008171452661925871
1.816,-0.008175154905536362
1.82,-0.008174481770334455
1.824,-0.008167942742658783
1.828,-0.008161812404212841
1.832,-0.00815933622829154
1.836,-0.00816294230973033
1.84,-0.008163807769275638
1.844,-0.008162052809642094
1.848,-0.0081602497689227
1.852,-0.008156090754996629
1.856,-0.008163471201674684
1.86,-0.008168399512974362
1.864,-0.008171092053781992
1.868,-0.008172486405271658
1.872,-0.008174770256849559
1.8760000000000001,-0.00816851971568899
1.8800000000000001,-0.008158134201145277
1.8840000000000001,-0.008158639052546707
1.8880000000000001,-0.008162148971813795
1.8920000000000001,-0.00816359140438931
1.8960000000000001,-0.008166957080398848
1.9000000000000001,-0.00816907264817627
1.9040000000000001,-0.008164769390992649
1.9080000000000001,-0.008159817039150044
1.9120000000000001,-0.008161403714983112
1.9160000000000001,-0.008158615012003781
1.92,-0.008151090322068174
1.924,-0.008152003862699334
1.928,-0.008149599808406807
1.932,-0.008144743618735904
1.936,-0.008154287714277234
1.94,-0.008162894228644479
1.944,-0.008156884092913163
1.948,-0.00815202790324226
1.952,-0.00815811016060235
1.956,-0.008153278011474373
1.96,-0.00815445599807771
1.964,-0.008157845714630173
1.968,-0.008159095822862287
1.972,-0.008152292349214437
1.976,-0.008152508714100764
1.98,-0.008155249335994244
1.984,-0.00815399922776213
1.988,-0.00815440791699186
1.992,-0.008148205456917142
1.996,-0.008144863821450531
2.0,-0.008150633551752594
2.004,-0.008154287714277234
2.008,-0.008148710308318572
2.012,-0.008145080186336858
2.016,-0.008138493077575335
2.02,-0.008135944780025257
2.024,-0.008143637753761342
2.028,-0.00814522442959441
2.032,-0.00814354159158964
2.036,-0.008145344632309036
2.04,-0.0081489266732049
2.044,-0.008149575767863883
2.048,-0.008146642821627
2.052,-0.008146065848596794
2.056,-0.008143781997018894
2.06,-0.008142507848243856
2.064,-0.00814481574036468
2.068,-0.008146017767510944
2.072,-0.00814495998362223
2.076,-0.00814390219973352
2.08,-0.008141978956299499
2.084,-0.008139238334406019
2.088,-0.00814440705113495
2.092,-0.008144238767334474
2.096,-0.008145008064708081
2.1,-0.008148493943432245
2.104,-0.008152652957358316
2.108,-0.008145296551223185
2.112,-0.008136089023282809
2.116,-0.00813577649622478
2.12,-0.00814116157784004
2.124,-0.008143878159190595
2.128,-0.008141137537297114
2.132,-0.00813837287486071
2.136,-0.008138781564090439
2.14,-0.008142002996842423
2.144,-0.008140272077751805
2.148,-0.00814024803720888
2.152,-0.008138493077575335
2.156,-0.00814354159158964
2.16,-0.00814399836190522
2.164,-0.008142339564443378
2.168,-0.008139262374948945
2.172,-0.008137531455858325
2.176,-0.008138036307259755
2.18,-0.00814349351050379
2.184,-0.008151354768040351
2.188,-0.008145320591766111
2.192,-0.008147027470313805
2.196,-0.008149215159720002
2.2,-0.008147989092030815
2.204,-0.008140536523723983
2.208,-0.00813938257766357
2.212,-0.008139142172234317
2.216,-0.008138685401918738
2.22,-0.008133492644646882
2.224,-0.008134045577134163
2.228,-0.008139070050605542
2.232,-0.008138084388345606
2.236,-0.008131857887727963
2.24,-0.008128275846832098
2.244,-0.008127674833258967
2.248,-0.008130535657867073
2.2520000000000002,-0.008133180117588852
2.2560000000000002,-0.008131930009356738
2.2600000000000002,-0.00812216954892908
2.2640000000000002,-0.008122506116530034
2.2680000000000002,-0.008130559698409999
2.2720000000000002,-0.008129958684836867
2.2760000000000002,-0.008128059481945771
2.2800000000000002,-0.008125559265481544
2.2840000000000003,-0.008126833414256584
2.2880000000000003,-0.008121736819156426
2.2920000000000003,-0.008118347102603963
2.2960000000000003,-0.008121592575898874
2.3000000000000003,-0.008121424292098396
2.3040000000000003,-0.008116207494283614
2.308,-0.008117673967402055
2.312,-0.008122866724673912
2.316,-0.008127362306200939
2.32,-0.008128131603574546
2.324,-0.008131954049899665
2.328,-0.008137074685542745
2.332,-0.008136425590883763
2.336,-0.008135343766452125
2.34,-0.008145440794480737
2.344,-0.008155008930564991
2.348,-0.008149599808406807
2.352,-0.0081328435499879
2.356,-0.00812430915724943
2.36,-0.008118803872919543
2.364,-0.008118467305318589
2.368,-0.008119452967578525
2.372,-0.008121640656984725
2.376,-0.008125150576251815
2.38,-0.008124910170822562
2.384,-0.008123924508562625
2.388,-0.008127073819685835
2.392,-0.00812176085969935
2.396,-0.008112409088501422
2.4,-0.008115582440167558
2.404,-0.0081194289270356
2.408,-0.008118419224232738
2.412,-0.008114813142793949
2.416,-0.008114981426594427
2.42,-0.00812572754928202
2.424,-0.008126232400683452
2.428,-0.008118371143146888
2.432,-0.008126160279054676
2.436,-0.008135127401565799
2.44,-0.008132963752702525
2.444,-0.008123083089560239
2.448,-0.008117625886316206
2.452,-0.008118299021518113
2.456,-0.008125463103309843
2.46,-0.008130824144382176
2.464,-0.008127169981857536
2.468,-0.008123636022047522
2.472,-0.008123515819332894
2.476,-0.008123563900418745
2.48,-0.008121328129926695
2.484,-0.008116616183513344
2.488,-0.008112336966872647
2.492,-0.008106567236570585
2.496,-0.008111062818097607
2.5,-0.008112168683072171
2.504,-0.008117770129573756
2.508,-0.00812700169805706
2.512,-0.008129790401036391
2.516,-0.008130463536238298
2.52,-0.00812298692738854
2.524,-0.008120222264952133
2.528,-0.008123996630191402
2.532,-0.008121400251555472
2.536,-0.008116952751114298
2.54,-0.00812176085969935
2.544,-0.008132098293157216
2.548,-0.008129910603751017
2.552,-0.00812471784647916
2.556,-0.00812426107616358
2.56,-0.008129261509092035
2.564,-0.008124164913991878
2.568,-0.008117577805230355
2.572,-0.008122794603045137
2.576,-0.008126160279054676
2.58,-0.008121520454270097
2.584,-0.008123876427476777
2.588,-0.008130992428182654
2.592,-0.00812527077896644
2.596,-0.008116471940255792
2.6,-0.008122794603045137
2.604,-0.008130800103839252
2.608,-0.008120606913638938
2.612,-0.008105942182454527
2.616,-0.008109692507150868
2.62,-0.008123251373360717
2.624,-0.00812964615777884
2.628,-0.00812313117064609
2.632,-0.00811815477826056
2.636,-0.00811719315654355
2.64,-0.00811541415636708
2.644,-0.008112745656102377
2.648,-0.00810978866932257
2.652,-0.008113130304789181
2.656,-0.008115005467137351
2.66,-0.008113130304789181
2.664,-0.008114260210306668
2.668,-0.008115029507680277
2.672,-0.008116015169940212
2.676,-0.008111062818097607
2.68,-0.008105076722909218
2.684,-0.008105196925623843
2.688,-0.008110101196380597
2.692,-0.00811298606153163
2.696,-0.008113106264246255
2.7,-0.008110870493754207
2.704,-0.008105485412138947
2.708,-0.008104283384992684
2.712,-0.008101638925270905
2.716,-0.008103850655220029
2.72,-0.00810937998009284
2.724,-0.008106206628426706
2.728,-0.008096398086913198
2.732,-0.008097071222115105
2.736,-0.008107817344802698
2.74,-0.008111976358728769
2.744,-0.00811161575058489
2.748,-0.008113058183160405
2.7520000000000002,-0.008110702209953729
2.7560000000000002,-0.008111663831670739
2.7600000000000002,-0.008112144642529245
2.7640000000000002,-0.008103970857934656
2.7680000000000002,-0.008102768830788393
2.7720000000000002,-0.008098441533061844
2.7760000000000002,-0.008097768397859938
2.7800000000000002,-0.008103201560561048
2.7840000000000003,-0.008104211263363909
2.7880000000000003,-0.00810166296581383
2.7920000000000003,-0.008100581141382193
2.7960000000000003,-0.008100533060296343
2.8000000000000003,-0.008100172452152464
2.8040000000000003,-0.008095845154425917
2.8080000000000003,-0.00809471524890843
2.8120000000000003,-0.008100124371066613
2.816,-0.008102816911874243
2.82,-0.008106110466255005
2.824,-0.008106999966343238
2.828,-0.008106302790598405
2.832,-0.008098946384463276
2.836,-0.008090291789010181
2.84,-0.008093128573075361
2.844,-0.008097672235688236
2.848,-0.008094282519135774
2.852,-0.008091229370184265
2.856,-0.008089306126750245
2.86,-0.008093513221762166
2.864,-0.008096758695057077
2.868,-0.008094234438049923
2.872,-0.008095700911168366
2.876,-0.008093272816332913
2.88,-0.008089209964578544
2.884,-0.008088200261775683
2.888,-0.008093537262305092
2.892,-0.008093513221762166
2.896,-0.008091253410727191
2.9,-0.008087647329288402
2.904,-0.008080867896183478
2.908,-0.008076516557914006
2.912,-0.008081757396271712
2.916,-0.008087022275172344
2.92,-0.00808557984259683
2.924,-0.00808654146431384
2.928,-0.008089498451093647
2.932,-0.00808841662666201
2.936,-0.008089065721320992
2.94,-0.008090940883669163
2.944,-0.008086421261599213
2.948,-0.008071708449328953
2.952,-0.008075795341626247
2.956,-0.008092792005474409
2.96,-0.008092190991901277
2.964,-0.008090964924212088
2.968,-0.008088344505033235
2.972,-0.008087599248202551
2.976,-0.008079954355552317
2.98,-0.008082358409844843
2.984,-0.008098633857405247
2.988,-0.00810161488472798
2.992,-0.00809750395188776
2.996,-0.00808872915372004
3.0,-0.008080435166410823
3.004,-0.008077189693115912
3.008,-0.008073968260363927
3.012,-0.008073992300906852
3.016,-0.00807872828786313
3.02,-0.008075723219997472
3.024,-0.008070987233041194
3.028,-0.008066467610971245
3.032,-0.008065193462196207
3.036,-0.008072501787245487
3.04,-0.008070794908697792
3.044,-0.0080714680438997
3.048,-0.008073223003533244
3.052,-0.008074064422535629
3.056,-0.008073078760275692
3.06,-0.008076925247143735
3.064,-0.008076252111941826
3.068,-0.008073631692762973
3.072,-0.0080760357470555
3.076,-0.008072910476475216
3.08,-0.008068198530061865
3.084,-0.008069929449152483
3.088,-0.008081444869213684
3.092,-0.008086204896712886
3.096,-0.008081444869213684
3.1,-0.008076276152484753
3.104,-0.008073583611677123
3.108,-0.008083584477534033
3.112,-0.00808942632946487
3.116,-0.008092190991901277
3.12,-0.008093609383933867
3.124,-0.008089786937608751
3.128,-0.008084065288392537
3.132,-0.008069905408609558
3.136,-0.008054880069281269
3.14,-0.008059159285921965
3.144,-0.008063510624191438
3.148,-0.008066299327170769
3.152,-0.008066371448799544
3.156,-0.008068054286804313
3.16,-0.008069015908521323
3.164,-0.008065241543282057
3.168,-0.00806685225965805
3.172,-0.008071395922270923
3.176,-0.008076179990313051
3.18,-0.008072285422359158
3.184,-0.008069063989607174
3.188,-0.008070818949240718
3.192,-0.008067573475945807
3.196,-0.008058389988548357
3.2,-0.008058726556149311
3.204,-0.008054952190910044
3.208,-0.008052427933902892
3.212,-0.008058149583119104
3.216,-0.008068535097662817
3.22,-0.008078632125691428
3.224,-0.008075266449681892
3.228,-0.00806827065169064
3.232,-0.008063101934961708
3.236,-0.008058005339861552
3.24,-0.00805588977208413
3.244,-0.00806613104337029
3.248,-0.008068414894948191
3.2520000000000002,-0.008067092665087303
3.2560000000000002,-0.008063486583648513
3.2600000000000002,-0.008063101934961708
3.2640000000000002,-0.008062260515959324
3.2680000000000002,-0.008063318299848035
3.2720000000000002,-0.008065049218938655
3.2760000000000002,-0.008060361313068228
3.2800000000000002,-0.00806055363741163
3.2840000000000003,-0.008063726989077764
3.2880000000000003,-0.008064135678307495
3.2920000000000003,-0.008054880069281269
3.2960000000000003,-0.008053581879963304
3.3000000000000003,-0.008061563340214491
3.3040000000000003,-0.008072117138558682
3.3080000000000003,-0.008073150881904469
3.3120000000000003,-0.008071588246614326
3.3160000000000003,-0.008076516557914006
3.3200000000000003,-0.00807055450326854
3.3240000000000003,-0.008060529596868706
3.3280000000000003,-0.008062981732247081
3.332,-0.008066659935314647
3.336,-0.008064736691880627
3.34,-0.008066299327170769
3.344,-0.008068390854405265
3.348,-0.008065049218938655
3.352,-0.008061202732070612
3.356,-0.008063462543105587
3.36,-0.00806923227340765
3.364,-0.00806639548934247
3.368,-0.008057572610088897
3.372,-0.008048773771378252
3.376,-0.008052932785304322
3.38,-0.008059279488636592
3.384,-0.008061851826729595
3.388,-0.00806589063794104
3.392,-0.008071227638470447
3.396,-0.00806589063794104
3.4,-0.008061563340214491
3.404,-0.008066683975857572
3.408,-0.008066996502915601
3.412,-0.008067910043546761
3.416,-0.008068535097662817
3.42,-0.008065145381110356
3.424,-0.008056009974798755
3.428,-0.008047235176631034
3.432,-0.008063414462019736
3.436,-0.008071155516841672
3.44,-0.008063101934961708
3.444,-0.008057091799230393
3.448,-0.008055673407197803
3.452,-0.008061298894242314
3.456,-0.008065313664910832
3.46,-0.008062092232158848
3.464,-0.008060241110353602
3.468,-0.008055793609912428
3.472,-0.008056370582942634
3.476,-0.008060649799583331
3.48,-0.008063582745820213
3.484,-0.00806192394835837
3.488,-0.00805831786691958
3.492,-0.008055312799053922
3.496,-0.008053269352905276
3.5,-0.008054952190910044
3.504,-0.00806634740825662
3.508,-0.00806466457025185
3.512,-0.008059279488636592
3.516,-0.008054831988195418
3.52,-0.008056827353258215
3.524,-0.008057284123573795
3.528,-0.008060409394154078
3.532,-0.008060842123926734
3.536,-0.008065794475769338
3.54,-0.00807192481421528
3.544,-0.008063895272878242
3.548,-0.008063486583648513
3.552,-0.00805913524537904
3.556,-0.00806055363741163
3.56,-0.008058510191262983
3.564,-0.008052524096074593
3.568,-0.0080531972312765
3.572,-0.008060385353611154
3.576,-0.008060217069810676
3.58,-0.008057885137146927
3.584,-0.008057212001945018
3.588,-0.008053077028561874
3.592,-0.008052572177160443
3.596,-0.008053485717791603
3.6,-0.008051394190557105
3.604,-0.008056514826200185
3.608,-0.00805223560955949
3.612,-0.008051899041958535
3.616,-0.008056610988371887
3.62,-0.008059928583295574
3.624,-0.00805836594800543
3.628,-0.00805836594800543
3.632,-0.008058005339861552
3.636,-0.00805588977208413
3.64,-0.008055312799053922
3.644,-0.00805644270457141
3.648,-0.00806274132681783
3.652,-0.00806269324573198
3.656,-0.008058438069634207
3.66,-0.008057284123573795
3.664,-0.008055649366654876
3.668,-0.008054086731364735
3.672,-0.008060120907638975
3.676,-0.008060938286098435
3.68,-0.008054038650278884
3.684,-0.008052379852817041
3.688,-0.008056009974798755
3.692,-0.008054038650278884
3.696,-0.008052451974445816
3.7,-0.008049014176807505
3.704,-0.00804040766244026
3.708,-0.008041777973387
3.712,-0.008041729892301149
3.716,-0.00804182605447285
3.72,-0.008046465879257426
3.724,-0.008055288758510998
3.728,-0.008060457475239929
3.732,-0.00805055277155472
3.736,-0.008049807514724037
3.74,-0.0080532933934482
3.744,-0.008055697447740727
3.748,-0.008054086731364735
3.7520000000000002,-0.00805137015001418
3.7560000000000002,-0.008050745095898123
3.7600000000000002,-0.008047908311832943
3.7640000000000002,-0.008051225906756629
3.7680000000000002,-0.008050672974269348
3.7720000000000002,-0.008045576379169191
3.7760000000000002,-0.008043701216821022
3.7800000000000002,-0.008047235176631034
3.7840000000000003,-0.008055144515253446
3.7880000000000003,-0.00805730816411672
3.7920000000000003,-0.008047018811744707
3.7960000000000003,-0.008041201000356794
3.8000000000000003,-0.008048389122691447
3.8040000000000003,-0.008057644731717674
3.8080000000000003,-0.008055048353081745
3.8120000000000003,-0.0080600487860102
3.8160000000000003,-0.008063823151249466
3.8200000000000003,-0.008057019677601616
3.8240000000000003,-0.008057981299318628
3.8280000000000003,-0.008056490785657261
3.8320000000000003,-0.008051730758158059
3.8360000000000003,-0.008046225473828173
3.84,-0.008036657337743919
3.844,-0.008037234310774124
3.848,-0.008052307731188264
3.852,-0.008054904109824193
3.856,-0.008049903676895738
3.86,-0.008042811716732786
3.864,-0.008040888473298764
3.868,-0.008042427068045982
3.872,-0.008042715554561085
3.876,-0.008038893108235969
3.88,-0.008039806648867128
3.884,-0.008045912946770145
3.888,-0.00804735537934566
3.892,-0.008047018811744707
3.896,-0.008050648933726421
3.9,-0.008050192163410842
3.904,-0.00805096146078445
3.908,-0.008044590716909255
3.912,-0.00803141649938621
3.916,-0.008034758134852823
3.92,-0.008042138581530878
3.924,-0.008048341041605596
3.928,-0.008051682677072208
3.932,-0.008047956392918791
3.936,-0.008051634595986358
3.94,-0.008056707150543588
3.944,-0.00805831786691958
3.948,-0.008054591582766165
3.952,-0.008055192596339297
3.956,-0.008057957258775702
3.96,-0.008070073692410034
3.964,-0.0080691841923218
3.968,-0.008051682677072208
3.972,-0.008040768270584139
3.976,-0.008030190431697023
3.98,-0.0080257910123417
3.984,-0.008042475149131832
3.988,-0.008052355812274115
3.992,-0.008044710919623882
3.996,-0.008038965229864744
4.0,-0.008033892675307514
4.0040000000000004,-0.008037114108059499
4.008,-0.008043965662793199
4.0120000000000005,-0.008052956825847246
4.016,-0.008055312799053922
4.0200000000000005,-0.008051514393271732
4.024,-0.008049158420065055
4.0280000000000005,-0.008048461244320224
4.032,-0.008041104838185093
4.0360000000000005,-0.008038412297377463
4.04,-0.008041465446328971
4.0440000000000005,-0.008035960161999086
4.048,-0.008033483986077785
4.0520000000000005,-0.008031945391330567
4.056,-0.008038532500092089
4.0600000000000005,-0.008044951325053134
4.064,-0.008041128878728017
4.0680000000000005,-0.00803990281103883
4.072,-0.008049879636352814
4.0760000000000005,-0.008052115406844864
4.08,-0.008040215338096858
4.0840000000000005,-0.008033844594221663
4.088,-0.00804740346043151
4.0920000000000005,-0.008057043718144542
4.096,-0.008050793176983973
4.1,-0.00804822083889097
4.104,-0.008047139014459333
4.108,-0.008039373919094473
4.112,-0.008043220405962516
4.116,-0.008057212001945018
4.12,-0.008054952190910044
4.124,-0.008050793176983973
4.128,-0.008048196798348044
4.132,-0.008047066892830558
4.136,-0.008046778406315454
4.14,-0.008049567109294786
4.144,-0.008045744662969668
4.148,-0.008041297162528495
4.152,-0.008046778406315454
4.156,-0.008042475149131832
4.16,-0.00803990281103883
4.164,-0.008037618959460929
4.168,-0.008034950459196225
4.172,-0.008036489053943443
4.176,-0.008040167257011007
4.18,-0.008045792744055518
4.184,-0.008053341474534051
4.188,-0.008054230974622286
4.192,-0.008050216203953768
4.196,-0.008045215771025313
4.2,-0.008044783041252657
4.204,-0.008044254149308303
4.208,-0.008047860230747092
4.212,-0.00805543300176855
4.216,-0.008055625326111952
4.22,-0.008053918447564258
4.224,-0.008048485284863148
4.228,-0.008040335540811483
4.232,-0.0080395902839808
4.236,-0.008039037351493519
4.24,-0.00803858058117794
4.244,-0.008033580148249484
4.248,-0.008030310634411649
4.252,-0.008032113675131044
4.256,-0.008038965229864744
4.26,-0.008042066459902103
4.264,-0.008039878770495903
4.268,-0.008041657770672374
4.272,-0.008048148717262194
4.276,-0.00804766790640369
4.28,-0.008038532500092089
4.284,-0.008038772905521342
4.288,-0.008041729892301149
4.292,-0.00803355610770656
4.296,-0.008023939890536453
4.3,-0.008024901512253465
4.304,-0.008030959729070631
4.308,-0.008039373919094473
4.312,-0.00804725921717396
4.316,-0.008043629095192245
4.32,-0.00803944604072325
4.324,-0.008039518162352025
4.328,-0.008040287459725633
4.332,-0.008036176526885413
4.336,-0.0080303587154975
4.34,-0.008028243147720077
4.344,-0.008034397526708944
4.348,-0.00804223474370258
4.352,-0.008042643432932308
4.356,-0.008040624027326587
4.36,-0.00803990281103883
4.364,-0.008040936554384615
4.368,-0.008043893541164422
4.372,-0.008047499622603212
4.376,-0.008047980433461718
4.38,-0.00804182605447285
4.384,-0.008034854297024524
4.388,-0.008037835324347256
4.392,-0.00804310020324789
4.396,-0.008033916715850438
4.4,-0.008034589851052347
4.404,-0.00803918159475107
4.408,-0.00803999897321053
4.412,-0.008043004041076189
4.416,-0.008041345243614344
4.42,-0.008027113242202588
4.424,-0.008023218674248695
4.428,-0.008023218674248695
4.432,-0.008024396660852032
4.436,-0.008025502525826596
4.44,-0.008025670809627074
4.444,-0.00802848355314933
4.448,-0.00803091164798478
4.452,-0.008030719323641378
4.456,-0.008033820553678737
4.46,-0.00804228282478843
4.464,-0.008040696148955364
4.468,-0.008030070228982396
4.472,-0.008030839526356005
4.476,-0.00803132033721451
4.48,-0.008024492823023734
4.484,-0.008024036052708154
4.488,-0.008026584350258234
4.492,-0.008023771606735976
4.496,-0.008019059660322625
4.5,-0.008029685580295593
4.5040000000000004,-0.008030839526356005
4.508,-0.008027185363831365
4.5120000000000005,-0.008025622728541223
4.516,-0.008030118310068246
4.5200000000000005,-0.00803497449973915
4.524,-0.008028627796406881
4.5280000000000005,-0.008021271390271749
4.532,-0.008014636200424377
4.5360000000000005,-0.008020213606383038
4.54,-0.008029156688351236
4.5440000000000005,-0.008029974066810695
4.548,-0.008031608823729613
4.5520000000000005,-0.008029421134323414
4.556,-0.008029781742467294
4.5600000000000005,-0.008033003175219279
4.564,-0.008027906580119122
4.5680000000000005,-0.008016631565487172
4.572,-0.008016968133088127
4.5760000000000005,-0.008022064728188283
4.58,-0.008024372620309108
4.5840000000000005,-0.008021487755158076
4.588,-0.008019251984666027
4.5920000000000005,-0.008014035186851245
4.596,-0.008018650971092896
4.6000000000000005,-0.00802273786339019
4.604,-0.008021439674072225
4.6080000000000005,-0.008022617660675564
4.612,-0.008023963931079379
4.616,-0.008025262120397343
4.62,-0.008026680512429935
4.624,-0.008028651836949806
4.628,-0.008026656471887009
4.632,-0.00803086356689893
4.636,-0.008032618526532474
4.64,-0.008027810417947421
4.644,-0.008018939457608
4.648,-0.008015910349199415
4.652,-0.008016655606030099
4.656,-0.008017112376345678
4.66,-0.008024252417594482
4.664,-0.008027305566545991
4.668,-0.00803269064816125
4.672,-0.008034613891595271
4.676,-0.00803091164798478
4.68,-0.008025766971798774
4.684,-0.008025238079854417
4.688,-0.008031248215585735
4.692,-0.008032522364360773
4.696,-0.008033700350964111
4.7,-0.00803163286427254
4.704,-0.008026680512429935
4.708,-0.008019348146837729
4.712,-0.00802506979605394
4.716,-0.008028243147720077
4.72,-0.008022136849817058
4.724,-0.008016583484401322
4.728,-0.0080123763893894
4.732,-0.008020189565840111
4.736,-0.008027113242202588
4.74,-0.008023867768907678
4.744,-0.008015742065398939
4.748,-0.008012400429932327
4.752,-0.008015814187027714
4.756,-0.008017016214173977
4.76,-0.00801994916041086
4.764,-0.008016944092545202
4.768,-0.008018650971092896
4.772,-0.008023435039135022
4.776,-0.008019780876610382
4.78,-0.00801304952459131
4.784,-0.008007856767319452
4.788,-0.00800848182143551
4.792,-0.00801963663335283
4.796,-0.008023747566193052
4.8,-0.008016463281686696
4.804,-0.008010645470298783
4.808,-0.0080123763893894
4.812,-0.008015044889654106
4.816,-0.008014804484224853
4.82,-0.008020742498327394
4.824,-0.008034493688880645
4.828,-0.008038700783892566
4.832,-0.008033171459019755
4.836,-0.008022401295789237
4.84,-0.008015718024856013
4.844,-0.008007039388859993
4.848,-0.00800259188841882
4.852,-0.008005404631941075
4.856,-0.008007448078089723
4.86,-0.008002880374933923
4.864,-0.007997639536576215
4.868,-0.008004250685880662
4.872,-0.008009659808038846
4.876,-0.008003986239908485
4.88,-0.00801268891644743
4.884,-0.008023483120220873
4.888,-0.008025117877139791
4.892,-0.008017569146661258
4.896,-0.00800944344315252
4.9,-0.008007231713203396
4.904,-0.008009371321523743
4.908,-0.008011150321700213
4.912,-0.008010092537811502
4.916,-0.008006486456372712
4.92,-0.008003745834479232
4.924,-0.008004491091309915
4.928,-0.008001101374757453
4.932,-0.008002303401903716
4.936,-0.008010477186498307
4.94,-0.008010573348670006
4.944,-0.008006197969857609
4.948,-0.008000500361184321
4.952,-0.008001654307244734
4.956,-0.008010573348670006
4.96,-0.008007231713203396
4.964,-0.007999226212409283
4.968,-0.008009130916094492
4.972,-0.008015213173454582
4.976,-0.008009683848581773
4.98,-0.008005861402256655
4.984,-0.00800538059139815
4.988,-0.008000163793583369
4.992,-0.007999081969151731
4.996,-0.007999298334038058
5.0,-0.007997495293318663
5.0040000000000004,-0.007999154090780506
5.008,-0.008003697753393381
5.0120000000000005,-0.008003481388507054
5.016,-0.0079985771177503
5.0200000000000005,-0.008002399564075417
5.024,-0.008010212740526127
5.0280000000000005,-0.008013626497621515
5.032,-0.008012208105588925
5.0360000000000005,-0.00800456321293869
5.04,-0.008002543807332969
5.0440000000000005,-0.008012881240790833
5.048,-0.008013458213821038
5.0520000000000005,-0.008004851699453794
5.056,-0.008000235915212144
5.0600000000000005,-0.007998673279922002
5.064,-0.007998216509606422
5.0680000000000005,-0.008003072699277325
5.072,-0.00800857798360721
5.0760000000000005,-0.00800624605094346
5.08,-0.008007351915918021
5.0840000000000005,-0.008003048658734399
5.088,-0.007996894279745531
5.0920000000000005,-0.007993216076677967
5.096,-0.007990186968269383
5.1000000000000005,-0.007994778711968109
5.104,-0.008004659375110391
5.1080000000000005,-0.008003072699277325
5.112,-0.00800319290199195
5.1160000000000005,-0.008006270091486386
5.12,-0.008003481388507054
5.124,-0.007999707023267789
5.128,-0.007997976104177169
5.132,-0.007997855901462543
5.136,-0.00799665387431628
5.14,-0.007996870239202607
5.144,-0.007996317306715326
5.148,-0.007994898914682736
5.152,-0.007995043157940286
5.156,-0.007997447212232812
5.16,-0.007997278928432336
5.164,-0.007995596090427567
5.168,-0.007994129617309127
5.172,-0.007992542941476059
5.176,-0.0079962932661724
5.18,-0.007993528603735995
5.184,-0.007992927590162863
5.188,-0.007993071833420415
5.192,-0.00798893686003727
5.196,-0.007983239251363983
5.2,-0.007989008981666046
5.204,-0.008004250685880662
5.208,-0.008009707889124697
5.212,-0.008010332943240755
5.216,-0.008003000577648548
5.22,-0.00798884069786557
5.224,-0.00799076394129959
5.228,-0.007999322374580984
5.232,-0.007997735698747916
5.236,-0.007995740333685119
5.24,-0.007999250252952207
5.244,-0.008005428672484001
5.248,-0.008002784212762222
5.252,-0.00799177364410245
5.256,-0.007986364521944267
5.26,-0.007992927590162863
5.264,-0.007990162927726458
5.268,-0.007984272994709768
5.272,-0.007984513400139021
5.276,-0.00799345648210722
5.28,-0.007989057062751896
5.284,-0.007980642872728054
5.288,-0.007991413035958572
5.292,-0.00800528442922645
5.296,-0.008002279361360791
5.3,-0.007998216509606422
5.304,-0.007995139320111987
5.308,-0.007996581752687503
5.312,-0.007997663577119141
5.316,-0.0079917255630166
5.32,-0.00798985040066843
5.324,-0.007988143522120737
5.328,-0.007985787548914061
5.332,-0.00799025908989816
5.336,-0.007994971036311511
5.34,-0.007989898481754281
5.344,-0.007986845332802773
5.348,-0.007988167562663661
5.352,-0.007985162494798003
5.356,-0.007986677049002295
5.36,-0.0079871578598608
5.364,-0.00798542694077018
5.368,-0.007980955399786082
5.372,-0.007979200440152538
5.376,-0.007991100508900544
5.38,-0.007991629400844899
5.384,-0.007989129184380672
5.388,-0.007989561914153327
5.392,-0.007991052427814694
5.396,-0.007986316440858416
5.4,-0.00798198914313187
5.404,-0.007982277629646973
5.408,-0.00798492208936875
5.412,-0.007983864305480039
5.416,-0.00798391238656589
5.42,-0.007986460684115968
5.424,-0.007986412603030117
5.428,-0.007974103845052382
5.432,-0.007972228682704212
5.436,-0.007979464886124716
5.44,-0.00798198914313187
5.444,-0.007976099210115179
5.448,-0.007981604494445065
5.452,-0.007979224480695464
5.456,-0.007982229548561122
5.46,-0.007987975238320259
5.464,-0.00797888791309451
5.468,-0.007973286466592924
5.472,-0.007975474155999123
5.476,-0.007979464886124716
5.48,-0.007978190737349677
5.484,-0.007983599859507862
5.488,-0.007982469953990374
5.492,-0.007985523102941882
5.496,-0.007984104710909292
5.5,-0.00798198914313187
5.5040000000000004,-0.00797746952106192
5.508,-0.007976724264231237
5.5120000000000005,-0.007988239684292438
5.516,-0.007989105143837747
5.5200000000000005,-0.007983311372992758
5.524,-0.007979416805038865
5.5280000000000005,-0.007978815791465733
5.532,-0.007980522670013427
5.5360000000000005,-0.007983888346022965
5.54,-0.007979705291553969
5.5440000000000005,-0.007969776547325835
5.548,-0.007972709493562716
5.5520000000000005,-0.00798295076484888
5.556,-0.007991485157587347
5.5600000000000005,-0.007993071833420415
5.564,-0.007992711225276537
5.5680000000000005,-0.00798898494112312
5.572,-0.007988600292436317
5.5760000000000005,-0.007990571616956188
5.58,-0.007991917887360003
5.5840000000000005,-0.007986917454431548
5.588,-0.007983359454078609
5.5920000000000005,-0.007981195805215335
5.596,-0.007976363656087357
5.6000000000000005,-0.00797528183165572
5.604,-0.007982830562134254
5.6080000000000005,-0.007979224480695464
5.612,-0.007964127019738398
5.6160000000000005,-0.00797153150695938
5.62,-0.007989441711438701
5.6240000000000006,-0.007984152791995143
5.628,-0.007969776547325835
5.632,-0.007970089074383863
5.636,-0.007983792183851264
5.64,-0.007988960900580195
5.644,-0.00798888877895142
5.648,-0.00798660492737352
5.652,-0.007984489359596097
5.656,-0.007982830562134254
5.66,-0.00798295076484888
5.664,-0.007984657643396573
5.668,-0.007982229548561122
5.672,-0.007983359454078609
5.676,-0.007986051994886239
5.68,-0.007982734399962553
5.684,-0.007980282264584176
5.688,-0.007979825494268596
5.692,-0.007981027521414859
5.696,-0.00798025822404125
5.7,-0.007976916588574638
5.704,-0.007988335846464138
5.708,-0.008001630266701809
5.712,-0.00800401028045141
5.716,-0.007990499495327413
5.72,-0.007969536141896582
5.724,-0.0079666993578314
5.728,-0.007974897182968916
5.732,-0.007977709926491171
5.736,-0.007978214777892602
5.74,-0.007981460251187513
5.744,-0.007977830129205799
5.748,-0.007977950331920424
5.752,-0.007979464886124716
5.756,-0.007981844899874318
5.76,-0.007984393197424396
5.764,-0.007979512967210566
5.768,-0.00798172469715969
5.772,-0.007976027088486404
5.776,-0.00797477698025429
5.78,-0.00797523375056987
5.784,-0.007969247655381479
5.788,-0.007962564384448256
5.792,-0.007962612465534107
5.796,-0.007963526006165266
5.8,-0.007967685020091337
5.804,-0.007972252723247137
5.808,-0.007977709926491171
5.812,-0.007979585088839343
5.816,-0.007980498629470503
5.82,-0.007981003480871933
5.824,-0.007974897182968916
5.828,-0.007967300371404532
5.832,-0.007963934695394996
5.836,-0.007966362790230448
5.84,-0.00796198741141805
5.844,-0.007955520505371154
5.848,-0.007958189005635859
5.852,-0.007971699790759856
5.856,-0.007969175533752704
5.86,-0.007964463587339352
5.864,-0.007968286033664469
5.868,-0.007970065033840939
5.872,-0.007964343384624725
5.876,-0.007969199574295628
5.88,-0.007975714561428374
5.884,-0.007981195805215335
5.888,-0.0079803063051271
5.892,-0.007975065466769394
5.896,-0.00797381535853728
5.9,-0.00797249312867639
5.904,-0.007976243453372731
5.908,-0.007979056196894986
5.912,-0.007970906452843322
5.916,-0.00796427126299595
5.92,-0.00796153064110247
5.924,-0.007966098344258269
5.928,-0.007966290668601671
5.932,-0.00796528096579881
5.936,-0.007964367425167651
5.94,-0.007965785817200241
5.944,-0.007965473290142213
5.948,-0.007969752506782909
5.952,-0.00797020927709849
5.956,-0.007956890816317895
5.96,-0.007957684154234427
5.964,-0.007972396966504688
5.968,-0.007972108479989585
5.972,-0.007963045195306762
5.976,-0.007964415506253502
5.98,-0.007963261560193089
5.984,-0.007955376262113602
5.988,-0.007953188572707404
5.992,-0.007962949033135061
5.996,-0.00796893512832345
6.0,-0.007965473290142213
6.0040000000000004,-0.007960544978842535
6.008,-0.00795823708672171
6.0120000000000005,-0.007959054465181168
6.016,-0.007961410438387844
6.0200000000000005,-0.007958549613779738
6.024,-0.007957035059575446
6.0280000000000005,-0.007948380464122351
6.032,-0.007940831733643818
6.0360000000000005,-0.00794244245001981
6.04,-0.007953380897050806
6.0440000000000005,-0.00795655424871694
6.048,-0.007954078072795637
6.0520000000000005,-0.007949943099412493
6.056,-0.007945784085486423
6.0600000000000005,-0.007954174234967339
6.064,-0.007950592194071475
6.0680000000000005,-0.00793965374704048
6.072,-0.007945928328743974
6.0760000000000005,-0.007953260694336179
6.08,-0.007949726734526166
6.0840000000000005,-0.00795239523479087
6.088,-0.007952707761848898
6.0920000000000005,-0.007949606531811539
6.096,-0.007949462288553987
6.1000000000000005,-0.007949606531811539
6.104,-0.007946938031546835
6.1080000000000005,-0.00793563897637196
6.112,-0.007932153097647799
6.1160000000000005,-0.007948091977607248
6.12,-0.007962660546619958
6.1240000000000006,-0.007956794654146193
6.128,-0.007951097045472906
6.132000000000001,-0.007950904721129503
6.136,-0.007946577423402957
6.140000000000001,-0.007942682855449064
6.144,-0.007940447084957013
6.148,-0.007940447084957013
6.152,-0.007948308342493575
6.156,-0.007953621302480058
6.16,-0.00794869299118038
6.164,-0.007945736004400572
6.168,-0.007947611166748742
6.172,-0.007946577423402957
6.176,-0.007935110084427606
6.18,-0.007929700962269422
6.184,-0.007928498935123159
6.188,-0.007932585827420452
6.192,-0.00793198481384732
6.196,-0.007932008854390247
6.2,-0.007932080976019022
6.204,-0.007940663449843342
6.208,-0.00794737076131949
6.212,-0.007942322247305185
6.216,-0.007937153530576254
6.22,-0.007938091111750338
6.224,-0.007935807260172439
6.228,-0.007936720800803598
6.232,-0.00794280305816369
6.236,-0.007947106315347311
6.24,-0.00794335599065097
6.244,-0.007930277935299627
6.248,-0.00793220117873365
6.252,-0.007939269098353676
6.256,-0.00793539857094271
6.26,-0.007929676921726496
6.264,-0.007927897921550027
6.268,-0.007930157732585002
6.272,-0.007935254327685158
6.276,-0.007930277935299627
6.28,-0.007925277502371172
6.284,-0.007933811895109642
6.288,-0.007941360625588175
6.292,-0.00794563984222887
6.296,-0.00793828343609374
6.3,-0.007939052733467348
6.304,-0.007942009720247157
6.308,-0.007941144260701846
6.312,-0.007941120220158922
6.316,-0.007936648679174822
6.32,-0.007935687057457811
6.324,-0.007939100814553198
6.328,-0.007939797990298031
6.332,-0.007936672719717748
6.336,-0.00794001435518436
6.34,-0.007940326882242388
6.344,-0.007938884449666872
6.348,-0.007935302408771008
6.352,-0.007937850706321085
6.356,-0.00793636019265972
6.36,-0.007930037529870374
6.364,-0.007932633908506303
6.368,-0.007935158165513457
6.372,-0.007932681989592153
6.376,-0.007929989448784525
6.38,-0.007932513705791677
6.384,-0.007927344989062746
6.388,-0.00792462840771219
6.392,-0.007945832166572273
6.396,-0.00795924678952457
6.4,-0.0079574677893481
6.404,-0.007950856640043653
6.408,-0.007942490531105661
6.412,-0.007944485896168458
6.416,-0.007951193207644607
6.42,-0.007951337450902159
6.424,-0.007945928328743974
6.428,-0.007946697626117582
6.432,-0.007952010586104065
6.436,-0.007955111816141424
6.44,-0.007947611166748742
6.444,-0.007945423477342544
6.448,-0.007945447517885468
6.452,-0.007939894152469732
6.456,-0.00793828343609374
6.46,-0.007935278368228082
6.464,-0.00793275411122093
6.468,-0.007931359759731265
6.472,-0.007930854908329834
6.476,-0.007929075908153364
6.48,-0.00793563897637196
6.484,-0.00794508690974159
6.488,-0.007945663882771795
6.492,-0.007937754544149385
6.496,-0.00793974990921218
6.5,-0.007938668084780545
6.5040000000000004,-0.007937850706321085
6.508,-0.007936961206232851
6.5120000000000005,-0.00793585534125829
6.516,-0.007930109651499151
6.5200000000000005,-0.007925782353772602
6.524,-0.007934076341081819
6.5280000000000005,-0.007936792922432373
6.532,-0.007934196543796446
6.5360000000000005,-0.007934965841170054
6.54,-0.007932177138190723
6.5440000000000005,-0.007922633042649393
6.548,-0.007922609002106468
6.5520000000000005,-0.007932633908506303
6.556,-0.007939004652381499
6.5600000000000005,-0.007930662583986432
6.564,-0.007923570623823479
6.5680000000000005,-0.007934076341081819
6.572,-0.007956121518944285
6.5760000000000005,-0.00795458292419707
6.58,-0.007935326449313933
6.5840000000000005,-0.0079255900294292
6.588,-0.00792366678599518
6.5920000000000005,-0.007921671420932383
6.596,-0.007922248393962588
6.6000000000000005,-0.007922969610250347
6.604,-0.007925229421285322
6.6080000000000005,-0.00793280219230678
6.612,-0.007930999151587386
6.6160000000000005,-0.007925950637573079
6.62,-0.007920613637043671
6.6240000000000006,-0.007917921096236041
6.628,-0.007917031596147806
6.632000000000001,-0.007924772650969742
6.636,-0.007929821164984047
6.640000000000001,-0.007923426380565927
6.644,-0.007919363528811557
6.648000000000001,-0.007920685758672446
6.652,-0.007923234056222524
6.656000000000001,-0.007919483731526183
6.66,-0.007919844339670062
6.664,-0.007926792056575463
6.668,-0.007931600165160518
6.672,-0.007929676921726496
6.676,-0.007925830434858453
6.68,-0.007921094447902175
6.684,-0.00792421971848246
6.688,-0.007931263597559563
6.692,-0.007929869246069898
6.696,-0.007927128624176417
6.7,-0.007920998285730474
6.704,-0.007923330218394226
6.708,-0.007935807260172439
6.712,-0.007932585827420452
6.716,-0.00793412442216767
6.72,-0.007937033327861626
6.724,-0.007926695894403762
6.728,-0.007909963676527779
6.732,-0.007902174540619995
6.736,-0.007915709366286917
6.74,-0.007935975543972915
6.744,-0.007938211314464965
6.748,-0.007932177138190723
6.752,-0.007927417110691521
6.756,-0.007927104583633493
6.76,-0.007922128191247962
6.764,-0.007919435650440333
6.768,-0.007921190610073877
6.772,-0.007927008421461792
6.776,-0.007927296907976895
6.78,-0.007926142961916481
6.784,-0.007919099082839378
6.788,-0.007908833771010293
6.792,-0.007914651582398206
6.796,-0.007923065772422048
6.8,-0.00792854701620901
6.804,-0.007929917327155749
6.808,-0.007933763814023791
6.812,-0.007931359759731265
6.816,-0.007922176272333813
6.82,-0.007921214650616803
6.824,-0.007929268232496766
6.828,-0.00792691225929009
6.832,-0.007920253028899793
6.836,-0.007922224353419664
6.84,-0.007921503137131905
6.844,-0.007918017258407743
6.848,-0.007910396406300434
6.852,-0.007915493001400589
6.856,-0.007913425514709017
6.86,-0.007911093582045267
6.864,-0.007914050568825074
6.868,-0.007913954406653373
6.872,-0.007917199879948284
6.876,-0.007923017691336198
6.88,-0.007915757447372768
6.884,-0.007907944270922057
6.888,-0.007907655784406954
6.892,-0.007917993217864816
6.896,-0.007919868380212988
6.9,-0.007917440285377535
6.904,-0.00791919524501108
6.908,-0.007913738041767045
6.912,-0.007906381635631916
6.916,-0.00789960220252699
6.92,-0.00790316020287993
6.924,-0.007913449555251943
6.928,-0.007913353393080242
6.932,-0.007912848541678811
6.936,-0.007916166136602497
6.94,-0.00791732008266291
6.944,-0.007920156866728091
6.948,-0.007919796258584211
6.952,-0.007914315014797252
6.956,-0.007913233190365614
6.96,-0.007904506473283744
6.964,-0.007901309081074684
6.968,-0.007898568459181205
6.972,-0.007902583229849724
6.976,-0.007912608136249558
6.98,-0.007914315014797252
6.984,-0.007917007555604882
6.988,-0.007917440285377535
6.992,-0.007911550352360847
6.996,-0.007909530946755124
7.0,-0.007911117622588192
7.0040000000000004,-0.007912872582221736
7.008,-0.007907415378977701
7.0120000000000005,-0.007909074176439544
7.016,-0.007914266933711401
7.0200000000000005,-0.007916166136602497
7.024,-0.007922007988533337
7.0280000000000005,-0.00792655165114621
7.032,-0.007924892853684367
7.0360000000000005,-0.007918185542208219
7.04,-0.007914266933711401
7.0440000000000005,-0.007918810596324277
7.048,-0.007912968744393437
7.0520000000000005,-0.007903785256995987
7.056,-0.00790010705392842
7.0600000000000005,-0.007909122257525394
7.064,-0.007908304879065936
7.0680000000000005,-0.007901164837817132
7.072,-0.007896597134661332
7.0760000000000005,-0.007898496337552428
7.08,-0.007907751946578655
7.0840000000000005,-0.007909915595441928
7.088,-0.007909434784583424
7.0920000000000005,-0.007911117622588192
7.096,-0.007914795825655758
7.1000000000000005,-0.00790859336558104
7.104,-0.0079003714999006
7.1080000000000005,-0.007911045500959417
7.112,-0.00791467562294113
7.1160000000000005,-0.007915468960857664
7.12,-0.007924027394139058
7.1240000000000006,-0.007921647380389456
7.128,-0.007913641879595345
7.132000000000001,-0.007905660419344157
7.136,-0.007901813932476114
7.140000000000001,-0.007903136162337005
7.144,-0.007906381635631916
7.148000000000001,-0.007910781054987237
7.152,-0.007905179608485653
7.156000000000001,-0.00790828083852301
7.16,-0.007909843473813153
7.164000000000001,-0.0079050353652281
7.168,-0.007906477797803615
7.172,-0.007909458825126349
7.176,-0.007901934135190742
7.18,-0.007899217553840187
7.184,-0.007904650716541296
7.188,-0.007913233190365614
7.192,-0.007914050568825074
7.196,-0.00791092529824479
7.2,-0.007906501838346541
7.204,-0.007899313716011887
7.208,-0.007900611905329851
7.212,-0.007907487500606478
7.216,-0.007905155567942726
7.22,-0.007906117189659737
7.224,-0.007907174973548448
7.228,-0.007910805095530164
7.232,-0.007909314581868797
7.236,-0.007902943837993602
7.24,-0.007901260999988833
7.244,-0.007900155135014271
7.248,-0.007907583662778179
7.252,-0.00791183883887595
7.256,-0.007909795392727303
7.26,-0.00790544405445783
7.264,-0.007906742243775794
7.268,-0.007906622041061167
7.272,-0.007907703865492804
7.276,-0.00790498728414225
7.28,-0.007904554554369595
7.284,-0.007895731675116023
7.288,-0.007886427985003946
7.292,-0.00790010705392842
7.296,-0.007911959041590576
7.3,-0.007906477797803615
7.304,-0.007901621608132714
7.308,-0.007901309081074684
7.312,-0.007897005823891062
7.316,-0.007894697931770236
7.32,-0.007897823202350522
7.324,-0.007897751080721745
7.328,-0.007899818567413319
7.332,-0.007902150500077068
7.336,-0.007901501405418086
7.34,-0.007902511108220947
7.344,-0.007901236959445909
7.348,-0.007895202783171667
7.352,-0.007893856512767852
7.356,-0.007893039134308394
7.36,-0.007893640147881525
7.364,-0.007891476499018252
7.368,-0.007892438120735262
7.372,-0.007895202783171667
7.376,-0.007890731242187568
7.38,-0.007889024363639875
7.384,-0.007894096918197105
7.388,-0.007903496770480883
7.392,-0.007904290108397417
7.396,-0.0079004676620723
7.4,-0.007899385837640664
7.404,-0.007903232324508706
7.408,-0.007916767150175629
7.412,-0.007925013056398995
7.416,-0.007916574825832226
7.42,-0.007895539350772621
7.424,-0.007891115890874373
7.428,-0.00788996194481396
7.432,-0.007886043336317141
7.436,-0.007887990620294088
7.44,-0.007890154269157363
7.444,-0.00788544232274401
7.448,-0.007885995255231293
7.452,-0.007894096918197105
7.456,-0.007891813066619206
7.46,-0.007884552822655776
7.464,-0.007879263903212218
7.468,-0.00788361524148169
7.472,-0.007882918065736858
7.476,-0.007878374403123983
7.48,-0.00788183624130522
7.484,-0.007888086782465789
7.488,-0.007893471864081049
7.492,-0.007887101120205854
7.496,-0.00788575484980204
7.5,-0.007893039134308394
7.5040000000000004,-0.007895539350772621
7.508,-0.007891668823361654
7.5120000000000005,-0.007897005823891062
7.516,-0.00790808851417961
7.5200000000000005,-0.007905299811200278
7.524,-0.007897871283436372
7.5280000000000005,-0.007889384971783753
7.532,-0.007886163539031769
7.5360000000000005,-0.007883182511709035
7.54,-0.007883182511709035
7.5440000000000005,-0.007884841309170878
7.548,-0.007890562958387092
7.5520000000000005,-0.007897126026605689
7.556,-0.007896693296833034
7.5600000000000005,-0.007894770053399013
7.564,-0.007892582363992814
7.5680000000000005,-0.007891957309876758
7.572,-0.007893399742452272
7.5760000000000005,-0.007893183377565945
7.58,-0.00789621248597453
7.5840000000000005,-0.007889697498841781
7.588,-0.007886187579574693
7.5920000000000005,-0.00788549040382986
7.596,-0.007888711836581847
7.6000000000000005,-0.007891957309876758
7.604,-0.007892510242364039
7.6080000000000005,-0.007888110823008715
7.612,-0.007880321687100929
7.6160000000000005,-0.007873974983768661
7.62,-0.007880658254701883
7.6240000000000006,-0.007890995688159746
7.628,-0.007891067809788523
7.632000000000001,-0.007891692863904579
7.636,-0.007891115890874373
7.640000000000001,-0.007882749781936382
7.644,-0.007877052173263094
7.648000000000001,-0.007879576430270246
7.652,-0.007884961511885506
7.656000000000001,-0.007887245363463405
7.66,-0.00788585101197374
7.664000000000001,-0.007883470998224139
7.668,-0.007881451592618417
7.672000000000001,-0.007879937038414126
7.676,-0.007881716038590595
7.68,-0.007877917632808403
7.684,-0.007877196416520646
7.688,-0.007874359632455464
7.692,-0.007875056808200297
7.696,-0.007876330956975337
7.7,-0.007874744281142269
7.704,-0.007867940807494419
7.708,-0.007865560793744819
7.712,-0.007870441023958646
7.716,-0.007865680996459444
7.72,-0.007862435523164533
7.724,-0.007871114159160553
7.728,-0.007882437254878352
7.732,-0.007878735011267863
7.736,-0.00787529721362955
7.74,-0.007874095186483287
7.744,-0.007871931537620013
7.748,-0.007866738780348156
7.752,-0.007864623212570733
7.756,-0.007870296780701095
7.76,-0.00786803696966612
7.764,-0.007861546023076298
7.768,-0.007862315320449908
7.772,-0.007868229294009522
7.776,-0.007868565861610477
7.78,-0.007866089685689174
7.784,-0.007859983387786157
7.788,-0.007854045373683618
7.792,-0.007861137333846569
7.796,-0.007869022631926056
7.8,-0.00786479149637121
7.804,-0.007856064779289339
7.808,-0.007864070280083452
7.812,-0.007870657388844973
7.816,-0.00786976788875674
7.82,-0.007866955145234483
7.824,-0.007869695767127963
7.828,-0.00787387882159696
7.832,-0.007872051740334639
7.836,-0.007866474334375978
7.84,-0.007870200618529393
7.844,-0.007876667524576289
7.848,-0.007867604239893465
7.852,-0.007859334293127174
7.856,-0.007855776292774235
7.86,-0.0078547906305143
7.864,-0.007856473468519068
7.868,-0.007857338928064377
7.872,-0.00785524740082988
7.876,-0.007855055076486478
7.88,-0.007860704604073915
7.884,-0.007859478536384726
7.888,-0.007861209455475346
7.892,-0.007859430455298876
7.896,-0.007856882157748797
7.9,-0.007857218725349752
7.904,-0.007856689833405395
7.908,-0.00785798802272336
7.912,-0.00786123349601827
7.916,-0.007860584401359288
7.92,-0.007861497941990448
7.924,-0.007856978319920499
7.928,-0.007853708806082663
7.932,-0.007855415684630357
7.936,-0.007852266373507147
7.94,-0.00784976615704292
7.944,-0.007851304751790137
7.948,-0.007849982521929246
7.952,-0.007842121264392687
7.956,-0.007848371805553254
7.96,-0.007861161374389495
7.964,-0.007862219158278207
7.968,-0.007853252035767084
7.972,-0.00785067969767408
7.976,-0.007853300116852934
7.98,-0.00785890156335452
7.984,-0.007855343563001582
7.988,-0.007851977886992044
7.992,-0.007846809170263112
7.996,-0.007849141102926864
8.0,-0.007848564129896657
8.004,-0.007846496643205084
8.008000000000001,-0.007844453197056437
8.012,-0.007842650156337042
8.016,-0.007842073183306836
8.02,-0.007843491575339426
8.024000000000001,-0.007853780927711438
8.028,-0.007859742982356904
8.032,-0.00785346840065341
8.036,-0.007852386576221773
8.040000000000001,-0.00785433386019872
8.044,-0.00784748230546502
8.048,-0.007848924738040535
8.052,-0.00785803610380921
8.056000000000001,-0.007860440158101736
8.06,-0.007852771224908578
8.064,-0.00785118454907551
8.068,-0.007857723576751182
8.072000000000001,-0.007860103590500784
8.076,-0.007859286212041324
8.08,-0.007854261738569944
8.084,-0.007850583535502378
8.088000000000001,-0.007851881724820342
8.092,-0.00784762654872257
8.096,-0.007842169345478536
8.1,-0.007841568331905404
8.104000000000001,-0.007835486074545314
8.108,-0.007829403817185223
8.112,-0.00783606304757552
8.116,-0.00783971721010016
8.120000000000001,-0.007838755588383149
8.124,-0.007850126765186798
8.128,-0.007852290414050073
8.132,-0.007847650589265497
8.136000000000001,-0.007846737048634337
8.14,-0.00784301076448092
8.144,-0.007847458264922095
8.148,-0.007846881291891889
8.152000000000001,-0.007838587304582673
8.156,-0.007834019601426873
8.16,-0.007835077385315584
8.164,-0.00783976529118601
8.168000000000001,-0.007840678831817171
8.172,-0.007837601642322736
8.176,-0.007833178182424488
8.18,-0.007827504614294123
8.184000000000001,-0.007828009465695555
8.188,-0.007826927641263918
8.192,-0.00783149534441972
8.196,-0.007842193386021462
8.2,-0.00784469360248569
8.204,-0.007841568331905404
8.208,-0.007835053344772658
8.212,-0.007836736182777427
8.216,-0.007845510980945148
8.22,-0.007850174846272649
8.224,-0.007851857684277418
8.228,-0.007842433791450715
8.232,-0.007839837412814786
8.236,-0.007836808304406202
8.24,-0.007834019601426873
8.244,-0.007840390345302067
8.248,-0.007848227562295702
8.252,-0.007844645521399839
8.256,-0.007843707940225753
8.26,-0.00784661684591971
8.264,-0.007843443494253576
8.268,-0.007838923872183627
8.272,-0.007836543858434025
8.276,-0.007837000628749605
8.28,-0.007840366304759141
8.284,-0.00783647173680525
8.288,-0.007837048709835455
8.292,-0.00783428404739905
8.296,-0.007833442628396666
8.3,-0.007830870290303663
8.304,-0.007832649290480132
8.308,-0.007835534155631164
8.312,-0.007837120831464232
8.316,-0.007841207723761526
8.32,-0.007845054210629568
8.324,-0.007844212791627184
8.328,-0.007839597007385533
8.332,-0.007842169345478536
8.336,-0.007848155440666927
8.34,-0.007845366737687596
8.344,-0.007839332561413356
8.348,-0.007840270142587442
8.352,-0.007837457399065184
8.356,-0.007833971520341022
8.36,-0.007833226263510339
8.364,-0.0078365198178911
8.368,-0.007834981223143883
8.372,-0.007833346466224965
8.376,-0.007836111128661371
8.38,-0.007844332994341811
8.384,-0.007845030170086644
8.388,-0.007837962250466615
8.392,-0.007831783830934823
8.396,-0.007829067249584269
8.4,-0.00783190403364945
8.404,-0.007839837412814786
8.408,-0.007835029304229734
8.412,-0.007834836979886331
8.416,-0.00783966912901431
8.42,-0.007839885493900637
8.424,-0.007834356169027825
8.428,-0.007826014100632758
8.432,-0.007826855519635143
8.436,-0.007837577601779812
8.44,-0.007829067249584269
8.444,-0.00781976355947219
8.448,-0.007816902734864083
8.452,-0.00782433126262799
8.456,-0.00783793820992369
8.46,-0.007841159642675675
8.464,-0.007838755588383149
8.468,-0.00783418788522735
8.472,-0.007832649290480132
8.476,-0.007832144439078701
8.48,-0.007827769060266302
8.484,-0.00782870664144039
8.488,-0.007831615547134347
8.492,-0.00783058180378856
8.496,-0.007829019168498418
8.5,-0.007823057113852951
8.504,-0.007815388180659792
8.508000000000001,-0.007816734451063605
8.512,-0.007818273045810823
8.516,-0.007827648857551675
8.52,-0.00782341772199683
8.524000000000001,-0.007822432059736893
8.528,-0.00781981164055804
8.532,-0.007816638288891906
8.536,-0.007816830613235307
8.540000000000001,-0.007817672032237691
8.544,-0.007818561532325926
8.548,-0.007818297086353749
8.552,-0.007813609180483322
8.556000000000001,-0.007824235100456288
8.56,-0.00782656703312004
8.564,-0.00781880193775518
8.568,-0.007823369640910979
8.572000000000001,-0.007828321992753583
8.576,-0.007822864789509549
8.58,-0.00782026841087362
8.584,-0.007817672032237691
8.588000000000001,-0.007817720113323542
8.592,-0.007816806572692382
8.596,-0.007807623085294931
8.6,-0.0078050988282877785
8.604000000000001,-0.007811517653248824
8.608,-0.007822432059736893
8.612,-0.007820003964901442
8.616,-0.007821975289421313
8.620000000000001,-0.007823201357110503
8.624,-0.00782656703312004
8.628,-0.00782615834389031
8.632,-0.007824523586971392
8.636000000000001,-0.007819499113500012
8.64,-0.007817383545722588
8.644,-0.007817095059207486
8.648,-0.007819451032414161
8.652000000000001,-0.00781935487024246
8.656,-0.007816037275318774
8.66,-0.00781255139659461
8.664,-0.007815508383374418
8.668000000000001,-0.007813392815596995
8.672,-0.007809786734158205
8.676,-0.007809786734158205
8.68,-0.007808873193527045
8.684000000000001,-0.007803560233540562
8.688,-0.007799281016899865
8.692,-0.007812094626279031
8.696,-0.007824042776112886
8.700000000000001,-0.007823658127426083
8.704,-0.007820532856845797
8.708,-0.00781707101866456
8.712,-0.007816782532149456
8.716,-0.007820196289244845
8.72,-0.007820893464989676
8.724,-0.007818874059383954
8.728,-0.007815267977945165
8.732,-0.007810099261216234
8.736,-0.007813344734511144
8.74,-0.007817046978121635
8.744,-0.007815772829346595
8.748,-0.007814089991341828
8.752,-0.007815844950975372
8.756,-0.0078119984641073295
8.76,-0.007798559800612107
8.764,-0.007799689706129594
8.768,-0.0078080317745246606
8.772,-0.0078075509636661555
8.776,-0.007803848720055665
8.78,-0.007800723449475381
8.784,-0.0078043054903712454
8.788,-0.007814138072427678
8.792,-0.007823778330140708
8.796,-0.007815099694144689
8.8,-0.0078021658820508965
8.804,-0.007805747922946761
8.808,-0.007813104329081891
8.812,-0.007815027572515912
8.816,-0.007812190788450731
8.82,-0.007811397450534198
8.824,-0.007815628586089043
8.828,-0.007814715045457884
8.832,-0.007813080288538965
8.836,-0.007811517653248824
8.84,-0.007812479274965835
8.844,-0.007816181518576324
8.848,-0.007825485208688402
8.852,-0.007829956749672504
8.856,-0.007814041910255977
8.86,-0.007796925043693189
8.864,-0.007798078989753602
8.868,-0.007812599477680461
8.872,-0.007816830613235307
8.876,-0.007812335031708283
8.88,-0.007814570802200332
8.884,-0.00781118108564787
8.888,-0.007804642057972199
8.892,-0.007808176017782212
8.896,-0.007810868558589842
8.9,-0.0078090655178704475
8.904,-0.00780752692312323
8.908,-0.007803295787568384
8.912,-0.007801420625220213
8.916,-0.00780012243590225
8.92,-0.0077989925303847615
8.924,-0.007792766029767119
8.928,-0.007785073056031035
8.932,-0.007785625988518316
8.936,-0.007794064219085083
8.94,-0.0078016129495636155
8.944,-0.007810940680218618
8.948,-0.007807214396065202
8.952,-0.007796660597721011
8.956,-0.007799930111558847
8.96,-0.007799617584500818
8.964,-0.007800795571104156
8.968,-0.007800723449475381
8.972,-0.007803055382139132
8.976,-0.0078021658820508965
8.98,-0.007807623085294931
8.984,-0.007810700274789365
8.988,-0.0078115897748775994
8.992,-0.007815844950975372
8.996,-0.007820292451416544
9.0,-0.007819042343184432
9.004,-0.007809281882756774
9.008000000000001,-0.00779976182775837
9.012,-0.0077904340971033685
9.016,-0.007794905638087467
9.02,-0.0078064450986915935
9.024000000000001,-0.007814041910255977
9.028,-0.007810363707188411
9.032,-0.007813224531796517
9.036,-0.007811229166733721
9.040000000000001,-0.007807767328552483
9.044,-0.007805387314802882
9.048,-0.007808801071898269
9.052,-0.007809858855786981
9.056000000000001,-0.00780935400438555
9.06,-0.007812142707364881
9.064,-0.007814282315685228
9.068,-0.007812743720938013
9.072000000000001,-0.007800819611647082
9.076,-0.007797213530208292
9.08,-0.007806805706835472
9.084,-0.00780889723406997
9.088000000000001,-0.007805219031002405
9.092,-0.007804497814714647
9.096,-0.007806180652719415
9.1,-0.0078045458958004976
9.104000000000001,-0.0077989204087559865
9.108,-0.007797910705953125
9.112,-0.0077947133137440654
9.116,-0.007791900570221809
9.120000000000001,-0.007792213097279838
9.124,-0.007793078556825147
9.128,-0.007794617151572364
9.132,-0.007792044813479361
9.136000000000001,-0.007796492313920535
9.14,-0.007799449300700342
9.144,-0.007801564868477765
9.148,-0.007805507517517509
9.152000000000001,-0.00780204567933627
9.156,-0.007801661030649466
9.16,-0.007798054949210677
9.164,-0.007795795138175702
9.168000000000001,-0.00779925697635694
9.172,-0.007799617584500818
9.176,-0.007797598178895097
9.18,-0.007793463205511952
9.184000000000001,-0.007785024974945184
9.188,-0.007785674069604166
9.192,-0.007790722583618471
9.196,-0.007792645827052492
9.200000000000001,-0.0077925737054237165
9.204,-0.007796780800435638
9.208,-0.007791804408050108
9.212,-0.007788510853669347
9.216000000000001,-0.007797526057266321
9.22,-0.0078018533549928685
9.224,-0.007799569503414968
9.228,-0.007790506218732144
9.232,-0.007789833083530237
9.236,-0.007793631489312428
9.24,-0.007792525624337866
9.244,-0.0077870203400079805
9.248,-0.0077800485825596545
9.252,-0.007778582109441213
9.256,-0.0077835344612838175
9.26,-0.007785241339831511
9.264,-0.0077872607454372335
9.268,-0.007791155313391126
9.272,-0.007786395285891924
9.276,-0.007786275083177298
9.28,-0.00778966479972976
9.284,-0.007788438732040571
9.288,-0.007790097529502414
9.292,-0.0077971654491224415
9.296,-0.007790241772759966
9.3,-0.007782693042281434
9.304,-0.007784784569515931
9.308,-0.007790554299817994
9.312,-0.007791395718820379
9.316,-0.007788390650954721
9.32,-0.007783101731511163
9.324,-0.007779928379845028
9.328,-0.007779351406814822
9.332,-0.0077821881908800026
9.336,-0.0077793273662718964
9.34,-0.007762667270024689
9.344,-0.007768821649013557
9.348,-0.007790842786333098
9.352,-0.00779651635446346
9.356,-0.007785385583089063
9.36,-0.007779567771701149
9.364,-0.007775144311802901
9.368,-0.0077682446759833506
9.372,-0.007772091162851392
9.376,-0.00777692331197937
9.38,-0.007781803542193199
9.384,-0.007781250609705918
9.388,-0.007779904339302103
9.392,-0.0077821881908800026
9.396,-0.007789785002444386
9.4,-0.007796011503062029
9.404,-0.0077944729083148125
9.408,-0.007783895069427697
9.412,-0.007777187757951548
9.416,-0.00777641846057794
9.42,-0.007779351406814822
9.424,-0.007779135041928494
9.428,-0.007779062920299719
9.432,-0.007772692176424524
9.436,-0.0077662493109205534
9.44,-0.007765816581147899
9.444,-0.0077722834871947945
9.448,-0.007770264081589072
9.452,-0.007769206297700361
9.456,-0.007780168785274281
9.46,-0.007783510420740892
9.464,-0.007779543731158224
9.468,-0.007775072190174125
9.472,-0.007778077258039783
9.476,-0.007778918677042167
9.48,-0.007777860893153456
9.484,-0.00777778877152468
9.488,-0.007777644528267128
9.492,-0.007773870163027862
9.496,-0.007774278852257592
9.5,-0.007775793406461883
9.504,-0.007778582109441213
9.508000000000001,-0.007777884933696381
9.512,-0.007777740690438829
9.516,-0.007773966325199563
9.52,-0.007776730987635968
9.524000000000001,-0.0077778368526105306
9.528,-0.007764758797259187
9.532,-0.007755935918005615
9.536,-0.0077582438101264405
9.540000000000001,-0.007758219769583515
9.544,-0.007759638161616106
9.548,-0.007761681607764753
9.552,-0.007770696811361727
9.556000000000001,-0.007778509987812437
9.56,-0.007772139243937243
9.564,-0.007770913176248054
9.568,-0.007772475811538197
9.572000000000001,-0.007772644095338673
9.576,-0.007780264947445982
9.58,-0.0077723556088235704
9.584,-0.007758724620984946
9.588000000000001,-0.007760215134646312
9.592,-0.007765792540604974
9.596,-0.0077637971755421765
9.6,-0.007757787039810861
9.604000000000001,-0.0077526904447107045
9.608,-0.007752642363624855
9.612,-0.007758219769583515
9.616,-0.007768821649013557
9.620000000000001,-0.007775577041575555
9.624,-0.007770720851904652
9.628,-0.007767186892094638
9.632,-0.007765215567574767
9.636000000000001,-0.0077682446759833506
9.64,-0.007774206730628816
9.644,-0.007772235406108944
9.648,-0.007760551702247266
9.652000000000001,-0.007754397323258399
9.656,-0.007759830485959508
9.66,-0.007768124473268724
9.664,-0.007755166620632007
9.668000000000001,-0.007746848592779866
9.672,-0.00775454156651595
9.676,-0.007754926215202755
9.68,-0.007750911444534235
9.684000000000001,-0.0077436512005708055
9.688,-0.00773942006501596
9.692,-0.007748122741554905
9.696,-0.007750045984988926
9.700000000000001,-0.007744781106088294
9.704,-0.0077457186872623785
9.708,-0.007756777337008
9.712,-0.007758291891212291
9.716000000000001,-0.007756008039634391
9.72,-0.007755046417917381
9.724,-0.0077558637963768395
9.728,-0.00775312317448336
9.732,-0.007754132877286221
9.736,-0.007753291458283836
9.74,-0.007751488417564441
9.744,-0.007748483349698783
9.748,-0.007747040917123268
9.752,-0.007747209200923745
9.756,-0.007752882769054107
9.76,-0.007759181391300526
9.764,-0.007769759230187642
9.768,-0.007776178055148687
9.772,-0.007768172554354575
9.776,-0.007748531430784634
9.78,-0.007737881470268743
9.784,-0.007735261051089889
9.788,-0.007727375753010401
9.792,-0.007735237010546963
9.796,-0.007745237876403873
9.8,-0.007749853660645524
9.804,-0.007750959525620086
9.808,-0.007748964160557289
9.812,-0.007746848592779866
9.816,-0.007749348809244093
9.82,-0.007755094499003231
9.824,-0.007753002971768733
9.828,-0.0077478582955827265
9.832,-0.007736535199864928
9.836,-0.007731919415623277
9.84,-0.0077397806731598386
9.844,-0.007750262349875253
9.848,-0.007745117673689247
9.852,-0.007737881470268743
9.856,-0.007744973430431695
9.86,-0.00774718516038082
9.864,-0.0077430982680835245
9.868,-0.0077430982680835245
9.872,-0.0077458869710628556
9.876,-0.007748242944269531
9.88,-0.007746848592779866
9.884,-0.0077476419306964
9.888,-0.007748579511870485
9.892,-0.007746199498120884
9.896,-0.0077390594568720805
9.9,-0.007740045119132016
9.904,-0.0077459590926916315
9.908,-0.007740982700306102
9.912,-0.007731919415623277
9.916,-0.0077269189826948215
9.92,-0.0077427857410254965
9.924,-0.007756176323434868
9.928,-0.007755623390947587
9.932,-0.007750238309332328
9.936,-0.0077404057272758954
9.94,-0.007733890740143149
9.944,-0.007740790375962699
9.948,-0.007742040484194813
9.952,-0.007745766768348229
9.956,-0.0077430261464547494
9.96,-0.0077344677131733555
9.964,-0.007732664672453961
9.968,-0.007746031214320407
9.972,-0.0077494449714157945
9.976,-0.007748507390241709
9.98,-0.007749084363271915
9.984,-0.007747401525267147
9.988,-0.007742737659939646
9.992,-0.007746920714408642
9.996,-0.007748964160557289
10.0,-0.007739564308273511
10.004,-0.007738121875697996
10.008000000000001,-0.007742929984283048
10.012,-0.007741367348992906
10.016,-0.007737544902667789
10.02,-0.007729900010017555
10.024000000000001,-0.00772910667210102
10.028,-0.007732736794082737
10.032,-0.007741968362566037
10.036,-0.007736751564751255
10.040000000000001,-0.007733818618514373
10.044,-0.007742353011252842
10.048,-0.007750334471504029
10.052,-0.007750911444534235
10.056000000000001,-0.007748002538840278
10.06,-0.00773946814610181
10.064,-0.007731967496709128
10.068,-0.007725164023061277
10.072000000000001,-0.007722687847139975
10.076,-0.007725524631205156
10.08,-0.00773170305073695
10.084,-0.007734852361860159
10.088000000000001,-0.0077362226728069
10.092,-0.007729323036987348
10.096,-0.00772586119880611
10.1,-0.007726197766407063
10.104000000000001,-0.007725043820346651
10.108,-0.007729803847845853
10.112,-0.007727856563868907
10.116,-0.007723913914829164
10.120000000000001,-0.007730885672277491
10.124,-0.007733626294170971
10.128,-0.007729948091103406
10.132,-0.007733217604941242
10.136000000000001,-0.007737785308097041
10.14,-0.007737112172895134
10.144,-0.007738314200041397
10.148,-0.007744468579030265
10.152000000000001,-0.00773992491641739
10.156,-0.007735934186291796
10.16,-0.007731943456166203
10.164,-0.007729875969474629
10.168000000000001,-0.00772992405056048
10.172,-0.007732039618337904
10.176,-0.007734107105029476
10.18,-0.00773028465870436
10.184000000000001,-0.007721798347051741
10.188,-0.007712807183997692
10.192,-0.007715692049148724
10.196,-0.0077212213740215346
10.200000000000001,-0.007726534334008018
10.204,-0.007730380820876061
10.208,-0.007733818618514373
10.212,-0.007734179226658252
10.216000000000001,-0.007728337374727412
10.22,-0.007724442806773519
10.224,-0.007731727091279875
10.228,-0.007735621659233768
10.232000000000001,-0.007732881037340288
10.236,-0.007731486685850623
10.24,-0.007730212537075584
10.244,-0.00772764019898258
10.248,-0.007719250049501663
10.252,-0.007720163590132822
10.256,-0.007730356780333136
10.26,-0.0077324002264817825
10.264,-0.007727135347581149
10.268,-0.007721894509223441
10.272,-0.007722062793023918
10.276,-0.007726894942151896
10.28,-0.007731222239878445
10.284,-0.007727784442240131
10.288,-0.007720163590132822
10.292,-0.0077128793056264675
10.296,-0.007714177494944432
10.3,-0.007712470616396738
10.304,-0.007706797048266377
10.308,-0.007710499291876866
10.312,-0.007713624562457151
10.316,-0.007713696684085927
10.32,-0.0077154276031765456
10.324,-0.007729154753186871
10.328,-0.007729443239701974
10.332,-0.007725596752833932
10.336,-0.007720163590132822
10.34,-0.007717302765524716
10.344,-0.007720548238819627
10.348,-0.007725620793376857
10.352,-0.007723553306685285
10.356,-0.00772134157673616
10.36,-0.007724587050031071
10.364,-0.007727039185409448
10.368,-0.0077227118876829004
10.372,-0.007718480752128054
10.376,-0.007722134914652694
10.38,-0.0077305731452194625
10.384,-0.007724202401344267
10.388,-0.007717038319552539
10.392,-0.007720283792847449
10.396,-0.007726462212379242
10.4,-0.007727760401697206
10.404,-0.007728409496356188
10.408,-0.007726414131293391
10.412,-0.00771951449547384
10.416,-0.00772175026596589
10.42,-0.007727736361154281
10.424,-0.007726414131293391
10.428,-0.0077216060227083385
10.432,-0.007721485819993712
10.436,-0.007722351279539022
10.44,-0.007723889874286238
10.444,-0.007722976333655079
10.448,-0.0077220868335668436
10.452,-0.007715235278833144
10.456,-0.00771905772515826
10.46,-0.0077189134819007086
10.464,-0.0077149467923180405
10.468,-0.007718504792670979
10.472,-0.007716244981636005
10.476,-0.0077154276031765456
10.48,-0.007711869602823607
10.484,-0.007714105373315656
10.488,-0.007720115509046972
10.492,-0.007726534334008018
10.496,-0.007726726658351419
10.5,-0.007716100738378453
10.504,-0.007713312035399123
10.508000000000001,-0.0077186009548426806
10.512,-0.007722375320081947
10.516,-0.007728890307214693
10.52,-0.00773033273979021
10.524000000000001,-0.007727111307038224
10.528,-0.007741271186821204
10.532,-0.007748771836213887
10.536,-0.0077451657547750975
10.540000000000001,-0.007732856996797362
10.544,-0.00771398517060103
10.548,-0.007701916818052548
10.552,-0.007698118412270356
10.556000000000001,-0.007704753602117729
10.56,-0.00772316865799848
10.564,-0.00772677473943727
10.568,-0.007726414131293391
10.572000000000001,-0.007723409063427733
10.576,-0.0077216060227083385
10.58,-0.007716509427608182
10.584,-0.007715211238290219
10.588000000000001,-0.007719851063074794
10.592,-0.00771809610344125
10.596,-0.007712855265083542
10.6,-0.00770439299397385
10.604000000000001,-0.007699344479959545
10.608,-0.007709778075589109
10.612,-0.007719490454930915
10.616,-0.007723385022884808
10.620000000000001,-0.0077256448339197824
10.624,-0.0077205001577337765
10.628,-0.007709369386359379
10.632,-0.007711605156851429
10.636000000000001,-0.007720091468504046
10.64,-0.007720476117190851
10.644,-0.0077141534544015065
10.648,-0.007718745198100232
10.652000000000001,-0.007718072062898325
10.656,-0.007714321738201984
10.66,-0.007714778508517563
10.664,-0.007716100738378453
10.668000000000001,-0.007717038319552539
10.672,-0.007718817319729008
10.676,-0.0077192260089587374
10.68,-0.007713023548884019
10.684000000000001,-0.007706099872521544
10.688,-0.007707926953783864
10.692,-0.0077228801714833775
10.696,-0.007727447874639177
10.700000000000001,-0.007722279157910246
10.704,-0.007716557508694033
10.708,-0.0077227118876829004
10.712,-0.007728938388300544
10.716000000000001,-0.007720307833390374
10.72,-0.007715523765348247
10.724,-0.007718360549413428
10.728,-0.007721798347051741
10.732000000000001,-0.007719033684615335
10.736,-0.007717927819640773
10.74,-0.007722591684968274
10.744,-0.007723312901256032
10.748000000000001,-0.007719899144160645
10.752,-0.007715066995032667
10.756,-0.007719322171130439
10.76,-0.007718288427784652
10.764,-0.007716677711408659
10.768,-0.007716437305979407
10.772,-0.007717471049325193
10.776,-0.007721630063251264
10.78,-0.007716797914123286
10.784,-0.0077101146431900625
10.788,-0.007718624995385606
10.792,-0.007719610657645541
10.796,-0.007712302332596261
10.8,-0.007712230210967486
10.804,-0.007716437305979407
10.808,-0.0077099463593895854
10.812,-0.0077064604806654224
10.816,-0.007709104940387202
10.82,-0.007719562576559691
10.824,-0.007719274090044588
10.828,-0.00770946554853108
10.832,-0.007702373588368128
10.836,-0.007708648170071621
10.84,-0.007710427170248091
10.844,-0.007706893210438077
10.848,-0.007709104940387202
10.852,-0.007704777642660654
10.856,-0.0076998012502751245
10.86,-0.00770759038618291
10.864,-0.00771211000825286
10.868,-0.0077071816969531805
10.872,-0.007700955196335537
10.876,-0.007702493791082754
10.88,-0.007712278292053336
10.884,-0.007722832090397527
10.888,-0.007720355914476225
10.892,-0.007712638900197215
10.896,-0.007709994440475436
10.9,-0.007711484954136803
10.904,-0.007711004143278298
10.908,-0.007713360116484973
10.912,-0.007721317536193235
10.916,-0.0077193942927592145
10.92,-0.007709585751245707
10.924,-0.007702133182938875
10.928,-0.007694896979518371
10.932,-0.007689584019531888
10.936,-0.007697252952725046
10.94,-0.007710859900020746
10.944,-0.007715211238290219
10.948,-0.007710090602647137
10.952,-0.007707662507811686
10.956,-0.007703094804655886
10.96,-0.007693598790200407
10.964,-0.007695281628205175
10.968,-0.007712518697482589
10.972,-0.0077156680086057985
10.976,-0.007712254251510411
10.98,-0.007714321738201984
10.984,-0.0077109079811065965
10.988,-0.007710499291876866
10.992,-0.007712302332596261
10.996,-0.0077112926297934
11.0,-0.0077114609135938775
11.004,-0.007708816453872098
11.008000000000001,-0.007708600088985771
11.012,-0.007703575615514391
11.016,-0.007702758237054932
11.02,-0.007700714790906285
11.024000000000001,-0.00769297373608435
11.028,-0.007688237749128073
11.032,-0.007685977938093098
11.036,-0.007690786046678151
11.040000000000001,-0.007708864534957949
11.044,-0.007714754467974638
11.048,-0.007707446142925358
11.052,-0.007704609358860177
11.056000000000001,-0.007709609791788632
11.06,-0.007710547372962717
11.064,-0.007705546940034263
11.068,-0.007701916818052548
11.072000000000001,-0.007697950128469879
11.076,-0.007696099006664634
11.08,-0.007697805885212328
11.084,-0.007700089736790228
11.088000000000001,-0.007698214574442057
11.092,-0.00769571435797783
11.096,-0.00769804629064158
11.1,-0.007696651939151915
11.104000000000001,-0.007698238614984983
11.108,-0.007688478154557326
11.112,-0.007678765775215519
11.116,-0.007689367654645561
11.120000000000001,-0.007704994007546982
11.124,-0.007706652805008825
11.128,-0.007701892777509623
11.132,-0.007691074533193254
11.136000000000001,-0.007680136086162259
11.14,-0.007684992275833163
11.144,-0.007690906249392777
11.148,-0.007689463816817261
11.152000000000001,-0.00769343050639993
11.156,-0.007696603858066065
11.16,-0.007696748101323616
11.164,-0.007694079601058912
11.168000000000001,-0.00769160342513761
11.172,-0.007689127249216308
11.176,-0.0076914832224229835
11.18,-0.007695401830919802
11.184000000000001,-0.007694993141690072
11.188,-0.00769434404703109
11.192,-0.0076892714924738596
11.196,-0.007688958965415831
11.200000000000001,-0.007696988506752869
11.204,-0.007703671777686092
11.208,-0.007698479020414235
11.212,-0.007691651506223461
11.216000000000001,-0.007693262222599453
11.22,-0.007692877573912649
11.224,-0.007690088870933318
11.228,-0.007683044991856216
11.232000000000001,-0.007677251221011228
11.236,-0.007680015883447633
11.24,-0.007685833694835546
11.244,-0.007683501762171796
11.248000000000001,-0.007683020951313291
11.252,-0.0076863385462369775
11.256,-0.007690112911476243
11.26,-0.007684198937916629
11.264,-0.007677683950783882
11.268,-0.007675111612690879
11.272,-0.007671265125822837
11.276,-0.007674943328890403
11.28,-0.007681818924167028
11.284,-0.007675424139748908
11.288,-0.007676794450695648
11.292,-0.007691266857536656
11.296,-0.007691363019708357
11.3,-0.007685208640719489
11.304,-0.007678212842728238
11.308,-0.007680015883447633
11.312,-0.007685737532663846
11.316,-0.007690425438534272
11.32,-0.007691387060251282
11.324,-0.0076914832224229835
11.328,-0.007690305235819646
11.332,-0.007693117979341901
11.336,-0.007702277426196427
11.34,-0.007704080466915821
11.344,-0.007687780978812493
11.348,-0.007679486991503277
11.352,-0.007671144923108211
11.356,-0.007660230516620141
11.36,-0.007663908719687707
11.364,-0.007678453248157491
11.368,-0.007688333911299774
11.372,-0.00768566541103507
11.376,-0.007682540140454786
11.38,-0.007671842098853044
11.384,-0.007666841665924589
11.388,-0.007669630368903919
11.392,-0.007668644706643983
11.396,-0.007671265125822837
11.4,-0.007677732031869733
11.404,-0.007677275261554153
11.408,-0.007668837030987386
11.412,-0.007665182868462746
11.416,-0.007672947963827606
11.42,-0.007674486558574822
11.424,-0.007676481923637619
11.428,-0.007669462085103443
11.432,-0.00766511074683397
11.436,-0.007665591557692475
11.44,-0.00767292392328468
11.444,-0.00768201124851043
11.448,-0.0076767463696097975
11.452,-0.007673284531428559
11.456,-0.007677756072412658
11.46,-0.007678212842728238
11.464,-0.007677155058839527
11.468,-0.007674005747716317
11.472,-0.007676409802008843
11.476,-0.007681987207967505
11.48,-0.007681001545707568
11.484,-0.00767059199062093
11.488,-0.007665904084750504
11.492,-0.007668981274244938
11.496,-0.007668091774156702
11.5,-0.007666553179409486
11.504,-0.007666168530722681
11.508000000000001,-0.007662249922225864
11.512,-0.007667514801126496
11.516,-0.007678549410329192
11.52,-0.007678284964357014
11.524000000000001,-0.007674198072059719
11.528,-0.007669005314787862
11.532,-0.0076675388416694214
11.536,-0.007669438044560517
11.540000000000001,-0.007672443112426175
11.544,-0.007681241951136821
11.548,-0.0076824439782830845
11.552,-0.0076754722208347585
11.556000000000001,-0.0076684043012147304
11.56,-0.007674029788259242
11.564,-0.007683766208143974
11.568,-0.00768479995148976
11.572000000000001,-0.007680376491591512
11.576,-0.007676674247981022
11.58,-0.007678573450872118
11.584,-0.0076774435453546295
11.588000000000001,-0.007674077869345093
11.592,-0.007670856436593107
11.596,-0.007666673382124112
11.6,-0.007670063098676574
11.604000000000001,-0.007674318274774346
11.608,-0.007666024287465129
11.612,-0.007659917989562113
11.616,-0.007660711327478646
11.620000000000001,-0.00765734565146911
11.624,-0.007654244421431751
11.628,-0.007659461219246533
11.632,-0.0076669859091821405
11.636000000000001,-0.007671625733966716
11.64,-0.007670904517678958
11.644,-0.00766607236855098
11.648,-0.007668716828272759
11.652000000000001,-0.007675640504635235
11.656,-0.007680136086162259
11.66,-0.007676938693953199
11.664,-0.007664726098147166
11.668000000000001,-0.00766013435444844
11.672,-0.007664485692717913
11.676,-0.007666457017237785
11.68,-0.007666288733437308
11.684000000000001,-0.0076627066925414435
11.688,-0.007669173598588339
11.692,-0.007670351585191677
11.696,-0.0076667455037528875
11.700000000000001,-0.0076640529629452584
11.704,-0.007667635003841123
11.708,-0.007673308571971484
11.712,-0.00766926976076004
11.716000000000001,-0.00766282689525607
11.72,-0.0076650867062910445
11.724,-0.007663692354801379
11.728,-0.007660951732907899
11.732000000000001,-0.007665182868462746
11.736,-0.007662177800597088
11.74,-0.0076610478950796005
11.744,-0.007654893516090733
11.748000000000001,-0.0076533549213435165
11.752,-0.007647128420725873
11.756,-0.007638906555045433
11.76,-0.0076456619476074315
11.764000000000001,-0.0076568408000676795
11.768,-0.007659028489473878
11.772,-0.007656215745951623
11.776,-0.00765455694848978
11.78,-0.00765506179989121
11.784,-0.007660615165306945
11.788,-0.007654028056545423
11.792,-0.007651359556280719
11.796,-0.007649027623616969
11.8,-0.00764546962326403
11.804,-0.007649195907417445
11.808,-0.007649003583074044
11.812,-0.007643882947430962
11.816,-0.00764232031214082
11.82,-0.007642103947254493
11.824,-0.007641094244451632
11.828,-0.007641190406623333
11.832,-0.007643354055486606
11.836,-0.0076397960551336675
11.84,-0.007634699460033512
11.844,-0.00763501198709154
11.848,-0.007637632406270394
11.852,-0.007633305108543847
11.856,-0.007631213581309347
11.86,-0.007647152461268798
11.864,-0.007654436745775153
11.868,-0.007648787218187716
11.872,-0.007647032258554172
11.876,-0.007646407204438115
11.88,-0.007642897285171027
11.884,-0.007633834000488202
11.888,-0.007625323648292658
11.892,-0.00761957795853352
11.896,-0.007621068472194886
11.9,-0.007626092945666267
11.904,-0.007621525242510466
11.908,-0.007614625606690916
11.912,-0.007613327417372952
11.916,-0.007613808228231457
11.92,-0.007610731038737023
11.924,-0.007609432849419059
11.928,-0.007613928430946083
11.932,-0.007617991282700453
11.936,-0.007619457755818894
11.94,-0.007619457755818894
11.944,-0.007595585496694107
11.948,-0.007570439088794282
11.952,-0.007568708169703663
11.956,-0.007570799696938161
11.96,-0.007569092818390467
11.964,-0.00757618477855342
11.968,-0.007582699765686166
11.972,-0.007578997522075676
11.976,-0.007564693399035144
11.98,-0.007553827073632925
11.984,-0.007546903397270449
11.988,-0.007548105424416712
11.992,-0.007544787829493026
11.996,-0.007537647788244223
12.0,-0.007527358435872209
12.004,-0.007524738016693355
12.008000000000001,-0.007517141205128972
12.012,-0.007507188420357912
12.016,-0.0074937257163197645
12.02,-0.007490624486282406
12.024000000000001,-0.007483917174806258
12.028,-0.007474300957636152
12.032,-0.007478387849933447
12.036,-0.007476873295729156
12.040000000000001,-0.007470021740995455
12.044,-0.007470214065338858
12.048,-0.007467160916387349
12.052,-0.007467521524531228
12.056000000000001,-0.007467521524531228
12.06,-0.007459179456136162
12.064,-0.0074524240635741625
12.068,-0.007458866929078133
12.072000000000001,-0.007462929780832503
12.076,-0.007461270983370659
12.08,-0.007459852591338069
12.084,-0.007457160050530439
12.088000000000001,-0.007456727320757785
12.092,-0.007464612618837271
12.096,-0.007468891835477968
12.1,-0.0074648049431806736
12.104000000000001,-0.007461920078029641
12.108,-0.0074662233352132635
12.112,-0.00747502217392391
12.116,-0.007475454903696565
12.120000000000001,-0.00746684838932932
12.124,-0.0074714641735709715
12.128,-0.007474421160350779
12.132,-0.007471728619543149
12.136000000000001,-0.007472714281803084
12.14,-0.00747461348469418
12.144,-0.007478171485047119
12.148,-0.007480311093367468
12.152000000000001,-0.007484277782950136
12.156,-0.007486802039957289
12.16,-0.0074937257163197645
12.164,-0.007501875460371429
12.168000000000001,-0.007504784366065386
12.172,-0.007487763661674299
12.176,-0.007468386984076538
12.18,-0.0074681225381043595
12.184000000000001,-0.007486008702040755
12.188,-0.007497956851874611
12.192,-0.00749379783794854
12.196,-0.007488052148189403
12.200000000000001,-0.007492090959400847
12.204,-0.007492980459489082
12.208,-0.007495408554324534
12.212,-0.0074976924059024334
12.216000000000001,-0.0074904802430248545
12.22,-0.007494735419122626
12.224,-0.007500505149424689
12.228,-0.007501082122454895
12.232000000000001,-0.00750192354145728
12.236,-0.007505986393211649
12.24,-0.0075061787175550515
12.244,-0.007498125135675088
12.248000000000001,-0.007497283716672704
12.252,-0.0075037265821766745
12.256,-0.007508101960989073
12.26,-0.007508678934019279
12.264000000000001,-0.007503678501090824
12.268,-0.0075042795146639555
12.272,-0.00751019348822357
12.276,-0.0075042795146639555
12.280000000000001,-0.007495312392152832
12.284,-0.007491778432342819
12.288,-0.007507524987958866
12.292,-0.007517453732187
12.296,-0.007516972921328495
12.3,-0.007515458367124203
12.304,-0.007513487042604332
12.308,-0.00751567473201053
12.312,-0.00750973671790799
12.316,-0.0075059383121257985
12.32,-0.0075133187588038546
12.324,-0.007523103259774437
12.328,-0.0075259160032966925
12.332,-0.007520987691997013
12.336,-0.00751750181327285
12.34,-0.007513775529119434
12.344,-0.007511996528942965
12.348,-0.007515458367124203
12.352,-0.007522406084029604
12.356,-0.0075240168004055965
12.36,-0.0075195692999644225
12.364,-0.007517862421416729
12.368,-0.007517261407843597
12.372,-0.007514015934548687
12.376,-0.00751882404313374
12.38,-0.0075184634349898605
12.384,-0.007518054745760131
12.388,-0.007522790732716408
12.392,-0.007527983489988265
12.396,-0.0075280556116170405
12.4,-0.007528824908990649
12.404,-0.007527767125101938
12.408,-0.007526565097955675
12.412,-0.007519881827022451
12.416,-0.0075152179616949505
12.42,-0.007513919772376986
12.424,-0.007514400583235491
12.428,-0.007516972921328495
12.432,-0.007521420421769668
12.436,-0.007525026503208457
12.44,-0.007524665895064579
12.444,-0.007521276178512117
12.448,-0.0075229830570598104
12.452,-0.0075203626378809564
12.456,-0.0075162517050407366
12.46,-0.007515145840066175
12.464,-0.007529233598220378
12.468,-0.007535700504267277
12.472,-0.007528175814331667
12.476,-0.007524713976150429
12.48,-0.007523824476062194
12.484,-0.007523343665203689
12.488,-0.0075221897191432765
12.492,-0.007522454165115455
12.496,-0.007522309921857903
12.5,-0.0075189442458483665
12.504,-0.007523752354433419
12.508000000000001,-0.00752476205723628
12.512,-0.007518295151189384
12.516,-0.0075096645962792145
12.52,-0.007509640555736289
12.524000000000001,-0.007511948447857114
12.528,-0.00751115510994058
12.532,-0.007511419555912759
12.536,-0.0075085587313046525
12.540000000000001,-0.007510025204423093
12.544,-0.007516011299611484
12.548,-0.00752206951642865
12.552,-0.007522165678600351
12.556000000000001,-0.007517381610558224
12.56,-0.007505962352668724
12.564,-0.007507140339272062
12.568,-0.0075179105025025795
12.572000000000001,-0.007522382043486679
12.576,-0.007519376975621021
12.58,-0.007526757422299077
12.584,-0.007528969152248201
12.588000000000001,-0.007519064448562992
12.592,-0.00750790963664567
12.596,-0.007506875893299884
12.6,-0.00751613150232611
12.604000000000001,-0.007522622448915931
12.608,-0.00751699696187142
12.612,-0.007518775962047889
12.616,-0.007511419555912759
12.620000000000001,-0.007508919339448531
12.624,-0.007517862421416729
12.628,-0.007526276611440571
12.632,-0.007524906300493832
12.636000000000001,-0.00752065112439606
12.64,-0.007520458800052658
12.644,-0.007519641421593198
12.648,-0.007515338164409577
12.652000000000001,-0.007518992326934216
12.656,-0.0075149775562656975
12.66,-0.00750836640696125
12.664,-0.007530555828081268
12.668000000000001,-0.0075442589375486705
12.672,-0.00753872961267586
12.676,-0.007529714409078884
12.68,-0.007524617813978728
12.684000000000001,-0.007522718611087632
12.688,-0.007521925273171099
12.692,-0.007519953948651227
12.696,-0.007514737150836445
12.700000000000001,-0.007514328461606715
12.704,-0.007525194787008934
12.708,-0.007525771760039141
12.712,-0.007519232732363469
12.716000000000001,-0.007522382043486679
12.72,-0.00752932976039208
12.724,-0.007531325125454877
12.728,-0.007520603043310209
12.732000000000001,-0.00751795858358843
12.736,-0.0075267814628420015
12.74,-0.007533104125631348
12.744,-0.007533080085088423
12.748000000000001,-0.007530868355139297
12.752,-0.007527142070985881
12.756,-0.007517261407843597
12.76,-0.007516564232098765
12.764000000000001,-0.007526252570897646
12.768,-0.00752892107116235
12.772,-0.007523584070632942
12.776,-0.00751699696187142
12.780000000000001,-0.0075035582983761975
12.784,-0.007509207825963635
12.788,-0.007524137003120223
12.792,-0.0075263968141551976
12.796000000000001,-0.007524137003120223
12.8,-0.007518247070103534
12.804,-0.007517982624131355
12.808,-0.007527622881844386
12.812,-0.00752791136835949
12.816,-0.007525795800582066
12.82,-0.0075275026791297595
12.824,-0.007521588705570145
12.828,-0.00751613150232611
12.832,-0.007517525853815776
12.836,-0.007526661260127376
12.84,-0.007534209990605911
12.844,-0.007528632584647247
12.848,-0.00752755076021561
12.852,-0.007532959882373797
12.856,-0.007533368571603526
12.86,-0.0075294018820208555
12.864,-0.007524954381579682
12.868,-0.007529209557677453
12.872,-0.007540316288508927
12.876,-0.007544451261892072
12.88,-0.007536686166527212
12.884,-0.007529161476591603
12.888,-0.007532551193144065
12.892,-0.0075373593017291195
12.896,-0.0075384651667036815
12.9,-0.007533969585176658
12.904,-0.00753074815242467
12.908,-0.007523800435519269
12.912,-0.007522261840772052
12.916,-0.0075262285303547205
12.92,-0.007532310787714812
12.924,-0.007527069949357105
12.928,-0.0075259160032966925
12.932,-0.0075232234624890626
12.936,-0.0075203626378809564
12.94,-0.007523632151718793
12.944,-0.007531445328169503
12.948,-0.007529185517134528
12.952,-0.007532479071515289
12.956,-0.007533584936489854
12.96,-0.00752014627299463
12.964,-0.007506419122984304
12.968,-0.007513967853462837
12.972,-0.007527238233157582
12.976,-0.007527262273700507
12.98,-0.0075349792879795185
12.984,-0.007542672261715603
12.988,-0.0075337051392044795
12.992,-0.0075232234624890626
12.996,-0.007517766259245028
13.0,-0.007524954381579682
13.004,-0.007535243733951697
13.008000000000001,-0.007539450828963618
13.012,-0.007536109193497006
13.016,-0.007539042139733888
13.02,-0.007548586235275218
13.024000000000001,-0.007550437357080463
13.028,-0.007536277477297483
13.032,-0.007521588705570145
13.036,-0.007515193921152025
13.040000000000001,-0.007504351636292731
13.044,-0.007500577271053465
13.048,-0.007510794501796702
13.052,-0.0075164921104699895
13.056000000000001,-0.0075277430845590125
13.06,-0.007532911801287944
13.064,-0.007527310354786358
13.068,-0.007522165678600351
13.072000000000001,-0.007521708908284771
13.076,-0.007523343665203689
13.08,-0.007525242868094785
13.084,-0.007523031138145661
13.088000000000001,-0.007521252137969192
13.092,-0.007515458367124203
13.096,-0.007521420421769668
13.1,-0.007524882259950906
13.104000000000001,-0.0075203626378809564
13.108,-0.007517141205128972
13.112,-0.007515963218525633
13.116,-0.007507476906873016
13.120000000000001,-0.007507260541986688
13.124,-0.0075112512721122815
13.128,-0.007517093124043121
13.132,-0.007528584503561396
13.136000000000001,-0.00753070007133882
13.14,-0.007526565097955675
13.144,-0.007525699638410365
13.148,-0.0075237042733475685
13.152000000000001,-0.007523343665203689
13.156,-0.0075264689357839734
13.16,-0.007524858219407981
13.164,-0.007520122232451704
13.168000000000001,-0.007518775962047889
13.172,-0.007516227664497811
13.176,-0.007518848083676665
13.18,-0.007522093556971575
13.184000000000001,-0.007527478638586834
13.188,-0.007526252570897646
13.192,-0.007519184651277619
13.196,-0.007525026503208457
13.200000000000001,-0.007527118030442956
13.204,-0.0075133187588038546
13.208,-0.0075037506227196
13.212,-0.007509953082794317
13.216000000000001,-0.007529353800935005
13.22,-0.007532286747171887
13.224,-0.007530195219937389
13.228,-0.0075295701658213325
13.232000000000001,-0.007531926139028008
13.236,-0.007524353368006551
13.24,-0.00751476119137937
13.244,-0.007513487042604332
13.248000000000001,-0.007521660827198921
13.252,-0.007529714409078884
13.256,-0.007527839246730714
13.26,-0.007515482407667128
13.264000000000001,-0.0075195692999644225
13.268,-0.007526108327640095
13.272,-0.007525699638410365
13.276,-0.007518295151189384
13.280000000000001,-0.00751151571808446
13.284,-0.0075123571370868435
13.288,-0.0075229830570598104
13.292,-0.007523824476062194
13.296000000000001,-0.007515242002237876
13.3,-0.007516924840242644
13.304,-0.007526108327640095
13.308,-0.007521204056883341
13.312000000000001,-0.007520771327110686
13.316,-0.00752704590881418
13.32,-0.00752791136835949
13.324,-0.007518343232275235
13.328,-0.0075088712583626805
13.332,-0.007508799136733905
13.336,-0.007522790732716408
13.34,-0.007522141638057426
13.344,-0.007515290083323726
13.348,-0.007516516151012915
13.352,-0.007519136570191768
13.356,-0.007520987691997013
13.36,-0.007524449530178251
13.364,-0.007522814773259333
13.368,-0.007519905867565377
13.372,-0.007514544826493043
13.376,-0.00751202056948589
13.38,-0.007518247070103534
13.384,-0.007521588705570145
13.388,-0.007517093124043121
13.392,-0.007515746853639306
13.396,-0.00751379956966236
13.4,-0.007510530055824524
13.404,-0.007506611447327706
13.408,-0.007503991028148852
13.412,-0.007507981758274446
13.416,-0.007514160177806238
13.42,-0.007527238233157582
13.424,-0.007533200287803049
13.428,-0.007524497611264102
13.432,-0.007525507314066963
13.436,-0.007530050976679838
13.44,-0.0075265891384986
13.444,-0.0075231513408602875
13.448,-0.007521829110999398
13.452,-0.00752110789471164
13.456,-0.007524137003120223
13.46,-0.007527935408902415
13.464,-0.007527574800758535
13.468,-0.007515650691467605
13.472,-0.007507789433931044
13.476,-0.007500985960283194
13.48,-0.007500841717025643
13.484,-0.007514400583235491
13.488,-0.00752247820565838
13.492,-0.007525314989723561
13.496,-0.007533080085088423
13.5,-0.007527791165644863
13.504,-0.007519473137792722
13.508000000000001,-0.007514376542692566
13.512,-0.007513607245318957
13.516,-0.007519593340507348
13.52,-0.0075234638679183155
13.524000000000001,-0.007523271543574913
13.528,-0.007520506881138508
13.532,-0.007518968286391291
13.536,-0.007519833745936601
13.540000000000001,-0.007518775962047889
13.544,-0.007520098191908779
13.548,-0.007523992759862671
13.552,-0.007522766692173483
13.556000000000001,-0.007513438961518481
13.56,-0.00750968863682214
13.564,-0.007518343232275235
13.568,-0.007518126867388907
13.572000000000001,-0.007518247070103534
13.576,-0.007528440260303845
13.58,-0.007533801301376181
13.584,-0.007531253003826101
13.588000000000001,-0.0075255313546098886
13.592,-0.007524738016693355
13.596,-0.0075234638679183155
13.6,-0.00752156466502722
13.604000000000001,-0.007528175814331667
13.608,-0.007529233598220378
13.612,-0.007524882259950906
13.616,-0.00752206951642865
13.620000000000001,-0.007524112962577298
13.624,-0.007521540624484294
13.628,-0.007514328461606715
13.632,-0.007515963218525633
13.636000000000001,-0.007518535556618636
13.64,-0.007525146705923084
13.644,-0.007532719476944542
13.648,-0.007526300651983496
13.652000000000001,-0.007521540624484294
13.656,-0.007531926139028008
13.66,-0.007537118896299867
13.664,-0.007532142503914336
13.668000000000001,-0.0075229830570598104
13.672,-0.007511371474826908
13.676,-0.007511131069397656
13.68,-0.0075125975425160965
13.684000000000001,-0.007525747719496215
13.688,-0.007532214625543111
13.692,-0.007525242868094785
13.696,-0.00752206951642865
13.700000000000001,-0.007523103259774437
13.704,-0.007523920638233895
13.708,-0.007521781029913547
13.712,-0.007522141638057426
13.716000000000001,-0.007519905867565377
13.72,-0.007518848083676665
13.724,-0.007519617381050273
13.728,-0.007520819408196536
13.732000000000001,-0.007524665895064579
13.736,-0.0075306760307958945
13.74,-0.007537335261186194
13.744,-0.00753827284236028
13.748000000000001,-0.007534282112234686
13.752,-0.007531084720025624
13.756,-0.007535748585353127
13.76,-0.007532647355315766
13.764000000000001,-0.00752343982737539
13.768,-0.00753074815242467
13.772,-0.007535412017752174
13.776,-0.007532358868800663
13.780000000000001,-0.007524858219407981
13.784,-0.0075187038404191135
13.788,-0.007521732948827697
13.792,-0.007529425922563781
13.796000000000001,-0.007529594206364258
13.8,-0.00751750181327285
13.804,-0.007513294718260929
13.808,-0.007509328028678261
13.812000000000001,-0.007507981758274446
13.816,-0.007510842582882552
13.82,-0.0075203626378809564
13.824,-0.0075303635037378665
13.828,-0.007533681098661554
13.832,-0.007530099057765688
13.836,-0.0075256755978674395
13.84,-0.007520338597338031
13.844,-0.00751567473201053
13.848,-0.0075162517050407366
13.852,-0.0075189442458483665
13.856,-0.00752389659769097
13.86,-0.007525194787008934
13.864,-0.007525507314066963
13.868,-0.007524641854521653
13.872,-0.007519857786479526
13.876,-0.007515818975268082
13.88,-0.007521853151542323
13.884,-0.0075303635037378665
13.888,-0.0075335608959469285
13.892,-0.0075359409096965296
13.896,-0.007539763356021646
13.9,-0.00752791136835949
13.904,-0.007518511516075711
13.908,-0.00750872701510513
13.912,-0.007513126434460452
13.916,-0.0075190163674771415
13.92,-0.007513006231745826
13.924,-0.007509784798993841
13.928,-0.007511419555912759
13.932,-0.007510674299082075
13.936,-0.007513751488576509
13.94,-0.007513078353374602
13.944,-0.007508150042074922
13.948,-0.007502067784714832
13.952,-0.007502837082088439
13.956,-0.007506154677012126
13.96,-0.007508967420534382
13.964,-0.0075175979754445515
13.968,-0.007515602610381754
13.972,-0.007506515285156005
13.976,-0.007503630420004973
13.98,-0.007508414488047101
13.984,-0.007508198123160773
13.988,-0.007508029839360297
13.992,-0.007512525420887321
13.996,-0.007513967853462837
14.0,-0.007517333529472373
14.004,-0.007509352069221186
14.008000000000001,-0.0075060344742975
14.012,-0.007512164812743442
14.016,-0.0075099771233372425
14.02,-0.0075037987038054504
14.024000000000001,-0.007505673866153621
14.028,-0.007509520353021663
14.032,-0.007510337731481122
14.036,-0.007511828245142488
14.040000000000001,-0.007517525853815776
14.044,-0.007522454165115455
14.048,-0.007513679366947733
14.052,-0.007506419122984304
14.056000000000001,-0.00751156379917031
14.06,-0.007513366839889705
14.064,-0.007518367272818159
14.068,-0.007518535556618636
14.072000000000001,-0.007513222596632153
14.076,-0.007513559164233107
14.08,-0.007517549894358701
14.084,-0.007523752354433419
14.088000000000001,-0.007520795367653611
14.092,-0.007510962785597179
14.096,-0.00751019348822357
14.1,-0.007511924407314189
14.104000000000001,-0.007510842582882552
14.108,-0.0075009378791973435
14.112,-0.007498485743818967
14.116,-0.007511034907225955
14.120000000000001,-0.007518920205305441
14.124,-0.007520867489282387
14.128,-0.007529425922563781
14.132,-0.007525146705923084
14.136000000000001,-0.007519689502679049
14.14,-0.007520386678423882
14.144,-0.0075235359895470914
14.148,-0.007523511949004166
14.152000000000001,-0.007518775962047889
14.156,-0.007515073718437399
14.16,-0.007514857353551071
14.164,-0.0075155304887529785
14.168000000000001,-0.007520026070280003
14.172,-0.0075189442458483665
14.176,-0.007517646056530402
14.18,-0.00751476119137937
14.184000000000001,-0.007515290083323726
14.188,-0.007517886461959654
14.192,-0.007516684434813391
14.196,-0.007514905434636922
14.200000000000001,-0.007513511083147257
14.204,-0.0075149775562656975
14.208,-0.0075149775562656975
14.212,-0.007509953082794317
14.216000000000001,-0.007508775096190979
14.22,-0.007513246637175079
14.224,-0.007499856054765707
14.228,-0.007494951784008953
14.232000000000001,-0.007507236501443763
14.236,-0.007509929042251393
14.24,-0.00750923186650656
14.244,-0.0075091116637919335
14.248000000000001,-0.007505866190497023
14.252,-0.007507092258186211
14.256,-0.007509640555736289
14.26,-0.0075103858125669725
14.264000000000001,-0.007513438961518481
14.268,-0.007513487042604332
14.272,-0.007511203191026431
14.276,-0.007508678934019279
14.280000000000001,-0.0075068999338428095
14.284,-0.00751197248840004
14.288,-0.007518439394446935
14.292,-0.007515843015811007
14.296000000000001,-0.007513438961518481
14.3,-0.00751831919173231
14.304,-0.007518872124219591
14.308,-0.0075141842183491635
14.312000000000001,-0.007511900366771264
14.316,-0.007519617381050273
14.32,-0.0075170450429572705
14.324,-0.007515266042780801
14.328000000000001,-0.007511419555912759
14.332,-0.00749973585205108
14.336,-0.00750105808191197
14.34,-0.007508799136733905
14.344,-0.0075120446100288155
14.348,-0.007515602610381754
14.352,-0.007516203623954886
14.356,-0.00751115510994058
14.36,-0.0075099050017084674
14.364,-0.007509087623249008
14.368,-0.007502620717202113
14.372,-0.007498461703276042
14.376,-0.007504159311949329
14.38,-0.0075072124609008375
14.384,-0.007505673866153621
14.388,-0.007506875893299884
14.392,-0.007510409853109898
14.396,-0.007508775096190979
14.4,-0.007513030272288751
14.404,-0.007514088056177463
14.408,-0.007512116731657591
14.412,-0.007506563366241855
14.416,-0.007502620717202113
14.42,-0.007499543527707679
14.424,-0.007496971189614675
14.428,-0.007494591175865074
14.432,-0.0074920669188579215
14.436,-0.0074901436754239
14.44,-0.007490384080853153
14.444,-0.00749192267560037
14.448,-0.007496105730069366
14.452,-0.007496418257127394
14.456,-0.007492090959400847
14.46,-0.007497548162644882
14.464,-0.007504015068691777
14.468,-0.007503125568603543
14.472,-0.007503966987605927
14.476,-0.007502500514487486
14.48,-0.007502548595573337
14.484,-0.007501635054942176
14.488,-0.007499134838477949
14.492,-0.007500457068338838
14.496,-0.007502957284803066
14.5,-0.007498798270876995
14.504,-0.007497427959930255
14.508000000000001,-0.007499014635763323
14.512,-0.007498870392505771
14.516,-0.007501779298199728
14.52,-0.007504159311949329
14.524000000000001,-0.0075070441771003605
14.528,-0.00750425547412103
14.532,-0.007499351203364276
14.536,-0.007486633756156812
14.540000000000001,-0.007483652728834079
14.544,-0.007494903702923103
14.548,-0.007496370176041544
14.552,-0.007494615216408
14.556000000000001,-0.007502548595573337
14.56,-0.007503942947063001
14.564,-0.007503630420004973
14.568,-0.007509015501620232
14.572000000000001,-0.007519641421593198
14.576,-0.00752110789471164
14.58,-0.007509520353021663
14.584,-0.0075022120279723825
14.588000000000001,-0.007501082122454895
14.592,-0.00749694714907175
14.596,-0.007502837082088439
14.6,-0.00751065025853915
14.604000000000001,-0.0075102175287664955
14.608,-0.007516155542869035
14.612,-0.007518559597161562
14.616,-0.007507933677188596
14.620000000000001,-0.007502115865800682
14.624,-0.007499327162821351
14.628,-0.007502260109058233
14.632,-0.007503462136204496
14.636000000000001,-0.007505289217466816
14.64,-0.007509087623249008
14.644,-0.007510842582882552
14.648,-0.0075099050017084674
14.652000000000001,-0.007505601744524845
14.656,-0.007503365974032795
14.66,-0.007500505149424689
14.664,-0.007499351203364276
14.668000000000001,-0.007497043311243451
14.672,-0.007493220864918334
14.676,-0.00749055236465363
14.68,-0.007493869959577316
14.684000000000001,-0.007502596676659187
14.688,-0.00750699609601451
14.692,-0.007499711811508156
14.696,-0.007496201892241067
14.700000000000001,-0.0075022120279723825
14.704,-0.007496466338213245
14.708,-0.007496418257127394
14.712,-0.007501635054942176
14.716000000000001,-0.007502596676659187
14.72,-0.007499856054765707
14.724,-0.007492018837772071
14.728,-0.007489903269994648
14.732000000000001,-0.0075037506227196
14.736,-0.0075051449742092645
14.74,-0.007497091392329302
14.744,-0.007508150042074922
14.748000000000001,-0.007524906300493832
14.752,-0.007530724111881745
14.756,-0.007524641854521653
14.76,-0.0075109387450542535
14.764000000000001,-0.007495384513781608
14.768,-0.007495408554324534
14.772,-0.007486874161586065
14.776,-0.00748096018802645
14.780000000000001,-0.007486729918328513
14.784,-0.007486321229098784
14.788,-0.007487066485929467
14.792,-0.007488941648277637
14.796000000000001,-0.00749278813514568
14.8,-0.007494975824551878
14.804,-0.007496706743642498
14.808,-0.007496466338213245
14.812000000000001,-0.007493196824375409
14.816,-0.007489470540221994
14.82,-0.007492475608087652
14.824,-0.007491057216055061
14.828000000000001,-0.007486729918328513
14.832,-0.007486705877785588
14.836,-0.007494086324463644
14.84,-0.007493845919034391
14.844000000000001,-0.007497211595043928
14.848,-0.007494975824551878
14.852,-0.0074937257163197645
14.856,-0.007494302689349972
14.86,-0.00749598552735474
14.864,-0.007492956418946157
14.868,-0.00749379783794854
14.872,-0.007495408554324534
14.876,-0.007492764094602754
14.88,-0.00748822043198988
14.884,-0.007491105297140911
14.888,-0.007493509351433438
14.892,-0.007484109499149659
14.896,-0.007472233470944579
14.9,-0.007480671701511347
14.904,-0.0074899273105375735
14.908,-0.007487210729187018
14.912,-0.007489013769906413
14.916,-0.0074935814730622136
14.92,-0.007493220864918334
14.924,-0.007487715580588449
14.928,-0.007489326296964442
14.932,-0.0074960336084405905
14.936,-0.007495817243554263
14.94,-0.007488052148189403
14.944,-0.007485744256068578
14.948,-0.007495456635410384
14.952,-0.007504351636292731
14.956,-0.007498221297846789
14.96,-0.007492932378403231
14.964,-0.007492139040486697
14.968,-0.007490864891711658
14.972,-0.007487282850815794
14.976,-0.007488076188732328
14.98,-0.007488989729363488
14.984,-0.007486080823669531
14.988,-0.007492283283744249
14.992,-0.0074974520004731805
14.996,-0.00748963882402247
15.0,-0.007483676769377005
15.004,-0.007478868660791952
15.008000000000001,-0.00747131993031342
15.012,-0.007478075322875419
15.016,-0.007484349904578912
15.02,-0.007482955553089247
15.024000000000001,-0.007480864025854749
15.028,-0.0074747817684946575
15.032,-0.007479253309478757
15.036,-0.0074795417959938595
15.040000000000001,-0.007474829849580508
15.044,-0.0074752625793531625
15.048,-0.007482017971915162
15.052,-0.0074862010263841575
15.056000000000001,-0.007481080390741077
15.06,-0.00748228241788734
15.064,-0.007480431296082095
15.068,-0.0074795417959938595
15.072000000000001,-0.007473699944063021
15.076,-0.007466559902814218
15.08,-0.007465766564897684
15.084,-0.007469613051765726
15.088000000000001,-0.007467184956930275
15.092,-0.007468098497561434
15.096,-0.007474877930666359
15.1,-0.007474252876550302
15.104000000000001,-0.007474445200893704
15.108,-0.007479661998708486
15.112,-0.007468050416475584
15.116,-0.007457352374873842
15.120000000000001,-0.00746360291603441
15.124,-0.007470310227510558
15.128,-0.007470526592396886
15.132,-0.00747502217392391
15.136000000000001,-0.007476825214643305
15.14,-0.007474493281979554
15.144,-0.007470815078911989
15.148,-0.007468555267877014
15.152000000000001,-0.007458386118219628
15.156,-0.007452688509546341
15.16,-0.00746542999729673
15.164,-0.007479012904049504
15.168000000000001,-0.007472858525060636
15.172,-0.007463506753862709
15.176,-0.007462473010516922
15.18,-0.00747045447076811
15.184000000000001,-0.0074768492551862305
15.188,-0.007470334268053483
15.192,-0.007465694443268908
15.196,-0.007464877064809449
15.200000000000001,-0.00747136801139927
15.204,-0.007474805809037583
15.208,-0.007472762362888935
15.212,-0.007466704146071769
15.216000000000001,-0.007467040713672723
15.22,-0.00746401160526414
15.224,-0.007459972794052696
15.228,-0.0074590832939644604
15.232000000000001,-0.007459660266994667
15.236,-0.007457905307361123
15.24,-0.007457472577588468
15.244,-0.007468771632763342
15.248000000000001,-0.007472305592573355
15.252,-0.007467761929960481
15.256,-0.007474733687408807
15.26,-0.007478556133733924
15.264000000000001,-0.007476945417357931
15.268,-0.00746903607873552
15.272,-0.0074672089974732
15.276,-0.007466656064985919
15.280000000000001,-0.007468771632763342
15.284,-0.007468507186791163
15.288,-0.007465213632410403
15.292,-0.00746913224090722
15.296000000000001,-0.007471704579000224
15.3,-0.007463963524178289
15.304,-0.0074560782260988025
15.308,-0.007461487348256987
15.312000000000001,-0.00746268937540325
15.316,-0.007459852591338069
15.32,-0.0074601170373102465
15.324,-0.00746314614571883
15.328000000000001,-0.007469324565250623
15.332,-0.007467761929960481
15.336,-0.007457544699217244
15.34,-0.0074579774289898985
15.344000000000001,-0.007462929780832503
15.348,-0.007464324132322168
15.352,-0.007463747159291961
15.356,-0.007461871996943791
15.36,-0.007464276051236317
15.364,-0.0074672570785590505
15.368,-0.007468483146248238
15.372,-0.007464348172865093
15.376,-0.007462665334860325
15.38,-0.007467064754215648
15.384,-0.007465285754039179
15.388,-0.007463122105175904
15.392,-0.007469204362535996
15.396,-0.007475454903696565
15.4,-0.007476825214643305
15.404,-0.0074694928490511
15.408,-0.0074656704027259825
15.412,-0.007466992632586872
15.416,-0.007467834051589257
15.42,-0.007469901538280829
15.424,-0.0074691562814501455
15.428,-0.0074651174702387016
15.432,-0.007453265482576547
15.436,-0.0074560782260988025
15.44,-0.007481176552912777
15.444,-0.007485359607381773
15.448,-0.007475791471297518
15.452,-0.007475743390211668
15.456,-0.00747958987707971
15.46,-0.007480864025854749
15.464,-0.0074749500522951345
15.468,-0.007474132673835675
15.472,-0.007475575106411191
15.476,-0.0074714641735709715
15.48,-0.007473796106234722
15.484,-0.0074769213768150055
15.488,-0.007470983362712466
15.492,-0.007456198428813429
15.496,-0.007445740792640939
15.5,-0.0074529769960614434
15.504,-0.007461896037486716
15.508000000000001,-0.0074670166731297975
15.512,-0.007462833618660802
15.516,-0.007459275618307863
15.52,-0.007463362510605157
15.524000000000001,-0.007472497916916758
15.528,-0.007477666633645689
15.532,-0.007475454903696565
15.536,-0.007471271849227569
15.540000000000001,-0.00747182478171485
15.544,-0.007469300524707697
15.548,-0.007465021308067
15.552,-0.007464853024266524
15.556000000000001,-0.007466031010869862
15.56,-0.007464131807978766
15.564,-0.0074675696056170785
15.568,-0.007468338902990687
15.572000000000001,-0.007457857226275272
15.576,-0.007452448104117088
15.58,-0.007461968159115492
15.584,-0.007476993498443781
15.588000000000001,-0.0074643962539509435
15.592,-0.0074590832939644604
15.596,-0.0074725700385455335
15.6,-0.007478123403961269
15.604000000000001,-0.00747228155203043
15.608,-0.0074747817684946575
15.612,-0.007482907472003396
15.616,-0.007478123403961269
15.620000000000001,-0.007466247375756189
15.624,-0.007451895171629807
15.628,-0.007448241009105167
15.632,-0.007448337171276868
15.636000000000001,-0.00745720813161629
15.64,-0.007458169753333301
15.644,-0.007458434199305478
15.648,-0.007457761064103571
15.652000000000001,-0.007457472577588468
15.656,-0.00745903521287861
15.66,-0.0074574244965026175
15.664,-0.0074564628747856064
15.668000000000001,-0.007460285321110724
15.672,-0.007451390320228376
15.676,-0.007444971495267331
15.68,-0.007457111969444589
15.684000000000001,-0.0074753347009819384
15.688,-0.007475695309125817
15.692,-0.007469444767965249
15.696,-0.007466752227157619
15.700000000000001,-0.007460068956224396
15.704,-0.007456510955871457
15.708,-0.007458987131792759
15.712,-0.007459828550795144
15.716000000000001,-0.0074582178344191515
15.72,-0.007451486482400078
15.724,-0.007441846224687047
15.728,-0.007443649265406442
15.732000000000001,-0.007450068090367487
15.736,-0.007458915010163983
15.74,-0.007455621455783223
15.744,-0.007463122105175904
15.748000000000001,-0.007465862727069385
15.752,-0.0074579774289898985
15.756,-0.007458386118219628
15.76,-0.007464997267524075
15.764000000000001,-0.007464155848521691
15.768,-0.00746136714554236
15.772,-0.007460886334683855
15.776,-0.007463675037663185
15.780000000000001,-0.007461246942827735
15.784,-0.007462064321287193
15.788,-0.00746360291603441
15.792,-0.007454227104293557
15.796000000000001,-0.0074494911173372804
15.8,-0.007455092563838867
15.804,-0.007463362510605157
15.808,-0.007460068956224396
15.812000000000001,-0.007453794374520903
15.816,-0.007460285321110724
15.82,-0.0074600449156814715
15.824,-0.007455621455783223
15.828000000000001,-0.007454828117866689
15.832,-0.007455260847639343
15.836,-0.007454876198952539
15.84,-0.007454876198952539
15.844000000000001,-0.007456727320757785
15.848,-0.007460285321110724
15.852,-0.007472305592573355
15.856,-0.0074747096468658816
15.860000000000001,-0.007467617686702929
15.864,-0.007465958889241086
15.868,-0.007464660699923122
15.872,-0.007462400888888147
15.876,-0.007462473010516922
15.88,-0.007461847956400866
15.884,-0.007462064321287193
15.888,-0.0074603574427394995
15.892,-0.0074672089974732
15.896,-0.007460141077853172
15.9,-0.007447736157703736
15.904,-0.00745172688782933
15.908,-0.007453193360947771
15.912,-0.00745213557705906
15.916,-0.007454539631351586
15.92,-0.007454179023207707
15.924,-0.007455573374697372
15.928,-0.007461054618484332
15.932,-0.007452015374344433
15.936,-0.007442615522060656
15.94,-0.0074453801844970606
15.944,-0.007447255346845231
15.948,-0.007445692711555089
15.952,-0.007450717185026469
15.956,-0.007453866496149679
15.96,-0.0074467264549008755
15.964,-0.007453794374520903
15.968,-0.007459323699393713
15.972,-0.0074521115365161344
15.976,-0.0074559099422983255
15.98,-0.007466006970326937
15.984,-0.0074675696056170785
15.988,-0.007462857659203727
15.992,-0.007457328334330916
15.996,-0.007453193360947771
16.0,-0.007456703280214859
16.004,-0.007454683874609137
16.008,-0.007455020442210091
16.012,-0.007458338037133777
16.016000000000002,-0.007457063888358738
16.02,-0.007454659834066212
16.024,-0.007450885468826946
16.028,-0.007449226671365103
16.032,-0.007451222036427899
16.036,-0.007451342239142526
16.04,-0.007456366712613906
16.044,-0.007450500820140141
16.048000000000002,-0.007433456075206129
16.052,-0.007426171790699774
16.056,-0.007437518926960499
16.06,-0.007449515157880206
16.064,-0.007459275618307863
16.068,-0.00746451645666557
16.072,-0.007455982063927101
16.076,-0.007452568306831714
