time,channel3
0.0,-0.010800093706460043
0.004,-0.010797857935967993
0.008,-0.01079793005759677
0.012,-0.01080031007134637
0.016,-0.01079468458430186
0.02,-0.010790597692004564
0.024,-0.010797256922394862
0.028,-0.010799059963114256
0.032,-0.010791943962408379
0.036000000000000004,-0.010790044759517283
0.04,-0.010790886178519667
0.044,-0.010790140921688984
0.048,-0.010800502395689773
0.052000000000000005,-0.010811777410321721
0.056,-0.010809998410145252
0.06,-0.01080437292310074
0.064,-0.010798218544111872
0.068,-0.010798867638770854
0.07200000000000001,-0.010803795950070534
0.076,-0.010800286030803446
0.08,-0.010787111813280402
0.084,-0.010780428542347177
0.088,-0.010780524704518879
0.092,-0.010782664312839228
0.096,-0.010784154826500594
0.1,-0.01078427502921522
0.10400000000000001,-0.010784611596816174
0.108,-0.010785380894189782
0.112,-0.010787039691651625
0.116,-0.010788482124227141
0.12,-0.010790958300148442
0.124,-0.010795045192445738
0.128,-0.010796030854705674
0.132,-0.010791751638064976
0.136,-0.010787953232282784
0.14,-0.010787111813280402
0.14400000000000002,-0.010785332813103931
0.148,-0.010783553812927463
0.152,-0.010786582921336045
0.156,-0.010790020718974358
0.16,-0.010799468652343986
0.164,-0.010803483423012504
0.168,-0.010796463584478328
0.17200000000000001,-0.010785909786134138
0.176,-0.010779923690945747
0.18,-0.010778072569140502
0.184,-0.010774394366072937
0.188,-0.010771822027979933
0.192,-0.010776678217650836
0.196,-0.01077939479900139
0.2,-0.010778986109771661
0.20400000000000001,-0.010784034623785967
0.20800000000000002,-0.010785332813103931
0.212,-0.010778986109771661
0.216,-0.010778986109771661
0.22,-0.010786318475363868
0.224,-0.010785525137447334
0.228,-0.010776750339279613
0.232,-0.010776630136564986
0.23600000000000002,-0.010779587123344793
0.24,-0.0107595132700022
0.244,-0.0107641771353297
0.248,-0.010768408270884546
0.252,-0.010770307473775642
0.256,-0.010773456784898851
0.26,-0.010778168731312203
0.264,-0.010774995379646069
0.268,-0.010768264027626994
0.272,-0.010763600162299493
0.276,-0.010759561351088048
0.28,-0.01075691689136627
0.28400000000000003,-0.010756267796707289
0.28800000000000003,-0.01076021044574703
0.292,-0.010768047662740667
0.296,-0.010765932094963244
0.3,-0.010763119351440989
0.304,-0.010772663446982318
0.308,-0.010773192338926674
0.312,-0.010766028257134946
0.316,-0.010761172067464042
0.32,-0.010754272431644491
0.324,-0.010756484161593615
0.328,-0.010758431445570562
0.332,-0.010755354256076127
0.336,-0.010757878513083281
0.34,-0.010760715297148463
0.34400000000000003,-0.010761797121580098
0.34800000000000003,-0.010764561784016503
0.352,-0.010760258526832881
0.356,-0.010754224350558641
0.36,-0.010753310809927481
0.364,-0.01075371949915721
0.368,-0.01075564274259123
0.372,-0.010756676485937018
0.376,-0.010757493864396476
0.38,-0.010758960337514917
0.384,-0.010760595094433835
0.388,-0.010762013486466425
0.392,-0.010764345419130177
0.396,-0.010765379162475964
0.4,-0.010762253891895678
0.404,-0.010759729634888526
0.40800000000000003,-0.010761724999951323
0.41200000000000003,-0.010767855338397265
0.41600000000000004,-0.010775307906704097
0.42,-0.010776125285163555
0.424,-0.010770980608977548
0.428,-0.010763744405557045
0.432,-0.010762975108183437
0.436,-0.010770475757576118
0.44,-0.010777615798824922
0.444,-0.010776630136564986
0.448,-0.010768576554685022
0.452,-0.010761917324294726
0.456,-0.010762758743297109
0.46,-0.010766244622021272
0.464,-0.010764730067816981
0.468,-0.010760498932262134
0.47200000000000003,-0.010754921526303474
0.47600000000000003,-0.010756219715621438
0.48,-0.010757902553626205
0.484,-0.010759128621315395
0.488,-0.010760426810633359
0.492,-0.010760378729547508
0.496,-0.010763576121756569
0.5,-0.010772591325353542
0.504,-0.010778913988142886
0.508,-0.010774298203901236
0.512,-0.010762927027097587
0.516,-0.010752950201783601
0.52,-0.010751147161064206
0.524,-0.010753767580243061
0.528,-0.010756243756164362
0.532,-0.010756436080507765
0.536,-0.010756484161593615
0.54,-0.010756604364308241
0.544,-0.010756628404851167
0.548,-0.01075636395887899
0.552,-0.01075773426982573
0.556,-0.010760114283575331
0.56,-0.010761797121580098
0.5640000000000001,-0.010763119351440989
0.5680000000000001,-0.010760426810633359
0.5720000000000001,-0.010763504000127792
0.5760000000000001,-0.010773384663270075
0.58,-0.010775788717562601
0.584,-0.01076504259487501
0.588,-0.010756748607565793
0.592,-0.01076148459452207
0.596,-0.010761724999951323
0.6,-0.010755690823677081
0.604,-0.010753286769384555
0.608,-0.010752613634182649
0.612,-0.010753382931556256
0.616,-0.010755498499333679
0.62,-0.010755282134447352
0.624,-0.010752902120697752
0.628,-0.010752878080154826
0.632,-0.010757037094080896
0.636,-0.01075631587779314
0.64,-0.010755161931732727
0.644,-0.010767687054596789
0.648,-0.010771028690063399
0.652,-0.010752469390925097
0.656,-0.010741819430409204
0.66,-0.010741603065522878
0.664,-0.01074321378189887
0.668,-0.010743382065699346
0.672,-0.010745689957820173
0.676,-0.010745281268590442
0.68,-0.01074874310677168
0.684,-0.010750954836720806
0.6880000000000001,-0.010751099079978357
0.6920000000000001,-0.010753647377528434
0.6960000000000001,-0.01075463303978837
0.7000000000000001,-0.010755113850646876
0.704,-0.010754320512730342
0.708,-0.01075641203996484
0.712,-0.01075823912122716
0.716,-0.010756267796707289
0.72,-0.010756628404851167
0.724,-0.01076016236466118
0.728,-0.010770788284634148
0.732,-0.010773240420012525
0.736,-0.010762614500039557
0.74,-0.01075609951290681
0.744,-0.010755474458790755
0.748,-0.010756075472363886
0.752,-0.010755714864220008
0.756,-0.010754224350558641
0.76,-0.010753190607212854
0.764,-0.01075458495870252
0.768,-0.010757469823853552
0.772,-0.010758094877969608
0.776,-0.010758527607742263
0.78,-0.01076148459452207
0.784,-0.010768047662740667
0.788,-0.010769778581831285
0.792,-0.010765739770619842
0.796,-0.010766821595051478
0.8,-0.010767494730253386
0.804,-0.01076016236466118
0.808,-0.010754152228929864
0.812,-0.010753238688298705
0.8160000000000001,-0.01075636395887899
0.8200000000000001,-0.01075270979635435
0.8240000000000001,-0.010747661282340044
0.8280000000000001,-0.010746507336279632
0.8320000000000001,-0.01074960856631699
0.836,-0.010753190607212854
0.84,-0.010754224350558641
0.844,-0.010754777283045922
0.848,-0.01075458495870252
0.852,-0.01075631587779314
0.856,-0.010763504000127792
0.86,-0.010764369459673101
0.864,-0.01075783043199743
0.868,-0.010751772215180264
0.872,-0.01074833441754195
0.876,-0.010749776850117467
0.88,-0.010757541945482327
0.884,-0.010758575688828114
0.888,-0.01074905563382971
0.892,-0.010743430146785197
0.896,-0.010745810160534799
0.9,-0.010750185539347196
0.904,-0.01075270979635435
0.908,-0.01074782956614052
0.912,-0.010746651579537183
0.916,-0.010749704728488692
0.92,-0.010752108782781218
0.924,-0.010753791620785986
0.928,-0.010754945566846398
0.932,-0.010755786985848783
0.936,-0.010757205377881373
0.9400000000000001,-0.010757926594169132
0.9440000000000001,-0.010760306607918732
0.9480000000000001,-0.010764249256958475
0.9520000000000001,-0.01076468198673113
0.9560000000000001,-0.010766821595051478
0.96,-0.010767446649167536
0.964,-0.010761532675607921
0.968,-0.010753238688298705
0.972,-0.010754056066758165
0.976,-0.010761773081037174
0.98,-0.010761123986378192
0.984,-0.01075194049898074
0.988,-0.010745713998363098
0.992,-0.01074417540361588
0.996,-0.010745810160534799
1.0,-0.010748382498627801
1.004,-0.010749873012289168
1.008,-0.010751796255723188
1.012,-0.010753791620785986
1.016,-0.01075590718856341
1.02,-0.010757565986025253
1.024,-0.01075686881028042
1.028,-0.010755234053361502
1.032,-0.010754921526303474
1.036,-0.010755402337161978
1.04,-0.010757950634712056
1.044,-0.010759176702401245
1.048,-0.010757614067111104
1.052,-0.01075270979635435
1.056,-0.010747108349852763
1.06,-0.01074691602550936
1.064,-0.010749175836544335
1.068,-0.010747300674196165
1.072,-0.010742612768325738
1.076,-0.010741098214121447
1.08,-0.010742853173754991
1.084,-0.010746747741708884
1.088,-0.010751171201607132
1.092,-0.010753791620785986
1.096,-0.010754368593816193
1.1,-0.010752613634182649
1.104,-0.010758912256429068
1.108,-0.010771870109065784
1.112,-0.010771341217121429
1.116,-0.01076372036501412
1.12,-0.010758647810456889
1.124,-0.010752541512553872
1.1280000000000001,-0.01075463303978837
1.1320000000000001,-0.010760282567375807
1.1360000000000001,-0.01075823912122716
1.1400000000000001,-0.010751171201607132
1.1440000000000001,-0.010746747741708884
1.1480000000000001,-0.010745040863161191
1.1520000000000001,-0.010744824498274862
1.156,-0.010741939633123832
1.16,-0.010738453754399668
1.164,-0.010736338186622245
1.168,-0.010739126889601575
1.172,-0.010743574390042749
1.176,-0.010747661282340044
1.18,-0.010747396836367867
1.184,-0.01074778148505467
1.188,-0.010753406972099182
1.192,-0.010756772648108719
1.196,-0.010754344553273266
1.2,-0.010755835066934633
1.204,-0.01075508981010395
1.208,-0.010752589593639722
1.212,-0.010752325147667545
1.216,-0.010748166133741474
1.22,-0.010743814795472002
1.224,-0.010743406106242272
1.228,-0.01073955961937423
1.232,-0.010737804659740686
1.236,-0.010742131957467232
1.24,-0.010743502268413974
1.244,-0.01074513702533289
1.248,-0.010742107916924308
1.252,-0.010739295173402053
1.256,-0.010744079241444179
1.26,-0.010751555850293937
1.264,-0.010755883148020484
1.268,-0.010759921959231929
1.272,-0.010762253891895678
1.276,-0.010761773081037174
1.28,-0.010761075905292341
1.284,-0.010758118918512534
1.288,-0.010755474458790755
1.292,-0.010750113417718421
1.296,-0.010748911390572158
1.3,-0.010754248391101565
1.304,-0.010751555850293937
1.308,-0.010746483295736705
1.312,-0.010746747741708884
1.316,-0.010746988147138136
1.32,-0.01074468025501731
1.324,-0.01074549763347677
1.328,-0.010747060268766912
1.332,-0.010748214214827325
1.336,-0.010747709363425895
1.34,-0.010747949768855148
1.344,-0.010751844336809039
1.348,-0.010751820296266115
1.352,-0.010746964106595211
1.356,-0.010743045498098394
1.36,-0.0107436224711286
1.364,-0.010744656214474386
1.368,-0.010747204512024464
1.372,-0.010749416241973588
1.3760000000000001,-0.010748574822971204
1.3800000000000001,-0.010753887782957687
1.3840000000000001,-0.010754753242502996
1.3880000000000001,-0.01075148372866516
1.3920000000000001,-0.010747685322882969
1.3960000000000001,-0.010745689957820173
1.4000000000000001,-0.010743934998186627
1.4040000000000001,-0.010743983079272478
1.408,-0.010745088944247042
1.412,-0.010748262295913176
1.416,-0.010747541079625417
1.42,-0.010745353390219219
1.424,-0.010745930363249424
1.428,-0.01074951240414529
1.432,-0.01075554658041953
1.436,-0.010754032026215238
1.44,-0.010750233620433047
1.444,-0.010751267363778834
1.448,-0.010755835066934633
1.452,-0.010754897485760547
1.456,-0.010748406539170727
1.46,-0.01074544955239092
1.464,-0.01074641117410793
1.468,-0.010751724134094413
1.472,-0.010753046363955302
1.476,-0.010748310376999026
1.48,-0.010747468957996642
1.484,-0.010754921526303474
1.488,-0.010756219715621438
1.492,-0.010749223917630186
1.496,-0.010746891984966436
1.5,-0.010748574822971204
1.504,-0.010748935431115082
1.508,-0.010748214214827325
1.512,-0.010748142093198548
1.516,-0.010749824931203317
1.52,-0.010752421309839246
1.524,-0.010749728769031616
1.528,-0.010744752376646087
1.532,-0.01074833441754195
1.536,-0.010756339918336064
1.54,-0.01076285490546881
1.544,-0.010763792486642896
1.548,-0.010765715730076916
1.552,-0.010768264027626994
1.556,-0.010760258526832881
1.56,-0.010746940066052285
1.564,-0.010741771349323354
1.568,-0.01073859799765722
1.572,-0.01073955961937423
1.576,-0.010743742673843227
1.58,-0.010746771782251809
1.584,-0.010747685322882969
1.588,-0.010748983512200933
1.592,-0.010750305742061823
1.596,-0.01075225302603877
1.6,-0.010757205377881373
1.604,-0.010756940931909195
1.608,-0.010752228985495844
1.612,-0.010752012620609517
1.616,-0.010763383797413166
1.62,-0.010769898784545913
1.624,-0.010763023189269288
1.6280000000000001,-0.010755258093904428
1.6320000000000001,-0.010754560918159595
1.6360000000000001,-0.010759441148373423
1.6400000000000001,-0.010757590026568177
1.6440000000000001,-0.010755498499333679
1.6480000000000001,-0.010754272431644491
1.6520000000000001,-0.010746747741708884
1.6560000000000001,-0.010742083876381384
1.6600000000000001,-0.010743742673843227
1.6640000000000001,-0.010746795822794735
1.668,-0.010746651579537183
1.672,-0.010744367727959283
1.676,-0.010742732971040364
1.68,-0.010741242457378999
1.684,-0.010738934565258174
1.688,-0.01073768445702606
1.692,-0.010741723268237503
1.696,-0.010744824498274862
1.7,-0.010749127755458485
1.704,-0.010754392634359117
1.708,-0.010753911823500613
1.712,-0.01074910371491556
1.716,-0.010747228552567389
1.72,-0.010750305742061823
1.724,-0.010749873012289168
1.728,-0.010751075039435431
1.732,-0.01074956048523114
1.736,-0.01073996830860396
1.74,-0.010731265632065015
1.744,-0.010731818564552296
1.748,-0.01073138583477964
1.752,-0.010732948470069783
1.756,-0.010738886484172323
1.76,-0.01074102609249267
1.764,-0.010739247092316202
1.768,-0.010736963240738301
1.772,-0.010738501835485519
1.776,-0.010746315011936229
1.78,-0.010750305742061823
1.784,-0.010745978444335275
1.788,-0.010744055200901255
1.792,-0.010743934998186627
1.796,-0.010742684889954515
1.8,-0.01074220407909601
1.804,-0.010746170768678677
1.808,-0.010750858674549104
1.812,-0.010745762079448948
1.816,-0.01074220407909601
1.82,-0.010742011754752607
1.824,-0.010739006686886949
1.828,-0.010734895754046729
1.832,-0.01073326099712781
1.836,-0.010736434348793946
1.84,-0.01074321378189887
1.844,-0.010744295606330508
1.848,-0.010741122254664372
1.852,-0.010742035795295533
1.856,-0.010742131957467232
1.86,-0.010740376997833688
1.864,-0.010736314146079319
1.868,-0.010737035362367078
1.872,-0.010742660849411589
1.8760000000000001,-0.01074915179600141
1.8800000000000001,-0.010751700093551489
1.8840000000000001,-0.01075234918821047
1.8880000000000001,-0.010751820296266115
1.8920000000000001,-0.010750642309662776
1.8960000000000001,-0.010742492565611113
1.9000000000000001,-0.010733813929615092
1.9040000000000001,-0.010735184240561833
1.9080000000000001,-0.010735713132506187
1.9120000000000001,-0.010737444051596807
1.9160000000000001,-0.010738453754399668
1.92,-0.010738309511142116
1.924,-0.01073763637594021
1.928,-0.010735472727076936
1.932,-0.010736602632594423
1.936,-0.010739487497745455
1.94,-0.010743934998186627
1.944,-0.01075239726929632
1.948,-0.010758671850999815
1.952,-0.010756147593992661
1.956,-0.010749223917630186
1.96,-0.010744560052302685
1.964,-0.010744560052302685
1.968,-0.010740401038376615
1.972,-0.010734414943188223
1.976,-0.010741242457378999
1.98,-0.010744007119815404
1.984,-0.010737251727253405
1.988,-0.010731674321294744
1.992,-0.01073083290229236
1.996,-0.010730953105006985
2.0,-0.0107322032132391
2.004,-0.010736049700107142
2.008,-0.010737275767796331
2.012,-0.010735737173049114
2.016,-0.010735184240561833
2.02,-0.010735472727076936
2.024,-0.010737780619197761
2.028,-0.010744007119815404
2.032,-0.010741530943894101
2.036,-0.01073371776744339
2.04,-0.010734390902645299
2.044,-0.01073996830860396
2.048,-0.010733958172872643
2.052,-0.010729390469716844
2.056,-0.010729751077860722
2.06,-0.010729751077860722
2.064,-0.010726625807280439
2.068,-0.010724870847646895
2.072,-0.010725111253076148
2.076,-0.010726193077507783
2.08,-0.010729991483289975
2.084,-0.010730712699577732
2.088,-0.01073174644292352
2.092,-0.010732227253782025
2.096,-0.010730279969805079
2.1,-0.010730039564375826
2.104,-0.010729342388630993
2.108,-0.010731409875322565
2.112,-0.010733958172872643
2.116,-0.010734775551332103
2.12,-0.010736386267708096
2.124,-0.010737251727253405
2.128,-0.0107322032132391
2.132,-0.010732395537582502
2.136,-0.010735256362190608
2.14,-0.010736001619021291
2.144,-0.010738886484172323
2.148,-0.010738309511142116
2.152,-0.010735713132506187
2.156,-0.010736794956937825
2.16,-0.010737660416483134
2.164,-0.010734703429703327
2.168,-0.01073032805089093
2.172,-0.010732515740297127
2.176,-0.010736217983907618
2.18,-0.010734414943188223
2.184,-0.010732515740297127
2.188,-0.010734246659387747
2.192,-0.010736770916394899
2.196,-0.010736698794766124
2.2,-0.010731433915865491
2.204,-0.01072631328022241
2.208,-0.010727659550626226
2.212,-0.010729270267002218
2.216,-0.010727948037141328
2.22,-0.010730520375234332
2.224,-0.010737059402910002
2.228,-0.010734366862102373
2.232,-0.010729438550802694
2.236,-0.0107301116860046
2.24,-0.01073078482120651
2.244,-0.010730279969805079
2.248,-0.010735328483819384
2.2520000000000002,-0.010747180471481538
2.2560000000000002,-0.010746170768678677
2.2600000000000002,-0.010735112118933056
2.2640000000000002,-0.010729582794060246
2.2680000000000002,-0.010726625807280439
2.2720000000000002,-0.010731722402380595
2.2760000000000002,-0.010735833335220815
2.2800000000000002,-0.010730304010348003
2.2840000000000003,-0.010725231455790773
2.2880000000000003,-0.010725207415247849
2.2920000000000003,-0.01072621711805071
2.2960000000000003,-0.010725303577419548
2.3000000000000003,-0.010724269834073763
2.3040000000000003,-0.010725519942305877
2.308,-0.010727779753340851
2.312,-0.01072951067243147
2.316,-0.010733236956584886
2.32,-0.010733477362014139
2.324,-0.010729751077860722
2.328,-0.010731457956408416
2.332,-0.010735280402733534
2.336,-0.010738405673313817
2.34,-0.010738453754399668
2.344,-0.010736506470422721
2.348,-0.010736314146079319
2.352,-0.010741819430409204
2.356,-0.01074422348470173
2.36,-0.010733693726900466
2.364,-0.010722082144667563
2.368,-0.010712273603154056
2.372,-0.010707465494569003
2.376,-0.010711071576007793
2.38,-0.01071672110359523
2.384,-0.010718379901057073
2.388,-0.010720807995892525
2.392,-0.010724414077331315
2.396,-0.01072910198320174
2.4,-0.010731698361837669
2.404,-0.010732996551155633
2.408,-0.010735689091963263
2.412,-0.010736554551508572
2.416,-0.01073316483495611
2.42,-0.010731530078037193
2.424,-0.010737876781369463
2.428,-0.010744007119815404
2.432,-0.01074855078242828
2.436,-0.010745233187504592
2.44,-0.010736650713680273
2.444,-0.010733886051243868
2.448,-0.01073306867278441
2.452,-0.010731650280751818
2.456,-0.010730207848176302
2.46,-0.010728669253429086
2.464,-0.010728308645285206
2.468,-0.01072722682085357
2.472,-0.010726409442394112
2.476,-0.010728909658858338
2.48,-0.010733910091786793
2.484,-0.010735689091963263
2.488,-0.010732876348441008
2.492,-0.01072910198320174
2.496,-0.010727467226282823
2.5,-0.010732443618668352
2.504,-0.01073717960562463
2.508,-0.010739343254487903
2.512,-0.01073691515965245
2.516,-0.010734967875675504
2.52,-0.01073595353793544
2.524,-0.01073174644292352
2.528,-0.010723548617786004
2.532,-0.010723332252899677
2.536,-0.010726577726194588
2.54,-0.010725327617962474
2.544,-0.01072448619896009
2.548,-0.010727034496510168
2.552,-0.010727106618138943
2.556,-0.010725303577419548
2.56,-0.01072677005053799
2.564,-0.010732852307898081
2.568,-0.010739319213944977
2.572,-0.010744415809045133
2.576,-0.010738622038200144
2.58,-0.010731025226635762
2.584,-0.010731722402380595
2.588,-0.010734222618844822
2.592,-0.010734318781016522
2.596,-0.010734607267531626
2.6,-0.010730544415777256
2.604,-0.010727779753340851
2.608,-0.010728308645285206
2.612,-0.010728549050714459
2.616,-0.010729630875146097
2.62,-0.010732467659211278
2.624,-0.010731313713150864
2.628,-0.010729486631888545
2.632,-0.010736193943364693
2.636,-0.010741939633123832
2.64,-0.010737083443452929
2.644,-0.010733765848529241
2.648,-0.010729943402204125
2.652,-0.010725351658505399
2.656,-0.010729799158946573
2.66,-0.010736097781192992
2.664,-0.010734006253958494
2.668,-0.01073179452400937
2.672,-0.010732996551155633
2.676,-0.010733693726900466
2.68,-0.010734126456673121
2.684,-0.010736266064993468
2.688,-0.01073407837558727
2.692,-0.010724702563846417
2.696,-0.010720182941776468
2.7,-0.010722586996068994
2.704,-0.010724149631359136
2.708,-0.01072352457724308
2.712,-0.010726385401851186
2.716,-0.010724702563846417
2.72,-0.010726120955879008
2.724,-0.010729678956231947
2.728,-0.010731049267178687
2.732,-0.01073179452400937
2.736,-0.010731121388807463
2.74,-0.010728260564199357
2.744,-0.010728260564199357
2.748,-0.010730664618491884
2.7520000000000002,-0.010731986848352772
2.7560000000000002,-0.010731674321294744
2.7600000000000002,-0.010732227253782025
2.7640000000000002,-0.01073128967260794
2.7680000000000002,-0.010726457523479963
2.7720000000000002,-0.010726169036964859
2.7760000000000002,-0.010725015090904446
2.7800000000000002,-0.010721769617609535
2.7840000000000003,-0.010722707198783621
2.7880000000000003,-0.010725616104477578
2.7920000000000003,-0.01072814036148473
2.7960000000000003,-0.010728525010171535
2.8000000000000003,-0.010728380766913983
2.8040000000000003,-0.010739487497745455
2.8080000000000003,-0.010743526308956898
2.8120000000000003,-0.010740545281634166
2.816,-0.010739174970687425
2.82,-0.010736217983907618
2.824,-0.010736650713680273
2.828,-0.010737035362367078
2.832,-0.010736242024450544
2.836,-0.010735520808162785
2.84,-0.010737444051596807
2.844,-0.010743646511671525
2.848,-0.010740617403262941
2.852,-0.010730929064464061
2.856,-0.010723957307015735
2.86,-0.010722851442041173
2.864,-0.010723837104301108
2.868,-0.010724341955702538
2.872,-0.010727563388454524
2.876,-0.010732010888895697
2.88,-0.01073138583477964
2.884,-0.010732443618668352
2.888,-0.01073595353793544
2.892,-0.010738958605801098
2.896,-0.010743454187328123
2.9,-0.010747108349852763
2.904,-0.010741771349323354
2.908,-0.010741963673666756
2.912,-0.010742059835838457
2.916,-0.010736482429879797
2.92,-0.010730808861749434
2.924,-0.010727755712797925
2.928,-0.010727996118227178
2.932,-0.010731578159123043
2.936,-0.010736530510965648
2.94,-0.010740857808692194
2.944,-0.010736169902821767
2.948,-0.010728549050714459
2.952,-0.010729654915689021
2.956,-0.01073306867278441
2.96,-0.010736193943364693
2.964,-0.01074056932217709
2.968,-0.010738814362543547
2.972,-0.010734366862102373
2.976,-0.01073549676761986
2.98,-0.010730472294148481
2.984,-0.010727202780310644
2.988,-0.010725183374704923
2.992,-0.01071996657689014
2.996,-0.010720567590463272
3.0,-0.010725159334161998
3.004,-0.010726433482937036
3.008,-0.010723548617786004
3.012,-0.010720711833720824
3.016,-0.010719846374175515
3.02,-0.010725616104477578
3.024,-0.01072859713180031
3.028,-0.01072910198320174
3.032,-0.010730520375234332
3.036,-0.010730664618491884
3.04,-0.010731962807809846
3.044,-0.010734511105359924
3.048,-0.01073184260509522
3.052,-0.010727731672255
3.056,-0.010727972077684254
3.06,-0.01072677005053799
3.064,-0.010726048834250232
3.068,-0.010723500536700153
3.072,-0.010722058104124639
3.076,-0.010724678523303492
3.08,-0.010723548617786004
3.084,-0.010720928198607151
3.088,-0.0107252554963337
3.092,-0.010727347023568196
3.096,-0.010721096482407627
3.1,-0.010713499670843245
3.104,-0.010712129359896504
3.108,-0.010714701697989508
3.112,-0.010714773819618283
3.116,-0.01071484594124706
3.12,-0.01071585564404992
3.124,-0.01071672110359523
3.128,-0.010717514441511764
3.132,-0.010719942536347215
3.136,-0.010721625374351984
3.14,-0.010722442752811442
3.144,-0.01072164941489491
3.148,-0.010719173238973607
3.152,-0.010721024360778852
3.156,-0.010724606401674717
3.16,-0.010724558320588867
3.164,-0.010725736307192204
3.168,-0.010723861144844034
3.172,-0.010720182941776468
3.176,-0.010725592063934652
3.18,-0.010728260564199357
3.184,-0.010727707631712075
3.188,-0.010720110820147693
3.192,-0.01071032631917711
3.196,-0.010708282873028463
3.2,-0.01071114369763657
3.204,-0.010713595833014946
3.208,-0.010713932400615899
3.212,-0.010715470995363116
3.216,-0.010716913427938632
3.22,-0.01071900495517313
3.224,-0.010720567590463272
3.228,-0.010723212050185052
3.232,-0.010727875915512552
3.236,-0.010727875915512552
3.24,-0.01072494296927567
3.244,-0.01072443811787424
3.248,-0.0107186924281151
3.2520000000000002,-0.01071535079264849
3.2560000000000002,-0.010725015090904446
3.2600000000000002,-0.010727755712797925
3.2640000000000002,-0.010719702130917963
3.2680000000000002,-0.010715663319706518
3.2720000000000002,-0.010713283305956917
3.2760000000000002,-0.010713427549214468
3.2800000000000002,-0.010718211617256597
3.2840000000000003,-0.010723188009642125
3.2880000000000003,-0.010721913860867087
3.2920000000000003,-0.010720086779604766
3.2960000000000003,-0.01072037526611987
3.3000000000000003,-0.010721865779781237
3.3040000000000003,-0.010725231455790773
3.3080000000000003,-0.010727948037141328
3.3120000000000003,-0.010731241591522089
3.3160000000000003,-0.01073371776744339
3.3200000000000003,-0.010729702996774872
3.3240000000000003,-0.010727755712797925
3.3280000000000003,-0.010724365996245464
3.332,-0.010729270267002218
3.336,-0.010737251727253405
3.34,-0.010735977578478367
3.344,-0.010727899956055477
3.348,-0.010717466360425913
3.352,-0.010715975846764546
3.356,-0.010713475630300319
3.36,-0.010710037832662007
3.364,-0.010709124292030846
3.368,-0.010709244494745473
3.372,-0.01071023015700541
3.376,-0.010714437252017331
3.38,-0.010716961509024483
3.384,-0.010714461292560255
3.388,-0.01071479786016121
3.392,-0.010720014657975991
3.396,-0.010722130225753414
3.4,-0.010720206982319394
3.404,-0.010719702130917963
3.408,-0.010717490400968838
3.412,-0.010721769617609535
3.416,-0.010724414077331315
3.42,-0.01071941364440286
3.424,-0.010717778887483941
3.428,-0.010718572225400475
3.432,-0.010719678090375037
3.436,-0.010718740509200951
3.44,-0.010714725738532433
3.444,-0.010712682292383785
3.448,-0.010713547751929096
3.452,-0.010715398873734341
3.456,-0.010717009590110333
3.46,-0.010718524144314625
3.464,-0.010724414077331315
3.468,-0.010731145429350388
3.472,-0.010733381199842438
3.476,-0.010730520375234332
3.48,-0.010718884752458503
3.484,-0.010711720670666775
3.488,-0.010715326752105564
3.492,-0.010717514441511764
3.496,-0.010716432617080126
3.5,-0.010715519076448967
3.504,-0.01071489402233291
3.508,-0.010717802928026867
3.512,-0.010722250428468041
3.516,-0.010718884752458503
3.52,-0.010712345724782833
3.524,-0.010711360062522896
3.528,-0.010710807130035615
3.532,-0.01071068692732099
3.536,-0.010714437252017331
3.54,-0.010720735874263749
3.544,-0.010721913860867087
3.548,-0.010717923130741493
3.552,-0.010717201914453736
3.556,-0.010719702130917963
3.56,-0.010721264766208105
3.564,-0.010719605968746262
3.568,-0.010718836671372653
3.572,-0.010725015090904446
3.576,-0.010733285037670737
3.58,-0.010733285037670737
3.584,-0.010725159334161998
3.588,-0.010719774252546738
3.592,-0.010717153833367885
3.596,-0.010712706332926711
3.6,-0.010710398440805886
3.604,-0.010710590765149288
3.608,-0.010712489968040384
3.612,-0.010714653616903658
3.616,-0.010712081278810653
3.62,-0.010711119657093643
3.624,-0.010712273603154056
3.628,-0.010714725738532433
3.632,-0.010717057671196184
3.636,-0.010718355860514148
3.64,-0.0107186924281151
3.644,-0.010721192644579328
3.648,-0.010723813063758183
3.652,-0.01072946259134562
3.656,-0.010730977145549912
3.66,-0.010728332685828132
3.664,-0.010727539347911598
3.668,-0.010733116753870259
3.672,-0.010728380766913983
3.676,-0.010716624941423529
3.68,-0.010713379468128618
3.684,-0.01071479786016121
3.688,-0.010719221320059457
3.692,-0.010722058104124639
3.696,-0.010721817698695386
3.7,-0.010720615671549123
3.704,-0.010720807995892525
3.708,-0.01072174557706661
3.712,-0.010723644779957705
3.716,-0.010724918928732745
3.72,-0.01072595267207853
3.724,-0.010724606401674717
3.728,-0.010731818564552296
3.732,-0.010738165267884564
3.736,-0.01073088098337821
3.74,-0.010721216685122254
3.744,-0.010719341522774083
3.748,-0.010723332252899677
3.7520000000000002,-0.01072768359116915
3.7560000000000002,-0.010731506037494266
3.7600000000000002,-0.01072621711805071
3.7640000000000002,-0.010719533847117485
3.7680000000000002,-0.010716841306309857
3.7720000000000002,-0.010713860278987124
3.7760000000000002,-0.01071361987355787
3.7800000000000002,-0.010712177440982355
3.7840000000000003,-0.010716865346852782
3.7880000000000003,-0.010723139928556275
3.7920000000000003,-0.010720495468834496
3.7960000000000003,-0.010720062739061842
3.8000000000000003,-0.01071987041471844
3.8040000000000003,-0.010722250428468041
3.8080000000000003,-0.010724750644932267
3.8120000000000003,-0.010723236090727976
3.8160000000000003,-0.010717322117168361
3.8200000000000003,-0.010715446954820192
3.8240000000000003,-0.010716408576537202
3.8280000000000003,-0.01071575948187822
3.8320000000000003,-0.010717322117168361
3.8360000000000003,-0.010727996118227178
3.84,-0.010730304010348003
3.844,-0.01072215426629634
3.848,-0.010720086779604766
3.852,-0.010719605968746262
3.856,-0.010720687793177898
3.86,-0.010723452455614305
3.864,-0.010725592063934652
3.868,-0.010726914293795542
3.872,-0.010730039564375826
3.876,-0.010731073307721613
3.88,-0.01073032805089093
3.884,-0.010730712699577732
3.888,-0.010733285037670737
3.892,-0.010730159767090451
3.896,-0.010722490833897293
3.9,-0.010719101117344832
3.904,-0.010719245360602384
3.908,-0.010719726171460888
3.912,-0.010722274469010966
3.916,-0.010725303577419548
3.92,-0.010730856942835284
3.924,-0.010733236956584886
3.928,-0.010726457523479963
3.932,-0.010717971211827344
3.936,-0.010715927765678696
3.94,-0.010715831603506995
3.944,-0.010716865346852782
3.948,-0.010722250428468041
3.952,-0.010724582361131791
3.956,-0.010720711833720824
3.96,-0.010722370631182667
3.964,-0.010724365996245464
3.968,-0.010723188009642125
3.972,-0.010720182941776468
3.976,-0.010720134860690617
3.98,-0.010723188009642125
3.984,-0.010724269834073763
3.988,-0.010722803360955322
3.992,-0.010723716901586482
3.996,-0.01072667388836629
4.0,-0.010727779753340851
4.0040000000000004,-0.010728549050714459
4.008,-0.010727731672255
4.0120000000000005,-0.01072265911769777
4.016,-0.010725616104477578
4.0200000000000005,-0.010731674321294744
4.024,-0.010731674321294744
4.0280000000000005,-0.010730279969805079
4.032,-0.010728332685828132
4.0360000000000005,-0.0107276355100833
4.04,-0.0107276355100833
4.0440000000000005,-0.010729438550802694
4.048,-0.010730760780663583
4.0520000000000005,-0.010728549050714459
4.056,-0.010726986415424317
4.0600000000000005,-0.010729654915689021
4.064,-0.010733477362014139
4.0680000000000005,-0.010733645645814615
4.072,-0.010733621605271691
4.0760000000000005,-0.010736290105536395
4.08,-0.010738117186798714
4.0840000000000005,-0.010737347889425106
4.088,-0.01073955961937423
4.0920000000000005,-0.010742684889954515
4.096,-0.010741963673666756
4.1,-0.010739174970687425
4.104,-0.010739896186975184
4.108,-0.01075093079617788
4.112,-0.010761003783663564
4.116,-0.010750257660975973
4.12,-0.010734679389160402
4.124,-0.010732924429526858
4.128,-0.01073595353793544
4.132,-0.010738453754399668
4.136,-0.010737516173225582
4.14,-0.010739319213944977
4.144,-0.010739848105889334
4.148,-0.010742107916924308
4.152,-0.010742684889954515
4.156,-0.010738814362543547
4.16,-0.010735761213592038
4.164,-0.010734847672960878
4.168,-0.010735689091963263
4.172,-0.010736145862278843
4.176,-0.010736482429879797
4.18,-0.010738117186798714
4.184,-0.010743069538641318
4.188,-0.010749704728488692
4.192,-0.01075600335073511
4.196,-0.010755522539876605
4.2,-0.010751002917806656
4.204,-0.010745689957820173
4.208,-0.010738453754399668
4.212,-0.01073407837558727
4.216,-0.010734967875675504
4.22,-0.010737492132682658
4.224,-0.01073544868653401
4.228,-0.010733669686357541
4.232,-0.010735160200018906
4.236,-0.010741410741179475
4.24,-0.010745689957820173
4.244,-0.010745064903704115
4.248,-0.010743333984613496
4.252,-0.010741362660093625
4.256,-0.010739415376116678
4.26,-0.010737708497568985
4.264,-0.010738766281457696
4.268,-0.010744103281987105
4.272,-0.010743766714386151
4.276,-0.01074056932217709
4.28,-0.010740040430232736
4.284,-0.010737251727253405
4.288,-0.01073270806464053
4.292,-0.010730760780663583
4.296,-0.010731097348264537
4.3,-0.010733188875499036
4.304,-0.010734246659387747
4.308,-0.010734679389160402
4.312,-0.010736602632594423
4.316,-0.010737564254311433
4.32,-0.010734487064817
4.324,-0.010733862010700942
4.328,-0.010733597564728765
4.332,-0.010730808861749434
4.336,-0.010730520375234332
4.34,-0.010731001186092836
4.344,-0.010728068239855955
4.348,-0.010725616104477578
4.352,-0.010726962374881393
4.356,-0.010732010888895697
4.36,-0.01073398221341557
4.364,-0.010728476929085684
4.368,-0.0107230678069275
4.372,-0.010723212050185052
4.376,-0.010725928631535606
4.38,-0.01072503913144737
4.384,-0.010722058104124639
4.388,-0.010723091847470424
4.392,-0.010724870847646895
4.396,-0.010725664185563429
4.4,-0.010728116320941805
4.404,-0.010728260564199357
4.408,-0.010726096915336082
4.412,-0.010730592496863107
4.416,-0.010736193943364693
4.42,-0.010734631308074552
4.424,-0.010730472294148481
4.428,-0.010726169036964859
4.432,-0.010721985982495862
4.436,-0.010720062739061842
4.44,-0.010718812630829728
4.444,-0.010720134860690617
4.448,-0.010724269834073763
4.452,-0.010721721536523685
4.456,-0.01071936556331701
4.46,-0.010722130225753414
4.464,-0.010722322550096816
4.468,-0.010719990617433065
4.472,-0.010718980914630204
4.476,-0.010719774252546738
4.48,-0.010722226387925115
4.484,-0.010724269834073763
4.488,-0.010722635077154844
4.492,-0.010720928198607151
4.496,-0.010721553252723209
4.5,-0.010721697495980759
4.5040000000000004,-0.010723596698871855
4.508,-0.010726337320765335
4.5120000000000005,-0.010724702563846417
4.516,-0.010721625374351984
4.5200000000000005,-0.010718884752458503
4.524,-0.010718836671372653
4.5280000000000005,-0.010719197279516533
4.532,-0.01072265911769777
4.5360000000000005,-0.0107252554963337
4.54,-0.010721553252723209
4.5440000000000005,-0.01071890879300143
4.548,-0.01071813949562782
4.5520000000000005,-0.010714966143961686
4.556,-0.010710254197548334
4.5600000000000005,-0.010710831170578541
4.564,-0.010710831170578541
4.5680000000000005,-0.010710590765149288
4.572,-0.010711095616550719
4.5760000000000005,-0.010710470562434661
4.58,-0.010711768751752625
4.5840000000000005,-0.010711648549038
4.588,-0.010714966143961686
4.5920000000000005,-0.010716937468481557
4.596,-0.010717346157711288
4.6000000000000005,-0.010720399306662796
4.604,-0.010719293441688232
4.6080000000000005,-0.010714196846588078
4.612,-0.010714052603330526
4.616,-0.010713283305956917
4.62,-0.010710350359720035
4.624,-0.010712345724782833
4.628,-0.010716600900880604
4.632,-0.010714413211474405
4.636,-0.010710278238091259
4.64,-0.010709244494745473
4.644,-0.010711023494921942
4.648,-0.010711384103065822
4.652,-0.010710470562434661
4.656,-0.010710518643520512
4.66,-0.010710518643520512
4.664,-0.01071078308949269
4.668,-0.010717057671196184
4.672,-0.010721625374351984
4.676,-0.010721048401321778
4.68,-0.010721024360778852
4.684,-0.010723933266472809
4.688,-0.010733862010700942
4.692,-0.010737660416483134
4.696,-0.010727274901939421
4.7,-0.0107162162521938
4.704,-0.010712297643696982
4.708,-0.010712489968040384
4.712,-0.010713283305956917
4.716,-0.01071311502215644
4.72,-0.010709605102889352
4.724,-0.010705999021450563
4.728,-0.010702056372410819
4.732,-0.010701503439923538
4.736,-0.010702945872499054
4.74,-0.010705710534935459
4.744,-0.01071073500840684
4.748,-0.01071123985980827
4.752,-0.010710999454379018
4.756,-0.010707850143255808
4.76,-0.01070703276479635
4.764,-0.01070890792714452
4.768,-0.010710614805692213
4.772,-0.010711576427409223
4.776,-0.010710590765149288
4.78,-0.010712009157181878
4.784,-0.010719654049832113
4.788,-0.010724894888189819
4.792,-0.010721769617609535
4.796,-0.010713860278987124
4.8,-0.010708523278457715
4.804,-0.010707633778369481
4.808,-0.010708715602801117
4.812,-0.010710398440805886
4.816,-0.010711119657093643
4.82,-0.010709436819088876
4.824,-0.010708210751399687
4.828,-0.010705518210592057
4.832,-0.01070306607521368
4.836,-0.01070438830507457
4.84,-0.010707249129682676
4.844,-0.010708643481172342
4.848,-0.01070657599448077
4.852,-0.010707753981084107
4.856,-0.010711792792295552
4.86,-0.010717249995539586
4.864,-0.010716576860337678
4.868,-0.01071535079264849
4.872,-0.010721264766208105
4.876,-0.010720735874263749
4.88,-0.010716889387395706
4.884,-0.010714052603330526
4.888,-0.010711528346323372
4.892,-0.010712994819441815
4.896,-0.010709989751576157
4.9,-0.010700541818206528
4.904,-0.01069607027722243
4.908,-0.010696743412424336
4.912,-0.01069950807486074
4.916,-0.01070220061566837
4.92,-0.010704580629417973
4.924,-0.010707826102712883
4.928,-0.010710710967863914
4.932,-0.010710206116462484
4.936,-0.010708811764972818
4.94,-0.010709028129859147
4.944,-0.010708715602801117
4.948,-0.010710158035376633
4.952,-0.010714100684416377
4.956,-0.01071311502215644
4.96,-0.01070991762994738
4.964,-0.01070672023773832
4.968,-0.010702729507612727
4.972,-0.010703282440100008
4.976,-0.010711888954467253
4.98,-0.010717466360425913
4.984,-0.010704821034847226
4.988,-0.010698570493686657
4.992,-0.010698017561199376
4.996,-0.010694459560846437
5.0,-0.01069301712827092
5.0040000000000004,-0.010694267236503035
5.008,-0.010697368466540394
5.0120000000000005,-0.010702585264355175
5.016,-0.01071037440026296
5.0200000000000005,-0.010713812197901273
5.024,-0.010707705899998256
5.0280000000000005,-0.010704027696930692
5.032,-0.010706287507965666
5.0360000000000005,-0.010711912995010177
5.04,-0.010714172806045152
5.0440000000000005,-0.010709629143432278
5.048,-0.010703859413130214
5.0520000000000005,-0.010705974980907638
5.056,-0.010707753981084107
5.0600000000000005,-0.010706431751223218
5.064,-0.010704412345617495
5.0680000000000005,-0.01070265738598395
5.072,-0.010702873750870279
5.0760000000000005,-0.010703715169872662
5.08,-0.010707441454026079
5.0840000000000005,-0.010710759048949765
5.088,-0.010708306913571388
5.0920000000000005,-0.010705662453849608
5.096,-0.010707441454026079
5.1000000000000005,-0.010709316616374248
5.104,-0.010712225522068205
5.1080000000000005,-0.0107162162521938
5.112,-0.01071845202268585
5.1160000000000005,-0.0107163124143655
5.12,-0.010714317049302704
5.124,-0.010713691995186648
5.128,-0.01071261017075501
5.132,-0.010719317482231159
5.136,-0.010726289239679485
5.14,-0.010719750212003814
5.144,-0.010713956441158825
5.148,-0.010711408143608747
5.152,-0.01070900408931622
5.156,-0.010709340656917175
5.16,-0.010712249562611131
5.164,-0.010714124724959301
5.168,-0.010712730373469636
5.172,-0.01071114369763657
5.176,-0.010711480265237522
5.18,-0.010713691995186648
5.184,-0.01071676918468108
5.188,-0.0107138362384442
5.192,-0.01071018207591956
5.196,-0.01071087925166439
5.2,-0.010714244927673928
5.204,-0.010719245360602384
5.208,-0.01072037526611987
5.212,-0.010715567157534817
5.216,-0.010708427116286015
5.22,-0.010702032331867894
5.224,-0.010702056372410819
5.228,-0.010703619007700962
5.232,-0.010704075778016542
5.236,-0.010704220021274094
5.24,-0.010704604669960897
5.244,-0.010704195980731168
5.248,-0.010705590332220833
5.252,-0.010707705899998256
5.256,-0.010709941670490306
5.26,-0.010713812197901273
5.264,-0.010713235224871068
5.268,-0.010705181642991104
5.272,-0.010703594967158036
5.276,-0.010715615238620668
5.28,-0.01071987041471844
5.284,-0.010716120090022098
5.288,-0.010712682292383785
5.292,-0.010705398007877431
5.296,-0.010698378169343254
5.3,-0.01069657512862386
5.304,-0.010698282007171553
5.308,-0.010701815966981568
5.312,-0.010705277805162805
5.316,-0.01070753761619778
5.32,-0.010706840440452947
5.324,-0.010706191345793965
5.328,-0.010705085480819403
5.332,-0.0107047969943043
5.336,-0.01070662407556662
5.34,-0.010707802062169957
5.344,-0.010705950940364712
5.348,-0.010704700832132598
5.352,-0.010708595400086491
5.356,-0.0107140285627876
5.36,-0.010709581062346428
5.364,-0.010705157602448178
5.368,-0.010702777588698578
5.372,-0.010699123426173938
5.376,-0.010697560790883796
5.38,-0.01070027737223435
5.384,-0.010699868683004621
5.388,-0.010698690696401282
5.392,-0.010700974547979183
5.396,-0.010701791926438642
5.4,-0.010700373534406052
5.404,-0.010698642615315432
5.408,-0.010698137763914001
5.412,-0.010699411912689041
5.416,-0.010702873750870279
5.42,-0.010707802062169957
5.424,-0.010704893156476
5.428,-0.010701383237208912
5.432,-0.010702392940011773
5.436,-0.010697801196313047
5.44,-0.01069561350690685
5.444,-0.010699484034317816
5.448,-0.010701455358837687
5.452,-0.010703138196842456
5.456,-0.010704532548332122
5.46,-0.01070667215665247
5.464,-0.010704628710503823
5.468,-0.01070434022398872
5.472,-0.010706888521538798
5.476,-0.010706840440452947
5.48,-0.010706984683710499
5.484,-0.010703306480642933
5.488,-0.01069854645314373
5.492,-0.010696959777310664
5.496,-0.010698666655858358
5.5,-0.010699892723547546
5.5040000000000004,-0.010698137763914001
5.508,-0.010699243628888563
5.5120000000000005,-0.01069926766943149
5.516,-0.010695541385278073
5.5200000000000005,-0.010695974115050728
5.524,-0.010698666655858358
5.5280000000000005,-0.010702032331867894
5.532,-0.010705542251134983
5.5360000000000005,-0.010705710534935459
5.54,-0.01070667215665247
5.5440000000000005,-0.010713090981613516
5.548,-0.010715230589933863
5.5520000000000005,-0.010710975413836091
5.556,-0.010708114589227985
5.5600000000000005,-0.01070575861602131
5.564,-0.010707513575654854
5.5680000000000005,-0.01071123985980827
5.572,-0.010707681859455332
5.5760000000000005,-0.010698979182916386
5.58,-0.010695805831250252
5.5840000000000005,-0.010700036966805097
5.588,-0.010703234359014158
5.5920000000000005,-0.01070347476444341
5.596,-0.010702537183269325
5.6000000000000005,-0.01070210445349667
5.604,-0.010703162237385381
5.6080000000000005,-0.010704099818559467
5.612,-0.010705662453849608
5.6160000000000005,-0.010707393372940228
5.62,-0.010709364697460099
5.6240000000000006,-0.010712874616727187
5.628,-0.010714990184504612
5.632,-0.010713956441158825
5.636,-0.010717466360425913
5.64,-0.010717009590110333
5.644,-0.010713211184328142
5.648,-0.010714557454731957
5.652,-0.010714437252017331
5.656,-0.010709364697460099
5.66,-0.010705974980907638
5.664,-0.01071068692732099
5.668,-0.01071092733275024
5.672,-0.010707826102712883
5.676,-0.010705782656564236
5.68,-0.010704917197018925
5.684,-0.010703619007700962
5.688,-0.010703979615844841
5.692,-0.010705566291677907
5.696,-0.01070662407556662
5.7,-0.010707802062169957
5.704,-0.010711215819265344
5.708,-0.010717081711739108
5.712,-0.01071890879300143
5.716,-0.01071763464422639
5.72,-0.010717249995539586
5.724,-0.010715879684592845
5.728,-0.010717201914453736
5.732,-0.01071722595499666
5.736,-0.010715086346676311
5.74,-0.010715831603506995
5.744,-0.010718283738885372
5.748,-0.010720182941776468
5.752,-0.010714293008759779
5.756,-0.010710446521891737
5.76,-0.01070996571103323
5.764,-0.01071087925166439
5.768,-0.010713379468128618
5.772,-0.010714268968216853
5.776,-0.010713187143785217
5.78,-0.010711360062522896
5.784,-0.010710254197548334
5.788,-0.010710470562434661
5.792,-0.010713667954643721
5.796,-0.010716528779251827
5.8,-0.010717490400968838
5.804,-0.01072261103661192
5.808,-0.010725351658505399
5.812,-0.010718524144314625
5.816,-0.010716817265766931
5.82,-0.010713643914100797
5.824,-0.010709773386689828
5.828,-0.010710999454379018
5.832,-0.01070986954886153
5.836,-0.010702993953584905
5.84,-0.010699171507259788
5.844,-0.010698185844999852
5.848,-0.010698666655858358
5.852,-0.010701311115580136
5.856,-0.010704484467246271
5.86,-0.010708427116286015
5.864,-0.010709532981260577
5.868,-0.010708306913571388
5.872,-0.010708306913571388
5.876,-0.010710831170578541
5.88,-0.010712994819441815
5.884,-0.010713691995186648
5.888,-0.010713355427585693
5.892,-0.010716023927850397
5.896,-0.010722995685298723
5.9,-0.010722683158240695
5.904,-0.010712922697813038
5.908,-0.0107094608596318
5.912,-0.010706936602624648
5.916,-0.010700998588522108
5.92,-0.010697849277398898
5.924,-0.010700758183092855
5.928,-0.010702993953584905
5.932,-0.010700902426350406
5.936,-0.010698883020744685
5.94,-0.010697656953055495
5.944,-0.01069748866925502
5.948,-0.010699700399204143
5.952,-0.010703859413130214
5.956,-0.010708427116286015
5.96,-0.010709172373116697
5.964,-0.010707104886425125
5.968,-0.010702080412953745
5.972,-0.010697969480113525
5.976,-0.010706383670137367
5.98,-0.01071018207591956
5.984,-0.010703619007700962
5.988,-0.01069849837205788
5.992,-0.010695589466363923
5.996,-0.010693041168813845
6.0,-0.010694459560846437
6.0040000000000004,-0.010697344425997467
6.008,-0.010700012926262173
6.0120000000000005,-0.010700012926262173
6.016,-0.010699676358661219
6.0200000000000005,-0.010702849710327353
6.024,-0.010705974980907638
6.0280000000000005,-0.010709244494745473
6.032,-0.010706984683710499
6.0360000000000005,-0.010701575561552315
6.04,-0.01069982060191877
6.0440000000000005,-0.010702344858925922
6.048,-0.010704075778016542
6.0520000000000005,-0.010697248263825766
6.056,-0.010688473465658046
6.0600000000000005,-0.010686958911453754
6.064,-0.010690564992892544
6.0680000000000005,-0.01069251227686949
6.072,-0.010689651452261384
6.0760000000000005,-0.010689050438688253
6.08,-0.010691574695695405
6.0840000000000005,-0.010694171074331333
6.088,-0.010696214520479981
6.0920000000000005,-0.010696214520479981
6.096,-0.010697632912512571
6.1000000000000005,-0.010701864048067417
6.104,-0.010702489102183474
6.1080000000000005,-0.010698113723371077
6.112,-0.010694603804103989
6.1160000000000005,-0.0106933777364148
6.12,-0.010695373101477596
6.1240000000000006,-0.010700517777663603
6.128,-0.010703234359014158
6.132000000000001,-0.010705061440276477
6.136,-0.010700830304721631
6.140000000000001,-0.010692343993069012
6.144,-0.010686790627653278
6.148,-0.010684458694989527
6.152,-0.010681862316353596
6.156,-0.010681982519068222
6.16,-0.010683881721959318
6.164,-0.010684362532817826
6.168,-0.0106844346544466
6.172,-0.0106844346544466
6.176,-0.010685227992363135
6.18,-0.01069022842529159
6.184,-0.01069251227686949
6.188,-0.010691045803751048
6.192,-0.01069155065515248
6.196,-0.010688136898057091
6.2,-0.010683593235444214
6.204,-0.010687271438511782
6.208,-0.010684314451731975
6.212,-0.010682463329926728
6.216,-0.01068210272178285
6.22,-0.010685276073448985
6.224,-0.010691093884836899
6.228,-0.010691214087551526
6.232,-0.010686910830367904
6.236,-0.010680588167578556
6.24,-0.010677462896998273
6.244,-0.010676934005053916
6.248,-0.010679578464775696
6.252,-0.010683761519244692
6.256,-0.010682078681239923
6.26,-0.010679097653917191
6.264,-0.010677967748399703
6.268,-0.010679722708033247
6.272,-0.010684771222047555
6.276,-0.010685083749105583
6.28,-0.010686454060052324
6.284,-0.010693185412071397
6.288,-0.010691358330809078
6.292,-0.010684122127388573
6.296,-0.010680203518891753
6.3,-0.010682775856984756
6.304,-0.010687367600683484
6.308,-0.01068316050567156
6.312,-0.010679241897174743
6.316,-0.01068255949209843
6.32,-0.01068082857300781
6.324,-0.010683376870557888
6.328,-0.010689579330632607
6.332,-0.010692199749811462
6.336,-0.010688810033259
6.34,-0.010685684762678714
6.344,-0.010686405978966473
6.348,-0.0106844346544466
6.352,-0.010682823938070607
6.356,-0.010686237695165995
6.36,-0.010685732843764565
6.364,-0.01068082857300781
6.368,-0.01067717441048317
6.372,-0.010676741680710516
6.376,-0.01067849664034406
6.38,-0.010684506776075377
6.384,-0.010683184546214485
6.388,-0.010676693599624665
6.392,-0.010678785126859162
6.396,-0.010686550222224025
6.4,-0.010688473465658046
6.404,-0.010688882154887775
6.408,-0.010687295479054709
6.412,-0.01068352111381544
6.416,-0.010686718506024501
6.42,-0.010693065209356771
6.424,-0.010691839141667582
6.428,-0.01068931488466043
6.432,-0.010688064776428316
6.436,-0.01069155065515248
6.44,-0.010695036533876642
6.444,-0.010687752249370288
6.448,-0.010683136465128635
6.452,-0.010680708370293184
6.456,-0.01067808795111433
6.46,-0.010678833207945012
6.464,-0.010682920100242308
6.468,-0.010684146167931499
6.472,-0.010683881721959318
6.476,-0.010682799897527682
6.48,-0.010680059275634202
6.484,-0.010681261302780465
6.488,-0.010681934437982371
6.492,-0.010678785126859162
6.496,-0.010678352397086508
6.5,-0.010688136898057091
6.5040000000000004,-0.0106956615879927
6.508,-0.010689338925203355
6.5120000000000005,-0.01068265565427013
6.516,-0.010682006559611148
6.5200000000000005,-0.010676741680710516
6.524,-0.01066657253105313
6.5280000000000005,-0.010665009895762986
6.532,-0.010667341828426737
6.5360000000000005,-0.01066753415277014
6.54,-0.010668832342088104
6.5440000000000005,-0.010674241464246288
6.548,-0.01067823219437188
6.5520000000000005,-0.01067823219437188
6.556,-0.010678400478172359
6.5600000000000005,-0.010678111991657255
6.564,-0.010674986721076972
6.5680000000000005,-0.010675419450849625
6.572,-0.010682246965040401
6.5760000000000005,-0.010688713871087299
6.58,-0.010693161371528473
6.5840000000000005,-0.010685756884307491
6.588,-0.010678616843058686
6.5920000000000005,-0.010675299248135
6.596,-0.010672847112756623
6.6000000000000005,-0.01067164508561036
6.604,-0.010674097220988736
6.6080000000000005,-0.010680636248664407
6.612,-0.010680179478348827
6.6160000000000005,-0.010677751383513377
6.62,-0.010677150369940245
6.6240000000000006,-0.010677655221341675
6.628,-0.010679073613374265
6.632000000000001,-0.010680756451379034
6.636,-0.010681261302780465
6.640000000000001,-0.010682006559611148
6.644,-0.010684867384219256
6.648000000000001,-0.010690156303662815
6.652,-0.010692656520127042
6.656000000000001,-0.010693185412071397
6.66,-0.010692704601212893
6.664,-0.010689098519774103
6.668,-0.010683352830014963
6.672,-0.010679794829662024
6.676,-0.01067799178894263
6.68,-0.010678881289030863
6.684,-0.010683497073272515
6.688,-0.010685949208650894
6.692,-0.010685853046479192
6.696,-0.010688713871087299
6.7,-0.010693257533700174
6.704,-0.01069520481767712
6.708,-0.010690564992892544
6.712,-0.010685324154534836
6.716,-0.010686838708739127
6.72,-0.010690877519950572
6.724,-0.01069530097984882
6.728,-0.01069489229061909
6.732,-0.01069292096609922
6.736,-0.010693570060758202
6.74,-0.0106956615879927
6.744,-0.010697344425997467
6.748,-0.010694459560846437
6.752,-0.010693666222929903
6.756,-0.010693233493157248
6.76,-0.010688930235973625
6.764,-0.010686958911453754
6.768,-0.01068306434349986
6.772,-0.0106823431272121
6.776,-0.010689867817147711
6.78,-0.010698017561199376
6.784,-0.010693281574243098
6.788,-0.010684554857161228
6.792,-0.010683136465128635
6.796,-0.010684410613903676
6.8,-0.010686381938423547
6.804,-0.010690372668549141
6.808,-0.010693497939129425
6.812,-0.01069301712827092
6.816,-0.010691382371352002
6.82,-0.010690589033435468
6.824,-0.010691117925379825
6.828,-0.01069383450673038
6.832,-0.010694002790530857
6.836,-0.010691406411894928
6.84,-0.010690396709092068
6.844,-0.010692632479584116
6.848,-0.010698113723371077
6.852,-0.010697921399027675
6.856,-0.010693449858043574
6.86,-0.01069515673659127
6.864,-0.010697897358484748
6.868,-0.010695276939305895
6.872,-0.01069078135777887
6.876,-0.010688281141314643
6.88,-0.010689651452261384
6.884,-0.010689002357602402
6.888,-0.01068784841154199
6.892,-0.010689146600859954
6.896,-0.010691093884836899
6.9,-0.010690853479407647
6.904,-0.010686598303309876
6.908,-0.010684843343676332
6.912,-0.010687559925026886
6.916,-0.010690012060405263
6.92,-0.010688209019685868
6.924,-0.010686550222224025
6.928,-0.01068465101933293
6.932,-0.01068794457371369
6.936,-0.010691863182210508
6.94,-0.010694411479760586
6.944,-0.010703210318471231
6.948,-0.010705662453849608
6.952,-0.010697873317941824
6.956,-0.010689963979319412
6.96,-0.010681910397439447
6.964,-0.010681357464952166
6.968,-0.010689867817147711
6.972,-0.010693786425644529
6.976,-0.01068789649262784
6.98,-0.010679818870204949
6.984,-0.010676405113109562
6.988,-0.010676068545508607
6.992,-0.010676429153652486
6.996,-0.01067900149174549
7.0,-0.01068260757318428
7.0040000000000004,-0.010684338492274901
7.008,-0.010683328789472037
7.0120000000000005,-0.010689483168460906
7.016,-0.010692776722841668
7.0200000000000005,-0.010693089249899696
7.024,-0.010696767452967262
7.0280000000000005,-0.010697440588169169
7.032,-0.01069200742546806
7.0360000000000005,-0.010690204384748665
7.04,-0.010692560357955341
7.0440000000000005,-0.010688954276516551
7.048,-0.01068707911416838
7.0520000000000005,-0.010686790627653278
7.056,-0.010689122560317028
7.0600000000000005,-0.010688665790001448
7.064,-0.010688473465658046
7.0680000000000005,-0.010688521546743896
7.072,-0.010685756884307491
7.0760000000000005,-0.010689483168460906
7.08,-0.010699099385631012
7.0840000000000005,-0.010697104020568214
7.088,-0.010687800330456139
7.0920000000000005,-0.01068352111381544
7.096,-0.010684146167931499
7.1000000000000005,-0.010687968614256615
7.104,-0.010688329222400494
7.1080000000000005,-0.010683328789472037
7.112,-0.010684867384219256
7.1160000000000005,-0.010691021763208124
7.12,-0.010693401776957726
7.1240000000000006,-0.01069616643939413
7.128,-0.010699868683004621
7.132000000000001,-0.010702272737297147
7.136,-0.010703306480642933
7.140000000000001,-0.010700974547979183
7.144,-0.01069982060191877
7.148000000000001,-0.01069611835830828
7.152,-0.010697729074684272
7.156000000000001,-0.010699387872146115
7.16,-0.010691887222753433
7.164000000000001,-0.01068515587073436
7.168,-0.010683256667843262
7.172,-0.010686550222224025
7.176,-0.0106909977226652
7.18,-0.01069433935813181
7.184,-0.0106958539123361
7.188,-0.010697873317941824
7.192,-0.01069977252083292
7.196,-0.010694171074331333
7.2,-0.010685468397792388
7.204,-0.010686381938423547
7.208,-0.010693041168813845
7.212,-0.010695084614962493
7.216,-0.01069484420953324
7.22,-0.010694772087904465
7.224,-0.010694772087904465
7.228,-0.010696599169166784
7.232,-0.010707922264884583
7.236,-0.010711985116638954
7.24,-0.010702392940011773
7.244,-0.010693666222929903
7.248,-0.010688810033259
7.252,-0.010687199316883007
7.256,-0.01068936296574628
7.26,-0.010692440155240714
7.264,-0.010693594101301126
7.268,-0.010695228858220045
7.272,-0.01069881089911591
7.276,-0.010700830304721631
7.28,-0.010697632912512571
7.284,-0.010695781790707326
7.288,-0.010694098952702557
7.292,-0.010693762385101604
7.296,-0.010694772087904465
7.3,-0.01069854645314373
7.304,-0.010702825669784428
7.308,-0.010701214953408436
7.312,-0.010696767452967262
7.316,-0.010697248263825766
7.32,-0.010698330088257404
7.324,-0.010695421182563447
7.328,-0.010694122993245483
7.332,-0.010694555723018138
7.336,-0.010696406844823383
7.34,-0.010695060574419568
7.344,-0.010690805398321797
7.348,-0.010687271438511782
7.352,-0.010686309816794772
7.356,-0.010684170208474423
7.36,-0.010681958478525298
7.364,-0.010680107356720052
7.368,-0.010680107356720052
7.372,-0.010681044937894138
7.376,-0.010680708370293184
7.38,-0.010678472599801134
7.384,-0.010676477234738337
7.388,-0.010676573396910038
7.392,-0.010677126329397319
7.396,-0.010679265937717668
7.4,-0.010683881721959318
7.404,-0.01068611749245137
7.408,-0.010686598303309876
7.412,-0.010686285776251846
7.416,-0.01068657426276695
7.42,-0.010692127628182686
7.424,-0.010697777155770123
7.428,-0.010694507641932288
7.432,-0.010687319519597633
7.436,-0.010682583532641354
7.44,-0.010676332991480785
7.444,-0.010670947909865527
7.448,-0.010670539220635798
7.452,-0.010672750950584921
7.456,-0.010677510978084124
7.46,-0.0106821508028687
7.464,-0.010684987586933883
7.468,-0.01068616557353722
7.472,-0.010687175276340081
7.476,-0.010690853479407647
7.48,-0.01069292096609922
7.484,-0.010694988452790792
7.488,-0.01069241611469779
7.492,-0.010684482735532451
7.496,-0.010683833640873467
7.5,-0.010690252465834516
7.5040000000000004,-0.010696767452967262
7.508,-0.010695445223106372
7.5120000000000005,-0.010685372235620686
7.516,-0.010677150369940245
7.5200000000000005,-0.01067534732922085
7.524,-0.010675587734650103
7.5280000000000005,-0.010677006126682693
7.532,-0.010679097653917191
7.5360000000000005,-0.010680732410836108
7.54,-0.01068260757318428
7.5440000000000005,-0.010684915465305107
7.548,-0.010687271438511782
7.5520000000000005,-0.010687559925026886
7.556,-0.010689050438688253
7.5600000000000005,-0.010692608439041192
7.564,-0.010696983817853589
7.5680000000000005,-0.010699027264002237
7.572,-0.010691526614609554
7.5760000000000005,-0.010683016262414009
7.58,-0.010677655221341675
7.5840000000000005,-0.010676381072566635
7.588,-0.010678256234914807
7.5920000000000005,-0.010683905762502244
7.596,-0.010684626978790003
7.6000000000000005,-0.010681477667666792
7.604,-0.01068219888395455
7.6080000000000005,-0.01068361727598714
7.612,-0.010683232627300336
7.6160000000000005,-0.010683448992186664
7.62,-0.010684001924673947
7.6240000000000006,-0.010684843343676332
7.628,-0.010687656087198587
7.632000000000001,-0.01068931488466043
7.636,-0.010690516911806693
7.640000000000001,-0.010689603371175534
7.644,-0.01068926680357458
7.648000000000001,-0.010691863182210508
7.652,-0.010699532115403667
7.656000000000001,-0.010700854345264556
7.66,-0.010692488236326564
7.664000000000001,-0.010687632046655661
7.668,-0.01068561264104994
7.672000000000001,-0.010682535451555503
7.676,-0.010682295046126252
7.68,-0.010682920100242308
7.684,-0.010685059708562658
7.688,-0.010688713871087299
7.692,-0.010692247830897311
7.696,-0.010694555723018138
7.7,-0.010693906628359156
7.704,-0.010693786425644529
7.708,-0.010697873317941824
7.712,-0.010699411912689041
7.716,-0.010699700399204143
7.72,-0.010697825236855973
7.724,-0.010698979182916386
7.728,-0.0107002292911485
7.732,-0.01069748866925502
7.736,-0.010699051304545161
7.74,-0.010701407277751837
7.744,-0.010697224223282842
7.748,-0.01070018121006265
7.752,-0.010702056372410819
7.756,-0.010696334723194607
7.76,-0.0106933777364148
7.764,-0.010693089249899696
7.768,-0.01069073327669302
7.772,-0.010688954276516551
7.776,-0.010690156303662815
7.78,-0.01069164681732418
7.784,-0.010690540952349618
7.788,-0.010689891857690636
7.792,-0.010693257533700174
7.796,-0.010697224223282842
7.8,-0.010699940804633396
7.804,-0.010698786858572984
7.808,-0.010696959777310664
7.812,-0.010697104020568214
7.816,-0.010698017561199376
7.82,-0.0106980416017423
7.824,-0.010695685628535625
7.828,-0.01068808881697124
7.832,-0.010687006992539605
7.836,-0.010688761952173149
7.84,-0.010690012060405263
7.844,-0.01069241611469779
7.848,-0.010697897358484748
7.852,-0.010700854345264556
7.856,-0.010699604237032442
7.86,-0.010701575561552315
7.864,-0.010700950507436257
7.868,-0.010694603804103989
7.872,-0.010690564992892544
7.876,-0.010690564992892544
7.88,-0.010690204384748665
7.884,-0.010686958911453754
7.888,-0.010685420316706537
7.892,-0.010682847978613533
7.896,-0.010683545154358364
7.9,-0.01068885811434485
7.904,-0.010693137330985546
7.908,-0.010691454492980779
7.912,-0.010688545587286822
7.916,-0.010690204384748665
7.92,-0.010691045803751048
7.924,-0.010687151235797157
7.928,-0.010685756884307491
7.932,-0.01068794457371369
7.936,-0.01068931488466043
7.94,-0.010690877519950572
7.944,-0.010690709236150096
7.948,-0.010688689830544372
7.952,-0.01068707911416838
7.956,-0.010685420316706537
7.96,-0.010684771222047555
7.964,-0.010686718506024501
7.968,-0.010689387006289205
7.972,-0.01069611835830828
7.976,-0.010706888521538798
7.98,-0.010700974547979183
7.984,-0.010688761952173149
7.988,-0.010689531249546757
7.992,-0.010690540952349618
7.996,-0.010682511411012579
8.0,-0.010677342694283647
8.004,-0.010679338059346443
8.008000000000001,-0.010681141100065837
8.012,-0.01067895341065964
8.016,-0.010677967748399703
8.02,-0.010679434221518144
8.024000000000001,-0.010680708370293184
8.028,-0.010683232627300336
8.032,-0.01068835326294342
8.036,-0.010692079547096835
8.040000000000001,-0.010690516911806693
8.044,-0.010688016695342466
8.048,-0.010686958911453754
8.052,-0.01068804073588539
8.056000000000001,-0.010686381938423547
8.06,-0.0106799631134625
8.064,-0.010677414815912422
8.068,-0.010685588600507015
8.072000000000001,-0.010691214087551526
8.076,-0.010685925168107967
8.08,-0.010677390775369498
8.084,-0.010674409748046764
8.088000000000001,-0.010673856815559483
8.092,-0.01067433762641799
8.096,-0.010675203085963298
8.1,-0.010676982086139767
8.104000000000001,-0.01067854472142991
8.108,-0.010680588167578556
8.112,-0.010683809600330543
8.116,-0.010686550222224025
8.120000000000001,-0.010687151235797157
8.124,-0.010685829005936266
8.128,-0.010686982951996679
8.132,-0.01068926680357458
8.136000000000001,-0.010690564992892544
8.14,-0.010693618141844052
8.144,-0.010699844642461695
8.148,-0.01069484420953324
8.152000000000001,-0.010682295046126252
8.156,-0.010681501708209718
8.16,-0.01068179019472482
8.164,-0.01068311242458571
8.168000000000001,-0.010683280708386186
8.172,-0.010679530383689845
8.176,-0.010678881289030863
8.18,-0.01068087665409366
8.184000000000001,-0.010683881721959318
8.188,-0.010686141532994296
8.192,-0.010691093884836899
8.196,-0.010693690263472827
8.2,-0.010689218722488729
8.204,-0.010686357897880623
8.208,-0.01068667042493865
8.212,-0.010690132263119888
8.216,-0.010696815534053113
8.22,-0.010699748480289994
8.224,-0.010695012493333718
8.228,-0.010687319519597633
8.232,-0.010691983384925134
8.236,-0.010702537183269325
8.24,-0.010700036966805097
8.244,-0.01069296904718507
8.248,-0.010689435087375056
8.252,-0.010689074479231177
8.256,-0.010691093884836899
8.26,-0.010694122993245483
8.264,-0.010693690263472827
8.268,-0.01068835326294342
8.272,-0.01068703103308253
8.276,-0.010689050438688253
8.28,-0.010691406411894928
8.284,-0.010690300546920366
8.288,-0.010687223357425932
8.292,-0.010690564992892544
8.296,-0.010702344858925922
8.3,-0.010704700832132598
8.304,-0.010692848844470443
8.308,-0.010687704168284438
8.312,-0.010680540086492706
8.316,-0.010676934005053916
8.32,-0.010681910397439447
8.324,-0.010682511411012579
8.328,-0.010680756451379034
8.332,-0.01068133342440924
8.336,-0.010682054640696999
8.34,-0.010682391208297951
8.344,-0.01068361727598714
8.348,-0.010685588600507015
8.352,-0.010686718506024501
8.356,-0.01068667042493865
8.36,-0.010687752249370288
8.364,-0.010692175709268536
8.368,-0.010696430885366308
8.372,-0.01069936383160319
8.376,-0.010700253331691424
8.38,-0.010707249129682676
8.384,-0.01070662407556662
8.388,-0.010698618574772507
8.392,-0.010695084614962493
8.396,-0.010695781790707326
8.4,-0.01070114283177966
8.404,-0.010701815966981568
8.408,-0.010695781790707326
8.412,-0.010690757317235946
8.416,-0.010688497506200972
8.42,-0.010689411046832131
8.424,-0.0106911900470086
8.428,-0.01069200742546806
8.432,-0.01069205550655391
8.436,-0.010692151668725612
8.44,-0.010693954709445007
8.444,-0.010699748480289994
8.448,-0.010702032331867894
8.452,-0.010702176575125446
8.456,-0.010704147899645317
8.46,-0.01070265738598395
8.464,-0.010701575561552315
8.468,-0.010702056372410819
8.472,-0.010700662020921153
8.476,-0.010702897791413203
8.48,-0.010701671723724016
8.484,-0.01069388258781623
8.488,-0.01068981973606186
8.492,-0.01069169489841003
8.496,-0.01069530097984882
8.5,-0.01069657512862386
8.504,-0.010693449858043574
8.508000000000001,-0.010691430452437853
8.512,-0.010692608439041192
8.516,-0.010693618141844052
8.52,-0.010696214520479981
8.524000000000001,-0.010699123426173938
8.528,-0.01069982060191877
8.532,-0.010703138196842456
8.536,-0.010700878385807482
8.540000000000001,-0.010697296344911617
8.544,-0.01070306607521368
8.548,-0.010703667088786811
8.552,-0.010693858547273305
8.556000000000001,-0.010686742546567428
8.56,-0.010690204384748665
8.564,-0.010695276939305895
8.568,-0.010694651885189838
8.572000000000001,-0.01069027650637744
8.576,-0.010687704168284438
8.58,-0.010687824370999063
8.584,-0.010685853046479192
8.588000000000001,-0.010683641316530065
8.592,-0.0106842423301032
8.596,-0.010688233060228793
8.6,-0.01069164681732418
8.604000000000001,-0.010690516911806693
8.608,-0.010689242763031653
8.612,-0.010690468830720843
8.616,-0.01069195934438221
8.620000000000001,-0.010692488236326564
8.624,-0.010695373101477596
8.628,-0.010694483601389361
8.632,-0.010692896925556293
8.636000000000001,-0.010687559925026886
8.64,-0.010680492005406857
8.644,-0.010679554424232771
8.648,-0.010683256667843262
8.652000000000001,-0.010686309816794772
8.656,-0.01068657426276695
8.66,-0.01068606941136552
8.664,-0.010685564559964089
8.668000000000001,-0.0106842423301032
8.672,-0.010683424951643738
8.676,-0.010682751816441832
8.68,-0.010682968181328158
8.684000000000001,-0.010685877087022117
8.688,-0.010688713871087299
8.692,-0.010690108222576964
8.696,-0.01068840134402927
8.700000000000001,-0.010689555290089683
8.704,-0.010690132263119888
8.708,-0.010684939505848033
8.712,-0.01068311242458571
8.716,-0.010685636681592864
8.72,-0.010691382371352002
8.724,-0.010690036100948187
8.728,-0.01067621278876616
8.732,-0.010669313152946608
8.736,-0.010669721842176337
8.74,-0.010671669126153284
8.744,-0.010675179045420372
8.748,-0.010673856815559483
8.752,-0.010670154571948993
8.756,-0.010670058409777292
8.76,-0.010673928937188258
8.764,-0.010677126329397319
8.768,-0.010677246532111946
8.772,-0.010679554424232771
8.776,-0.010681477667666792
8.78,-0.010680636248664407
8.784,-0.010683833640873467
8.788,-0.01068570880322164
8.792,-0.010690805398321797
8.796,-0.010699940804633396
8.8,-0.010697632912512571
8.804,-0.010692584398498265
8.808,-0.010692776722841668
8.812,-0.010688930235973625
8.816,-0.01068474718150463
8.82,-0.010684386573360752
8.824,-0.010680948775722437
8.828,-0.01067900149174549
8.832,-0.010681982519068222
8.836,-0.01068611749245137
8.84,-0.010685035668019732
8.844,-0.010680756451379034
8.848,-0.010678713005230387
8.852,-0.010679554424232771
8.856,-0.010681405546038017
8.86,-0.010681237262237539
8.864,-0.010685035668019732
8.868,-0.010692271871440237
8.872,-0.01068981973606186
8.876,-0.010682271005583326
8.88,-0.010683040302956933
8.884,-0.010693690263472827
8.888,-0.010699652318118293
8.892,-0.010692031466010984
8.896,-0.010684987586933883
8.9,-0.01068352111381544
8.904,-0.010680756451379034
8.908,-0.010680227559434678
8.912,-0.010680852613550736
8.916,-0.010682751816441832
8.92,-0.010684410613903676
8.924,-0.01068611749245137
8.928,-0.01068977165497601
8.932,-0.010690829438864721
8.936,-0.010689555290089683
8.94,-0.010687680127741512
8.944,-0.010687752249370288
8.948,-0.01069114196592275
8.952,-0.010697320385454543
8.956,-0.010698378169343254
8.96,-0.010692608439041192
8.964,-0.010687367600683484
8.968,-0.010690372668549141
8.972,-0.010691670857867106
8.976,-0.010693353695871875
8.98,-0.01068667042493865
8.984,-0.010678256234914807
8.988,-0.010675539653564253
8.992,-0.010675611775193028
8.996,-0.010676573396910038
9.0,-0.010677510978084124
9.004,-0.010678881289030863
9.008000000000001,-0.010681189181151688
9.012,-0.010682535451555503
9.016,-0.010683376870557888
9.02,-0.010683088384042784
9.024000000000001,-0.010682391208297951
9.028,-0.010682631613727204
9.032,-0.010683424951643738
9.036,-0.010683833640873467
9.040000000000001,-0.010686478100595248
9.044,-0.010686838708739127
9.048,-0.010688569627829747
9.052,-0.010686934870910828
9.056000000000001,-0.010679698667490323
9.06,-0.010670995990951377
9.064,-0.010669673761090489
9.068,-0.010668231328514972
9.072000000000001,-0.010667798598742317
9.076,-0.010670659423350423
9.08,-0.010672726910041995
9.084,-0.01067037093683532
9.088000000000001,-0.010666957179739932
9.092,-0.010666861017568231
9.096,-0.010667966882542793
9.1,-0.010669120828603206
9.104000000000001,-0.010670202653034843
9.108,-0.010673496207415605
9.112,-0.010675251167049149
9.116,-0.010675251167049149
9.120000000000001,-0.010680900694636586
9.124,-0.010683352830014963
9.128,-0.0106823431272121
9.132,-0.010681814235267746
9.136000000000001,-0.010682439289383802
9.14,-0.010685949208650894
9.144,-0.010688834073801924
9.148,-0.010681429586580941
9.152000000000001,-0.010673928937188258
9.156,-0.010675563694107177
9.16,-0.010676164707680309
9.164,-0.010673015396557099
9.168000000000001,-0.010672366301898117
9.172,-0.010672774991127846
9.176,-0.010673255801986352
9.18,-0.010674217423703362
9.184000000000001,-0.01067174124778206
9.188,-0.010671092153123079
9.192,-0.010676982086139767
9.196,-0.010682030600154073
9.200000000000001,-0.010679650586404472
9.204,-0.01067402509935996
9.208,-0.010675203085963298
9.212,-0.010683641316530065
9.216000000000001,-0.010696743412424336
9.22,-0.01069489229061909
9.224,-0.010677486937541199
9.228,-0.010670130531406068
9.232,-0.010668014963628644
9.236,-0.010664481003818631
9.24,-0.010665875355308297
9.244,-0.010665610909336118
9.248,-0.010660995125094467
9.252,-0.010661115327809095
9.256,-0.010659889260119905
9.26,-0.010659552692518951
9.264,-0.010658062178857586
9.268,-0.010657773692342483
9.272,-0.010658831476231194
9.276,-0.010662894327985563
9.28,-0.010669024666431506
9.284,-0.01067041901792117
9.288,-0.01066803900417157
9.292,-0.010663687665902097
9.296,-0.010658591070801941
9.3,-0.010659480570890176
9.304,-0.010662076949526105
9.308,-0.010658567030259017
9.312,-0.010653951246017366
9.316,-0.010648926772545985
9.32,-0.010656066813794789
9.324,-0.010668543855573
9.328,-0.010670178612491919
9.332,-0.010667413950055512
9.336,-0.010662557760384609
9.34,-0.010658422787001465
9.344,-0.010656956313883024
9.348,-0.010657797732885407
9.352,-0.010660177746635009
9.356,-0.010661475935952973
9.36,-0.010663278976672368
9.364,-0.010664913733591285
9.368,-0.010665923436394147
9.372,-0.010668279409600823
9.376,-0.01067315963981465
9.38,-0.010673039437100025
9.384,-0.010664481003818631
9.388,-0.01065539367859288
9.392,-0.010652604975613551
9.396,-0.0106548407461056
9.4,-0.010660297949349634
9.404,-0.010666596571596054
9.408,-0.010663831909159649
9.412,-0.01065803813831466
9.416,-0.01065936036817555
9.42,-0.01066027390880671
9.424,-0.010660874922379842
9.428,-0.010659745016862354
9.432,-0.0106595046114331
9.436,-0.010660129665549158
9.44,-0.010660297949349634
9.444,-0.010660538354778887
9.448,-0.010661499976495898
9.452,-0.010662221192783657
9.456,-0.010664769490333735
9.46,-0.010669289112403684
9.464,-0.01066753415277014
9.468,-0.010660586435864738
9.472,-0.010658422787001465
9.476,-0.010662894327985563
9.48,-0.010664312720018153
9.484,-0.010660586435864738
9.488,-0.010658134300486361
9.492,-0.010660297949349634
9.496,-0.010660201787177933
9.5,-0.010659480570890176
9.504,-0.010660442192607186
9.508000000000001,-0.010663278976672368
9.512,-0.010668255369057897
9.516,-0.010668640017744702
9.52,-0.010665370503906866
9.524000000000001,-0.010664865652505436
9.528,-0.010661067246723244
9.532,-0.010656403381395743
9.536,-0.010657389043655678
9.540000000000001,-0.010655513881307508
9.544,-0.010659216124917999
9.548,-0.010663831909159649
9.552,-0.010659144003289222
9.556000000000001,-0.010654456097418797
9.56,-0.010648373840058704
9.564,-0.010648566164402106
9.568,-0.01065072981326538
9.572000000000001,-0.010649696069919595
9.576,-0.010649455664490342
9.58,-0.010653903164931516
9.584,-0.01065529751642118
9.588000000000001,-0.010654864786648526
9.592,-0.010657701570713706
9.596,-0.01065762944908493
9.6,-0.010652268408012597
9.604000000000001,-0.010651907799868719
9.608,-0.010657701570713706
9.612,-0.010663303017215292
9.616,-0.010664985855220062
9.620000000000001,-0.010666957179739932
9.624,-0.010665057976848837
9.628,-0.010658615111344867
9.632,-0.010651402948467288
9.636000000000001,-0.010645296650564271
9.64,-0.010641834812383033
9.644,-0.010641450163696229
9.648,-0.010644575434276512
9.652000000000001,-0.010649888394262995
9.656,-0.010653951246017366
9.66,-0.010655898529994311
9.664,-0.010658182381572212
9.668000000000001,-0.010656475503024518
9.672,-0.010656042773251863
9.676,-0.01065803813831466
9.68,-0.010658783395145343
9.684000000000001,-0.010657461165284455
9.688,-0.010663567463187472
9.692,-0.010670971950408451
9.696,-0.010667966882542793
9.700000000000001,-0.010661956746811477
9.704,-0.01066068259803644
9.708,-0.010659240165460923
9.712,-0.010663831909159649
9.716000000000001,-0.01067037093683532
9.72,-0.010661427854867123
9.724,-0.010649407583404491
9.728,-0.010648782529288433
9.732,-0.010653230029729607
9.736,-0.010657461165284455
9.74,-0.010657845813971258
9.744,-0.010656187016509415
9.748,-0.010656980354425949
9.752,-0.010660466233150112
9.756,-0.010663952111874275
9.76,-0.010666115760737548
9.764,-0.010668375571772524
9.768,-0.010670250734120694
9.772,-0.010670443058464096
9.776,-0.010670875788236752
9.78,-0.010669168909689056
9.784,-0.010667437990598438
9.788,-0.010673327923615127
9.792,-0.010677030167225618
9.796,-0.010670635382807499
9.8,-0.01066315877395774
9.804,-0.0106616923008393
9.808,-0.01065976905740528
9.812,-0.010659865219576981
9.816,-0.010663855949702573
9.82,-0.010665971517479998
9.824,-0.010665418584992717
9.828,-0.010664360801104004
9.832,-0.010664673328162034
9.836,-0.010666452328338502
9.84,-0.010666692733767755
9.844,-0.01067068346389335
9.848,-0.01067950634314692
9.852,-0.010680275640520528
9.856,-0.010671284477466481
9.86,-0.010660995125094467
9.864,-0.010654672462305123
9.868,-0.010655537921850432
9.872,-0.010658783395145343
9.876,-0.010665634949879044
9.88,-0.010669721842176337
9.884,-0.01066808708525742
9.888,-0.010665779193136595
9.892,-0.010663639584816247
9.896,-0.010663351098301143
9.9,-0.010663038571243115
9.904,-0.010663351098301143
9.908,-0.01066291836852849
9.912,-0.0106638799902455
9.916,-0.010665995558022922
9.92,-0.010664913733591285
9.924,-0.010662437557669983
9.928,-0.010663278976672368
9.932,-0.010665875355308297
9.936,-0.010664697368704958
9.94,-0.010661668260296376
9.944,-0.010659865219576981
9.948,-0.0106638799902455
9.952,-0.010668808301545178
9.956,-0.010667726477113542
9.96,-0.010668808301545178
9.964,-0.010665995558022922
9.968,-0.010666452328338502
9.972,-0.010671044072037228
9.976,-0.010664673328162034
9.98,-0.010657917935600034
9.984,-0.010654624381219273
9.988,-0.010653254070272533
9.992,-0.010653662759502263
9.996,-0.01065392720547444
10.0,-0.010651330826838511
10.004,-0.010649383542861565
10.008000000000001,-0.010649335461775714
10.012,-0.010651571232267764
10.016,-0.010653903164931516
10.02,-0.010653326191901309
10.024000000000001,-0.010652797299956954
10.028,-0.010652532853984775
10.032,-0.010654215691989544
10.036,-0.010660850881836915
10.040000000000001,-0.010662365436041208
10.044,-0.010658687232973642
10.048,-0.010658110259943437
10.052,-0.010652196286383822
10.056000000000001,-0.010647965150828975
10.06,-0.01065077789435123
10.064,-0.010650465367293202
10.068,-0.010646883326397337
10.072000000000001,-0.010644671596448213
10.076,-0.010642700271928342
10.08,-0.010644118663960932
10.084,-0.010645440893821823
10.088000000000001,-0.010646450596624684
10.092,-0.010646763123682712
10.096,-0.010647700704856797
10.1,-0.010650345164578577
10.104000000000001,-0.010651931840411643
10.108,-0.010652268408012597
10.112,-0.010652388610727223
10.116,-0.010653374272987159
10.120000000000001,-0.010656956313883024
10.124,-0.010665154139020538
10.128,-0.010667053341911634
10.132,-0.010661620179210525
10.136000000000001,-0.010658254503200989
10.14,-0.010658014097771736
10.144,-0.010651787597154091
10.148,-0.010647989191371901
10.152000000000001,-0.010647003529111965
10.156,-0.01064565725870815
10.16,-0.01064621019119543
10.164,-0.01064520048839257
10.168000000000001,-0.010644479272104811
10.172,-0.01064520048839257
10.176,-0.01064657079933931
10.18,-0.010648494042773331
10.184000000000001,-0.010649455664490342
10.188,-0.010652388610727223
10.192,-0.010661355733238346
10.196,-0.010665009895762986
10.200000000000001,-0.010661307652152495
10.204,-0.010662269273869507
10.208,-0.01065936036817555
10.212,-0.010651523151181914
10.216000000000001,-0.010649046975260612
10.22,-0.010649623948290818
10.224,-0.010646041907394954
10.228,-0.010643589772016578
10.232000000000001,-0.010644887961334542
10.236,-0.01064738817779877
10.24,-0.010644767758619915
10.244,-0.010639839447320236
10.248,-0.010638709541802748
10.252,-0.010640392379807517
10.256,-0.010641257839352826
10.26,-0.01064027217709289
10.264,-0.01064012793383534
10.268,-0.010643036839529297
10.272,-0.010648590204945033
10.276,-0.010656427421938668
10.28,-0.010659552692518951
10.284,-0.010660466233150112
10.288,-0.010652893462128653
10.292,-0.010647772826485572
10.296,-0.010648542123859182
10.3,-0.010649215259061089
10.304,-0.010651571232267764
10.308,-0.010649888394262995
10.312,-0.010648421921144555
10.316,-0.010647724745399722
10.32,-0.010649287380689864
10.324,-0.010657725611256632
10.328,-0.010661403814324196
10.332,-0.010654552259590498
10.336,-0.01065443205687587
10.34,-0.010656908232797174
10.344,-0.010652340529641372
10.348,-0.010645537055993524
10.352,-0.010643373407130249
10.356,-0.010645825542508626
10.36,-0.010651162543038035
10.364,-0.010650874056522932
10.368,-0.010644599474819438
10.372,-0.010643036839529297
10.376,-0.010640368339264591
10.38,-0.01064250794758494
10.384,-0.010644455231561887
10.388,-0.010644887961334542
10.392,-0.010646715042596861
10.396,-0.01064712373182659
10.4,-0.010648974853631836
10.404,-0.01064784494811435
10.408,-0.010646065947937879
10.412,-0.010649551826662043
10.416,-0.010648518083316256
10.42,-0.010642844515185894
10.424,-0.010643685934188279
10.428,-0.010643637853102428
10.432,-0.010641354001524527
10.436,-0.010640777028494322
10.44,-0.010641305920438677
10.444,-0.010647796867028499
10.448,-0.010656908232797174
10.452,-0.010654576300133422
10.456,-0.010647676664313871
10.46,-0.010637002663255055
10.464,-0.010633011933129462
10.468,-0.010639599041890983
10.472,-0.010645080285677943
10.476,-0.010643709974731203
10.48,-0.010640801069037246
10.484,-0.01063108868969544
10.488,-0.010622698540214524
10.492,-0.010625944013509433
10.496,-0.01062834806780196
10.5,-0.01062789129748638
10.504,-0.01062870867594584
10.508000000000001,-0.010630391513950607
10.512,-0.010632531122270956
10.516,-0.010637291149770158
10.52,-0.010641714609668406
10.524000000000001,-0.010643253204415623
10.528,-0.010643445528759026
10.532,-0.010641714609668406
10.536,-0.010635824676651718
10.540000000000001,-0.010631737784354422
10.544,-0.010635848717194642
10.548,-0.010643902299074606
10.552,-0.010642700271928342
10.556000000000001,-0.010634262041361576
10.56,-0.010627867256943455
10.564,-0.010623563999759833
10.568,-0.010623419756502281
10.572000000000001,-0.010625655526994331
10.576,-0.01062652098653964
10.58,-0.010626448864910865
10.584,-0.010630607878836936
10.588000000000001,-0.010634454365704977
10.592,-0.010635031338735184
10.596,-0.010635464068507837
10.6,-0.010637675798456963
10.604000000000001,-0.010639454798633432
10.608,-0.010644719677534064
10.612,-0.010648061313000676
10.616,-0.010641450163696229
10.620000000000001,-0.010640151974378264
10.624,-0.0106456091776223
10.628,-0.010649623948290818
10.632,-0.010643205123329773
10.636000000000001,-0.010637988325514991
10.64,-0.010639142271575404
10.644,-0.01063748347411356
10.648,-0.010633348500730415
10.652000000000001,-0.010629694338205774
10.656,-0.010628059581286858
10.66,-0.010628636554317063
10.664,-0.010629526054405298
10.668000000000001,-0.010630391513950607
10.672,-0.010632651324985582
10.676,-0.010635920838823419
10.68,-0.010636714176739951
10.684000000000001,-0.010636281446967297
10.688,-0.010637651757914037
10.692,-0.010639478839176358
10.696,-0.01064063278523677
10.700000000000001,-0.010641402082610378
10.704,-0.01064392633961753
10.708,-0.010657605408542006
10.712,-0.010662750084728011
10.716000000000001,-0.010647051610197815
10.72,-0.010633108095301162
10.724,-0.010626833513597668
10.728,-0.010625727648623106
10.732000000000001,-0.010627170081198622
10.736,-0.01062793937857223
10.74,-0.010630487676122308
10.744,-0.010630271311235982
10.748000000000001,-0.010626448864910865
10.752,-0.010624261175504666
10.756,-0.010623539959216907
10.76,-0.010623972688989562
10.764,-0.010626569067625491
10.768,-0.010628324027259035
10.772,-0.01063570447393709
10.776,-0.010652100124212121
10.78,-0.010644839880248691
10.784,-0.010630030905806729
10.788,-0.010619813675063492
10.792,-0.010617505782942667
10.796,-0.010617914472172396
10.8,-0.010621015702209755
10.804,-0.010625535324279704
10.808,-0.010627049878483997
10.812,-0.010626184418938686
10.816,-0.010625415121565078
10.82,-0.010625535324279704
10.824,-0.010626689270340117
10.828,-0.010628179784001483
10.832,-0.010628059581286858
10.836,-0.010628684635402914
10.84,-0.010629405851690673
10.844,-0.010628732716488764
10.848,-0.010627242202827398
10.852,-0.010624405418762218
10.856,-0.010625222797221676
10.86,-0.010626496945996714
10.864,-0.010633348500730415
10.868,-0.010640921271751872
10.872,-0.010645969785766178
10.876,-0.010642075217812285
10.88,-0.010627458567713726
10.884,-0.010616736485569059
10.888,-0.010614404552905308
10.892,-0.010615005566478439
10.896,-0.010615149809735991
10.9,-0.010617601945114368
10.904,-0.010617433661313892
10.908,-0.010616207593624702
10.912,-0.01061647203959688
10.916,-0.01062012620212152
10.92,-0.010621159945467307
10.924,-0.010621929242840914
10.928,-0.010621809040126289
10.932,-0.010618347201945051
10.936,-0.010620342567007848
10.94,-0.010626208459481612
10.944,-0.010624165013332965
10.948,-0.010620607012980026
10.952,-0.010623539959216907
10.956,-0.010626593108168415
10.96,-0.010622890864557925
10.964,-0.010627915338029306
10.968,-0.010629598176034073
10.972,-0.010621015702209755
10.976,-0.010616712445026133
10.98,-0.01061418818801898
10.984,-0.010610413822779713
10.988,-0.01061291403924394
10.992,-0.010618587607374304
10.996,-0.010621063783295605
11.0,-0.010618563566831378
11.004,-0.010614524755619933
11.008000000000001,-0.010612481309471287
11.012,-0.010619140539861585
11.016,-0.010623251472701805
11.02,-0.010622121567184317
11.024000000000001,-0.0106205829724371
11.028,-0.010620510850808325
11.032,-0.010622746621300375
11.036,-0.010624621783648544
11.040000000000001,-0.010626665229797192
11.044,-0.010629862622006252
11.048,-0.010628852919203392
11.052,-0.010624477540390993
11.056000000000001,-0.010622049445555542
11.06,-0.010624092891704188
11.064,-0.010623588040302757
11.068,-0.010622049445555542
11.072000000000001,-0.010623299553787656
11.076,-0.010622337932070644
11.08,-0.010623612080845684
11.084,-0.010628492311059511
11.088000000000001,-0.010625294918850451
11.092,-0.010618852053346482
11.096,-0.01061784235054362
11.1,-0.010618948215518183
11.104000000000001,-0.010618803972260631
11.108,-0.010620486810265398
11.112,-0.010621881161755064
11.116,-0.010622073486098466
11.120000000000001,-0.010625174716135825
11.124,-0.01062890100028924
11.128,-0.010631473338382245
11.132,-0.01062875675703169
11.136000000000001,-0.01062464582419147
11.14,-0.010624189053875889
11.144,-0.01062789129748638
11.148,-0.010629598176034073
11.152000000000001,-0.010625198756678752
11.156,-0.010619020337146958
11.16,-0.01061551041787987
11.164,-0.01061555849896572
11.168000000000001,-0.010616159512538852
11.172,-0.010614236269104831
11.176,-0.010614308390733606
11.18,-0.01061971751289179
11.184000000000001,-0.010624429459305142
11.188,-0.010625583405365555
11.192,-0.010624573702562694
11.196,-0.010624068851161263
11.200000000000001,-0.010622722580757448
11.204,-0.010625126635049975
11.208,-0.010631353135667617
11.212,-0.010632699406071432
11.216000000000001,-0.010629069284089718
11.22,-0.010630199189607205
11.224,-0.010628925040832167
11.228,-0.010625078553964124
11.232000000000001,-0.010626376743282089
11.236,-0.010629093324632643
11.24,-0.010632026270869526
11.244,-0.01062469390527732
11.248000000000001,-0.01061733749914219
11.252,-0.01061779426945777
11.256,-0.010618876093889406
11.26,-0.01061560658005157
11.264,-0.010616808607197834
11.268,-0.010616688404483208
11.272,-0.010616159512538852
11.276,-0.010616712445026133
11.28,-0.010617073053170011
11.284,-0.010619597310177165
11.288,-0.010626184418938686
11.292,-0.010627506648799577
11.296,-0.010623684202474459
11.3,-0.01062378036464616
11.304,-0.010628131702915633
11.308,-0.010634382244076201
11.312,-0.010629285648976045
11.316,-0.010622530256414046
11.32,-0.010617409620770965
11.324,-0.01061678456665491
11.328,-0.010620510850808325
11.332,-0.010621664796868737
11.336,-0.010621015702209755
11.34,-0.01062007812103567
11.344,-0.010619188620947436
11.348,-0.010621376310353633
11.352,-0.010625391081022152
11.356,-0.010628372108344886
11.36,-0.010637122865969682
11.364,-0.010645513015450598
11.368,-0.010642123298898135
11.372,-0.010635896798280493
11.376,-0.010632218595212928
11.38,-0.010625703608080182
11.384,-0.010616087390910077
11.388,-0.010610341701150938
11.392,-0.01060875502531787
11.396,-0.01061007725517876
11.4,-0.010613082323044419
11.404,-0.010616111431453001
11.408,-0.010619356904747912
11.412,-0.010618779931717705
11.416,-0.010614116066390204
11.42,-0.010610822512009444
11.424,-0.010610221498436313
11.428,-0.01061505364756429
11.432,-0.010620246404836147
11.436,-0.010621881161755064
11.44,-0.01062185712121214
11.444,-0.01062108782383853
11.448,-0.010621760959040438
11.452,-0.010627458567713726
11.456,-0.010637363271398933
11.46,-0.010640248136549965
11.464,-0.010632459000642181
11.468,-0.010622674499671598
11.472,-0.010614356471819457
11.476,-0.010609548363234404
11.48,-0.010607216430570655
11.484,-0.010610221498436313
11.488,-0.010616255674710553
11.492,-0.010621376310353633
11.496,-0.010621256107639008
11.5,-0.010615318093536467
11.504,-0.010610750390380667
11.508000000000001,-0.010612793836529315
11.512,-0.01061459687724871
11.516,-0.010615077688107214
11.52,-0.010615270012450616
11.524000000000001,-0.010619429026376687
11.528,-0.010623588040302757
11.532,-0.010626088256766985
11.536,-0.010629550094948223
11.540000000000001,-0.010637363271398933
11.544,-0.010635007298192257
11.548,-0.010624429459305142
11.552,-0.010619693472348866
11.556000000000001,-0.010618972256061107
11.56,-0.010618683769546004
11.564,-0.010612793836529315
11.568,-0.010607697241429159
11.572000000000001,-0.010611712012097678
11.576,-0.010615630620594497
11.58,-0.010616327796339328
11.584,-0.010618611647917229
11.588000000000001,-0.01061678456665491
11.592,-0.010614765161049186
11.596,-0.010616255674710553
11.6,-0.010618010634344097
11.604000000000001,-0.010615750823309122
11.608,-0.010615846985480824
11.612,-0.010620534891351249
11.616,-0.010620390648093699
11.620000000000001,-0.010620919540038054
11.624,-0.010621881161755064
11.628,-0.010617722147828993
11.632,-0.010611062917438695
11.636000000000001,-0.010611639890468903
11.64,-0.010616423958511029
11.644,-0.010610870593095293
11.648,-0.010607577038714533
11.652000000000001,-0.010610197457893386
11.656,-0.010609644525406105
11.66,-0.010605677835823437
11.664,-0.010603850754561116
11.668000000000001,-0.010607384714371131
11.672,-0.010611303322867948
11.676,-0.010613731417703401
11.68,-0.010615270012450616
11.684000000000001,-0.01061779426945777
11.688,-0.010619092458775735
11.692,-0.010627578770428352
11.696,-0.010629934743635027
11.700000000000001,-0.010617601945114368
11.704,-0.010616207593624702
11.708,-0.010621208026553157
11.712,-0.010618226999230424
11.716000000000001,-0.010612024539155707
11.72,-0.010610101295721685
11.724,-0.010602336200356825
11.728,-0.010599956186607225
11.732000000000001,-0.010603009335558734
11.736,-0.01060560571419466
11.74,-0.010606783700798
11.744,-0.010607913606315486
11.748000000000001,-0.01061139948503965
11.752,-0.010614067985304353
11.756,-0.010616183553081778
11.76,-0.010618563566831378
11.764000000000001,-0.010621472472525335
11.768,-0.010623563999759833
11.772,-0.010624934310706572
11.776,-0.010623299553787656
11.78,-0.010620198323750297
11.784,-0.010616039309824226
11.788,-0.0106160152692813
11.792,-0.01061962135072009
11.796,-0.01061779426945777
11.8,-0.010612625552728839
11.804,-0.010610461903865564
11.808,-0.010613587174445849
11.812,-0.010613202525759044
11.816,-0.010610101295721685
11.82,-0.010609740687577807
11.824,-0.01061195241752693
11.828,-0.010612240904042034
11.832,-0.010613082323044419
11.836,-0.010620486810265398
11.84,-0.010624525621476843
11.844,-0.010620414688636623
11.848,-0.010619188620947436
11.852,-0.01061683264774076
11.856,-0.010613827579875102
11.86,-0.010614476674534083
11.864,-0.01061870781008893
11.868,-0.010617000931541236
11.872,-0.010615029607021365
11.876,-0.010615654661137421
11.88,-0.01061286595815809
11.884,-0.010611255241782098
11.888,-0.010614909404306738
11.892,-0.01062012620212152
11.896,-0.010617914472172396
11.9,-0.010613659296074624
11.904,-0.010612048579698632
11.908,-0.010613563133902923
11.912,-0.010615630620594497
11.916,-0.010615678701680346
11.92,-0.01061555849896572
11.924,-0.010616111431453001
11.928,-0.010617121134255862
11.932,-0.010617938512715322
11.936,-0.01062337167541643
11.94,-0.010629381811147746
11.944,-0.010624116932247114
11.948,-0.010616760526111983
11.952,-0.010612240904042034
11.956,-0.010612000498612781
11.96,-0.010610654228208966
11.964,-0.010604355605962547
11.968,-0.010603345903159686
11.972,-0.010613827579875102
11.976,-0.01061921266149036
11.98,-0.010613442931188297
11.984,-0.010608827146946647
11.988,-0.010607360673828205
11.992,-0.010606951984598476
11.996,-0.01060820209283059
12.0,-0.01061094271472407
12.004,-0.010607697241429159
12.008000000000001,-0.010603562268046015
12.012,-0.010602167916556349
12.016,-0.010601326497553965
12.02,-0.010603009335558734
12.024000000000001,-0.010607673200886234
12.028,-0.010611519687754275
12.032,-0.010611351403953799
12.036,-0.010609644525406105
12.040000000000001,-0.01061043786332264
12.044,-0.010608658863146169
12.048,-0.010604571970848875
12.052,-0.010600725483980833
12.056000000000001,-0.010595676969966527
12.06,-0.010602288119270975
12.064,-0.010614524755619933
12.068,-0.010614452633991158
12.072000000000001,-0.01061332272847367
12.076,-0.01060957240377733
12.08,-0.010607817444143786
12.084,-0.010608418457716918
12.088000000000001,-0.010605124903336156
12.092,-0.010603009335558734
12.096,-0.010603009335558734
12.1,-0.010603778632932341
12.104000000000001,-0.010604668133020577
12.108,-0.010603778632932341
12.112,-0.010603706511303565
12.116,-0.010607625119800384
12.120000000000001,-0.010608466538802767
12.124,-0.010603466105874313
12.128,-0.010604259443790846
12.132,-0.010604788335735202
12.136000000000001,-0.010601735186783694
12.14,-0.010602889132844106
12.144,-0.010608923309118348
12.148,-0.010605798038538063
12.152000000000001,-0.010598129105344904
12.156,-0.010593561402189105
12.16,-0.010592816145358421
12.164,-0.010594474942820264
12.168000000000001,-0.010596350105168436
12.172,-0.010596927078198641
12.176,-0.010596037578110406
12.18,-0.01059586929430993
12.184000000000001,-0.010601278416468114
12.188,-0.010605773997995139
12.192,-0.010606711579169223
12.196,-0.010606639457540448
12.200000000000001,-0.010609139674004675
12.204,-0.010607024106227252
12.208,-0.010608129971201814
12.212,-0.010612120701327407
12.216000000000001,-0.01060901947129005
12.22,-0.010608226133373515
12.224,-0.010607889565772561
12.228,-0.010600004267693076
12.232000000000001,-0.010594739388792442
12.236,-0.010595124037479246
12.24,-0.010600557200180357
12.244,-0.010598970524347289
12.248000000000001,-0.010592840185901346
12.252,-0.010594354740105639
12.256,-0.010601110132667638
12.26,-0.01060312953827336
12.264000000000001,-0.010603586308588939
12.268,-0.01060317761935921
12.272,-0.010603105497730433
12.276,-0.010603850754561116
12.280000000000001,-0.010607216430570655
12.284,-0.010609860890292432
12.288,-0.010610630187666042
12.292,-0.010614765161049186
12.296,-0.010614043944761429
12.3,-0.010609356038891002
12.304,-0.010605197024964931
12.308,-0.010603345903159686
12.312,-0.010604860457363977
12.316,-0.010596277983539659
12.32,-0.010589666834235211
12.324,-0.010588585009803576
12.328,-0.010588272482745546
12.332,-0.010589955320750315
12.336,-0.010592191091242365
12.34,-0.010593777767075431
12.344,-0.010594835550964143
12.348,-0.010595797172681155
12.352,-0.010595604848337752
12.356,-0.010600412956922805
12.36,-0.01060536530876541
12.364,-0.010605221065507858
12.368,-0.010606471173739971
12.372,-0.01060510086279323
12.376,-0.010600797605609608
12.38,-0.010595773132138228
12.384,-0.010594258577933937
12.388,-0.010594619186077816
12.392,-0.010593873929247133
12.396,-0.010592118969613588
12.4,-0.010590364009980044
12.404,-0.01058906582066208
12.408,-0.010591974726356037
12.412,-0.010595676969966527
12.416,-0.010596854956569866
12.42,-0.010596470307883061
12.424,-0.010596734753855239
12.428,-0.010597431929600071
12.432,-0.010597047280913267
12.436,-0.010598273348602456
12.44,-0.010600725483980833
12.444,-0.010601254375925188
12.448,-0.010602817011215331
12.452,-0.010609452201062703
12.456,-0.010609644525406105
12.46,-0.010603586308588939
12.464,-0.01059591737539578
12.468,-0.010589041780119155
12.472,-0.010593032510244748
12.476,-0.010603105497730433
12.48,-0.010603033376101658
12.484,-0.010596999199827418
12.488,-0.0105953644429085
12.492,-0.010597359807971296
12.496,-0.010598826281089737
12.5,-0.010597864659372727
12.504,-0.010592094929070664
12.508000000000001,-0.010593801807618358
12.512,-0.010601374578639815
12.516,-0.010601086092124712
12.52,-0.010603826714018192
12.524000000000001,-0.010611183120153323
12.528,-0.010610822512009444
12.532,-0.010605341268222483
12.536,-0.010599595578463345
12.540000000000001,-0.010594114334676386
12.544,-0.01059596545648163
12.548,-0.010599283051405317
12.552,-0.010602023673298797
12.556000000000001,-0.010600292754208178
12.56,-0.010595845253767004
12.564,-0.010592792104815497
12.568,-0.010591205428982429
12.572000000000001,-0.010592191091242365
12.576,-0.01059728768634252
12.58,-0.010596903037655717
12.584,-0.010594931713135844
12.588000000000001,-0.010596734753855239
12.592,-0.01059865799728926
12.596,-0.010601302457011038
12.6,-0.010597888699915651
12.604000000000001,-0.010591590077669234
12.608,-0.010589883199121538
12.612,-0.010592407456128692
12.616,-0.010594667267163667
12.620000000000001,-0.01059363352381788
12.624,-0.010597407889057147
12.628,-0.010602792970672405
12.632,-0.010604379646505473
12.636000000000001,-0.010598345470231231
12.64,-0.010590003401836166
12.644,-0.010591061185724877
12.648,-0.010594739388792442
12.652000000000001,-0.01059911476760484
12.656,-0.010604692173563501
12.66,-0.010606687538626298
12.664,-0.010601975592212947
12.668000000000001,-0.010594234537391011
12.672,-0.010588224401659695
12.676,-0.010585387617594512
12.68,-0.010586229036596898
12.684000000000001,-0.010591205428982429
12.688,-0.01059043613160882
12.692,-0.010583512455246342
12.696,-0.010585988631167647
12.700000000000001,-0.0105953644429085
12.704,-0.010601206294839339
12.708,-0.010597119402542043
12.712,-0.01059038805052297
12.716000000000001,-0.010593032510244748
12.72,-0.010594523023906115
12.724,-0.010592551699386244
12.728,-0.010594018172504684
12.732000000000001,-0.010598177186430755
12.736,-0.010600461038008656
12.74,-0.010603658430217714
12.744,-0.010607480876542832
12.748000000000001,-0.010603802673475266
12.752,-0.010599811943349673
12.756,-0.010594835550964143
12.76,-0.01058478660402138
12.764000000000001,-0.010585988631167647
12.768,-0.010588320563831397
12.772,-0.010587839752972892
12.776,-0.010594306659019788
12.780000000000001,-0.010597095361999117
12.784,-0.010596013537567481
12.788,-0.010591950685813112
12.792,-0.010586517523112002
12.796000000000001,-0.0105864213609403
12.8,-0.010592118969613588
12.804,-0.010595773132138228
12.808,-0.010596566470054762
12.812,-0.010597047280913267
12.816,-0.01059130159115413
12.82,-0.010587070455599283
12.824,-0.010582598914615183
12.828,-0.01057824757634571
12.832,-0.010580964157696264
12.836,-0.010586517523112002
12.84,-0.010592912307530122
12.844,-0.010598922443261438
12.848,-0.010597480010685922
12.852,-0.01059372968598958
12.856,-0.010590267847808343
12.86,-0.010587382982657313
12.864,-0.010583031644387836
12.868,-0.010581517090183545
12.872,-0.010584041347190699
12.876,-0.010578656265575439
12.88,-0.01056632346705478
12.884,-0.01057779080603013
12.888,-0.01058505104999356
12.892,-0.010583248009274165
12.896,-0.010593056550787674
12.9,-0.010603538227503088
12.904,-0.01059226321287114
12.908,-0.010584498117506278
12.912,-0.010584209630991175
12.916,-0.010581661333441097
12.92,-0.01058043526575191
12.924,-0.010577935049287682
12.928,-0.010572117237899767
12.932,-0.010569448737635063
12.936,-0.010572646129844123
12.94,-0.010578584143946664
12.944,-0.01058118052258259
12.948,-0.01057870434666129
12.952,-0.010578055252002307
12.956,-0.010581228603668441
12.96,-0.010583248009274165
12.964,-0.010584474076963352
12.968,-0.010584810644564306
12.972,-0.01058618095551105
12.976,-0.010589666834235211
12.98,-0.010588993699033305
12.984,-0.010586397320397376
12.988,-0.010580867995524563
12.992,-0.010575362711194677
12.996,-0.010572333602786095
13.0,-0.010572549967672422
13.004,-0.01057505018413665
13.008000000000001,-0.010578391819603261
13.012,-0.010577814846573054
13.016,-0.010576853224856044
13.02,-0.010577502319515026
13.024000000000001,-0.01057752636005795
13.028,-0.010581613252355246
13.032,-0.010588320563831397
13.036,-0.010590676537038072
13.040000000000001,-0.01058952259097766
13.044,-0.01058663772582663
13.048,-0.010589306226091333
13.052,-0.010593873929247133
13.056000000000001,-0.010591277550611204
13.06,-0.010587791671887042
13.064,-0.01059043613160882
13.068,-0.010591469874954606
13.072000000000001,-0.010588825415232827
13.076,-0.010588344604374323
13.08,-0.010588512888174799
13.084,-0.010591325631697054
13.088000000000001,-0.010600124470407701
13.092,-0.01060312953827336
13.096,-0.0105977444566581
13.1,-0.010594066253590535
13.104000000000001,-0.010592239172328214
13.108,-0.010591517956040457
13.112,-0.010592070888527738
13.116,-0.010590171685636642
13.120000000000001,-0.010589282185548407
13.124,-0.010591662199298009
13.128,-0.01059687899711279
13.132,-0.0106022159976422
13.136000000000001,-0.010602504484157301
13.14,-0.010601326497553965
13.144,-0.010593777767075431
13.148,-0.010584714482392605
13.152000000000001,-0.010581372846925993
13.156,-0.010582430630814705
13.16,-0.010584834685107231
13.164,-0.010586156914968123
13.168000000000001,-0.010586541563654928
13.172,-0.010590748658666849
13.176,-0.01059865799728926
13.18,-0.01060089376778131
13.184000000000001,-0.010594523023906115
13.188,-0.010591445834411682
13.192,-0.01058810419894507
13.196,-0.010583440333617567
13.200000000000001,-0.010581661333441097
13.204,-0.01058021890086558
13.208,-0.010579521725120748
13.212,-0.01057682918431312
13.216000000000001,-0.010577862927658905
13.22,-0.010578175454716933
13.224,-0.01057601180585366
13.228,-0.010578487981774963
13.232000000000001,-0.010578848589918841
13.236,-0.01058017081977973
13.24,-0.0105864213609403
13.244,-0.010587070455599283
13.248000000000001,-0.010592503618300393
13.252,-0.010589426428805958
13.256,-0.010584017306647773
13.26,-0.010581733455069872
13.264000000000001,-0.010578079292545233
13.268,-0.010579016873719317
13.272,-0.010584353874248727
13.276,-0.010584618320220904
13.280000000000001,-0.010582214265928378
13.284,-0.010583199928188314
13.288,-0.010581108400953816
13.292,-0.010580531427923609
13.296000000000001,-0.010580507387380684
13.3,-0.010583175887645388
13.304,-0.010585219333794036
13.308,-0.010588585009803576
13.312000000000001,-0.010592094929070664
13.316,-0.01059267190210087
13.32,-0.010587358942114386
13.324,-0.01058387306339022
13.328,-0.010581324765840143
13.332,-0.010580603549552385
13.336,-0.010582094063213752
13.34,-0.010586709847455404
13.344,-0.010593104631873525
13.348,-0.0105863251987686
13.352,-0.010576083927482436
13.356,-0.010575699278795632
13.36,-0.01057605988693951
13.364,-0.010571972994642216
13.368,-0.010571516224326635
13.372,-0.010570410359352073
13.376,-0.010566948521170835
13.38,-0.010566347507597704
13.384,-0.010568390953746351
13.388,-0.010569592980892615
13.392,-0.010569833386321868
13.396,-0.010568559237546828
13.4,-0.010569665102521391
13.404,-0.01057560311662393
13.408,-0.010586926212341731
13.412,-0.010597071321456193
13.416,-0.01059134967223998
13.42,-0.01057692534648482
13.424,-0.01056692448062791
13.428,-0.010564616588507086
13.432,-0.010569352575463362
13.436,-0.01057317502178848
13.44,-0.010571011372925205
13.444,-0.010568390953746351
13.448,-0.010565674372395797
13.452,-0.010564352142534907
13.456,-0.010565001237193889
13.46,-0.010565241642623142
13.464,-0.010564784872307562
13.468,-0.010561827885527755
13.472,-0.010565842656196273
13.476,-0.010575699278795632
13.48,-0.010582935482216135
13.484,-0.010583680739046818
13.488,-0.010575723319338556
13.492,-0.010571684508127113
13.496,-0.010569857426864792
13.5,-0.01056514548045144
13.504,-0.010561587480098502
13.508000000000001,-0.01056194808824238
13.512,-0.01056125091249755
13.516,-0.01056226061530041
13.52,-0.010564881034479263
13.524000000000001,-0.010564760831764637
13.528,-0.010564760831764637
13.532,-0.0105659628589109
13.536,-0.010566972561713761
13.540000000000001,-0.010568487115918053
13.544,-0.010568487115918053
13.548,-0.010568439034832202
13.552,-0.010572525927129497
13.556000000000001,-0.010574425130020593
13.56,-0.010577213832999923
13.564,-0.010583344171445866
13.568,-0.010583752860675595
13.572000000000001,-0.01058235850918593
13.576,-0.01058377690121852
13.58,-0.01058327204981709
13.584,-0.010576781103227269
13.588000000000001,-0.010565073358822666
13.592,-0.010559303628520603
13.596,-0.010559135344720125
13.6,-0.010560770101639043
13.604000000000001,-0.010561659601727278
13.608,-0.010563029912674018
13.612,-0.010567309129314714
13.616,-0.010568511156460977
13.620000000000001,-0.010568390953746351
13.624,-0.010569112170034109
13.628,-0.010570915210753503
13.632,-0.010574978062507874
13.636000000000001,-0.010576420495083389
13.64,-0.010576420495083389
13.644,-0.010579113035891019
13.648,-0.01058149304964062
13.652000000000001,-0.010581541130726471
13.656,-0.010580050617065104
13.66,-0.010582983563301986
13.664,-0.010590051482922016
13.668000000000001,-0.010585027009450633
13.672,-0.010572237440614394
13.676,-0.010566756196827433
13.68,-0.01057235764332902
13.684000000000001,-0.010577574441143801
13.688,-0.010574737657078621
13.692,-0.010573920278619161
13.696,-0.010572934616359227
13.700000000000001,-0.01056925641329166
13.704,-0.010568198629402949
13.708,-0.010568631359175604
13.712,-0.010570770967495953
13.716000000000001,-0.010572958656902151
13.72,-0.010576324332911688
13.724,-0.01057925727914857
13.728,-0.010576949387027745
13.732000000000001,-0.0105772859546287
13.736,-0.010575771400424407
13.74,-0.010578007170916457
13.744,-0.010581541130726471
13.748000000000001,-0.010575482913909305
13.752,-0.01056641962922648
13.756,-0.01056230869638626
13.76,-0.010563342439732046
13.764000000000001,-0.010568535197003903
13.768,-0.010571275818897384
13.772,-0.010565626291309946
13.776,-0.010563823250590552
13.780000000000001,-0.010565121439908516
13.784,-0.010564736791221711
13.788,-0.010565313764251918
13.792,-0.010568150548317098
13.796000000000001,-0.010571227737811533
13.8,-0.010573703913732834
13.804,-0.01057468957599277
13.808,-0.010573559670475283
13.812000000000001,-0.010574112602962564
13.816,-0.010574785738164472
13.82,-0.010579329400777346
13.824,-0.01057920919806272
13.828,-0.01057610796802536
13.832,-0.010573511589389432
13.836,-0.010574232805677191
13.84,-0.010581420928011844
13.844,-0.01058901773957623
13.848,-0.010584257712077026
13.852,-0.010577646562772578
13.856,-0.010574353008391817
13.86,-0.010569352575463362
13.864,-0.010568727521347306
13.868,-0.010571924913556366
13.872,-0.010574978062507874
13.876,-0.01057550695445223
13.88,-0.01057514634630835
13.884,-0.010576132008568287
13.888,-0.010577766765487204
13.892,-0.01057752636005795
13.896,-0.0105773821168004
13.9,-0.010578584143946664
13.904,-0.010578175454716933
13.908,-0.010577670603315503
13.912,-0.010582791238958585
13.916,-0.01059134967223998
13.92,-0.010590989064096102
13.924,-0.010587839752972892
13.928,-0.010586781969084181
13.932,-0.010589618753149361
13.936,-0.010586277117682749
13.94,-0.010579786171092927
13.944,-0.010577959089830606
13.948,-0.010578728387204214
13.952,-0.01058048334683776
13.956,-0.010578848589918841
13.96,-0.010580002535979254
13.964,-0.01058473852293553
13.968,-0.010581829617241573
13.972,-0.010576324332911688
13.976,-0.010575987765310735
13.98,-0.010578920711547616
13.984,-0.010582214265928378
13.988,-0.010582622955158107
13.992,-0.010579401522406122
13.996,-0.01057601180585366
14.0,-0.01057505018413665
14.004,-0.010577574441143801
14.008000000000001,-0.01058139688746892
14.012,-0.010582526792986406
14.016,-0.010582983563301986
14.02,-0.010582743157872734
14.024000000000001,-0.010585002968907709
14.028,-0.010587358942114386
14.032,-0.010583536495789267
14.036,-0.010578079292545233
14.040000000000001,-0.010576420495083389
14.044,-0.010575987765310735
14.048,-0.010581060319867965
14.052,-0.01059002744237909
14.056000000000001,-0.010593417158931553
14.06,-0.010587262779942685
14.064,-0.01057875242774714
14.068,-0.010577406157343325
14.072000000000001,-0.010577935049287682
14.076,-0.010576252211282913
14.08,-0.010573391386674806
14.084,-0.01057245380550072
14.088000000000001,-0.010582334468643003
14.092,-0.010585387617594512
14.096,-0.010579449603491973
14.1,-0.010576588778883867
14.104000000000001,-0.01057752636005795
14.108,-0.010581541130726471
14.112,-0.01058505104999356
14.116,-0.010582671036243958
14.120000000000001,-0.010579497684577823
14.124,-0.010578656265575439
14.128,-0.01057829565743156
14.132,-0.010579497684577823
14.136000000000001,-0.010579449603491973
14.14,-0.01058408942827655
14.144,-0.010590364009980044
14.148,-0.010586926212341731
14.152000000000001,-0.010581252644211368
14.156,-0.010579738090007076
14.16,-0.010578367779060335
14.164,-0.010579954454893403
14.168000000000001,-0.01058459427967798
14.172,-0.010587118536685133
14.176,-0.010585387617594512
14.18,-0.010580531427923609
14.184000000000001,-0.010575242508480052
14.188,-0.010575242508480052
14.192,-0.010577574441143801
14.196,-0.010577213832999923
14.200000000000001,-0.01057336734613188
14.204,-0.010571420062154935
14.208,-0.010573199062331404
14.212,-0.010575122305765424
14.216000000000001,-0.010578223535802784
14.22,-0.010582070022670826
14.224,-0.010582382549728854
14.228,-0.010584498117506278
14.232000000000001,-0.010585796306824245
14.236,-0.010578632225032514
14.24,-0.01057464149490692
14.244,-0.010578536062860813
14.248000000000001,-0.010579545765663674
14.252,-0.010582598914615183
14.256,-0.010586301158225675
14.26,-0.010581877698327424
14.264000000000001,-0.010576276251825839
14.268,-0.010573920278619161
14.272,-0.010572141278442693
14.276,-0.010571756629755888
14.280000000000001,-0.010573607751561133
14.284,-0.01057646857616924
14.288,-0.010574016440790862
14.292,-0.01057103541346813
14.296000000000001,-0.010569592980892615
14.3,-0.010571516224326635
14.304,-0.010574737657078621
14.308,-0.01057367987318991
14.312000000000001,-0.010578463941232037
14.316,-0.010582310428100079
14.32,-0.010573776035361611
14.324,-0.010565433966966544
14.328000000000001,-0.010567164886057164
14.332,-0.010570626724238402
14.336,-0.010575987765310735
14.34,-0.010577165751914072
14.344,-0.010574280886763042
14.348,-0.010565265683166068
14.352,-0.010557596749972909
14.356,-0.010561178790868772
14.36,-0.010568487115918053
14.364,-0.010567982264516622
14.368,-0.01056540992642362
14.372,-0.010568919845690708
14.376,-0.010569352575463362
14.38,-0.0105658666967392
14.384,-0.010564544466878309
14.388,-0.010565433966966544
14.392,-0.010569232372748736
14.396,-0.010572525927129497
14.4,-0.010578391819603261
14.404,-0.01058327204981709
14.408,-0.010580074657608029
14.412,-0.010574978062507874
14.416,-0.010568390953746351
14.42,-0.010566852358999134
14.424,-0.0105705305620667
14.428,-0.010571636427041262
14.432,-0.010571371981069085
14.436,-0.010572429764957796
14.44,-0.010572598048758272
14.444,-0.010574473211106444
14.448,-0.010577478278972102
14.452,-0.010581228603668441
14.456,-0.010582238306471304
14.46,-0.010582695076786884
14.464,-0.010584570239135054
14.468,-0.010585700144652543
14.472,-0.010584353874248727
14.476,-0.010577694643858429
14.48,-0.010577069589742371
14.484,-0.010585027009450633
14.488,-0.010589306226091333
14.492,-0.010582310428100079
14.496,-0.010575939684224885
14.5,-0.010575434832823454
14.504,-0.010577502319515026
14.508000000000001,-0.010581252644211368
14.512,-0.010580747792809937
14.516,-0.010576492616712166
14.52,-0.010571732589212963
14.524000000000001,-0.010571924913556366
14.528,-0.010574425130020593
14.532,-0.010576660900512642
14.536,-0.010578271616888634
14.540000000000001,-0.010577069589742371
14.544,-0.010574833819250323
14.548,-0.010576420495083389
14.552,-0.010581252644211368
14.556000000000001,-0.010584041347190699
14.56,-0.010582142144299603
14.564,-0.010577959089830606
14.568,-0.010582791238958585
14.572000000000001,-0.010586469442026151
14.576,-0.010579545765663674
14.58,-0.010575074224679576
14.584,-0.010576372413997538
14.588000000000001,-0.010580531427923609
14.592,-0.010582743157872734
14.596,-0.010578175454716933
14.6,-0.010573415427217731
14.604000000000001,-0.010571612386498336
14.608,-0.010571804710841739
14.612,-0.010575338670651753
14.616,-0.010577189792456998
14.620000000000001,-0.01057824757634571
14.624,-0.010577261914085773
14.628,-0.010576684941055568
14.632,-0.010577213832999923
14.636000000000001,-0.010580964157696264
14.64,-0.010585940550081796
14.644,-0.010581733455069872
14.648,-0.010576853224856044
14.652000000000001,-0.010582791238958585
14.656,-0.010587070455599283
14.66,-0.010588777334146976
14.664,-0.010585267414879886
14.668000000000001,-0.01057971404946415
14.672,-0.01058235850918593
14.676,-0.010582598914615183
14.68,-0.010578463941232037
14.684000000000001,-0.010575170386851275
14.688,-0.010572045116270991
14.692,-0.010572237440614394
14.696,-0.010577646562772578
14.700000000000001,-0.010583680739046818
14.704,-0.010583632657960968
14.708,-0.010575963724767809
14.712,-0.010572333602786095
14.716000000000001,-0.010576684941055568
14.72,-0.010581084360410891
14.724,-0.01057824757634571
14.728,-0.010573800075904536
14.732000000000001,-0.010572646129844123
14.736,-0.01057733403571455
14.74,-0.010579377481863196
14.744,-0.010577165751914072
14.748000000000001,-0.010577694643858429
14.752,-0.010579449603491973
14.756,-0.01058067567118116
14.76,-0.010580747792809937
14.764000000000001,-0.01057560311662393
14.768,-0.010572766332558749
14.772,-0.010570770967495953
14.776,-0.010567597615829817
14.780000000000001,-0.010571540264869561
14.784,-0.010577358076257475
14.788,-0.010577454238429176
14.792,-0.010575963724767809
14.796000000000001,-0.010575939684224885
14.8,-0.010580146779236806
14.804,-0.010582695076786884
14.808,-0.010577213832999923
14.812000000000001,-0.01056952085926384
14.816,-0.010568631359175604
14.82,-0.010571924913556366
14.824,-0.01057267017038705
14.828000000000001,-0.01057336734613188
14.832,-0.010577862927658905
14.836,-0.010579882333264628
14.84,-0.010579834252178778
14.844000000000001,-0.010580074657608029
14.848,-0.010578415860146186
14.852,-0.010580050617065104
14.856,-0.010575867562596108
14.86,-0.010568535197003903
14.864,-0.0105682467104888
14.868,-0.010566684075198658
14.872,-0.010564207899277357
14.876,-0.010562837588330615
14.88,-0.010561611520641428
14.884,-0.010563077993759868
14.888,-0.01056728508877179
14.892,-0.01057144410269786
14.896,-0.010570145913379896
14.9,-0.010568366913203427
14.904,-0.01056879964297608
14.908,-0.010569592980892615
14.912,-0.01056971318360724
14.916,-0.010568366913203427
14.92,-0.010571179656725683
14.924,-0.010573920278619161
14.928,-0.010575458873366379
14.932,-0.010580699711724087
14.936,-0.010582070022670826
14.94,-0.010577935049287682
14.944,-0.01057286249473045
14.948,-0.010570602683695475
14.952,-0.010570458440437924
14.956,-0.010570867129667655
14.96,-0.01056322223701742
14.964,-0.010559760398836182
14.968,-0.010563102034302793
14.972,-0.010561154750325848
14.976,-0.01055738038508658
14.98,-0.010562020209871157
14.984,-0.010562140412585783
14.988,-0.010560096966437135
14.992,-0.010560818182724894
14.996,-0.01056363092624715
15.0,-0.010565794575110423
15.004,-0.010564231939820281
15.008000000000001,-0.010563029912674018
15.012,-0.010568511156460977
15.016,-0.010571804710841739
15.02,-0.010569448737635063
15.024000000000001,-0.010566756196827433
15.028,-0.01056057777729564
15.032,-0.010553966627991193
15.036,-0.010552692479216155
15.040000000000001,-0.010554567641564325
15.044,-0.010558534331146993
15.048,-0.010561924047699456
15.052,-0.010564496385792458
15.056000000000001,-0.01056459254796416
15.06,-0.01056418385873443
15.064,-0.010565842656196273
15.068,-0.01056692448062791
15.072000000000001,-0.010563342439732046
15.076,-0.010564881034479263
15.08,-0.010572574008215348
15.084,-0.010574978062507874
15.088000000000001,-0.010577309995171624
15.092,-0.010576300292368763
15.096,-0.010571275818897384
15.1,-0.010569641061978465
15.104000000000001,-0.010571852791927589
15.108,-0.010579281319691497
15.112,-0.01057408856241964
15.116,-0.010561707682813129
15.120000000000001,-0.01055810160137434
15.124,-0.010555048452422831
15.128,-0.01055372622256194
15.132,-0.010556683209341748
15.136000000000001,-0.010559544033949854
15.14,-0.010561010507068296
15.144,-0.010562501020729661
15.148,-0.01056226061530041
15.152000000000001,-0.010566275385968929
15.156,-0.010569232372748736
15.16,-0.010567669737458594
15.164,-0.010569088129491184
15.168000000000001,-0.010575266549022976
15.172,-0.010576372413997538
15.176,-0.01057514634630835
15.18,-0.010571804710841739
15.184000000000001,-0.010567140845514238
15.188,-0.010562380818015036
15.192,-0.01056093838543952
15.196,-0.010566155183254301
15.200000000000001,-0.010562837588330615
15.204,-0.0105568274525993
15.208,-0.01055641876336957
15.212,-0.010557885236488011
15.216000000000001,-0.010557596749972909
15.22,-0.010557452506715357
15.224,-0.01055764483105876
15.228,-0.010557957358116788
15.232000000000001,-0.010559135344720125
15.236,-0.010562236574757484
15.24,-0.010563895372219327
15.244,-0.010562597182901362
15.248000000000001,-0.010564328101991982
15.252,-0.010568847724061931
15.256,-0.010569280453834587
15.26,-0.010573607751561133
15.264000000000001,-0.01057829565743156
15.268,-0.010578343738517411
15.272,-0.010575122305765424
15.276,-0.010568439034832202
15.280000000000001,-0.01056733316985764
15.284,-0.01056560225076702
15.288,-0.010562068290957008
15.292,-0.01056125091249755
15.296000000000001,-0.010562549101815512
15.3,-0.010565265683166068
15.304,-0.010569280453834587
15.308,-0.010572598048758272
15.312000000000001,-0.010572045116270991
15.316,-0.010572261481157318
15.32,-0.010574016440790862
15.324,-0.010572477846043647
15.328000000000001,-0.010569472778177989
15.332,-0.01057144410269786
15.336,-0.010575723319338556
15.34,-0.01057971404946415
15.344000000000001,-0.010579978495436328
15.348,-0.010578367779060335
15.352,-0.010572958656902151
15.356,-0.010572141278442693
15.36,-0.01057413664350549
15.364,-0.010571684508127113
15.368,-0.010566804277913283
15.372,-0.010565842656196273
15.376,-0.010566083061625526
15.38,-0.010566347507597704
15.384,-0.01056632346705478
15.388,-0.010567669737458594
15.392,-0.01056925641329166
15.396,-0.010570145913379896
15.4,-0.010570193994465746
15.404,-0.010569785305236017
15.408,-0.01056920833220581
15.412,-0.010567188926600088
15.416,-0.010570722886410103
15.42,-0.010578824549375915
15.424,-0.010572021075728067
15.428,-0.010564352142534907
15.432,-0.010570242075551597
15.436,-0.010574954021964948
15.44,-0.010569328534920437
15.444,-0.010561827885527755
15.448,-0.010560409493495165
15.452,-0.010560673939467342
15.456,-0.010562597182901362
15.46,-0.010563126074845719
15.464,-0.010559303628520603
15.468,-0.010556563006627122
15.472,-0.010556563006627122
15.476,-0.01055819776354604
15.48,-0.010559880601550808
15.484,-0.010561779804441904
15.488,-0.010564255980363207
15.492,-0.010560914344896595
15.496,-0.010561298993583398
15.5,-0.010563438601903747
15.504,-0.010562813547787691
15.508000000000001,-0.010568078426688323
15.512,-0.010574569373278143
15.516,-0.010573607751561133
15.52,-0.010567982264516622
15.524000000000001,-0.010563558804618374
15.528,-0.010557308263457806
15.532,-0.010555192695680383
15.536,-0.010558822817662097
15.540000000000001,-0.010560794142181968
15.544,-0.010557043817485628
15.548,-0.010553341573875137
15.552,-0.01055490420916528
15.556000000000001,-0.010556779371513449
15.56,-0.01055778907431631
15.564,-0.010559207466348901
15.568,-0.010560553736752716
15.572000000000001,-0.010561779804441904
15.576,-0.010565938818367974
15.58,-0.010562861628873542
15.584,-0.010562837588330615
15.588000000000001,-0.010574377048934743
15.592,-0.010570674805324252
15.596,-0.010560385452952238
15.6,-0.010559231506891826
15.604000000000001,-0.010560866263810744
15.608,-0.010558774736576246
15.612,-0.010555745628167664
15.616,-0.010556587047170047
15.620000000000001,-0.01056093838543952
15.624,-0.010570795008038878
15.628,-0.010572309562243169
15.632,-0.010565241642623142
15.636000000000001,-0.010562981831588167
15.64,-0.010562909709959392
15.644,-0.010562885669416466
15.648,-0.010562020209871157
15.652000000000001,-0.010565169520994367
15.656,-0.01057240572441487
15.66,-0.010572549967672422
15.664,-0.01057682918431312
15.668000000000001,-0.01058332013090294
15.672,-0.010579617887292449
15.676,-0.01057007379175112
15.68,-0.010564280020906132
15.684000000000001,-0.010563198196474494
15.688,-0.01056408769656273
15.692,-0.010564568507421235
15.696,-0.01056540992642362
15.700000000000001,-0.010566467710312331
15.704,-0.010566635994112807
15.708,-0.010566563872484032
15.712,-0.010567309129314714
15.716000000000001,-0.01056870348080438
15.72,-0.010571299859440308
15.724,-0.010576444535626315
15.728,-0.01058012273869388
15.732000000000001,-0.010577454238429176
15.736,-0.010575218467937126
15.74,-0.01057774272494428
15.744,-0.010577574441143801
15.748000000000001,-0.010575026143593725
15.752,-0.010578968792633467
15.756,-0.01058637327985445
15.76,-0.010584954887821858
15.764000000000001,-0.010580098698150955
15.768,-0.010574809778707396
15.772,-0.01056961702143554
15.776,-0.010566395588683554
15.780000000000001,-0.010567477413115192
15.784,-0.010569953589036493
15.788,-0.01056961702143554
15.792,-0.01056916025111996
15.796000000000001,-0.010571011372925205
15.8,-0.010573535629932358
15.804,-0.01057702150865652
15.808,-0.01057925727914857
15.812000000000001,-0.01057464149490692
15.816,-0.010568511156460977
15.82,-0.010566515791398182
15.824,-0.01056682831845621
15.828000000000001,-0.010576853224856044
15.832,-0.010577983130373532
15.836,-0.010565986899453825
15.84,-0.010559664236664481
15.844000000000001,-0.010558798777119172
15.848,-0.010557813114859236
15.852,-0.01055814968246019
15.856,-0.010558846858205023
15.860000000000001,-0.010559880601550808
15.864,-0.010562236574757484
15.868,-0.010565722453481648
15.872,-0.010566587913026957
15.876,-0.010565818615653349
15.88,-0.010565722453481648
15.884,-0.010565001237193889
15.888,-0.010564111737105655
15.892,-0.010563198196474494
15.896,-0.010562981831588167
15.9,-0.010568270751031726
15.904,-0.01057646857616924
15.908,-0.01057692534648482
15.912,-0.010567477413115192
15.916,-0.010553798344190717
15.92,-0.01055180297912792
15.924,-0.01055185106021377
15.928,-0.010551322168269414
15.932,-0.010550817316867984
15.936,-0.010552139546728874
15.94,-0.010555553303824261
15.944,-0.010557572709429983
15.948,-0.01055810160137434
15.952,-0.010558991101462573
15.956,-0.010560433534038089
15.96,-0.010563462642446673
15.964,-0.010564328101991982
15.968,-0.010564039615476879
15.972,-0.0105659628589109
15.976,-0.01056901600786241
15.98,-0.010569785305236017
15.984,-0.010567717818544445
15.988,-0.010571227737811533
15.992,-0.010578944752090542
15.996,-0.010579786171092927
16.0,-0.010565818615653349
16.004,-0.010554567641564325
16.008,-0.010552884803559556
16.012,-0.010549182559949067
16.016000000000002,-0.010546490019141437
16.02,-0.01054764396520185
16.024,-0.010546177492083409
16.028,-0.010545023546022997
16.032,-0.01054668234348484
16.036,-0.01055088943849676
16.04,-0.010555240776766233
16.044,-0.010557019776942702
16.048000000000002,-0.010558822817662097
16.052,-0.010562140412585783
16.056,-0.010563438601903747
16.06,-0.010563654966790076
16.064,-0.010561106669239997
16.068,-0.010563077993759868
16.072,-0.01057824757634571
16.076,-0.010584425995877502
16.080000000000002,-0.010568991967319483
16.084,-0.010560746061096117
16.088,-0.010558630493318694
16.092,-0.01055372622256194
16.096,-0.010553005006274183
16.1,-0.010552932884645407
16.104,-0.010554880168622353
16.108,-0.010555673506538887
16.112000000000002,-0.01055495229025113
16.116,-0.010558221804088965
16.12,-0.010562741426158914
16.124,-0.010565193561537291
16.128,-0.010565385885880694
