time,channel5
0.0,0.0188378328686356
0.004,0.01883422678719681
0.008,0.0188377367064639
0.012,0.018839635909354994
0.016,0.018836847206375663
0.02,0.018816076177288237
0.024,0.018807301379120515
0.028,0.01880446459505533
0.032,0.018806532081746905
0.036000000000000004,0.018793910796711142
0.04,0.018779486470955984
0.044,0.018772274308078405
0.048,0.018760494442045025
0.052000000000000005,0.018746526886605448
0.056,0.018727799303666668
0.06,0.018720659262417866
0.064,0.01870722059892264
0.068,0.018700369044188942
0.07200000000000001,0.018690993232448088
0.076,0.018685127339974326
0.08,0.01869738801686621
0.084,0.018695536895060965
0.088,0.01868130489364921
0.092,0.018674982230859866
0.096,0.018673443636112647
0.1,0.01866875573024222
0.10400000000000001,0.018652432201595966
0.108,0.018639257984072923
0.112,0.018626155888178654
0.116,0.01862471345560314
0.12,0.018607211940353544
0.124,0.018587859303298707
0.128,0.018591176898222393
0.132,0.018588820925015716
0.136,0.018579276829474387
0.14,0.018569131720359927
0.14400000000000002,0.018567256558011756
0.148,0.01857175213953878
0.152,0.018575718829121447
0.156,0.018569660612304282
0.16,0.01858134431616596
0.164,0.018597619763726363
0.168,0.01860692345383844
0.17200000000000001,0.018598821790872626
0.176,0.018605529102348774
0.18,0.018620314036247816
0.184,0.018623271023027622
0.188,0.018607885075555452
0.192,0.018597066831239083
0.196,0.018603533737285977
0.2,0.018589686384561026
0.20400000000000001,0.018571415571937824
0.20800000000000002,0.018556991246182666
0.212,0.018547447150641338
0.216,0.018545067136891736
0.22,0.018529801392134195
0.224,0.018514078877061073
0.228,0.018507732173728805
0.232,0.018511795025483172
0.23600000000000002,0.018502755781343274
0.24,0.018501385470396533
0.244,0.018509150565761395
0.248,0.01851520878257856
0.252,0.01851994476953484
0.256,0.018523310445544373
0.26,0.018529344621818614
0.264,0.018536196176552316
0.268,0.01855225525922639
0.272,0.018550500299592848
0.276,0.018548985745388557
0.28,0.018556245989351985
0.28400000000000003,0.018563963003630994
0.28800000000000003,0.018559227016674718
0.292,0.018540643676993488
0.296,0.018538720433559468
0.3,0.018537374163155654
0.304,0.018520113053335313
0.308,0.018511218052452965
0.312,0.018521146796681102
0.316,0.01853617213600939
0.32,0.01853804729835756
0.324,0.018534152730403666
0.328,0.01853547496026456
0.332,0.01853855214975899
0.336,0.018527781986528474
0.34,0.018519295674875855
0.34400000000000003,0.018518935066731978
0.34800000000000003,0.018521122756138174
0.352,0.01851941587759048
0.356,0.018509318849561873
0.36,0.018509390971190646
0.364,0.018517059904383806
0.368,0.018511891187654873
0.372,0.0185120113903695
0.376,0.01851205947145535
0.38,0.018507972579158056
0.384,0.018511121890281267
0.388,0.01850785237644343
0.392,0.018506121457352812
0.396,0.01850876591707459
0.4,0.018508597633274112
0.404,0.01850364528143151
0.40800000000000003,0.018497827470043596
0.41200000000000003,0.018506626308754243
0.41600000000000004,0.018502996186772525
0.42,0.018502178808313067
0.424,0.01848938923947683
0.428,0.018484533049805924
0.432,0.018494317550776507
0.436,0.018482874252344083
0.44,0.01847181560259846
0.444,0.01847155115662628
0.448,0.018479748981763796
0.452,0.018477777657243927
0.456,0.018470517413280495
0.46,0.018474700467749492
0.464,0.01848551871206586
0.468,0.018489701766534857
0.47200000000000003,0.0184800374682789
0.47600000000000003,0.018477633413986373
0.48,0.018483427184831362
0.484,0.018482441522571426
0.488,0.0184663343588115
0.492,0.018454073681919616
0.496,0.01845883370941882
0.5,0.018457896128244732
0.504,0.01844303907271692
0.508,0.01843765399110166
0.512,0.018441837045570657
0.516,0.018432918004145385
0.52,0.018423325827518204
0.524,0.01841604154301185
0.528,0.01841572901595382
0.532,0.018415873259211374
0.536,0.018409310190992775
0.54,0.01840471844729405
0.544,0.018411185353340943
0.548,0.018421811273313913
0.552,0.018425850084525356
0.556,0.018424936543894196
0.56,0.01842481634117957
0.5640000000000001,0.018435201855723286
0.5680000000000001,0.01843832712630357
0.5720000000000001,0.018423638354576232
0.5760000000000001,0.01842673958461359
0.58,0.018430465868767006
0.584,0.018421330462455407
0.588,0.018407867758417257
0.592,0.018407987961131883
0.596,0.01841101706954047
0.6,0.01841039201542441
0.604,0.018395559000439522
0.608,0.018389140175478477
0.612,0.018393058783975295
0.616,0.01839546283826782
0.62,0.01838993351339501
0.624,0.01838750541855956
0.628,0.018389765229594533
0.632,0.018393010702889446
0.636,0.01839120766217005
0.64,0.018381038512512663
0.644,0.018387361175302007
0.648,0.01839298666234652
0.652,0.01838339448571934
0.656,0.018374355241579442
0.66,0.018367335403045262
0.664,0.018382264580201854
0.668,0.01838010093133858
0.672,0.0183660372137273
0.676,0.01836262345663191
0.68,0.01836512367309614
0.684,0.018357022010130328
0.6880000000000001,0.018350579144626355
0.6920000000000001,0.018356060388413316
0.6960000000000001,0.01835822403727659
0.7000000000000001,0.018359353942794077
0.704,0.01835440159095147
0.708,0.018354497753123172
0.712,0.01836440245680838
0.716,0.018370027943852892
0.72,0.018365388119068318
0.724,0.01836567660558342
0.728,0.018372335835973717
0.732,0.018378249809533332
0.736,0.018379043147449866
0.74,0.018363464875634297
0.744,0.018365364078525393
0.748,0.018364474578437158
0.752,0.018354040982807594
0.756,0.018350218536482478
0.76,0.018345410427897425
0.764,0.01834492961703892
0.768,0.0183431986979483
0.772,0.01834502577921062
0.776,0.018345314265725724
0.78,0.018357118172302025
0.784,0.018354089063893443
0.788,0.018342164954602513
0.792,0.018342044751887887
0.796,0.018349425198565944
0.8,0.018345867198213003
0.804,0.018342693846546868
0.808,0.018333774805121595
0.812,0.01833314975100554
0.8160000000000001,0.01834000130573924
0.8200000000000001,0.01832685112875912
0.8240000000000001,0.01832233150668917
0.8280000000000001,0.018319783209139094
0.8320000000000001,0.01831396539775118
0.836,0.01830925345133783
0.84,0.018304253018409374
0.844,0.01830396453189427
0.848,0.018312162357031786
0.852,0.018308291829620817
0.856,0.018300983504571537
0.86,0.0183087485999364
0.864,0.018317427235932417
0.868,0.018317427235932417
0.872,0.018317932087333847
0.876,0.01831451833023846
0.88,0.018327644466675654
0.884,0.018328509926220964
0.888,0.018327428101789327
0.892,0.018326923250387896
0.896,0.018334231575437177
0.9,0.018336130778328272
0.904,0.018315768438470575
0.908,0.018304661707639103
0.912,0.018306007978042917
0.916,0.01831528762761207
0.92,0.018293074165949125
0.924,0.018275428407441983
0.928,0.018279779745711454
0.932,0.01828682362478856
0.936,0.01827413021812402
0.9400000000000001,0.01826655744710256
0.9440000000000001,0.018274442745182046
0.9480000000000001,0.01828304925954929
0.9520000000000001,0.0182769670021892
0.9560000000000001,0.018270500096142304
0.96,0.018285020584069164
0.964,0.018284948462440387
0.968,0.018279659542996828
0.972,0.018279635502453904
0.976,0.01828893919256598
0.98,0.018305455045555637
0.984,0.018308508194507144
0.988,0.018301897045202697
0.992,0.018296848531188393
0.996,0.018300094004483302
1.0,0.018297593788019074
1.004,0.01828944404396741
1.008,0.018278313272593015
1.012,0.018279178732138322
1.016,0.01828102985394357
1.02,0.018276390029158995
1.024,0.018271918488174894
1.028,0.01828002015114071
1.032,0.0182771593265326
1.036,0.018268624933794133
1.04,0.01826138873037363
1.044,0.018263624500865678
1.048,0.018265956433529427
1.052,0.018262254189918937
1.056,0.018252998580892712
1.06,0.018255667081157417
1.064,0.01826408127118126
1.068,0.018261869541232136
1.072,0.01825585940550082
1.076,0.018253359189036592
1.08,0.018257950932735315
1.084,0.018251772513203524
1.088,0.018235641308900673
1.092,0.018242036093318793
1.096,0.018252686053834684
1.1,0.018241002349973005
1.104,0.01823189098420433
1.108,0.01823508837641339
1.112,0.018235473025100195
1.116,0.01823754051179177
1.12,0.018232203511262358
1.124,0.018231722700403855
1.1280000000000001,0.01823290068700719
1.1320000000000001,0.018227972375707512
1.1360000000000001,0.018219678388398296
1.1400000000000001,0.018218019590936455
1.1440000000000001,0.01821696180704774
1.1480000000000001,0.018215807860987327
1.1520000000000001,0.01820710518444838
1.156,0.018194916629185275
1.16,0.018198306345737734
1.164,0.018208162968337094
1.168,0.018203739508438847
1.172,0.01819157499371866
1.176,0.0181949406697282
1.18,0.018201720102833125
1.184,0.018208619738652673
1.188,0.01819001235842852
1.192,0.018179530681713105
1.196,0.01818955558811294
1.2,0.01818746406087844
1.204,0.018178977749225823
1.208,0.018183401209124074
1.212,0.018179386438455555
1.216,0.01818224726306366
1.22,0.018176285208418196
1.224,0.018174506208241726
1.228,0.018189892155713892
1.232,0.018188425682595454
1.236,0.01817748723556446
1.24,0.01817142901874729
1.244,0.01817859310053902
1.248,0.01817864118162487
1.252,0.018172799329694032
1.256,0.01816320715306685
1.26,0.018171140532232188
1.264,0.018178472897824392
1.268,0.01817017891051518
1.272,0.018159841477057313
1.276,0.018161716639405485
1.28,0.018161139666375278
1.284,0.01815616327398975
1.288,0.018152340827664634
1.292,0.018149840611200407
1.296,0.018155129530643962
1.3,0.01815772590927989
1.304,0.01815296588178069
1.308,0.01815424003055573
1.312,0.018158879855340305
1.316,0.018165683328988155
1.32,0.01816635646419006
1.324,0.018156451760504854
1.328,0.018162413815150318
1.332,0.018170900126802936
1.336,0.018165466964101828
1.34,0.018154167908926953
1.344,0.01815503336847226
1.348,0.018163086950352226
1.352,0.018153494773725045
1.356,0.01814205147529262
1.36,0.01813931085339914
1.364,0.0181405128805454
1.368,0.01813428637992776
1.372,0.01812483844655813
1.3760000000000001,0.0181219535814071
1.3800000000000001,0.018123131568010438
1.3840000000000001,0.01812505481144446
1.3880000000000001,0.018121376608376892
1.3920000000000001,0.018125896230446845
1.3960000000000001,0.01813356516364
1.4000000000000001,0.018134358501556536
1.4040000000000001,0.018135320123273548
1.408,0.018141474502262413
1.412,0.018149528084142375
1.416,0.018144671894471474
1.42,0.018141234096833162
1.424,0.018142580367236975
1.428,0.01814474401610025
1.432,0.018144263205241744
1.436,0.018139238731770365
1.44,0.01813012736600169
1.444,0.01813195444726401
1.448,0.018138565596568457
1.452,0.018127266541393582
1.456,0.01812305944638166
1.46,0.0181198620541726
1.464,0.01812322773018214
1.468,0.01811692910793572
1.472,0.018104668431043837
1.476,0.01811555879698898
1.48,0.018124213392442075
1.484,0.018126040473704395
1.488,0.018123299851810916
1.492,0.018118467702682935
1.496,0.018121737216520772
1.5,0.01812459804112888
1.504,0.018110293918088348
1.508,0.0181057742960184
1.512,0.018111159377633655
1.516,0.018113010499438902
1.52,0.01811012563428787
1.524,0.018105389647331594
1.528,0.018115630918617755
1.532,0.018112842215638424
1.536,0.01810738501239439
1.54,0.018103105795753693
1.544,0.018116448297077214
1.548,0.01811459717527197
1.552,0.018108010066510447
1.556,0.018108635120626503
1.56,0.01811652041870599
1.564,0.01811637617544844
1.568,0.0181127220129238
1.572,0.01810938037745719
1.576,0.018113539391383257
1.58,0.01811945336494287
1.584,0.018122891162581187
1.588,0.018118371540511234
1.592,0.018118179216167835
1.596,0.018115967486218708
1.6,0.018113972121155914
1.604,0.018106327228505678
1.608,0.018101374876663075
1.612,0.01810327407955417
1.616,0.01809500413278788
1.62,0.018089546929543846
1.624,0.018086998631993766
1.6280000000000001,0.01808704671307962
1.6320000000000001,0.018092624119038277
1.6360000000000001,0.01808880167271316
1.6400000000000001,0.01807420906315753
1.6440000000000001,0.018088921875427787
1.6480000000000001,0.01809661484916387
1.6520000000000001,0.018092503916323652
1.6560000000000001,0.018085171550731447
1.6600000000000001,0.01809012390257405
1.6640000000000001,0.01809661484916387
1.668,0.018094980092244955
1.672,0.0180900758214882
1.676,0.01809793707902476
1.68,0.018104019336384853
1.684,0.018098946781827625
1.688,0.018090196024202827
1.692,0.018089498848457994
1.696,0.01809678313296435
1.7,0.01809385018672747
1.704,0.018082839618067698
1.708,0.01807723817156611
1.712,0.01808190203689361
1.716,0.01808368103707008
1.72,0.018074521590215557
1.724,0.018081565469292658
1.728,0.018080675969204422
1.732,0.018077863225682167
1.736,0.018071780968322074
1.74,0.01806646800833559
1.744,0.018077959387853868
1.748,0.018078945050113805
1.752,0.01806673245430777
1.756,0.01806367930535626
1.76,0.018067934481454034
1.764,0.018076829482336382
1.768,0.018071276116920644
1.772,0.01806754983276723
1.776,0.018073800373927796
1.78,0.0180809404151766
1.784,0.01807983455020204
1.788,0.018068848022085193
1.792,0.018073007036011265
1.796,0.01808108465843415
1.8,0.0180762765498491
1.804,0.01806750175168138
1.808,0.018062333034952447
1.812,0.01807098763040554
1.816,0.01807175692777915
1.82,0.018055842088362625
1.824,0.01804663456042225
1.828,0.018048533763313345
1.832,0.018056202696506506
1.836,0.018064785170330822
1.84,0.01805764512908202
1.844,0.018058438466998554
1.848,0.01805668350736501
1.852,0.018034349842987442
1.856,0.01802398836898665
1.86,0.018030912045349127
1.864,0.018027786774768843
1.868,0.018026777071965983
1.872,0.01802242573369651
1.8760000000000001,0.018021944922838005
1.8800000000000001,0.01802927728843021
1.8840000000000001,0.018024637463645635
1.8880000000000001,0.018014756800503347
1.8920000000000001,0.018018410963027986
1.8960000000000001,0.018030238910147222
1.9000000000000001,0.018033316099641653
1.9040000000000001,0.01802942153168776
1.9080000000000001,0.018021752598494603
1.9120000000000001,0.01802571928807727
1.9160000000000001,0.018028243545084425
1.92,0.018028556072142453
1.924,0.01802247381478236
1.928,0.01803374882941431
1.932,0.018035744194477107
1.936,0.01802745020716789
1.94,0.018022185328267257
1.944,0.018026632828708433
1.948,0.018031849626523214
1.952,0.018025791409706046
1.956,0.018015766503306208
1.96,0.018014780841046272
1.964,0.01802242573369651
1.968,0.01801199213806694
1.972,0.01800509250224739
1.976,0.01801011697571877
1.98,0.018018098435969958
1.984,0.01801107859743578
1.988,0.018001630664066154
1.992,0.017997495690683006
1.996,0.018006679178080458
2.0,0.017999034285430225
2.004,0.017992687582097953
2.008,0.018001149853207648
2.012,0.018012112340781566
2.016,0.018014372151816543
2.02,0.018008410097171076
2.024,0.01801199213806694
2.028,0.018020526530805415
2.032,0.018019637030717177
2.036,0.018010141016261697
2.04,0.018005429069848346
2.044,0.01800362602912895
2.048,0.018010357381148024
2.052,0.01800627048885073
2.056,0.017997591852854707
2.06,0.0180081456511989
2.064,0.018010285259519247
2.068,0.018003481785871397
2.072,0.01800016419094771
2.076,0.017999346812488253
2.08,0.01800569351582052
2.084,0.018004419367045485
2.088,0.01798727845993977
2.092,0.017991052825179037
2.096,0.017996245582450894
2.1,0.017997111041996205
2.104,0.01799057201432053
2.108,0.017992831825355507
2.112,0.018001702785694927
2.116,0.018004707853560585
2.12,0.01800838605662815
2.124,0.01800518866441909
2.128,0.01801853116574261
2.132,0.01802110350383562
2.136,0.018005909880706848
2.14,0.018006534934822908
2.144,0.01801016505680462
2.148,0.018017160854795874
2.152,0.018006919583509712
2.156,0.018001702785694927
2.16,0.018004515529217186
2.164,0.018008722624229107
2.168,0.017994610825531977
2.172,0.01799408193358762
2.176,0.017988023716770454
2.18,0.017982181864839616
2.184,0.017978215175256947
2.188,0.017972084836811005
2.192,0.01796840663374344
2.196,0.017974585053275233
2.2,0.01798170105398111
2.204,0.01797516202630544
2.208,0.017980619229549473
2.212,0.01798881705468699
2.216,0.01798992291966155
2.22,0.01798992291966155
2.224,0.017984057027187784
2.228,0.017989802716946925
2.232,0.017997207204167906
2.236,0.017996654271680623
2.24,0.017993360717299862
2.244,0.018001053691035947
2.248,0.018003553907500174
2.2520000000000002,0.017993817487615443
2.2560000000000002,0.017988865135772837
2.2600000000000002,0.01799595709593579
2.2640000000000002,0.018000043988233086
2.2680000000000002,0.017985114811076498
2.2720000000000002,0.017976267891280002
2.2760000000000002,0.017979898013261716
2.2800000000000002,0.017992038487438973
2.2840000000000003,0.017995163758019257
2.2880000000000003,0.01798992291966155
2.2920000000000003,0.017992735663183806
2.2960000000000003,0.017993961730872993
2.3000000000000003,0.017996702352766476
2.3040000000000003,0.017994105974130547
2.308,0.018001270055922274
2.312,0.01800302501555582
2.316,0.01799814478534199
2.32,0.017992952028070133
2.324,0.01799379344707252
2.328,0.018001029650493022
2.332,0.01800211147492466
2.336,0.01799754377176886
2.34,0.017991052825179037
2.344,0.017991966365810196
2.348,0.01799677447439525
2.352,0.01799057201432053
2.356,0.017986749567995414
2.36,0.01799059605486346
2.364,0.01799626962299382
2.368,0.01799047585214883
2.372,0.017981628932352334
2.376,0.017983816621758533
2.38,0.017992735663183806
2.384,0.017994418501188575
2.388,0.017992134649610674
2.392,0.017999947826061385
2.396,0.018001943191124182
2.4,0.018002592285783162
2.404,0.017988167960028004
2.408,0.017985643703020852
2.412,0.01799261546046918
2.416,0.017997952460998588
2.42,0.017985018648904796
2.424,0.017985162892162346
2.428,0.017994779109332452
2.432,0.017990523933234682
2.436,0.017988768973601136
2.44,0.01798932190608842
2.444,0.018002279758725134
2.448,0.017998024582627364
2.452,0.017993601122729116
2.456,0.017996293663536743
2.46,0.018002592285783162
2.464,0.018004395326502557
2.468,0.01799535608236266
2.472,0.017991389392779993
2.476,0.017999491055745803
2.48,0.018004779975189362
2.484,0.018005477150934195
2.488,0.018000693082892066
2.492,0.017998264988056616
2.496,0.018004659772474736
2.5,0.01800646281319413
2.504,0.01801016505680462
2.508,0.01803170538326566
2.512,0.018045144046760882
2.516,0.018045841222505715
2.52,0.018042643830296655
2.524,0.018042042816723523
2.528,0.018045095965675034
2.532,0.01804096099229189
2.536,0.018029445572230688
2.54,0.01803014274797552
2.544,0.01803891754614324
2.548,0.01804197069509475
2.552,0.018034349842987442
2.556,0.0180263203016504
2.56,0.018029902342546266
2.564,0.01803211407249539
2.568,0.01802735404499619
2.572,0.018022545936411137
2.576,0.018023940287900803
2.58,0.018023699882471548
2.584,0.018007592718711617
2.588,0.01800326542098507
2.592,0.01800468381301766
2.596,0.018010285259519247
2.6,0.018003385623699696
2.604,0.017995500325620212
2.608,0.017993288595671085
2.612,0.01799932277194533
2.616,0.01799285586589843
2.62,0.017984754202932617
2.624,0.01798900937903039
2.628,0.01798747078428317
2.632,0.017982470351354717
2.636,0.017973767674815774
2.64,0.01797194059355345
2.644,0.017973695553186998
2.648,0.017967420971483503
2.652,0.01796364660624424
2.656,0.01796095406543661
2.66,0.017966964201167925
2.664,0.017970546242063786
2.668,0.017970570282606714
2.672,0.01795967991666157
2.676,0.01796374276841594
2.68,0.01796809410668541
2.684,0.017969704823061403
2.688,0.017960064565348374
2.692,0.017963261957557434
2.696,0.017970618363692563
2.7,0.017965978538907988
2.704,0.01795155421315283
2.708,0.017952419672698137
2.712,0.017966339147051865
2.716,0.01795754030834122
2.72,0.017944053563760148
2.724,0.01794936652374663
2.728,0.017958742335487485
2.732,0.017957131619111492
2.736,0.017949582888632958
2.74,0.017945592158507363
2.744,0.0179557132270789
2.748,0.01795237159161229
2.7520000000000002,0.017947202874883356
2.7560000000000002,0.017943043860957287
2.7600000000000002,0.017952780280842018
2.7640000000000002,0.017948284699314993
2.7680000000000002,0.017944438212446952
2.7720000000000002,0.017940447482321358
2.7760000000000002,0.017945976807194168
2.7800000000000002,0.01794811641551452
2.7840000000000003,0.017943404469101164
2.7880000000000003,0.017935855738622632
2.7920000000000003,0.01793205733284044
2.7960000000000003,0.01793922141463217
2.8000000000000003,0.017937610698256178
2.8040000000000003,0.017931336116552683
2.8080000000000003,0.01792693669719736
2.8120000000000003,0.01793414886007494
2.816,0.017931288035466834
2.82,0.01792236899404156
2.824,0.017917272398941406
2.828,0.0179261193187379
2.832,0.017937153927940597
2.836,0.017925902953851575
2.84,0.017929436913661587
2.844,0.0179397262660336
2.848,0.017948549145287172
2.852,0.017939389698432645
2.856,0.01792729730534124
2.86,0.017934365224961266
2.864,0.01793881272540244
2.868,0.01792515769702089
2.872,0.01791953220997638
2.876,0.01792191222372598
2.88,0.01792236899404156
2.884,0.01791683966916875
2.888,0.017914555817590848
2.892,0.017922609399470813
2.896,0.017926047197109125
2.9,0.017920854439837267
2.904,0.017920181304635362
2.908,0.017925686588965248
2.912,0.017933259359986704
2.916,0.01793419694116079
2.92,0.01792638376471008
2.924,0.01792871569737383
2.928,0.017930302373206898
2.932,0.017931263994923907
2.936,0.017924965372677487
2.94,0.017927273264798312
2.944,0.017926552048510555
2.948,0.017920349588435837
2.952,0.01790847356023076
2.956,0.017901141194638554
2.96,0.017904314546304687
2.964,0.01790907457380389
2.968,0.017906165668109934
2.972,0.01790025169455032
2.976,0.017904530911191013
2.98,0.01791099781723791
2.984,0.017910565087465257
2.988,0.017900684424322973
2.992,0.017907415776342046
2.996,0.017915685723108338
3.0,0.017917056034055075
3.004,0.017907079208741093
3.008,0.01790871396566001
3.012,0.017912296006555875
3.016,0.017909915992806273
3.02,0.0178963330860535
3.024,0.017898280370030446
3.028,0.01790364141110278
3.032,0.017891981747784027
3.036,0.017883303111788006
3.04,0.01788563504445176
3.044,0.017891669220726
3.048,0.017895034896735537
3.052,0.017887221720284827
3.056,0.017891188409867493
3.06,0.017898592897088474
3.064,0.017904266465218838
3.068,0.017896044599538398
3.072,0.017904915559877818
3.076,0.017910300641493078
3.08,0.017909915992806273
3.084,0.017910517006379405
3.088,0.0179080408304581
3.092,0.017912945101214856
3.096,0.01791578188528004
3.1,0.017907872546657627
3.104,0.01789989108640644
3.108,0.01789806400514412
3.112,0.017898857343060653
3.116,0.017898640978174327
3.12,0.017887630409514556
3.124,0.017881067341295957
3.128,0.01788166835486909
3.132,0.017882990584729978
3.136,0.0178759707461958
3.14,0.01786938363743428
3.144,0.017875658219137773
3.148,0.01788455322002012
3.152,0.017882101084641742
3.156,0.017881139462924734
3.16,0.017893376099273692
3.164,0.017905396370736324
3.168,0.017894241558819003
3.172,0.017888784355574967
3.176,0.017890563355751437
3.18,0.017891981747784027
3.184,0.017884433017305496
3.188,0.01787649963814016
3.192,0.01787637943542553
3.196,0.017876090948910427
3.2,0.017872556989100414
3.204,0.017872100218784836
3.208,0.017872292543128238
3.212,0.017877028530084514
3.216,0.017874696597420765
3.22,0.017866306447939847
3.224,0.017875802462395327
3.228,0.017882389571156846
3.232,0.01787993743577847
3.236,0.01787385517841838
3.24,0.01787856712483173
3.244,0.017886620706711695
3.248,0.017890034463807082
3.2520000000000002,0.01788486574707815
3.2560000000000002,0.017879047935690236
3.2600000000000002,0.01787633135433968
3.2640000000000002,0.017883495436131408
3.2680000000000002,0.017874576394706135
3.2720000000000002,0.0178711145565249
3.2760000000000002,0.017869263434719652
3.2800000000000002,0.017871883853898506
3.2840000000000003,0.017868902826575776
3.2880000000000003,0.017863469663874663
3.2920000000000003,0.017867772921058286
3.2960000000000003,0.017879504706005817
3.3000000000000003,0.017871811732269732
3.3040000000000003,0.01786262824487228
3.3080000000000003,0.01787024909697959
3.3120000000000003,0.01787916813840486
3.3160000000000003,0.017872965678330143
3.3200000000000003,0.01786984040774986
3.3240000000000003,0.017869888488835712
3.3280000000000003,0.017872076178241908
3.332,0.017875898624567028
3.336,0.01787152324575463
3.34,0.017871907894441433
3.344,0.017878543084288805
3.348,0.01786967212394938
3.352,0.017859983785150503
3.356,0.017858853879633013
3.36,0.017872292543128238
3.364,0.01786791716431584
3.368,0.017858541352574985
3.372,0.017850415649066247
3.376,0.017857627811943826
3.38,0.017853564960189458
3.384,0.017848203919117123
3.388,0.01784676148654161
3.392,0.017846280675683102
3.396,0.017857315284885798
3.4,0.01785714700108532
3.404,0.01785147343295496
3.408,0.017853108189873877
3.412,0.017863469663874663
3.416,0.017856570028055116
3.42,0.0178508483788389
3.424,0.017853060108788028
3.428,0.017861738744784045
3.432,0.01786532078567991
3.436,0.017857291244342873
3.44,0.017852002324899315
3.444,0.017858998122890567
3.448,0.01786221955564255
3.452,0.017854430419734765
3.456,0.017848564527261003
3.46,0.017850728176124275
3.464,0.017850872419381828
3.468,0.01784262651315846
3.472,0.017842313986100432
3.476,0.017854887190050347
3.48,0.017850896459924753
3.484,0.017842313986100432
3.488,0.01784130428329757
3.492,0.017859671258092475
3.496,0.017865705434366715
3.5,0.017858300947145734
3.504,0.017851593635669585
3.508,0.017848059675859573
3.512,0.017855656487423953
3.516,0.01785938277157737
3.52,0.01785765185248675
3.524,0.01786279652867276
3.528,0.017866787258798353
3.532,0.017864022596361946
3.536,0.017853324554760203
3.54,0.017853012027702175
3.544,0.01786536886676576
3.548,0.017866426650654472
3.552,0.017852699500644147
3.556,0.017847554824458142
3.56,0.017851136865354004
3.564,0.017858493271489136
3.568,0.017857892257916005
3.572,0.0178505598923238
3.576,0.017860873285238738
3.58,0.017871643448469254
3.584,0.01787060970512347
3.588,0.017871330921411226
3.592,0.01790505980313537
3.596,0.01795794899757095
3.6,0.017972806053098762
3.604,0.017965882376736287
3.608,0.017968719160801467
3.612,0.01797891235100178
3.616,0.017967445012026427
3.62,0.017950424307635344
3.624,0.017953357253872225
3.628,0.017957780713770473
3.632,0.017955881510879377
3.636,0.017943909320502598
3.64,0.017937105846854748
3.644,0.017942947698785586
3.648,0.01794378911778797
3.652,0.01793410077898909
3.656,0.01794684226673948
3.66,0.017972685850384137
3.664,0.017979224878059807
3.668,0.017974008080245026
3.672,0.0179647524712188
3.676,0.01796749309311228
3.68,0.017961915687153617
3.684,0.017951938861839635
3.688,0.01793775494151373
3.692,0.01793566341427923
3.696,0.017934269062789564
3.7,0.017924869210505786
3.704,0.0179146038986767
3.708,0.017909266898147293
3.712,0.0179166954259112
3.716,0.017908834168374636
3.72,0.01789496277510676
3.724,0.01789715046451296
3.728,0.017903136559701348
3.732,0.017894650248048732
3.736,0.01788450513893427
3.74,0.017889144963718847
3.744,0.017891717301811848
3.748,0.017889505571862724
3.7520000000000002,0.01787522548936512
3.7560000000000002,0.017875201448822195
3.7600000000000002,0.017880562489894527
3.7640000000000002,0.01788294250364413
3.7680000000000002,0.017866667056083724
3.7720000000000002,0.01785709891999947
3.7760000000000002,0.017864503407220452
3.7800000000000002,0.017865537150566237
3.7840000000000003,0.017851810000555912
3.7880000000000003,0.017840438823752264
3.7920000000000003,0.0178504637301521
3.7960000000000003,0.01783584708005354
3.8000000000000003,0.017826879957542414
3.8040000000000003,0.017821927605699808
3.8080000000000003,0.017833130498702984
3.8120000000000003,0.017840174377780085
3.8160000000000003,0.017836760620684698
3.8200000000000003,0.01783243332295815
3.8240000000000003,0.017832769890559104
3.8280000000000003,0.01783745779642953
3.8320000000000003,0.017834452728563873
3.8360000000000003,0.017828827241519362
3.84,0.01782399509239138
3.844,0.017824283578906485
3.848,0.01782175932189933
3.852,0.01780558003651063
3.856,0.017802767292988374
3.86,0.017816614645713325
3.864,0.017818850416205373
3.868,0.017811950780385825
3.872,0.017809402482835746
3.876,0.017816037672683117
3.88,0.01781567706453924
3.884,0.01781567706453924
3.888,0.017804185685020964
3.892,0.017806926306914442
3.896,0.017820413051495516
3.9,0.01782034092986674
3.904,0.017815100091509033
3.908,0.01781471544282223
3.912,0.017828442592832557
3.916,0.017825822173653704
3.92,0.017812263307443853
3.924,0.01781339321296134
3.928,0.017826567430484386
3.932,0.017814787564451005
3.936,0.017803945279591712
3.94,0.01780243072538742
3.944,0.017807719644830976
3.948,0.017804378009364366
3.952,0.017794881994908886
3.956,0.017792646224416838
3.96,0.017801372941498708
3.964,0.01780430588773559
3.968,0.01779490603545181
3.972,0.017796516751827803
3.976,0.01780065172521095
3.98,0.01780211819832939
3.984,0.01779704564377216
3.988,0.01779019408903846
3.992,0.017797935143860397
3.996,0.017798488076347676
4.0,0.01779380017047725
4.0040000000000004,0.017788703575377093
4.008,0.017795963819340524
4.0120000000000005,0.01780481073913702
4.016,0.017800435360324624
4.0200000000000005,0.017792021170300782
4.024,0.017787934278003487
4.0280000000000005,0.01779247794061636
4.032,0.017785890831854837
4.0360000000000005,0.01777593804708378
4.04,0.017779808574494748
4.0440000000000005,0.0177916605621569
4.048,0.01778553022371096
4.0520000000000005,0.01777988069612352
4.056,0.017791179751298396
4.0600000000000005,0.017804089522849263
4.064,0.01780978713152255
4.0680000000000005,0.01780247880647327
4.072,0.01780416164447804
4.0760000000000005,0.017814619280650527
4.08,0.017819355267606803
4.0840000000000005,0.01782084578126817
4.088,0.017814739483365153
4.0920000000000005,0.01781882637566245
4.096,0.017825701970939075
4.1,0.017817432024172783
4.104,0.017815917469968492
4.108,0.01782310559230315
4.112,0.017822408416558314
4.116,0.017818441726975644
4.12,0.017807743685373904
4.124,0.017804281847192665
4.128,0.017816542524084548
4.132,0.01781476352390808
4.136,0.017804450130993143
4.14,0.017808248536775335
4.144,0.017807022469086144
4.148,0.01780918611794942
4.152,0.017805507914881852
4.156,0.017804041441763414
4.16,0.017814499077935902
4.164,0.0178165906051704
4.168,0.017808657226005064
4.172,0.01780654165822764
4.176,0.017811782496585347
4.18,0.017811758456042423
4.184,0.01781348937513304
4.188,0.0178007959684685
4.192,0.01780312790113225
4.196,0.017800675765753875
4.2,0.017788703575377093
4.204,0.017786780331943072
4.208,0.017799497779150537
4.212,0.017795194521966914
4.216,0.0177960359409693
4.22,0.01778516961556708
4.224,0.01778745346714498
4.228,0.017793199156904117
4.232,0.017788006399632263
4.236,0.017771442465556755
4.24,0.017771226100670428
4.244,0.017790578737725264
4.248,0.017783438696476462
4.252,0.017788559332119543
4.256,0.017783462737019386
4.26,0.017784448399279323
4.264,0.017779447966350868
4.268,0.01777478410102337
4.272,0.017778077655404127
4.276,0.01778031342589618
4.28,0.017770432762753894
4.284,0.017755046815281724
4.288,0.017759013504864394
4.292,0.017765552532540065
4.296,0.017777164114772967
4.3,0.01775889330214977
4.304,0.01774706535503054
4.308,0.017756369045142616
4.312,0.017754325598993967
4.316,0.017764542829737204
4.32,0.01776502364059571
4.324,0.017752883166418452
4.328,0.017765191924396188
4.332,0.017761345437528143
4.336,0.017754445801708593
4.34,0.01775725854523085
4.344,0.01777055296546852
4.348,0.017767235370544834
4.352,0.01775497469365295
4.356,0.01776023957255358
4.36,0.01776629778937075
4.364,0.017768701843663276
4.368,0.017756369045142616
4.372,0.017740550367897793
4.376,0.01775132053112831
4.38,0.01775076759864103
4.384,0.017730789907470134
4.388,0.017732857394161708
4.392,0.017746272017114005
4.396,0.017749108801179185
4.4,0.017728746461321488
4.404,0.017721822784959013
4.408,0.01773100627235646
4.412,0.01773598266474199
4.416,0.0177410311787563
4.42,0.017737689543289685
4.424,0.017729515758695098
4.428,0.01773254486710368
4.432,0.01773204001570225
4.436,0.017720596717269825
4.44,0.017727352109831822
4.444,0.01774543059811162
4.448,0.017761754126757873
4.452,0.01776451878919428
4.456,0.01777151458718553
4.46,0.017777693006717325
4.464,0.01777156266827138
4.468,0.017761537761871546
4.472,0.017758556734548816
4.476,0.01776593718122687
4.48,0.017770072154610014
4.484,0.0177595904778946
4.488,0.01775396499085009
4.492,0.017753748625963763
4.496,0.017753916909764238
4.5,0.01774771444968952
4.5040000000000004,0.017727472312546448
4.508,0.017729732123581424
4.5120000000000005,0.01772848201534931
4.516,0.017728193528834205
4.5200000000000005,0.017737593381117984
4.524,0.017747738490232447
4.5280000000000005,0.017734492151080625
4.532,0.017727712717975703
4.5360000000000005,0.017722856528304798
4.54,0.01772528462314025
4.5440000000000005,0.017733338205020214
4.548,0.017741896638301606
4.5520000000000005,0.017735573975512262
4.556,0.01773689620537315
4.5600000000000005,0.017735429732254712
4.564,0.017728770501864412
4.5680000000000005,0.017719659136095738
4.572,0.017719827419896216
4.5760000000000005,0.01772679917734454
4.58,0.017722928649933575
4.5840000000000005,0.017719418730666486
4.588,0.017724539366309567
4.5920000000000005,0.017723385420249153
4.596,0.01772381815002181
4.6000000000000005,0.01772163046061561
4.604,0.017717231041260287
4.6080000000000005,0.01772665493408699
4.612,0.01773725681351703
4.616,0.017725116339339774
4.62,0.01772497209608222
4.624,0.01773040525878333
4.628,0.017728722420778564
4.632,0.017724924014996372
4.636,0.017720837122699076
4.64,0.017719226406323084
4.644,0.01772639048811481
4.648,0.01772102944704248
4.652,0.01771614921682865
4.656,0.017724130677079838
4.66,0.01772249592016092
4.664,0.01771655790605838
4.668,0.017707494621375556
4.672,0.01769422424168081
4.676,0.01771441829773803
4.68,0.017715259716740414
4.684,0.017698599620493208
4.688,0.017692565444218968
4.692,0.017705210769797655
4.696,0.017702277823560774
4.7,0.01770879281069352
4.704,0.017704369350795272
4.708,0.017698311133978104
4.712,0.017714899108596537
4.716,0.017711293027157748
4.72,0.01770138832347254
4.724,0.01770619643205759
4.728,0.01771290374353374
4.732,0.01770756674300433
4.736,0.0176888872411514
4.74,0.017691964430645836
4.744,0.01769888810700831
4.748,0.017711100702814345
4.752,0.017691459579244406
4.756,0.01768797370052024
4.76,0.01770208549921737
4.764,0.017707999472776986
4.768,0.01771148535150115
4.772,0.01771533183836919
4.776,0.01772259208233262
4.78,0.017723746028393033
4.784,0.017711797878559178
4.788,0.01770674936454487
4.792,0.017722856528304798
4.796,0.017720067825325467
4.8,0.01771350475710687
4.804,0.017704513594052822
4.808,0.017706124310428815
4.812,0.017716966595288108
4.816,0.017715812649227697
4.82,0.017703888539936766
4.824,0.017701965296502746
4.828,0.017705162688711803
4.832,0.017712230608331832
4.836,0.017698671742121985
4.84,0.01768605045708622
4.844,0.017691098971100525
4.848,0.01769624364728653
4.852,0.017686411065230098
4.856,0.017688262187035345
4.86,0.017698743863750758
4.864,0.017698912147551236
4.868,0.017691796146845358
4.872,0.01770701381051705
4.876,0.017720139946954244
4.88,0.017735718218769816
4.884,0.017724130677079838
4.888,0.01771405768959415
4.892,0.01772218339310289
4.896,0.017724154717622762
4.9,0.017710018878382708
4.904,0.017704874202196703
4.908,0.01771533183836919
4.912,0.017722832487761873
4.916,0.017712374851589382
4.92,0.01770456167513867
4.924,0.017708047553862835
4.928,0.017718817717093355
4.932,0.01771711083854566
4.936,0.01770372025613629
4.94,0.017698984269180013
4.944,0.01771441829773803
4.948,0.017720740960527375
4.952,0.017703527931792886
4.956,0.017692974133448697
4.96,0.017707398459203855
4.964,0.017705883904999564
4.968,0.01768797370052024
4.972,0.017684656105596556
4.976,0.017684127213652198
4.98,0.01767600151014346
4.984,0.017668068130978123
4.988,0.017666265090258728
4.992,0.017674967766797674
4.996,0.017683189632478113
5.0,0.017670616428528203
5.0040000000000004,0.017665327509084644
5.008,0.017668068130978123
5.0120000000000005,0.017668116212063975
5.016,0.017668332576950302
5.0200000000000005,0.01766686610383186
5.024,0.01766640933351628
5.0280000000000005,0.017660447278870815
5.032,0.017654461183682423
5.0360000000000005,0.017653042791649833
5.04,0.01766179354927463
5.0440000000000005,0.01766362063053695
5.048,0.01765527856214188
5.0520000000000005,0.017648258723607705
5.056,0.01764982135889785
5.0600000000000005,0.01766006263018401
5.064,0.01766143294113075
5.0680000000000005,0.017652129251018674
5.072,0.017646623966688788
5.0760000000000005,0.017644917088141095
5.08,0.017646623966688788
5.0840000000000005,0.01765051853464268
5.088,0.017642080304075915
5.0920000000000005,0.017644748804340617
5.096,0.01764873953446621
5.1000000000000005,0.01763965220924046
5.104,0.017636454817031404
5.1080000000000005,0.017645085371941573
5.112,0.01763818573612202
5.1160000000000005,0.017632127519304854
5.12,0.01762179008584699
5.124,0.017629987910984506
5.128,0.017640397466071146
5.132,0.01762626162683109
5.136,0.017610442949586264
5.14,0.017614097112110906
5.144,0.017625564451086255
5.148,0.017628665681123618
5.152,0.0176250355591419
5.156,0.017616116517716628
5.16,0.017634243087082276
5.164,0.017633954600567176
5.168,0.017624843234798498
5.172,0.01762945901904015
5.176,0.017634459451968607
5.18,0.017631911154418527
5.184,0.017626381829545717
5.188,0.017624338383397067
5.192,0.0176296032622977
5.196,0.01763503642499881
5.2,0.017627247289091028
5.204,0.017614962571656213
5.208,0.017616020355544926
5.212,0.017614842368941588
5.216,0.017612414274106137
5.22,0.017604841503084678
5.224,0.017604408773312024
5.228,0.017615227017628392
5.232,0.01761287104442172
5.236,0.01760654838163237
5.24,0.01761904946395351
5.244,0.017618520572009154
5.248,0.017617102179976564
5.252,0.017607293638463056
5.256,0.01761270276062124
5.26,0.017625155761856526
5.264,0.01763193519496145
5.268,0.017616068436630775
5.272,0.017613688422881177
5.276,0.017621549680417736
5.28,0.017620948666844605
5.284,0.01761549146360057
5.288,0.017609313044068778
5.292,0.01760544251665781
5.296,0.017609361125154627
5.3,0.01760118734056004
5.304,0.017601043097302486
5.308,0.01760823121963714
5.312,0.017611092044245248
5.316,0.01760270189476433
5.32,0.017597028326633967
5.324,0.017605514638286586
5.328,0.017615731869029823
5.332,0.017612919125507567
5.336,0.01760133158381759
5.34,0.017602894219107733
5.344,0.01761686177454731
5.348,0.017611620936189603
5.352,0.01760986597655606
5.356,0.017605466557200737
5.36,0.01760556271937244
5.364,0.01760174027304732
5.368,0.017592725069450345
5.372,0.0175976293402071
5.376,0.017609433246783403
5.38,0.01759722065097737
5.384,0.017586787055347806
5.388,0.017584767649742084
5.392,0.017586089879602973
5.396,0.017592989515422524
5.4,0.017586402406661
5.404,0.01757986337898533
5.408,0.017586594731004403
5.412,0.017596956205005194
5.416,0.017588229487923324
5.42,0.017588205447380396
5.424,0.01759101819090265
5.428,0.01759986511069915
5.432,0.01759063354221585
5.436,0.01758051247364431
5.44,0.017595417610257975
5.444,0.01759940834038357
5.448,0.017585849474173722
5.452,0.017576738108405047
5.456,0.017579935500614107
5.46,0.017588926663668153
5.464,0.017590657582758774
5.468,0.01757640154080409
5.472,0.01757168959439074
5.476,0.017584527244312833
5.48,0.017593253961394703
5.484,0.017590609501672922
5.488,0.01759945642146942
5.492,0.017597773583464652
5.496,0.017598566921381186
5.5,0.017588397771723798
5.5040000000000004,0.01759123455578898
5.508,0.01759976894852745
5.5120000000000005,0.017599937232327924
5.516,0.01757625729754654
5.5200000000000005,0.017571088580817608
5.524,0.017574670621713473
5.5280000000000005,0.01757209828362047
5.532,0.017563275404366897
5.5360000000000005,0.017548490470467863
5.54,0.017558371133610143
5.5440000000000005,0.017558587498496474
5.548,0.017553250497967063
5.5520000000000005,0.017549043402955142
5.556,0.01756190509342016
5.5600000000000005,0.017570703932130807
5.564,0.017568227756209503
5.5680000000000005,0.017565078445086292
5.572,0.017569886553671345
5.5760000000000005,0.017586955339148284
5.58,0.017594095380397086
5.5840000000000005,0.01757767568957913
5.588,0.017572074243077544
5.5920000000000005,0.017580704797987713
5.596,0.017578420946409816
5.6000000000000005,0.017576185175917764
5.604,0.017571064540274683
5.6080000000000005,0.01757584860831681
5.612,0.017575968811031437
5.6160000000000005,0.017554524646742103
5.62,0.01754925976784147
5.6240000000000006,0.01756195317450601
5.628,0.01755666425506245
5.632,0.01755046179498773
5.636,0.0175494761327278
5.64,0.017555943038774693
5.644,0.01756995867530012
5.648,0.017567915229151475
5.652,0.01756204933667771
5.656,0.017572026161991695
5.66,0.017579310446498048
5.664,0.017578276703152262
5.668,0.017576641946233346
5.672,0.01756591986408868
5.676,0.01757154535113319
5.68,0.017573348391852584
5.684,0.01756195317450601
5.688,0.017558467295781845
5.692,0.017565078445086292
5.696,0.017567218053406643
5.7,0.017552433119507604
5.704,0.01754752884875085
5.708,0.017548370267753237
5.712,0.01755611132257517
5.716,0.01754534115934465
5.72,0.017536638482805705
5.724,0.01754651914594799
5.728,0.01754625469997581
5.732,0.017552865849280258
5.736,0.017558996187726203
5.74,0.01755853941741062
5.744,0.017564357228798535
5.748,0.017562073377220634
5.752,0.017555967079317617
5.756,0.017563299444909825
5.76,0.017576233257003616
5.764,0.017568516242724607
5.768,0.017558996187726203
5.772,0.017556351728004422
5.776,0.01756123195821825
5.78,0.017561255998761176
5.784,0.01754423529437009
5.788,0.017544139132198388
5.792,0.01754906744349807
5.796,0.017552385038421756
5.8,0.017549932903043377
5.804,0.017549644416528273
5.808,0.017548250065038608
5.812,0.017546182578347037
5.816,0.01754418721328424
5.82,0.017541518713019535
5.824,0.017547168240606974
5.828,0.017545797929660233
5.832,0.01753815303701
5.836,0.017531878455306505
5.84,0.01754180719953464
5.844,0.017549692497614126
5.848,0.017548370267753237
5.852,0.017543490037539407
5.856,0.0175496684570712
5.86,0.017558178809266745
5.864,0.01754574984857438
5.868,0.017532623712137187
5.872,0.017544523780885193
5.876,0.01756255418807914
5.88,0.017564958242371666
5.884,0.017560053971614913
5.888,0.01755565455225959
5.892,0.01757962297355608
5.896,0.017581882784591052
5.9,0.017561111755503626
5.904,0.01756159256636213
5.908,0.017561472363647503
5.912,0.017557770120037012
5.916,0.017550005024672154
5.92,0.01754998098412923
5.924,0.017551471497790596
5.928,0.017560847309531447
5.932,0.01755108684910379
5.936,0.01754483630794322
5.94,0.01755301009253781
5.944,0.017550654119331134
5.948,0.017544764186314447
5.952,0.017533080482452768
5.956,0.017547865416351806
5.96,0.017552529281679306
5.964,0.01755200038973495
5.968,0.01754536519988758
5.972,0.017546134497261185
5.976,0.01756200125559186
5.98,0.017566040066803304
5.984,0.017567001688520316
5.988,0.01755418807914115
5.992,0.01755625556583272
5.996,0.017555029498143533
6.0,0.017549091484040994
6.0040000000000004,0.0175565200118049
6.008,0.017557481633521912
6.0120000000000005,0.017552937970909035
6.016,0.017544115091655463
6.0200000000000005,0.017544908429571997
6.024,0.01755382747099727
6.0280000000000005,0.01756591986408868
6.032,0.017553394741224616
6.0360000000000005,0.017538465564068028
6.04,0.017531109157932896
6.0440000000000005,0.017544884389029073
6.048,0.01754930784892732
6.0520000000000005,0.01753536433403067
6.056,0.017532239063450385
6.0600000000000005,0.017544018929483762
6.064,0.01753485948262924
6.0680000000000005,0.01752971480644323
6.072,0.017539835875014766
6.0760000000000005,0.01754322559156723
6.08,0.017527767522466285
6.0840000000000005,0.017519786062215097
6.088,0.017525940441203966
6.0920000000000005,0.017539643550671363
6.096,0.01753048410381684
6.1000000000000005,0.017523512346368512
6.104,0.017529137833413026
6.1080000000000005,0.01753752798289394
6.112,0.017537407780179315
6.1160000000000005,0.017538994456012383
6.12,0.01753454695557121
6.1240000000000006,0.017530556225445616
6.128,0.017544932470114922
6.132000000000001,0.017538850212754833
6.136,0.017542095686049742
6.140000000000001,0.017553947673711896
6.144,0.017532479468879637
6.148,0.01753134956336215
6.152,0.017535748982717474
6.156,0.017536854847692036
6.16,0.017537359699093466
6.164,0.017533200685167394
6.168,0.017521420819134017
6.172,0.01752733479269363
6.176,0.01753560473945992
6.18,0.017534522915028283
6.184,0.017538778091126056
6.188,0.017535388374573593
6.192,0.017533152604081545
6.196,0.01753519605023019
6.2,0.0175268299412922
6.204,0.01753084471196072
6.208,0.01754123022650443
6.212,0.01754216780767852
6.216,0.017527262671064855
6.22,0.017520290913616527
6.224,0.01752281517062368
6.228,0.017532840077023517
6.232,0.01752875318472622
6.236,0.017517045440321618
6.24,0.017529233995584727
6.244,0.017517526251180124
6.248,0.017513078750738948
6.252,0.017517766656609375
6.256,0.017518728278326387
6.26,0.01752300749496708
6.264,0.017521685265106193
6.268,0.01751199692630731
6.272,0.017522069913792997
6.276,0.017544403578170567
6.28,0.01753839344243925
6.284,0.017520242832530678
6.288,0.01752144485967694
6.292,0.01752613276554737
6.296,0.017541686996820013
6.3,0.01752252668410858
6.304,0.017505241533745313
6.308,0.017518535953982985
6.312,0.017524666292428926
6.316,0.017515651088831952
6.32,0.017512501777708744
6.324,0.017498726546612567
6.328,0.017499135235842296
6.332,0.017491874991878868
6.336,0.017497043708607798
6.34,0.01749709178969365
6.344,0.0175156030077461
6.348,0.0175154106834027
6.352,0.01751327107508235
6.356,0.017521565062391567
6.36,0.01752377679234069
6.364,0.017519040805384415
6.368,0.017504616479629257
6.372,0.017519737981129248
6.376,0.01752545963034546
6.38,0.017515530886117327
6.384,0.017517814737695227
6.388,0.017510554493731796
6.392,0.017508895696269955
6.396,0.017495481073317658
6.4,0.01748444646411496
6.404,0.01749060084310383
6.408,0.01749480793811575
6.412,0.017488076586096676
6.416,0.017480912504304946
6.42,0.017477258341780308
6.424,0.017493413586626084
6.428,0.01749545703277473
6.432,0.017497716843809706
6.436,0.017495937843633236
6.44,0.017506756087949604
6.444,0.017510626615360573
6.448,0.0174949521813733
6.452,0.01749348570825486
6.456,0.017509689034186485
6.46,0.017512790264223844
6.464,0.017511684399249283
6.468,0.017507958115095867
6.472,0.017500457465703185
6.476,0.0175130306696531
6.48,0.017499495843986176
6.484,0.01748927861324294
6.488,0.01749586572200446
6.492,0.0174927644919671
6.496,0.017491562464820837
6.5,0.017487980423924975
6.5040000000000004,0.017478147841868543
6.508,0.017486513950806533
6.5120000000000005,0.017490769126904306
6.516,0.017483172315339923
6.5200000000000005,0.01748925457270001
6.524,0.01750286151999571
6.5280000000000005,0.017501419087420197
6.532,0.017494687735401124
6.5360000000000005,0.017497404316751678
6.54,0.017509256304413832
6.5440000000000005,0.01751682907543529
6.548,0.01750485688505851
6.5520000000000005,0.01750129888470557
6.556,0.017507958115095867
6.5600000000000005,0.017506683966320827
6.564,0.017505698304060895
6.5680000000000005,0.01750129888470557
6.572,0.017483508882940875
6.5760000000000005,0.017487812140124497
6.58,0.017490961451247705
6.5840000000000005,0.017478171882411467
6.588,0.017483556964026727
6.5920000000000005,0.017489398815957565
6.596,0.01748038361236059
6.6000000000000005,0.01747165689527872
6.604,0.017474926409116555
6.6080000000000005,0.01747809976078269
6.612,0.017497861087067256
6.6160000000000005,0.01747769107155296
6.62,0.01747120012496314
6.6240000000000006,0.017484085855971082
6.628,0.017491995194593494
6.632000000000001,0.017491730748621315
6.636,0.017486802437321636
6.640000000000001,0.01747694581472228
6.644,0.017487403450894768
6.648000000000001,0.017478580571641197
6.652,0.017470262543789056
6.656000000000001,0.017482499180138014
6.66,0.01748682647786456
6.664,0.017478292085126093
6.668,0.017468074854382856
6.672,0.017464685137830394
6.676,0.017478171882411467
6.68,0.017487884261753274
6.684,0.017473964787399546
6.688,0.01744978000121673
6.692,0.017467329597552175
6.696,0.017475238936174586
6.7,0.017469156678814494
6.704,0.017467978692211155
6.708,0.01746591120551958
6.712,0.01746242532679542
6.716,0.017459804907616564
6.72,0.01746232916462372
6.724,0.017476657328207176
6.728,0.017478219963497316
6.732,0.017475238936174586
6.736,0.017467642124610203
6.74,0.017467473840809725
6.744,0.017473291652197638
6.748,0.017467233435380473
6.752,0.017465550597375704
6.756,0.017475936111919416
6.76,0.01748413393705693
6.764,0.017475527422689686
6.768,0.017464588975658692
6.772,0.017469805773473474
6.776,0.017475142774002885
6.78,0.017476392882234997
6.784,0.017467473840809725
6.788,0.017476777530921802
6.792,0.01748055189616107
6.796,0.017470214462703203
6.8,0.017463963921542636
6.804,0.017463675435027533
6.808,0.017469084557185717
6.812,0.01746896435447109
6.816,0.01746901243555694
6.82,0.01745095798782007
6.824,0.017447784636153933
6.828,0.017459997231959967
6.832,0.017461535826707186
6.836,0.01746220896190909
6.84,0.017463531191769983
6.844,0.017467786367867753
6.848,0.01746617565149176
6.852,0.017464516854029916
6.856,0.017467209394837546
6.86,0.01747095971953389
6.864,0.017455092961203213
6.868,0.017452184055509256
6.872,0.017463627353941684
6.876,0.017469397084243745
6.88,0.01746247340788127
6.884,0.017446654730636446
6.888,0.01745552569097587
6.892,0.017459997231959967
6.896,0.017463194624169027
6.9,0.017461631988878887
6.904,0.017471873260165048
6.908,0.01747064719247586
6.912,0.017471392449306542
6.916,0.017449203028186526
6.92,0.017451607082479052
6.924,0.017463459070141206
6.928,0.017472041543965526
6.932,0.017465454435204003
6.936,0.017456896001922607
6.94,0.017455886299119747
6.944,0.017462040678108616
6.948,0.017457232569523563
6.952,0.017450332933704012
6.956,0.017447976960497335
6.96,0.017456655596493356
6.964,0.017455886299119747
6.968,0.017453362042112595
6.972,0.017456631555950432
6.976,0.017453049515054567
6.98,0.0174445151223161
6.984,0.017445861392719912
6.988,0.017449058784928972
6.992,0.017468050813839932
6.996,0.01746922880044327
7.0,0.017446774933351072
7.0040000000000004,0.01745338608265552
7.008,0.01744720766312373
7.0120000000000005,0.017442495716710377
7.016,0.017444683406116573
7.0200000000000005,0.017432615053568093
7.024,0.017437639527039472
7.0280000000000005,0.01743872135147111
7.032,0.01743117262099258
7.0360000000000005,0.017434634459173814
7.04,0.017448602014613394
7.0440000000000005,0.01744516421697508
7.048,0.017444058352000517
7.0520000000000005,0.017441077324677784
7.056,0.017438192459526755
7.0600000000000005,0.01744059651381928
7.064,0.017443769865485414
7.0680000000000005,0.017436509621521986
7.072,0.017437158716180966
7.0760000000000005,0.017447255744209578
7.08,0.017454131339486204
7.0840000000000005,0.01744562098729066
7.088,0.017441486013907517
7.0920000000000005,0.017442303392366975
7.096,0.017434946986231842
7.1000000000000005,0.017430379283076045
7.104,0.017431244742621352
7.1080000000000005,0.017443409257341537
7.112,0.017440356108390027
7.1160000000000005,0.017433768999628507
7.12,0.017437639527039472
7.1240000000000006,0.017452688906910686
7.128,0.017458434596669826
7.132000000000001,0.017443553500599087
7.136,0.017431485148050607
7.140000000000001,0.017435091229489396
7.144,0.01743612497283518
7.148000000000001,0.01743953872993057
7.152,0.017443048649197657
7.156000000000001,0.017442255311281123
7.16,0.01744639028466427
7.164000000000001,0.017440163784046624
7.168,0.01743059564796237
7.172,0.01744268804105378
7.176,0.017454371744915455
7.18,0.017447159582037877
7.184,0.01744617391977794
7.188,0.017450573339133264
7.192,0.017459564502187313
7.196,0.017460910772591126
7.2,0.017446750892808147
7.204,0.0174516551635649
7.208,0.0174582182317835
7.212,0.017449948285017208
7.216,0.01743939448667302
7.22,0.01744288036539718
7.224,0.017444491081773175
7.228,0.01743521143220402
7.232,0.017435740324148376
7.236,0.017433576675285105
7.24,0.017434297891572862
7.244,0.01743333626985585
7.248,0.017419080227901167
7.252,0.017409151483673033
7.256,0.017415786673520405
7.26,0.01742220549848145
7.264,0.017437471243238994
7.268,0.01742713380978113
7.272,0.017431437066964754
7.276,0.017441293689564114
7.28,0.017428167553126914
7.284,0.017430619688505296
7.288,0.017435716283605452
7.292,0.017431629391308157
7.296,0.017429129174843926
7.3,0.017422926714769207
7.304,0.017421075592963964
7.308,0.017443505419513238
7.312,0.01743150918859353
7.316,0.017421532363279542
7.32,0.017427927147697662
7.324,0.017429465742444885
7.328,0.01743105241827795
7.332,0.017438504986584783
7.336,0.017414921213975094
7.34,0.017430860093934547
7.344,0.017435812445777153
7.348,0.017430571607419447
7.352,0.017434177688858236
7.356,0.017441774500422617
7.36,0.01743898579744329
7.364,0.017433023742797822
7.368,0.017417878200754904
7.372,0.017425523093405136
7.376,0.017436605783693687
7.38,0.017420234173961578
7.384,0.017410906443306576
7.388,0.017417469511525174
7.392,0.017420642863191307
7.396,0.01741936871441627
7.4,0.017417445470982246
7.404,0.017407612888925814
7.408,0.01742129195785029
7.412,0.01741864749812851
7.416,0.01741338261922788
7.42,0.017416652133065712
7.424,0.0174201620523328
7.428,0.017413647065200055
7.432,0.017410305429733444
7.436,0.017413935551715158
7.44,0.01742636451240752
7.444,0.017439851256988596
7.448,0.01743227848596714
7.452,0.01742713380978113
7.456,0.017426027944806566
7.46,0.01742932149918733
7.464,0.017424465309516423
7.468,0.017414584646374142
7.472,0.017411363213622157
7.476,0.017412276754253317
7.48,0.017412372916425018
7.484,0.017397828387955235
7.488,0.017410089064847117
7.492,0.017404824185946483
7.496,0.017392443306339975
7.5,0.0173810480889934
7.5040000000000004,0.017397876469041083
7.508,0.017406699348294655
7.5120000000000005,0.01741545010591945
7.516,0.01741138725416508
7.5200000000000005,0.017407660970011667
7.524,0.01740037668550531
7.5280000000000005,0.017408261983584798
7.532,0.017413358578684954
7.5360000000000005,0.017406050253635674
7.54,0.01740205952351008
7.5440000000000005,0.017414103835515636
7.548,0.017412228673167465
7.5520000000000005,0.017401843158623753
7.556,0.01740371832097192
7.5600000000000005,0.017402251847853482
7.564,0.01739631383375094
7.5680000000000005,0.017386865900381313
7.572,0.017395039684975903
7.5760000000000005,0.01739371745511501
7.58,0.017393957860544266
7.5840000000000005,0.017374004209916298
7.588,0.017374965831633307
7.5920000000000005,0.017392515427968748
7.596,0.017393957860544266
7.6000000000000005,0.017403333672285116
7.604,0.017399847793560956
7.6080000000000005,0.017404271253459204
7.612,0.01740480014540356
7.6160000000000005,0.01739876596912932
7.62,0.01739672252298067
7.6240000000000006,0.017412180592081616
7.628,0.017409295726930583
7.632000000000001,0.017394150184887668
7.636,0.017389846927704046
7.640000000000001,0.017390520062905954
7.644,0.017401482550479873
7.648000000000001,0.017394871401175425
7.652,0.01738886126544411
7.656000000000001,0.017391842292766843
7.66,0.017396698482437745
7.664000000000001,0.01739128936027956
7.668,0.0173926596712263
7.672000000000001,0.017393260684799433
7.676,0.017394150184887668
7.68,0.017384269521745384
7.684,0.017370758736621385
7.688,0.017374412899146027
7.692,0.017401626793737423
7.696,0.017389846927704046
7.7,0.01737972585913251
7.704,0.017384582048803412
7.708,0.017390015211504524
7.712,0.017396746563523597
7.716,0.017380326872705642
7.72,0.017382634764826467
7.724,0.0173810480889934
7.728,0.017383812751429806
7.732,0.01738753903558322
7.736,0.017387899643727098
7.74,0.01738501477857607
7.744,0.01738910167087336
7.748,0.01738626488680818
7.752,0.01738643317060866
7.756,0.017388741062729484
7.76,0.017394871401175425
7.764,0.017384870535318515
7.768,0.017378379588728694
7.772,0.017384053156859057
7.776,0.017383908913601507
7.78,0.017379990305104686
7.784,0.017376215939865422
7.788,0.017376239980408346
7.792,0.017378523831986247
7.796,0.017369099939159544
7.8,0.017360445343706447
7.804,0.017373114709828063
7.808,0.017368234479614234
7.812,0.017367080533553823
7.816,0.017366142952379735
7.82,0.01735806532995685
7.824,0.017364003344059388
7.828,0.017376215939865422
7.832,0.017366239114551436
7.836,0.01736946054730342
7.84,0.017374268655888474
7.844,0.017379653737503734
7.848,0.017382226075596738
7.852,0.01737104722313649
7.856,0.01738013454836224
7.86,0.017379437372617407
7.864,0.017367921952556205
7.868,0.017373523399057792
7.872,0.017376600588552227
7.876,0.017367633466041102
7.88,0.017361983938453666
7.884,0.017350660842735868
7.888,0.01735854614081535
7.892,0.017374941791090382
7.896,0.017369845195990226
7.9,0.01735866634352998
7.904,0.01735025215350614
7.908,0.01736470051980422
7.912,0.017363402330486256
7.916,0.017362344546597543
7.92,0.017363666776458432
7.924,0.01737292238548466
7.928,0.01737241753408323
7.932,0.017357776843441745
7.936,0.01736150312759516
7.94,0.017372489655712007
7.944,0.01736597466857926
7.948,0.017365301533377352
7.952,0.01736359465482966
7.956,0.017366551641609464
7.96,0.017380951926821698
7.964,0.01736450819546082
7.968,0.01735241580236941
7.972,0.017353377424086422
7.976,0.017357007546068136
7.98,0.01735460349177561
7.984,0.017345852734150815
7.988,0.017337582787384523
7.992,0.017357584519098343
7.996,0.01735282449159914
8.0,0.01735277641051329
8.004,0.017363378289943332
8.008000000000001,0.01736698437138212
8.012,0.017372850263855884
8.016,0.017356839262267658
8.02,0.01736566214152123
8.024000000000001,0.017372297331368605
8.028,0.017367825790384504
8.032,0.017351117613051446
8.036,0.017346405666638094
8.040000000000001,0.01735881058678753
8.044,0.017360373222077674
8.048,0.01734998770753396
8.052,0.01735150226173825
8.056000000000001,0.01735897887058801
8.06,0.017353305302457645
8.064,0.017344314139403596
8.068,0.017347679815413134
8.072000000000001,0.01735698350552521
8.076,0.017349963666991035
8.08,0.017339457949732694
8.084,0.017331332246223956
8.088000000000001,0.01734383332854509
8.092,0.017354050559288327
8.096,0.017352151356397234
8.1,0.01734638162609517
8.104000000000001,0.01735424288363173
8.108,0.01735638249195208
8.112,0.017353978437659554
8.116,0.017353641870058598
8.120000000000001,0.017344578585375775
8.124,0.017341789882396444
8.128,0.017344266058317747
8.132,0.0173331833680292
8.136000000000001,0.017335250854720773
8.14,0.017351838829339203
8.144,0.017357103708239837
8.148,0.017344674747547476
8.152000000000001,0.01734267938248468
8.156,0.017353497626801048
8.16,0.017356863302810586
8.164,0.017353641870058598
8.168000000000001,0.017347006680211226
8.172,0.017353882275487852
8.176,0.017357873005613447
8.18,0.01735032427513491
8.184000000000001,0.017349410734503752
8.188,0.01733272659771362
8.192,0.017339241584846368
8.196,0.01733150053002443
8.2,0.017327101110669107
8.204,0.017341717760767667
8.208,0.01735049255893539
8.212,0.017341982206739846
8.216,0.0173285195027017
8.22,0.017342246652712025
8.224,0.017357007546068136
8.228,0.0173583057353861
8.232,0.017353617829515673
8.236,0.017345996977408365
8.24,0.017352055194225533
8.244,0.017357632600184192
8.248,0.01736770558766988
8.252,0.017363618695372583
8.256,0.017367657506584026
8.26,0.017358137451585622
8.264,0.01734561232872156
8.268,0.017347968301928238
8.272,0.01735090124816512
8.276,0.017349963666991035
8.28,0.01733748662521282
8.284,0.017332654476084845
8.288,0.017327004948497406
8.292,0.017341645639138894
8.296,0.017344121815060193
8.3,0.017346069099037142
8.304,0.017341285030995014
8.308,0.017347824058670684
8.312,0.017352247518568932
8.316,0.017351309937394848
8.32,0.017362104141168292
8.324,0.017360301100448897
8.328,0.01735753643801249
8.332,0.017356045924351124
8.336,0.017353064897028394
8.34,0.017359339478731885
8.344,0.01735282449159914
8.348,0.017341621598595966
8.352,0.017340539774164332
8.356,0.01734570849089326
8.36,0.017349530937218378
8.364,0.017341934125653997
8.368,0.017333063165314574
8.372,0.017330923556994227
8.376,0.017341381193166715
8.38,0.017337582787384523
8.384,0.0173376549090133
8.388,0.017342222612169098
8.392,0.01734025128764923
8.396,0.01734912224798865
8.4,0.017345227680034755
8.404,0.01735739219475494
8.408,0.017369436506760497
8.412,0.017360469384249375
8.416,0.017344169896146046
8.42,0.01734344867985829
8.424,0.017342150490540324
8.428,0.017345395963835233
8.432,0.017341044625565762
8.436,0.0173375587468416
8.44,0.017337222179240643
8.444,0.017341982206739846
8.448,0.01733226982739804
8.452,0.017330875475908374
8.456,0.017339506030818543
8.46,0.01734318423388611
8.464,0.017332149624683414
8.468,0.017332606394998992
8.472,0.017336525003495813
8.476,0.01735770472181297
8.48,0.017350781045450493
8.484,0.017335948030465606
8.488,0.017339554111904396
8.492,0.01734755961269851
8.496,0.01734392949071679
8.5,0.017341645639138894
8.504,0.017340299368735077
8.508000000000001,0.017351165694137298
8.512,0.0173446026259187
8.516,0.017332798719342395
8.52,0.01733251023282729
8.524000000000001,0.017339698355161946
8.528,0.01733729430086942
8.532,0.017337871273899626
8.536,0.017326812624154007
8.540000000000001,0.01733856844964446
8.544,0.017344266058317747
8.548,0.017332918922057024
8.552,0.01732537019157849
8.556000000000001,0.01733674136838214
8.56,0.01734301595008563
8.564,0.017325899083522844
8.568,0.017338616530730308
8.572000000000001,0.01734109270665161
8.576,0.017342487058141277
8.58,0.017344001612345568
8.584,0.01733561146286465
8.588000000000001,0.017347054761297078
8.592,0.017358257654300248
8.596,0.017332558313913143
8.6,0.017320682285708062
8.604000000000001,0.01732916859736068
8.608,0.017336404800781184
8.612,0.01733820784150058
8.616,0.017313205676858307
8.620000000000001,0.017313013352514905
8.624,0.017321788150682624
8.628,0.017323158461629365
8.632,0.017322076637197727
8.636000000000001,0.017319600461276428
8.64,0.017318999447703296
8.644,0.017319119650417922
8.648,0.017319720663991053
8.652000000000001,0.017319143690960846
8.656,0.017333760341059407
8.66,0.017338376125301057
8.664,0.01732267765077086
8.668000000000001,0.017316018420380563
8.672,0.017320682285708062
8.676,0.017328231016186597
8.68,0.0173353710574354
8.684000000000001,0.017322485326427457
8.688,0.01732916859736068
8.692,0.017334024787031586
8.696,0.017328447381072924
8.700000000000001,0.01731984086670568
8.704,0.0173285195027017
8.708,0.01732875990813095
8.712,0.017317821461099957
8.716,0.017313974974231913
8.72,0.01732008127213493
8.724,0.017337029854897244
8.728,0.017317292569155603
8.732,0.017314071136403614
8.736,0.017322148758826504
8.74,0.01733202942196879
8.744,0.017330803354279598
8.748,0.017321475623624596
8.752,0.017319600461276428
8.756,0.017331476489481506
8.76,0.017336428841324112
8.764,0.017334409435718387
8.768,0.0173332795302009
8.772,0.01732236512371283
8.776,0.01732597120515162
8.78,0.017329817692019665
8.784,0.01732135542090997
8.788,0.01732775020532809
8.792,0.017325682718636517
8.796,0.017318182069243834
8.8,0.017316210744723965
8.804,0.017315994379837638
8.808,0.017323519069773245
8.812,0.017323470988687393
8.816,0.017313470122830483
8.82,0.01729774760775736
8.824,0.01729983913499186
8.828,0.017302603797428266
8.832,0.017295607999437013
8.836,0.017310873744194554
8.84,0.017316956001554647
8.844,0.017306257959952904
8.848,0.017304358757061808
8.852,0.017309479392704892
8.856,0.01731606650146641
8.86,0.017329000313560203
8.864,0.01731750893404193
8.868,0.017314624068890897
8.872,0.017311017987452108
8.876,0.017304767446291537
8.88,0.017308734135874207
8.884,0.01729851690513097
8.888,0.01730649836538216
8.892,0.017303252892087246
8.896,0.017302315310913162
8.9,0.017304478959776437
8.904,0.01730902262238931
8.908,0.017313830730974363
8.912,0.01730760423035672
8.916,0.01730517613552127
8.92,0.01730969575759122
8.924,0.017320562082993436
8.928,0.017321403501995822
8.932,0.017310897784737482
8.936,0.017324240286061002
8.94,0.01733301508422872
8.944,0.017337414503584045
8.948,0.0173331833680292
8.952,0.01732044188027881
8.956,0.01733017830016354
8.96,0.017325899083522844
8.964,0.017305248257150043
8.968,0.017314335582375794
8.972,0.01732359119140202
8.976,0.017303853905660378
8.98,0.017306041595066577
8.984,0.017312340217312996
8.988,0.01731486447432015
8.992,0.017326812624154007
8.996,0.017320898650594392
9.0,0.017300512270193767
9.004,0.01731688387992587
9.008000000000001,0.017330779313736673
9.012,0.017321523704710448
9.016,0.017318855204445743
9.02,0.01732948112441871
9.024000000000001,0.01731916773150377
9.028,0.01732378351574542
9.032,0.017320105312677858
9.036,0.017321667947967998
9.040000000000001,0.017334746003319343
9.044,0.017326812624154007
9.048,0.01731536932572158
9.052,0.01731597033929471
9.056000000000001,0.017322244920998205
9.06,0.017325610597007744
9.064,0.01731791762327166
9.068,0.017302748040685816
9.072000000000001,0.01731390285260314
9.076,0.017306282000495832
9.08,0.017302459554170712
9.084,0.017311787284825717
9.088000000000001,0.017312821028171502
9.092,0.017313566285002184
9.096,0.017309984244106322
9.1,0.01729354051274544
9.104000000000001,0.01730046418910792
9.108,0.017317869542185806
9.112,0.017307484027642095
9.116,0.017304983811177867
9.120000000000001,0.017303926027289154
9.124,0.01731774933947118
9.128,0.017314672149976746
9.132,0.01730724362221284
9.136000000000001,0.017300488229650843
9.14,0.017314023055317766
9.144,0.017316907920468798
9.148,0.017316931961011722
9.152000000000001,0.017318302271958463
9.156,0.017314071136403614
9.16,0.017315273163549878
9.164,0.017315633771693758
9.168000000000001,0.0173170040826405
9.172,0.017327774245871015
9.176,0.017332750638256546
9.18,0.017316258825809814
9.184000000000001,0.01730450300031936
9.188,0.017305945432894876
9.192,0.01731171516319694
9.196,0.01731431154183287
9.200000000000001,0.017303108648829696
9.204,0.017300512270193767
9.208,0.017311931528083267
9.212,0.01730467128411984
9.216000000000001,0.01729988721607771
9.22,0.017310008284649247
9.224,0.01730608967615243
9.228,0.017300007418792337
9.232,0.017302675919057042
9.236,0.017300632472908393
9.24,0.01732460089420488
9.244,0.017326596259267676
9.248,0.017301281567567377
9.252,0.01730166621625418
9.256,0.017310681419851155
9.26,0.01730363754077405
9.264,0.017302675919057042
9.268,0.017307628270899645
9.272,0.017311017987452108
9.276,0.017306137757238278
9.28,0.01730887837913176
9.284,0.0173105371765936
9.288,0.017315393366264507
9.292,0.01730988808193462
9.296,0.017302002783855134
9.3,0.017299959337706484
9.304,0.01730952747379074
9.308,0.017316571352867842
9.312,0.017309407271076115
9.316,0.01730221914874146
9.32,0.017305200176064194
9.324,0.017316354987981515
9.328,0.017306979176240665
9.332,0.01729572820215164
9.336,0.01729568012106579
9.34,0.017305440581493445
9.344,0.017305632905836848
9.348,0.017296906188754978
9.352,0.01730664260863971
9.356,0.017304695324662764
9.36,0.017296665783325726
9.364,0.017295800323780416
9.368,0.017304599162491063
9.372,0.017312099811883745
9.376,0.017324072002260524
9.38,0.01731318163631538
9.384,0.017312292136227148
9.388,0.017327077070126182
9.392,0.01732337482651569
9.396,0.017314431744547495
9.4,0.017316018420380563
9.404,0.017306450284296306
9.408,0.017308974541303458
9.412,0.01730765231144257
9.416,0.017301690256797106
9.42,0.01730044014856499
9.424,0.01730080075670887
9.428,0.01729851690513097
9.432,0.01728517440380745
9.436,0.017287890985158004
9.44,0.0172968340671262
9.444,0.017296713864411575
9.448,0.017292506769399654
9.452,0.017287289971584872
9.456,0.017297435080699333
9.46,0.017305897351809027
9.464,0.017303204811001397
9.468,0.01730380582457453
9.472,0.017315681852779607
9.476,0.017317076204269272
9.48,0.017316907920468798
9.484,0.017312748906542726
9.488,0.017324985542891684
9.492,0.01732020147484956
9.496,0.017313518203916335
9.5,0.017310777582022853
9.504,0.017310585257679454
9.508000000000001,0.017305248257150043
9.512,0.017296521540068173
9.516,0.01728435702534799
9.52,0.017295006985863882
9.524000000000001,0.017299093878161177
9.528,0.01728942957990522
9.532,0.017291184539538765
9.536,0.017299574689019683
9.540000000000001,0.017294381931747826
9.544,0.017296401337353547
9.548,0.01729952660793383
9.552,0.017298396702416344
9.556000000000001,0.01731714832589805
9.56,0.0173147202310626
9.564,0.017303349054258947
9.568,0.017313686487716813
9.572000000000001,0.017322317042626982
9.576,0.017317629136756555
9.58,0.0173057771490944
9.584,0.017296545580611097
9.588000000000001,0.017305152094978342
9.592,0.017306209878867055
9.596,0.01729887751327485
9.6,0.017296545580611097
9.604000000000001,0.01729801205372954
9.608,0.017296545580611097
9.612,0.01727978932219219
9.616,0.017271038564567395
9.620000000000001,0.0172854148092367
9.624,0.01729248272885673
9.628,0.01728993443130665
9.632,0.017287217849956096
9.636000000000001,0.0173057771490944
9.64,0.01730664260863971
9.644,0.017312748906542726
9.648,0.017302507635256564
9.652000000000001,0.01730289228394337
9.656,0.017305536743665147
9.66,0.017303685621859903
9.664,0.017292795255914758
9.668000000000001,0.017310969906366255
9.672,0.01731628286635274
9.676,0.017311426676681837
9.68,0.01730084883779472
9.684000000000001,0.017289910390763726
9.688,0.017295151229121432
9.692,0.01730298844611507
9.696,0.0172919778774553
9.700000000000001,0.017302964405572142
9.704,0.01730414239217548
9.708,0.01731572993386546
9.712,0.017311931528083267
9.716000000000001,0.017302748040685816
9.72,0.017314359622918718
9.724,0.017324841299634134
9.728,0.017327846367499792
9.732,0.017322918056200114
9.736,0.01733303912477165
9.74,0.017338183800957654
9.744,0.01734186200402522
9.748,0.01733830400367228
9.752,0.017338135719871806
9.756,0.017342607260855902
9.76,0.017344746869176253
9.764,0.017337222179240643
9.768,0.017330659111022047
9.772,0.017330707192107896
9.776,0.017331139921880553
9.78,0.017341549476967193
9.784,0.017333207408572124
9.788,0.017341164828280388
9.792,0.017344482423204074
9.796,0.017331740935453685
9.8,0.017336452881867036
9.804,0.01735450732960391
9.808,0.017356646937924256
9.812,0.017350516599478314
9.816,0.017343520801487062
9.82,0.017341958166196922
9.824,0.017357055627153985
9.828,0.017358017248870997
9.832,0.01734354484202999
9.836,0.017343881409630942
9.84,0.01733354397617308
9.844,0.017330322543421095
9.848,0.017333928624859885
9.852,0.01732286997511426
9.856,0.017334265192460837
9.86,0.01734323231497196
9.864,0.017343665044744615
9.868,0.017344891112433803
9.872,0.01735328126191472
9.876,0.0173446026259187
9.88,0.01732948112441871
9.884,0.017341693720224743
9.888,0.01735181478879628
9.892,0.0173537380322303
9.896,0.017336428841324112
9.9,0.017339457949732694
9.904,0.017357776843441745
9.908,0.0173516465049958
9.912,0.017348112545185788
9.916,0.01735469965394731
9.92,0.017359940492305017
9.924,0.0173630657628853
9.928,0.017346670112610273
9.932,0.01734075613905066
9.936,0.01735191095096798
9.94,0.017356719059553032
9.944,0.017344794950262102
9.948,0.01734025128764923
9.952,0.01733789531444255
9.956,0.017354002478202478
9.96,0.017358930789502156
9.964,0.01734505939623428
9.968,0.01735034831567784
9.972,0.017356334410866227
9.976,0.017344169896146046
9.98,0.0173399387605912
9.984,0.017344025652888492
9.988,0.017342222612169098
9.992,0.01734429009886067
9.996,0.01733883289561664
10.0,0.017322797853485485
10.004,0.017341381193166715
10.008000000000001,0.01732830313781537
10.012,0.01731277294708565
10.016,0.017308854338588833
10.02,0.017316162663638113
10.024000000000001,0.01732455281311903
10.028,0.017328856070302653
10.032,0.017311907487540343
10.036,0.017319191772046695
10.040000000000001,0.017327269394469585
10.044,0.017328375259444147
10.048,0.017325490394293114
10.052,0.017330731232650824
10.056000000000001,0.017334265192460837
10.06,0.017339193503760515
10.064,0.017335034489834446
10.068,0.017341236949909165
10.072000000000001,0.01735534874860629
10.076,0.017360854032936177
10.08,0.01735217539694016
10.084,0.017352968734856693
10.088000000000001,0.017365397695549054
10.092,0.017381576980937754
10.096,0.017385038819118993
10.1,0.0173788603995872
10.104000000000001,0.017388885305987034
10.108,0.017396337874293868
10.112,0.017390592184534728
10.116,0.017393356846971134
10.120000000000001,0.017399895874646805
10.124,0.017399150617816123
10.128,0.017399318901616598
10.132,0.01740566560494887
10.136000000000001,0.01742641259349337
10.14,0.017466920908322442
10.144,0.01748398969379938
10.148,0.01750531365537409
10.152000000000001,0.01756652087766181
10.156,0.01773360265099239
10.16,0.01782868299826181
10.164,0.01783490949887945
10.168000000000001,0.017818489808061496
10.172,0.017811926739842898
10.176,0.017796829278885835
10.18,0.017771202060127504
10.184000000000001,0.017754445801708593
10.188,0.0177390358136935
10.192,0.017728890704579038
10.196,0.017700835390985256
10.200000000000001,0.0176844157001673
10.204,0.0176659525632007
10.208,0.017653595724137116
10.212,0.017627247289091028
10.216000000000001,0.017610106381985312
10.22,0.01759849479975241
10.224,0.017588469893352575
10.228,0.01757077605375958
10.232000000000001,0.017554404444027477
10.236,0.017540148402072797
10.24,0.01753485948262924
10.244,0.017512814304766772
10.248,0.01749449541105772
10.252,0.017498341897925762
10.256,0.01749605804634786
10.26,0.017481273112448827
10.264,0.017466247773120537
10.268,0.01746232916462372
10.272,0.01745744893440989
10.276,0.017457737420924994
10.28,0.01743384112125728
10.284,0.01742696552598065
10.288,0.017434394053744563
10.292,0.017431340904793053
10.296,0.017425114404175407
10.3,0.01742388833648622
10.304,0.017423407525627713
10.308,0.01741840709269926
10.312,0.0174153058626619
10.316,0.017409175524215958
10.32,0.017420955390249335
10.324,0.01741557030863408
10.328,0.017400977699078442
10.332,0.017399078496187347
10.336,0.01740302114522709
10.34,0.017405978132006898
10.344,0.017401266185593546
10.348,0.017378836359044275
10.352,0.017378283426556992
10.356,0.017381865467452857
10.36,0.01737357148014364
10.364,0.017362801316913125
10.368,0.017355589154035546
10.372,0.01735241580236941
10.376,0.017351213775223147
10.38,0.01734510747732013
10.384,0.017348641437130143
10.388,0.017361791614110264
10.392,0.017358017248870997
10.396,0.01734755961269851
10.4,0.017342583220312978
10.404,0.017348449112786744
10.408,0.017350011748076884
10.412,0.017349242450703274
10.416,0.01733501044929152
10.42,0.017337871273899626
10.424,0.01733815976041473
10.428,0.01732998597582014
10.432,0.017328783948673876
10.436,0.017322437245341608
10.44,0.01732111501548072
10.444,0.017316523271781993
10.448,0.017305392500407597
10.452,0.017309767879219992
10.456,0.017320682285708062
10.46,0.017312460420027622
10.464,0.017311739203739865
10.468,0.01731916773150377
10.472,0.01733159669219613
10.476,0.01733570762503635
10.48,0.01732486534017706
10.484,0.017321667947967998
10.488,0.017332053462511713
10.492,0.017336308638609483
10.496,0.017325899083522844
10.5,0.017332967003142873
10.504,0.01733428923300376
10.508000000000001,0.01732683666469693
10.512,0.017318638839559416
10.516,0.017310969906366255
10.52,0.017307844635785972
10.524000000000001,0.017314888514863076
10.528,0.017303757743488676
10.532,0.01729784376992906
10.536,0.01730075267562302
10.540000000000001,0.017306041595066577
10.544,0.017302507635256564
10.548,0.017295559918351164
10.552,0.01729700235092668
10.556000000000001,0.017303685621859903
10.56,0.017304575121948138
10.564,0.01730019974313574
10.568,0.017311546879396462
10.572000000000001,0.01731633094743859
10.576,0.017313662447173885
10.58,0.017309815960305844
10.584,0.01731017656844972
10.588000000000001,0.01731486447432015
10.592,0.017315657812236682
10.596,0.017298492864588046
10.6,0.017297266796898858
10.604000000000001,0.0173033971353448
10.608,0.017303469256973576
10.612,0.017294838702063404
10.616,0.017293155864058638
10.620000000000001,0.017296425377896472
10.624,0.017302050864940983
10.628,0.017295391634550687
10.632,0.017297819729386137
10.636000000000001,0.01730938323053319
10.64,0.017306786851897262
10.644,0.017299069837618253
10.648,0.017295968607580894
10.652000000000001,0.017298036094272464
10.656,0.017303276932630174
10.66,0.017299045797075325
10.664,0.017288588160902837
10.668000000000001,0.01728928533664767
10.672,0.017296665783325726
10.676,0.017299478526847982
10.68,0.017302411473084863
10.684000000000001,0.017299550648476755
10.688,0.0173034932975165
10.692,0.01729851690513097
10.696,0.01729053544487978
10.700000000000001,0.01729394920197517
10.704,0.017305152094978342
10.708,0.017300560351279616
10.712,0.017297435080699333
10.716000000000001,0.017290823931394885
10.72,0.017302603797428266
10.724,0.01731378264988851
10.728,0.01730262783797119
10.732000000000001,0.017288732404160387
10.736,0.017291497066596793
10.74,0.017301690256797106
10.744,0.017296305175181846
10.748000000000001,0.017288059268958482
10.752,0.017283924295575334
10.756,0.0172898863502208
10.76,0.017285991782266908
10.764,0.017277289105727962
10.768,0.017287746741900454
10.772,0.017296040729209667
10.776,0.017285967741723984
10.78,0.017281015389881377
10.784,0.017280534579022875
10.788,0.017288900687960865
10.792,0.01729363667491714
10.796,0.017282313579199342
10.8,0.017280342254679473
10.804,0.017290896053023662
10.808,0.017292434647770877
10.812,0.017291400904425092
10.816,0.01729147302605387
10.82,0.017297218715813006
10.824,0.01729933428359043
10.828,0.0172852224848933
10.832,0.017280318214136545
10.836,0.017296473458982324
10.84,0.01729851690513097
10.844,0.017285366728150852
10.848,0.017275846673152448
10.852,0.01728096730879553
10.856,0.01728558309303718
10.86,0.01728827563384481
10.864,0.01727719294355626
10.868,0.017274572524377408
10.872,0.017280414376308246
10.876,0.01728257802517152
10.88,0.01727974124110634
10.884,0.017281544281825736
10.888,0.01727700061921286
10.892,0.017280486497937023
10.896,0.017267985415615885
10.9,0.01726613429381064
10.904,0.0172852224848933
10.908,0.017277890119301094
10.912,0.017266879550641323
10.916,0.017262215685313824
10.92,0.017266470861411594
10.924,0.017273226253973595
10.928,0.017272000186284404
10.932,0.017256758482069787
10.936,0.017261302144682664
10.94,0.01726603813163894
10.944,0.017261181941968035
10.948,0.017256878684784413
10.952,0.01726399468549029
10.956,0.017269355726562626
10.96,0.017266014091096016
10.964,0.0172603886040515
10.968,0.017261614671740692
10.972,0.017277144862470412
10.976,0.017269475929277252
10.98,0.017248296210960096
10.984,0.017249353994848806
10.988,0.01725421018451971
10.992,0.017260797293281234
10.996,0.017264427415262948
11.0,0.017256566157726385
11.004,0.01725928273907694
11.008000000000001,0.01726202336097042
11.012,0.017253825535832906
11.016,0.01725435442777726
11.02,0.01725567665763815
11.024000000000001,0.017252310981628615
11.028,0.017248151967702543
11.032,0.017243560224003817
11.036,0.017243271737488717
11.040000000000001,0.01725680656315564
11.044,0.01724964248136391
11.048,0.017246397008069
11.052,0.017243824669975996
11.056000000000001,0.017251229157196978
11.06,0.01725000308950779
11.064,0.01724166102111272
11.068,0.01724009838582258
11.072000000000001,0.017247262467614308
11.076,0.017243992953776474
11.08,0.01723471330420732
11.084,0.01724594023775342
11.088000000000001,0.01724526710255151
11.092,0.017243415980746267
11.096,0.017235410479952154
11.1,0.01723437673660637
11.104000000000001,0.017245675791781243
11.108,0.01724923379213418
11.112,0.017239785858764553
11.116,0.017239521412792374
11.120000000000001,0.017244786291693008
11.124,0.017249882886793164
11.128,0.017250315616565818
11.132,0.01724882510290445
11.136000000000001,0.017246517210783626
11.14,0.01725384957637583
11.144,0.017247094183813833
11.148,0.01724461800789253
11.152000000000001,0.017252310981628615
11.156,0.017250844508510173
11.16,0.01723940121007775
11.164,0.01722771750621607
11.168000000000001,0.017228078114359946
11.172,0.0172307946957105
11.176,0.01722452011400701
11.18,0.017207523450158847
11.184000000000001,0.017212908531774106
11.188,0.01722274111383054
11.192,0.017223125762517343
11.196,0.01722247666785836
11.200000000000001,0.0172192792756493
11.204,0.01722298151925979
11.208,0.017231684195798735
11.212,0.017227645384587292
11.216000000000001,0.017218413816103992
11.22,0.01723274197968745
11.224,0.01722735689807219
11.228,0.017221082316368694
11.232000000000001,0.01722334212740367
11.236,0.017228005992731173
11.24,0.017233006425659628
11.244,0.017229857114536416
11.248000000000001,0.017221539086684275
11.252,0.017225746181696196
11.256,0.017230962979510978
11.26,0.01722577022223912
11.264,0.017227284776443412
11.268,0.017222116059714482
11.272,0.017226876087213683
11.276,0.017230169641594444
11.28,0.017227885790016544
11.284,0.017231035101139755
11.288,0.017247070143270905
11.292,0.01724396891323355
11.296,0.017237093317956923
11.3,0.017237093317956923
11.304,0.017236107655696987
11.308,0.01724471417006423
11.312,0.017235049871808274
11.316,0.017221587167770124
11.32,0.017227645384587292
11.324,0.017232982385116703
11.328,0.01722552981680987
11.332,0.0172260346682113
11.336,0.01722420758694898
11.34,0.01723024176322322
11.344,0.017225866384410822
11.348,0.017218245532303514
11.352,0.017225313451923543
11.356,0.017230001357793966
11.36,0.017222500708401287
11.364,0.017215240464437856
11.368,0.017223029600345642
11.372,0.017235963412439437
11.376,0.01724166102111272
11.38,0.017229063776619882
11.384,0.017228607006304304
11.388,0.0172306985335388
11.392,0.017231131263311456
11.396,0.017225481735724017
11.4,0.017220457262252638
11.404,0.017223967181519726
11.408,0.01722360657337585
11.412,0.017213365302089684
11.416,0.01721237963982975
11.42,0.017224904762693814
11.424,0.017224183546406053
11.428,0.017212547923630226
11.432,0.0172124277209156
11.436,0.017223558492289997
11.44,0.017227765587301918
11.444,0.017228030033274097
11.448,0.017213389342632612
11.452,0.017221851613742303
11.456,0.017233222790545955
11.46,0.017231876520142138
11.464,0.017224183546406053
11.468,0.01722932822259206
11.472,0.017229087817162807
11.476,0.017227789627844842
11.48,0.017221803532656454
11.484,0.01722658760069858
11.488,0.01723233329045772
11.492,0.017228438722503826
11.496,0.01721588955909684
11.5,0.017211850747885393
11.504,0.017222043938085706
11.508000000000001,0.017223005559802718
11.512,0.017223053640888566
11.516,0.017216250167240717
11.52,0.017225241330294766
11.524000000000001,0.01722567406006742
11.528,0.017217380072758203
11.532,0.017216105923983167
11.536,0.017225890424953746
11.540000000000001,0.017222548789487136
11.544,0.017217644518730382
11.548,0.017212307518200975
11.552,0.017220216856823387
11.556000000000001,0.017235458561038006
11.56,0.017224303749120682
11.564,0.017213389342632612
11.568,0.017215697234753437
11.572000000000001,0.01722512112758014
11.576,0.01722819831707457
11.58,0.0172237508166334
11.584,0.017218101289045964
11.588000000000001,0.017227116492642938
11.592,0.017224832641065037
11.596,0.017215144302266155
11.6,0.017222717073287614
11.604000000000001,0.017230121560508595
11.608,0.017223510411204148
11.612,0.01721923119456345
11.616,0.01721846189718984
11.620000000000001,0.017222717073287614
11.624,0.017235578763752632
11.628,0.017224904762693814
11.632,0.017217692599816235
11.636000000000001,0.017218558059361542
11.64,0.017223558492289997
11.644,0.017225000924865515
11.648,0.017221274640712096
11.652000000000001,0.01721949564053563
11.656,0.017228607006304304
11.66,0.01722543365463817
11.664,0.017220625546053116
11.668000000000001,0.017235001790722425
11.672,0.017234184412262966
11.676,0.017221755451570602
11.68,0.017210985288340086
11.684000000000001,0.0172192792756493
11.688,0.017229977317251042
11.692,0.017230097519965668
11.696,0.017219663924336104
11.700000000000001,0.01721786088361671
11.704,0.01722663568178443
11.708,0.01723461714203562
11.712,0.01723293430403085
11.716000000000001,0.017225073046494288
11.72,0.017226323154726404
11.724,0.017231131263311456
11.728,0.01722319788414612
11.732000000000001,0.017222500708401287
11.736,0.017235410479952154
11.74,0.017233487236518134
11.744,0.017227068411557085
11.748000000000001,0.017222380505686658
11.752,0.017227477100786814
11.756,0.0172372616017574
11.76,0.017240531115595235
11.764000000000001,0.017229616709107165
11.768,0.017228558925218452
11.772,0.017234737344750246
11.776,0.01722819831707457
11.78,0.01722947246584961
11.784,0.01722435183020653
11.788,0.0172326938986016
11.792,0.01724118021025422
11.796,0.01723730968284325
11.8,0.01724106000753959
11.804,0.01725435442777726
11.808,0.01724663741349825
11.812,0.017237429885557876
11.816,0.017244425683549128
11.82,0.01725233502217154
11.824,0.017249378035391734
11.828,0.017250940670681874
11.832,0.017240170507451358
11.836,0.017239425250620673
11.84,0.017238896358676318
11.844,0.01723649230438379
11.848,0.017238367466731963
11.852,0.01723932908844897
11.856,0.017234496939320994
11.86,0.01722288535708809
11.864,0.01722324596523197
11.868,0.01723589129081066
11.872,0.01724344002128919
11.876,0.01723228520937187
11.88,0.01723004943887982
11.884,0.01723384784466201
11.888,0.017242141831971227
11.892,0.01724771923792989
11.896,0.017244593967349606
11.9,0.01724512285929396
11.904,0.01725005117059364
11.908,0.017248151967702543
11.912,0.017242670723915585
11.916,0.01723923292627727
11.92,0.017233727641947385
11.924,0.017230530249738325
11.928,0.01722552981680987
11.932,0.01722307768143149
11.936,0.017232645817515747
11.94,0.017236876953070596
11.944,0.017229400344220835
11.948,0.017225409614095244
11.952,0.017234136331177114
11.956,0.01724065131830986
11.96,0.01724086768319619
11.964,0.017231876520142138
11.968,0.01723656442601257
11.972,0.01723370360140446
11.976,0.017234232493348815
11.98,0.017235650885381405
11.984,0.017238655953247063
11.988,0.017234136331177114
11.992,0.017229111857705735
11.996,0.017219447559449777
12.0,0.017218005126874263
12.004,0.01721848593773277
12.008000000000001,0.01722024089736631
12.012,0.01720680223387109
12.016,0.017210817004539608
12.02,0.017226130830383
12.024000000000001,0.01723305450674548
12.028,0.017238920399219242
12.032,0.017247935602816216
12.036,0.01726216760422797
12.040000000000001,0.017263033063773282
12.044,0.01725041177873752
12.048,0.017244906494407634
12.052,0.017255147765693795
12.056000000000001,0.017246084481010972
12.06,0.017240579196681087
12.064,0.017237333723386174
12.068,0.01724360830508967
12.072000000000001,0.017251397440997455
12.076,0.017244593967349606
12.08,0.017227765587301918
12.084,0.01722415950586313
12.088000000000001,0.0172374539261008
12.092,0.01723913676410557
12.096,0.017236083615154062
12.1,0.017229352263134986
12.104000000000001,0.017231852479599213
12.108,0.017227477100786814
12.112,0.017222548789487136
12.116,0.017233367033803508
12.120000000000001,0.017245050737665184
12.124,0.017241348494054693
12.128,0.017234328655520516
12.132,0.017231131263311456
12.136000000000001,0.017233535317603983
12.14,0.01724077152102449
12.144,0.01723324683108888
12.148,0.017216706937556298
12.152000000000001,0.01721598572126854
12.156,0.017223630613918774
12.16,0.017222789194916387
12.164,0.017222620911115913
12.168000000000001,0.017218029167417187
12.172,0.01722644335744103
12.176,0.017222548789487136
12.18,0.017217692599816235
12.184000000000001,0.01722771750621607
12.188,0.017237622209901278
12.192,0.01722709245210001
12.196,0.017225818303324973
12.200000000000001,0.017225986587125448
12.204,0.01724005030473673
12.208,0.017243656386175518
12.212,0.017232862182402078
12.216000000000001,0.017228486803589675
12.22,0.01723343915543228
12.224,0.01722932822259206
12.228,0.017218534018818617
12.232000000000001,0.017217428153844055
12.236,0.017211033369425935
12.24,0.01721745219438698
12.244,0.017209879423365524
12.248000000000001,0.01719932562502133
12.252,0.017213172977746282
12.256,0.017219351397278076
12.26,0.017215552991495884
12.264000000000001,0.01720831678807538
12.268,0.017207283044729595
12.272,0.01721735603221528
12.276,0.017219567762164403
12.280000000000001,0.01720151331442753
12.284,0.017201561395513383
12.288,0.017206273341926735
12.292,0.01719706581398636
12.296,0.01718944496187905
12.3,0.017190671029568238
12.304,0.01719141628639892
12.308,0.017188699705048365
12.312,0.017179876825794794
12.316,0.017183218461261404
12.32,0.01720511939586632
12.324,0.017203821206548356
12.328,0.017194854084037235
12.332,0.017197931273531666
12.336,0.017204326057949786
12.34,0.017211802666799544
12.344,0.017215745315839286
12.348,0.01720663395007061
12.352,0.017217259870043577
12.356,0.017225000924865515
12.36,0.01721877442424787
12.364,0.01721949564053563
12.368,0.017225193249208914
12.372,0.017224447992378232
12.376,0.017219543721621478
12.38,0.017205768490525304
12.384,0.017207835977216875
12.388,0.017221442924512574
12.392,0.01721516834280908
12.396,0.01720694647712864
12.4,0.017204927071522918
12.404,0.017217067545700175
12.408,0.01721754835655868
12.412,0.017211898828971246
12.416,0.017208797598933886
12.42,0.017221370802883797
12.424,0.017224640316721634
12.428,0.017224544154549933
12.432,0.017230674492995875
12.436,0.017231131263311456
12.44,0.017228438722503826
12.444,0.017216971383528474
12.448,0.01721485581575105
12.452,0.017220817870396518
12.456,0.017231443790369484
12.46,0.01721685118081385
12.464,0.017206249301383807
12.468,0.017209446693592867
12.472,0.017214447126521322
12.476,0.01720598485541163
12.48,0.017197979354617518
12.484,0.017202883625374272
12.488,0.01720740324744422
12.492,0.017205167476952173
12.496,0.017203676963290806
12.5,0.017213461464261386
12.504,0.017213461464261386
12.508000000000001,0.01720858123404756
12.512,0.017201657557685084
12.516,0.017208244666446604
12.52,0.01721257196417315
12.524000000000001,0.01721805320796011
12.528,0.017203508679490328
12.532,0.017203508679490328
12.536,0.0172102400315094
12.540000000000001,0.017213990356205744
12.544,0.017214591369778875
12.548,0.017216586734841673
12.552,0.017227332857529264
12.556000000000001,0.017254570792663588
12.56,0.017254955441350393
12.564,0.017252527346514942
12.568,0.017260580928394904
12.572000000000001,0.017256253630668357
12.576,0.01723644422329794
12.58,0.01723115530385438
12.584,0.017238607872161214
12.588000000000001,0.01724771923792989
12.592,0.017248416413674722
12.596,0.01722658760069858
12.6,0.017229568628021313
12.604000000000001,0.017236420182755015
12.608,0.017228799330647703
12.612,0.017230073479422743
12.616,0.017225962546582523
12.620000000000001,0.017224784559979184
12.624,0.017221779492113527
12.628,0.01721117761268349
12.632,0.017216562694298745
12.636000000000001,0.017233415114889357
12.64,0.01723305450674548
12.644,0.01722485668160796
12.648,0.017224327789663606
12.652000000000001,0.017234641182578544
12.656,0.017237477966643728
12.66,0.017236227858411612
12.664,0.01723233329045772
12.668000000000001,0.01723882423704754
12.672,0.01723663654764134
12.676,0.017231588033627034
12.68,0.01723394400683371
12.684000000000001,0.017235242196151676
12.688,0.017244497805177905
12.692,0.017244690129521307
12.696,0.01723932908844897
12.700000000000001,0.017241805264370275
12.704,0.01725269563031542
12.708,0.01724757499467234
12.712,0.01724178122382735
12.716000000000001,0.017253056238459297
12.72,0.017253993819633384
12.724,0.017255195846779647
12.728,0.017242069710342454
12.732000000000001,0.01724187738599905
12.736,0.017245194980922737
12.74,0.0172420216292566
12.744,0.01723812706130271
12.748000000000001,0.017230962979510978
12.752,0.0172326938986016
12.756,0.017237093317956923
12.76,0.017227525181872667
12.764000000000001,0.017224832641065037
12.768,0.01723192460122799
12.772,0.017233919966290787
12.776,0.017220817870396518
12.780000000000001,0.01721588955909684
12.784,0.017221034235282845
12.788,0.017225505776266945
12.792,0.017225553857352794
12.796000000000001,0.017210720842367907
12.8,0.017212884491231182
12.804,0.017222380505686658
12.808,0.017221587167770124
12.812,0.01721576935638221
12.816,0.017222043938085706
12.82,0.01721846189718984
12.824,0.017216658856470446
12.828,0.017209013963820213
12.832,0.017209446693592867
12.836,0.017214735613036426
12.84,0.01721579339692514
12.844,0.017196368638241526
12.848,0.017187353434644552
12.852,0.01718680050215727
12.856,0.017183506947776508
12.86,0.017181391379999085
12.864,0.017171005865455374
12.868,0.017170933743826597
12.872,0.017171510716856804
12.876,0.017171703041200203
12.88,0.01717021252753884
12.884,0.01718192027194344
12.888,0.017182064515200993
12.892,0.017180982690769356
12.896,0.01717725640661594
12.9,0.017175309122638992
12.904,0.01718648797509924
12.908,0.017183338663976033
12.912,0.017166462202842497
12.916,0.01717127031142755
12.92,0.0171852138263242
12.924,0.017190574867396537
12.928,0.01718843525907619
12.932,0.017176222663270155
12.936,0.017177112163358387
12.94,0.017184348366778894
12.944,0.017175669730782873
12.948,0.01717547740643947
12.952,0.017181848150314667
12.956,0.017177328528244717
12.96,0.01717004424373836
12.964,0.01716557270275426
12.968,0.01717381860897763
12.972,0.017187738083331357
12.976,0.017175261041553144
12.98,0.01716153389154282
12.984,0.01716761614890291
12.988,0.01717278486563184
12.992,0.017171342433056326
12.996,0.017165043810809907
13.0,0.017156797904586542
13.004,0.01716660644610005
13.008000000000001,0.017164370675608
13.012,0.017158480742591308
13.016,0.017166822810986377
13.02,0.01718127117728446
13.024000000000001,0.017188795867220066
13.028,0.017176102460555526
13.032,0.017176919839014988
13.036,0.017196560962584928
13.040000000000001,0.017198748651991124
13.044,0.017190646989025313
13.048,0.017196705205842478
13.052,0.01719918138176378
13.056000000000001,0.017200936341397324
13.06,0.017199541989907658
13.064,0.017209807301736747
13.068,0.017217259870043577
13.072000000000001,0.01722298151925979
13.076,0.017209542855764568
13.08,0.01719273851625981
13.084,0.01720913416653484
13.088000000000001,0.0172080523421032
13.092,0.017192137502686677
13.096,0.01718422816406427
13.1,0.017179323893307515
13.104000000000001,0.017192305786487155
13.108,0.017209013963820213
13.112,0.017194806002951382
13.116,0.017195094489466486
13.120000000000001,0.017203869287634208
13.124,0.01720511939586632
13.128,0.017202354733429914
13.132,0.01720447030120734
13.136000000000001,0.01720396544980591
13.14,0.01719807551678922
13.144,0.017198147638417993
13.148,0.017195334894895737
13.152000000000001,0.017210624680196206
13.156,0.01719603207064057
13.16,0.01718151158271371
13.164,0.017191055678255043
13.168000000000001,0.017203051909174746
13.172,0.017213124896660433
13.176,0.017209975585537225
13.18,0.017200167044023718
13.184000000000001,0.017210360234224027
13.188,0.017210865085625457
13.192,0.017208773558390962
13.196,0.017215048140094454
13.200000000000001,0.01721576935638221
13.204,0.017217788761987936
13.208,0.017211850747885393
13.212,0.01720841295024708
13.216000000000001,0.01721978412705073
13.22,0.01723132358765486
13.224,0.01722040918116679
13.228,0.01720771577450225
13.232000000000001,0.01720973518010797
13.236,0.017218245532303514
13.24,0.017215745315839286
13.244,0.01721060063965328
13.248000000000001,0.017189276678078572
13.252,0.0172010084630261
13.256,0.017200070881852016
13.26,0.01718557443446808
13.264000000000001,0.01719305104331784
13.268,0.01719521469218111
13.272,0.017193411651461717
13.276,0.017190118097080955
13.280000000000001,0.017177448730959343
13.284,0.017184324326235966
13.288,0.01719410882720655
13.292,0.017179155609507037
13.296000000000001,0.017176919839014988
13.3,0.01717853055539098
13.304,0.0171802614744816
13.308,0.017176583271414032
13.312000000000001,0.01717506871720974
13.316,0.017162832080860783
13.32,0.01717405901440688
13.324,0.017169467270708155
13.328,0.017162519553802755
13.332,0.01718699282650067
13.336,0.017189012232106393
13.34,0.017189372840250274
13.344,0.017183314623433105
13.348,0.017184011799177938
13.352,0.01719538297598159
13.356,0.017196825408557104
13.36,0.01718365119103406
13.364,0.01717903540679241
13.368,0.01718564655609686
13.372,0.01718629565075584
13.376,0.017184444528950595
13.38,0.017185165745238352
13.384,0.017188002529303532
13.388,0.017186680299442644
13.392,0.017185862920983185
13.396,0.017179203690592885
13.4,0.017190983556626266
13.404,0.01718725727247285
13.408,0.017179251771678738
13.412,0.01717081354111197
13.416,0.017168289284104816
13.42,0.017183747353205762
13.424,0.017187497677902102
13.428,0.017175092757752666
13.432,0.017176943879557913
13.436,0.017195407016524514
13.44,0.017194084786663625
13.444,0.017195431057067438
13.448,0.017197955314074594
13.452,0.01719343569200464
13.456,0.017194661759693832
13.46,0.01718790636713183
13.464,0.017190743151197015
13.468,0.017210889126168385
13.472,0.01721334126154676
13.476,0.017199950679137387
13.48,0.01720237877397284
13.484,0.01720740324744422
13.488,0.017215096221180306
13.492,0.017206105058126257
13.496,0.017200022800766164
13.5,0.017202450895601615
13.504,0.017207884058302727
13.508000000000001,0.017203893328177133
13.512,0.01720923032870654
13.516,0.01720949477467872
13.52,0.01722694820884246
13.524000000000001,0.017227669425130217
13.528,0.017218149370131813
13.532,0.017229616709107165
13.536,0.01724168506165565
13.540000000000001,0.017235819169181883
13.544,0.017235362398866305
13.548,0.017242382237400482
13.552,0.017249762684078535
13.556000000000001,0.017266350658696968
13.56,0.017274115754061826
13.564,0.0172669516722701
13.568,0.017281135592596007
13.572000000000001,0.017293420310030814
13.576,0.017303853905660378
13.58,0.017304767446291537
13.584,0.017307219581669916
13.588000000000001,0.017317076204269272
13.592,0.01732212471828358
13.596,0.017329288800075306
13.6,0.017347968301928238
13.604000000000001,0.017358738465158754
13.608,0.017367320938983074
13.612,0.017374028250459222
13.616,0.017409896740503715
13.620000000000001,0.017470118300531502
13.624,0.017494423289428945
13.628,0.017473315692740563
13.632,0.01744643836575012
13.636000000000001,0.017440692675990983
13.64,0.017420955390249335
13.644,0.01739292411719848
13.648,0.01737434077751725
13.652000000000001,0.017365397695549054
13.656,0.017361863735739037
13.66,0.017348449112786744
13.664,0.017338736733444937
13.668000000000001,0.017342727463570528
13.672,0.017320898650594392
13.676,0.017305536743665147
13.68,0.017297386999613484
13.684000000000001,0.017298685188931448
13.688,0.017303517338059425
13.692,0.017281928930512537
13.696,0.017268538348103168
13.700000000000001,0.017258056671387752
13.704,0.01725832111735993
13.708,0.017243944872690622
13.712,0.017227236695357563
13.716000000000001,0.01722721265481464
13.72,0.01721401439674867
13.724,0.01721201903168587
13.728,0.017190671029568238
13.732000000000001,0.017182328961173172
13.736,0.017199013097963303
13.74,0.01718867566450544
13.744,0.01717843439321928
13.748000000000001,0.017178819041906084
13.752,0.017189156475363947
13.756,0.017186415853470464
13.76,0.017177544893131044
13.764000000000001,0.017167063216415628
13.768,0.017186704339985568
13.772,0.017185550393925157
13.776,0.01718059804208255
13.780000000000001,0.017175357203724845
13.784,0.01717228001423041
13.788,0.017171654960114354
13.792,0.01716391390529242
13.796000000000001,0.01715487466115252
13.8,0.01715876922910641
13.804,0.01715812013444743
13.808,0.017155259309839323
13.812000000000001,0.017152278282516593
13.816,0.017149657863337737
13.82,0.01716146176991404
13.824,0.017174948514495116
13.828,0.017169611513965708
13.832,0.01716812100030434
13.836,0.01718223279900147
13.84,0.017185550393925157
13.844,0.0171713183925134
13.848,0.017181703907057113
13.852,0.017177112163358387
13.856,0.017174275379293207
13.86,0.0171597068102805
13.864,0.01715879326964934
13.868,0.017172977189975243
13.872,0.017181824109771742
13.876,0.017164034108007046
13.88,0.017141339835485596
13.884,0.017149465538994334
13.888,0.01713593071332741
13.892,0.01711655403572965
13.896,0.017114246143608826
13.9,0.01711746757636081
13.904,0.017129872496510247
13.908,0.01713208422645937
13.912,0.01712453549598084
13.916,0.01713071391551263
13.92,0.017139080024450623
13.924,0.017129439766737593
13.928,0.017118717684592926
13.932,0.017119342738708982
13.936,0.01714030609213981
13.94,0.01714020992996811
13.944,0.017129848455967323
13.948,0.017135209497039654
13.952,0.017138719416306743
13.956,0.01712746844221772
13.96,0.01712184295517321
13.964,0.01712843006393473
13.968,0.017125256712268597
13.972,0.017129728253252693
13.976,0.0171277328881899
13.98,0.017110279454026156
13.984,0.01712751652330357
13.988,0.017130112901939498
13.992,0.017123333468834576
13.996,0.017127756928732824
14.0,0.017135714348441085
14.004,0.01713391130772169
14.008000000000001,0.01712542499606907
14.012,0.017123694076978453
14.016,0.017127588644932346
14.02,0.017131651496686717
14.024000000000001,0.01712746844221772
14.028,0.017128454104477657
14.032,0.017122203563317086
14.036,0.017114101900351272
14.040000000000001,0.01711720313038863
14.044,0.01710705802127417
14.048,0.017116770400615978
14.052,0.01713376706446414
14.056000000000001,0.017118597481878297
14.06,0.01712400660403648
14.064,0.01712143426594348
14.068,0.017131050483113586
14.072000000000001,0.017138815578478444
14.076,0.01713376706446414
14.08,0.017124751860867166
14.084,0.017129872496510247
14.088000000000001,0.017144969957467313
14.092,0.01714364772760642
14.096,0.017145210362896564
14.1,0.017145066119639014
14.104000000000001,0.017147590376646166
14.108,0.017139777200195456
14.112,0.017133598780663662
14.116,0.017144561268237584
14.120000000000001,0.01714578733592677
14.124,0.017130906239856032
14.128,0.017122011238973684
14.132,0.017117563738532512
14.136000000000001,0.017124896104124716
14.14,0.017135401821383057
14.144,0.017115928981613595
14.148,0.017115207765325834
14.152000000000001,0.01712864642882106
14.156,0.017126386617786083
14.16,0.017129920577596096
14.164,0.017121049617256676
14.168000000000001,0.01712504034738227
14.172,0.017124655698695465
14.176,0.017121698711915656
14.18,0.017112274819088953
14.184000000000001,0.01712814157741963
14.188,0.017132204429173997
14.192,0.017120376482054767
14.196,0.017106481048243964
14.200000000000001,0.017113548967863993
14.204,0.01713066583442678
14.208,0.017129872496510247
14.212,0.017117539697989587
14.216000000000001,0.017113813413836172
14.22,0.017109269751223295
14.224,0.01711039965674078
14.228,0.017100374750340947
14.232000000000001,0.01710991884588228
14.236,0.017109630359367176
14.24,0.017112370981260654
14.244,0.01709210480357466
14.248000000000001,0.017096768668902158
14.252,0.017111818048773375
14.256,0.017103500020921234
14.26,0.01710025454762632
14.264000000000001,0.017108308129506287
14.268,0.01711965526576701
14.272,0.01711047177836956
14.276,0.017108260048420434
14.280000000000001,0.01710325961549198
14.284,0.01710402891286559
14.288,0.017114823116639033
14.292,0.017115856859984818
14.296000000000001,0.017103403858749533
14.3,0.017109726521538877
14.304,0.017111769967687523
14.308,0.017103548102007083
14.312000000000001,0.0170936674388648
14.316,0.017094653101124735
14.32,0.017104653966981645
14.324,0.017105110737297227
14.328000000000001,0.01708741689770423
14.332,0.01708696012738865
14.336,0.017090758533170842
14.34,0.01708924397896655
14.344,0.017092032681945882
14.348,0.01708833043833539
14.352,0.01709422037135208
14.356,0.017094244411895006
14.36,0.017085084965040482
14.364,0.01708676780304525
14.368,0.017099821817853668
14.372,0.01710850045384969
14.376,0.017092489452261463
14.38,0.017095855128270998
14.384,0.01710828408896336
14.388,0.017110880467599288
14.392,0.017097273520303588
14.396,0.017087897708562737
14.4,0.017098114939305974
14.404,0.017107923480819482
14.408,0.01708708033010328
14.412,0.01708563789752776
14.416,0.017083955059522992
14.42,0.017095710885013448
14.424,0.017092225006289284
14.428,0.01708179141065972
14.432,0.0170912874251152
14.436,0.01708977287091091
14.44,0.0170847243568966
14.444,0.017085469613727287
14.448,0.01708169524848802
14.452,0.017094556938953034
14.456,0.017110856427056363
14.46,0.017104990534582597
14.464,0.017098571709621552
14.468,0.01710006222328292
14.472,0.017113693211121543
14.476,0.017104870331867972
14.48,0.01710691377801662
14.484,0.017094460776781333
14.488,0.017100903642285305
14.492,0.01709453289841011
14.496,0.017092657736061938
14.5,0.017096432101301205
14.504,0.017092681776604866
14.508000000000001,0.017081454843058768
14.512,0.017074507126153365
14.516,0.01708640719490137
14.52,0.017094436736238408
14.524000000000001,0.01709025368176941
14.528,0.01708530132992681
14.532,0.01709763412844747
14.536,0.01710006222328292
14.540000000000001,0.017102610520833
14.544,0.017105158818383075
14.548,0.017101216169343333
14.552,0.017111794008230447
14.556000000000001,0.017108163886248733
14.56,0.017101817182916465
14.564,0.01709809089876305
14.568,0.017105759831956207
14.572000000000001,0.01709133550620105
14.576,0.017085613856984837
14.58,0.017077055423703445
14.584,0.01708311364052061
14.588000000000001,0.01709188843868833
14.592,0.017087489019333008
14.596,0.017061429070802023
14.6,0.0170708289230858
14.604000000000001,0.0170890035735373
14.608,0.017076021680357656
14.612,0.017070059625712192
14.616,0.017083762735179593
14.620000000000001,0.017087152451732052
14.624,0.017084291627123948
14.628,0.01708667164087355
14.632,0.017094244411895006
14.636000000000001,0.017101144047714557
14.64,0.017089388222224104
14.644,0.01708280111346258
14.648,0.017084363748752725
14.652000000000001,0.017082224140432374
14.656,0.017083906978437143
14.66,0.017080397059170055
14.664,0.017069482652681985
14.668000000000001,0.017069626895939535
14.672,0.01707104528797213
14.676,0.017061813719488825
14.68,0.01706195796274638
14.684000000000001,0.017067246882189937
14.688,0.017065876571243196
14.692,0.01706174159786005
14.696,0.017063761003465773
14.700000000000001,0.017076694815559564
14.704,0.017086743762502323
14.708,0.017078714221165286
14.712,0.017075564910042078
14.716000000000001,0.01708010857265495
14.72,0.017087392857161307
14.724,0.017085181127212183
14.728,0.017081623126859243
14.732000000000001,0.017076935220988815
14.736,0.017082825154005506
14.74,0.017083426167578637
14.744,0.01707926715365257
14.748000000000001,0.01707914695093794
14.752,0.017072583882719344
14.756,0.017077632396733648
14.76,0.01706977113919709
14.764000000000001,0.017068376787707423
14.768,0.01707631016687276
14.772,0.017078305531935557
14.776,0.017065924652329045
14.780000000000001,0.01706164543568835
14.784,0.017068400828250348
14.788,0.0170824405053187
14.792,0.017075108139726496
14.796000000000001,0.017069338409424435
14.8,0.017076117842529357
14.804,0.01708883528973682
14.808,0.017079315234738417
14.812000000000001,0.0170640735305238
14.816,0.01707885846442284
14.82,0.01708294535672013
14.824,0.017077103504789293
14.828000000000001,0.01705767874610568
14.832,0.017066044855043674
14.836,0.01707926715365257
14.84,0.017075228342441122
14.844000000000001,0.017069650936482463
14.848,0.01707599763981473
14.852,0.01707772855890535
14.856,0.017067895976848917
14.86,0.017067294963275786
14.864,0.01706758344979089
14.868,0.017077103504789293
14.872,0.017084003140608844
14.876,0.017074170558552412
14.88,0.017067294963275786
14.884,0.017085878302957016
14.888,0.017080949991657334
14.892,0.01707493985592602
14.896,0.017064963030612036
14.9,0.017073809950408532
14.904,0.01708782558693396
14.908,0.017078473815736035
14.912,0.017068929720194703
14.916,0.017069723058111236
14.92,0.01707061255819947
14.924,0.017074002274751934
14.928,0.017082007775546047
14.932,0.017079820086139848
14.936,0.017081166356543664
14.94,0.017075733193842552
14.944,0.017074050355837787
14.948,0.01708616678947212
14.952,0.017095927249899775
14.956,0.017084195464952247
14.96,0.01707104528797213
14.964,0.017074915815383094
14.968,0.01708193565391727
14.972,0.017098619790707405
14.976,0.017084363748752725
14.98,0.0170732089368354
14.984,0.01708119039708659
14.988,0.017079940288854473
14.992,0.017076069761443508
14.996,0.017080132613197876
15.0,0.017074867734297245
15.004,0.017075372585698675
15.008000000000001,0.017076238045243983
15.012,0.017072680044891046
15.016,0.017092152884660507
15.02,0.017102273953232043
15.024000000000001,0.01710850045384969
15.028,0.017110351575654933
15.032,0.017115928981613595
15.036,0.01712828582067718
15.040000000000001,0.01714081094354124
15.044,0.01713583455115571
15.048,0.01713066583442678
15.052,0.01714980210659529
15.056000000000001,0.01715400920160721
15.06,0.017155643958526128
15.064,0.017165284216239158
15.068,0.017161822378057922
15.072000000000001,0.01716852968953407
15.076,0.017170981824912446
15.08,0.017190526786310684
15.084,0.017235819169181883
15.088000000000001,0.017284044498289963
15.092,0.017347727896498983
15.096,0.017444563203401948
15.1,0.01754584601074608
15.104000000000001,0.017588734339324754
15.108,0.017594263664197564
15.112,0.017600345921557653
15.116,0.017650999345501187
15.120000000000001,0.01768092982144314
15.124,0.01768792561943439
15.128,0.017688767038436776
15.132,0.017685761970571118
15.136000000000001,0.017691940390102908
15.14,0.017664702454968588
15.144,0.01764621527745906
15.148,0.017647874074920904
15.152000000000001,0.01764696053428974
15.156,0.017630156194784984
15.16,0.017608712030495646
15.164,0.017604577057112502
15.168000000000001,0.017596138826545732
15.172,0.017572122324163397
15.176,0.01754647106486214
15.18,0.0175271184278073
15.184000000000001,0.01752906571178425
15.188,0.017513799967026705
15.192,0.017504472236371704
15.196,0.017503150006510815
15.200000000000001,0.017511516115448808
15.204,0.01750057766841781
15.208,0.017473051246768387
15.212,0.01746064632661895
15.216000000000001,0.01747389266577077
15.22,0.017464709178373318
15.224,0.017443361176255685
15.228,0.017426604917836774
15.232000000000001,0.017417709916954426
15.236,0.01742605198534949
15.24,0.017414199997687337
15.244,0.017397371617639653
15.248000000000001,0.01738256264319769
15.252,0.017376047656064944
15.256,0.017356646937924256
15.26,0.017344578585375775
15.264000000000001,0.01735967604633284
15.268,0.01736073383022155
15.272,0.017347271126183405
15.276,0.017340924422851133
15.280000000000001,0.01733957815244732
15.284,0.017351285896851924
15.288,0.017369292263502947
15.292,0.017360950195107878
15.296000000000001,0.01735662289738133
15.3,0.01736575830369293
15.304,0.017361022316736655
15.308,0.017339385828103918
15.312000000000001,0.017335851868293905
15.316,0.017336549044038738
15.32,0.017338736733444937
15.324,0.01733962623353317
15.328000000000001,0.01734368908528754
15.332,0.017370686614992612
15.336,0.017384413765002937
15.34,0.01737073469607846
15.344000000000001,0.01735739219475494
15.348,0.017377922818413116
15.352,0.017431388985878905
15.356,0.01744151005445044
15.36,0.01741658001143694
15.364,0.017402035482967156
15.368,0.01739653019863727
15.372,0.01738150485930898
15.376,0.017357007546068136
15.38,0.017352656207798665
15.384,0.017339049260502965
15.388,0.017333904584316957
15.392,0.017315441447350356
15.396,0.017307820595243047
15.4,0.017299598729562608
15.404,0.01729577628323749
15.408,0.017277072740841636
15.412,0.017255412211665974
15.416,0.01725618150903958
15.42,0.01725887404984721
15.424,0.017240891723739115
15.428,0.01723379976357616
15.432,0.017229256100963285
15.436,0.01722887145227648
15.44,0.017218029167417187
15.444,0.017215721275296362
15.448,0.01720177776039971
15.452,0.017195142570552335
15.456,0.01719242598920178
15.46,0.01717699196064376
15.464,0.017177088122815463
15.468,0.01718167986651419
15.472,0.017172616581831366
15.476,0.01715775952630355
15.48,0.01716045206711118
15.484,0.01717163091957143
15.488,0.0171644668377797
15.492,0.01714254186263186
15.496,0.01713174765885842
15.5,0.017135353740297208
15.504,0.017132468875146176
15.508000000000001,0.017124150847294035
15.512,0.01712696359081629
15.516,0.017126122171813904
15.52,0.01712542499606907
15.524000000000001,0.017117034846588157
15.528,0.01711294795429086
15.532,0.017116529995186727
15.536,0.01712309306340532
15.540000000000001,0.01711152956225827
15.544,0.017105110737297227
15.548,0.017109582278281323
15.552,0.01711311623809134
15.556000000000001,0.01711352492732107
15.56,0.017101504655858437
15.564,0.017103980831779737
15.568,0.017109870764796427
15.572000000000001,0.01710905338633697
15.576,0.017105230940011852
15.58,0.017114510589581005
15.584,0.017114414427409304
15.588000000000001,0.017110351575654933
15.592,0.017100230507083397
15.596,0.01710119212880041
15.6,0.017111625724429973
15.604000000000001,0.017114342305780527
15.608,0.01709530219578372
15.612,0.01709498966872569
15.616,0.017105880034670833
15.620000000000001,0.017128670469363984
15.624,0.01713847901087749
15.628,0.01713544990246891
15.632,0.017135137375410878
15.636000000000001,0.01713528161866843
15.64,0.0171303052262829
15.644,0.017126146212356832
15.648,0.01713431999695142
15.652000000000001,0.017129728253252693
15.656,0.017125497117697848
15.66,0.017118765765678775
15.664,0.0171162174681287
15.668000000000001,0.017124896104124716
15.672,0.01712133810377178
15.676,0.017106793575301992
15.68,0.017103596183092935
15.684000000000001,0.0171050866967543
15.688,0.017103427899292457
15.692,0.017098571709621552
15.696,0.017092561573890237
15.700000000000001,0.017095590682298822
15.704,0.01709066237099914
15.708,0.01707513218026942
15.712,0.01707169438263111
15.716000000000001,0.017075949558728883
15.72,0.017065588084728092
15.724,0.01705539489452778
15.728,0.01705534681344193
15.732000000000001,0.017061356949173247
15.736,0.017070300031141444
15.74,0.01706707859838946
15.744,0.017058760570537318
15.748000000000001,0.017067343044361638
15.752,0.017072487720547643
15.756,0.017071766504259886
15.76,0.01707727178858977
15.764000000000001,0.017075060058640647
15.768,0.01707599763981473
15.772,0.017076093801986433
15.776,0.017070660639285324
15.780000000000001,0.017076382288501536
15.784,0.01708265687020503
15.788,0.017080901910571485
15.792,0.017065684246899793
15.796000000000001,0.01706087613831474
15.8,0.01706575636852857
15.804,0.017069650936482463
15.808,0.017052942759149405
15.812000000000001,0.017043639069037327
15.816,0.01705178881308899
15.82,0.017054457313353696
15.824,0.017049072231738436
15.828000000000001,0.017050418502142253
15.832,0.01704835101545068
15.836,0.01705388034032349
15.84,0.017051308002230488
15.844000000000001,0.01704621140713033
15.848,0.01705803935424956
15.852,0.017060058759855282
15.856,0.017051259921144635
15.860000000000001,0.017042485122976913
15.864,0.017044360285325084
15.868,0.017060058759855282
15.872,0.017064145652152578
15.876,0.017044768974554814
15.88,0.017043951596095355
15.884,0.017046283528759105
15.888,0.017042268758090586
15.892,0.017038061663078665
15.896,0.017034311338382322
15.9,0.017024262391439563
15.904,0.017028661810794887
15.908,0.017023132485922077
15.912,0.017021401566831455
15.916,0.017033998811324294
15.92,0.01703748469004846
15.924,0.017025704824015078
15.928,0.017022122783119216
15.932,0.017033397797751162
15.936,0.017036042257472944
15.94,0.01703402285186722
15.944,0.017026329878131137
15.948,0.017027291499848145
15.952,0.017032219811147824
15.956,0.01703096970291571
15.96,0.0170321957706049
15.964,0.01703717216299043
15.968,0.017038662676651797
15.972,0.017034960433041306
15.976,0.017020896715430025
15.98,0.017027868472878353
15.984,0.017037917419821115
15.988,0.01701950236394036
15.992,0.01700839563310889
15.996,0.017006400268046094
16.0,0.017016593458246403
16.004,0.017022483391263093
16.008,0.01701661749878933
16.012,0.017010198673828286
16.016000000000002,0.017017410836705864
16.02,0.01702330076972255
16.024,0.01701498274187041
16.028,0.01700940533591175
16.032,0.017009573619712226
16.036,0.01701406920123925
16.04,0.017012434444320334
16.044,0.01700676087618997
16.048000000000002,0.017014261525582653
16.052,0.017031258189430815
16.056,0.017016040525759123
16.06,0.017000919024259133
16.064,0.017011208376631146
16.068,0.017013612430923673
16.072,0.0170161126473879
16.076,0.017006231984245616
16.080000000000002,0.016995413739929247
16.084,0.016998010118565176
16.088,0.016997000415762315
16.092,0.01698606196873132
16.096,0.01699305776672257
16.1,0.016998010118565176
16.104,0.017003443281266285
16.108,0.016992072104462637
16.112000000000002,0.016990437347543717
16.116,0.017006592592389496
16.12,0.017018372458422873
16.124,0.01700575117338711
16.128,0.017001255591860085
16.132,0.01701082372794434
16.136,0.017012722930835437
16.14,0.017011617065860875
16.144000000000002,0.017004452984069145
16.148,0.016997649510421296
16.152,0.017003779848867237
16.156,0.016999572753855316
16.16,0.016989884415056437
16.164,0.017000029524170897
16.168,0.0169980341591081
16.172,0.016989692090713035
16.176000000000002,0.016982528008921305
16.18,0.016988994914968202
16.184,0.01699748122662082
16.188,0.016998611132138308
16.192,0.01698327326575199
16.196,0.016987215914791732
16.2,0.01700534248415738
16.204,0.01700601561935929
16.208000000000002,0.017005150159813978
16.212,0.01700063053774403
16.216,0.01700971786296978
16.22,0.017013732633638298
16.224,0.017013203741693943
16.228,0.017006328146417317
16.232,0.017017651242135116
16.236,0.017017194471819534
16.240000000000002,0.01701224211997693
16.244,0.01700365964615261
16.248,0.017003130754208257
16.252,0.017011160295545294
16.256,0.017004669348955472
16.26,0.016989788252884736
16.264,0.0169865187390469
16.268,0.016985028225385532
16.272000000000002,0.016983441549552464
16.276,0.016975844737988084
16.28,0.016964305277383955
16.284,0.01697408977835454
16.288,0.016983489630638317
16.292,0.01698584560384499
16.296,0.016990846036773446
16.3,0.01700224125412002
16.304000000000002,0.016992360590977737
16.308,0.016991326847631952
16.312,0.016988994914968202
16.316,0.017000438213400627
16.32,0.017012338282148633
16.324,0.01699904386191096
16.328,0.01698940360419793
16.332,0.016987504401306835
16.336000000000002,0.01699291352346502
16.34,0.016990918158402223
16.344,0.016983898319868046
16.348,0.01698748036076391
16.352,0.016991951901748008
16.356,0.01698954784745548
16.36,0.016982720333264707
16.364,0.01698072496820191
16.368000000000002,0.016987913090536565
16.372,0.01698084517091654
16.376,0.016979643143770276
16.38,0.01698483590104213
16.384,0.016989644009627183
16.388,0.016999572753855316
16.392,0.01699173553686168
16.396,0.0169888025906248
16.4,0.016991663415232908
16.404,0.016990870077316374
16.408,0.016989379563655007
16.412,0.016990437347543717
16.416,0.01698122981960334
16.42,0.01698209527914865
16.424,0.01697637362993244
16.428,0.016972959872837052
16.432,0.016985629238958664
16.436,0.016986999549905405
16.44,0.01697332048098093
16.444,0.016965387101815593
16.448,0.01696971439954214
16.452,0.016979234454540543
16.456,0.016981422143946743
16.46,0.016969738440085067
16.464,0.016971829967319566
16.468,0.016977479494907
16.472,0.01697108471048888
16.476,0.016973729170210658
16.48,0.016984667617241656
16.484,0.016982191441320352
16.488,0.01697875364368204
16.492,0.0169750994811574
16.496,0.016972551183607323
16.5,0.016982936698151034
16.504,0.01697812858956598
16.508,0.016961925263634357
16.512,0.01695641997930447
16.516000000000002,0.01696103576354612
16.52,0.01696783923719397
16.524,0.01696993076442847
16.528,0.016959497168798902
16.532,0.016968945102168533
16.536,0.016973657048581885
16.54,0.016967911358822745
16.544,0.016968416210224175
16.548000000000002,0.0169772871705636
16.552,0.01697353684586726
16.556,0.01696839216968125
16.56,0.01696444952064151
16.564,0.016968632575110505
16.568,0.01697824879228061
16.572,0.01696714206144914
16.576,0.01695714119559223
16.580000000000002,0.01695632381713277
16.584,0.016966156399189202
16.588,0.01696118000680367
16.592,0.01695646806039032
16.596,0.016953054303294933
16.6,0.016956588263104946
16.604,0.016953246627638335
16.608,0.01694399101861211
16.612000000000002,0.016955939168445965
16.616,0.01696942591302704
16.62,0.01696856045348173
16.624,0.016960915560831496
16.628,0.016956756546905424
16.632,0.016963704263810823
16.636,0.016977263130020674
16.64,0.016963944669240078
16.644000000000002,0.016961155966260747
16.648,0.016966084277560425
16.652,0.01696856045348173
16.656,0.0169637763854396
16.66,0.016964377399012732
16.664,0.016960194344543735
16.668,0.016960122222914962
16.672,0.01695565068193086
16.676000000000002,0.016950121357058052
16.68,0.016962742642093815
16.684,0.016963752344896676
16.688,0.01694815003253818
16.692,0.016938966545140727
16.696,0.016939303112741683
16.7,0.016952982181666156
16.704,0.016963439817838648
16.708000000000002,0.01695276581677983
16.712,0.01695353511415344
16.716,0.01695555451975916
16.72,0.01695997797965741
16.724,0.016952645614065204
16.728,0.016952333087007176
16.732,0.016956660384733722
16.736,0.016952958141123232
16.740000000000002,0.016950770451717032
16.744,0.016946130626932458
16.748,0.016955025627814806
16.752,0.016955987249531814
16.756,0.016945697897159804
16.76,0.016945433451187625
16.764,0.01695545835758746
16.768,0.016958463425453117
16.772000000000002,0.016954737141299702
16.776,0.016947549018965048
16.78,0.01695129934366139
16.784,0.01696291092589429
16.788,0.01695377551958269
16.792,0.0169455055728164
16.796,0.01694800578928063
