time,channel2
0.0,-0.00835961799140191
0.004,-0.008362214370037837
0.008,-0.008360844059091098
0.012,-0.008365411762246897
0.016,-0.008365291559532272
0.02,-0.008366733992107788
0.024,-0.008370844924948008
0.028,-0.008368008140882826
0.032,-0.008367046519165816
0.036000000000000004,-0.008368585113913033
0.04,-0.008368440870655481
0.044,-0.008364378018901112
0.048,-0.008363632762070429
0.052000000000000005,-0.00836615701907758
0.056,-0.008368224505769153
0.06,-0.008366036816362955
0.064,-0.0083656040865903
0.068,-0.008369907343773922
0.07200000000000001,-0.00837058047897583
0.076,-0.008369354411286641
0.08,-0.008371758465579167
0.084,-0.008368056221968677
0.088,-0.008366253181249282
0.092,-0.008369522695087117
0.096,-0.00837240756023815
0.1,-0.008371614222321615
0.10400000000000001,-0.008369450573458342
0.108,-0.008370316033003651
0.112,-0.008367503289481396
0.116,-0.008363608721527502
0.12,-0.008364161654014783
0.124,-0.008364450140529887
0.128,-0.008365964694734178
0.132,-0.008366205100163431
0.136,-0.008367286924595069
0.14,-0.008364882870302542
0.14400000000000002,-0.00836615701907758
0.148,-0.0083656040865903
0.152,-0.008365531964961525
0.156,-0.00836743116785262
0.16,-0.008369017843685687
0.164,-0.008364209735100634
0.168,-0.00836098830234865
0.17200000000000001,-0.008358968896742928
0.176,-0.008359041018371703
0.18,-0.008368200465226228
0.184,-0.008368128343597453
0.188,-0.00836743116785262
0.192,-0.008367359046223844
0.196,-0.00836637338396391
0.2,-0.008364474181072813
0.20400000000000001,-0.00836327215392655
0.20800000000000002,-0.008361829721351034
0.212,-0.008361108505063275
0.216,-0.008362310532209538
0.22,-0.008363127910668998
0.224,-0.00836204608623736
0.228,-0.00836144507266423
0.232,-0.008363584680984578
0.23600000000000002,-0.008362070126780287
0.24,-0.008362022045694436
0.244,-0.008360243045517966
0.248,-0.008359281423800956
0.252,-0.008359545869773133
0.256,-0.008362935586325596
0.26,-0.00836418569455771
0.264,-0.008365267518989345
0.268,-0.008364810748673766
0.272,-0.008364113572928933
0.276,-0.008361661437550556
0.28,-0.00836250285655294
0.28400000000000003,-0.008360916180719874
0.28800000000000003,-0.008358536166970272
0.292,-0.008362382653838315
0.296,-0.00836199800515151
0.3,-0.008360194964432115
0.304,-0.008357790910139589
0.308,-0.008362983667411446
0.312,-0.00836565216767615
0.316,-0.008368104303054527
0.32,-0.008366349343420983
0.324,-0.008363969329671383
0.328,-0.008360795978005247
0.332,-0.00836007476171749
0.336,-0.008357478383081561
0.34,-0.008356156153220672
0.34400000000000003,-0.008359041018371703
0.34800000000000003,-0.008360411329318442
0.352,-0.008362671140353418
0.356,-0.008364810748673766
0.36,-0.008363127910668998
0.364,-0.00835981031574531
0.368,-0.008353704017842295
0.372,-0.008352333706895554
0.376,-0.008354593517930529
0.38,-0.008362935586325596
0.384,-0.00836377700532798
0.388,-0.008365964694734178
0.392,-0.00836707055970874
0.396,-0.00836637338396391
0.4,-0.008363440437727026
0.404,-0.008361517194293006
0.40800000000000003,-0.008364474181072813
0.41200000000000003,-0.008365796410933702
0.41600000000000004,-0.008361060423977424
0.42,-0.008360339207689667
0.424,-0.008359690113030685
0.428,-0.008358199599369318
0.432,-0.008356901410051354
0.436,-0.008356733126250878
0.44,-0.008355627261276316
0.444,-0.008354425234130053
0.448,-0.008354857963902708
0.452,-0.008353583815127668
0.456,-0.008356396558649924
0.46,-0.008359593950858984
0.464,-0.008361469113207155
0.468,-0.00835697353168013
0.47200000000000003,-0.008358992937285852
0.47600000000000003,-0.008359521829230209
0.48,-0.008362142248409062
0.484,-0.00836473862704499
0.488,-0.008361421032121305
0.492,-0.008359714153573611
0.496,-0.008361060423977424
0.5,-0.00836327215392655
0.504,-0.008360723856376472
0.508,-0.008361661437550556
0.512,-0.008363921248585532
0.516,-0.008361348910492528
0.52,-0.008359449707601432
0.524,-0.008360363248232593
0.528,-0.008360964261805725
0.532,-0.008364666505416214
0.536,-0.008365916613648328
0.54,-0.008367214802966292
0.544,-0.0083678879381682
0.548,-0.008371301695263587
0.552,-0.008374907776702377
0.556,-0.008372311398066448
0.56,-0.008370484316804129
0.5640000000000001,-0.008370965127662633
0.5680000000000001,-0.00837021987083195
0.5720000000000001,-0.008370796843862157
0.5760000000000001,-0.00837240756023815
0.58,-0.008375460709189658
0.584,-0.008373609587384413
0.588,-0.008370628560061679
0.592,-0.008365868532562477
0.596,-0.008365171356817646
0.6,-0.008370820884405081
0.604,-0.008369017843685687
0.608,-0.008368128343597453
0.612,-0.008369138046400314
0.616,-0.008365556005504449
0.62,-0.008367310965137993
0.624,-0.008368128343597453
0.628,-0.008368248546312079
0.632,-0.0083678879381682
0.636,-0.008365892573105403
0.64,-0.008361469113207155
0.644,-0.008356180193763597
0.648,-0.008358584248056123
0.652,-0.00836428185672941
0.656,-0.008366758032650712
0.66,-0.00836368084315628
0.664,-0.00836057961311892
0.668,-0.00836204608623736
0.672,-0.008363801045870905
0.676,-0.008364930951388393
0.68,-0.008365916613648328
0.684,-0.008364065491843082
0.6880000000000001,-0.008364113572928933
0.6920000000000001,-0.008364209735100634
0.6960000000000001,-0.00836372892424213
0.7000000000000001,-0.008361829721351034
0.704,-0.00836368084315628
0.708,-0.008365075194645945
0.712,-0.008364810748673766
0.716,-0.00836656570830731
0.72,-0.008367984100339902
0.724,-0.008369162086943239
0.728,-0.008373224938697608
0.732,-0.008368969762599836
0.736,-0.008367599451653097
0.74,-0.008370388154632428
0.744,-0.008368152384140378
0.748,-0.008369138046400314
0.752,-0.008368416830112555
0.756,-0.008364762667587915
0.76,-0.008363031748497297
0.764,-0.008366325302878059
0.768,-0.008369690978887595
0.772,-0.008368777438256435
0.776,-0.008365892573105403
0.78,-0.008365003073017168
0.784,-0.008366854194822413
0.788,-0.008365435802789823
0.792,-0.008366301262335132
0.796,-0.008365531964961525
0.8,-0.008367623492196021
0.804,-0.008366445505592684
0.808,-0.008365796410933702
0.812,-0.008369089965314463
0.8160000000000001,-0.008367767735453573
0.8200000000000001,-0.008365820451476626
0.8240000000000001,-0.008364882870302542
0.8280000000000001,-0.008363440437727026
0.8320000000000001,-0.008363752964785054
0.836,-0.00836464246487329
0.84,-0.008363344275555325
0.844,-0.008362214370037837
0.848,-0.008364570343244514
0.852,-0.008364257816186485
0.856,-0.008364017410757232
0.86,-0.008362550937638791
0.864,-0.008358920815657077
0.868,-0.008360291126603817
0.872,-0.008362935586325596
0.876,-0.008361805680808108
0.88,-0.008362599018724642
0.884,-0.008368416830112555
0.888,-0.008367046519165816
0.892,-0.008365003073017168
0.896,-0.008366685911021937
0.9,-0.008367791775996499
0.904,-0.008366541667764385
0.908,-0.008365988735277104
0.912,-0.008364930951388393
0.916,-0.008359642031944834
0.92,-0.008361180626692052
0.924,-0.008366445505592684
0.928,-0.008365435802789823
0.932,-0.008366036816362955
0.936,-0.008366758032650712
0.9400000000000001,-0.008365772370390778
0.9440000000000001,-0.008366084897448806
0.9480000000000001,-0.0083656040865903
0.9520000000000001,-0.0083656040865903
0.9560000000000001,-0.008365964694734178
0.96,-0.00836783985708235
0.964,-0.00836829662739793
0.968,-0.008369907343773922
0.972,-0.008368945722056912
0.976,-0.008368585113913033
0.98,-0.00836976310051637
0.984,-0.008368729357170585
0.988,-0.008364522262158664
0.992,-0.008365459843332748
0.996,-0.008367286924595069
1.0,-0.008369065924771537
1.004,-0.00837103724929141
1.008,-0.008368921681513986
1.012,-0.00836519539736057
1.016,-0.008366685911021937
1.02,-0.008368200465226228
1.024,-0.008367719654367722
1.028,-0.008372936452182506
1.032,-0.008374763533444825
1.036,-0.00837341726304101
1.04,-0.00836981118160222
1.044,-0.00836839278956963
1.048,-0.008371061289834334
1.052,-0.008369690978887595
1.056,-0.00836733500568092
1.06,-0.008369618857258818
1.064,-0.008367719654367722
1.068,-0.008369618857258818
1.072,-0.008370027546488547
1.076,-0.008366782073193638
1.08,-0.008364353978358186
1.084,-0.00836610893799173
1.088,-0.008363704883699204
1.092,-0.008363055789040221
1.096,-0.008366277221792208
1.1,-0.008366084897448806
1.104,-0.008368200465226228
1.108,-0.008366445505592684
1.112,-0.008367286924595069
1.116,-0.008368056221968677
1.12,-0.008368368749026705
1.124,-0.008370460276261203
1.1280000000000001,-0.008370508357347053
1.1320000000000001,-0.00836839278956963
1.1360000000000001,-0.008371253614177737
1.1400000000000001,-0.00837204695209427
1.1440000000000001,-0.008367094600251666
1.1480000000000001,-0.008362791343068044
1.1520000000000001,-0.008362334572752464
1.156,-0.008364906910845467
1.16,-0.008365435802789823
1.164,-0.008361469113207155
1.168,-0.008361709518636407
1.172,-0.00835930546434388
1.176,-0.008360795978005247
1.18,-0.00836327215392655
1.184,-0.008362887505239745
1.188,-0.008365051154103019
1.192,-0.008362791343068044
1.196,-0.008362599018724642
1.2,-0.008363031748497297
1.204,-0.008361685478093482
1.208,-0.00836240669438124
1.212,-0.008363079829583148
1.216,-0.008363512559355801
1.22,-0.008361637397007632
1.224,-0.008361805680808108
1.228,-0.008360339207689667
1.232,-0.008360675775290621
1.236,-0.00836428185672941
1.24,-0.008362262451123688
1.244,-0.008363368316098251
1.248,-0.00836423377564356
1.252,-0.008364305897272335
1.256,-0.008361589315921781
1.26,-0.008359545869773133
1.264,-0.008358992937285852
1.268,-0.00835925738325803
1.272,-0.008360243045517966
1.276,-0.008359882437374087
1.28,-0.00836346447826995
1.284,-0.008364522262158664
1.288,-0.008362070126780287
1.292,-0.008361300829406677
1.296,-0.008363368316098251
1.3,-0.008364834789216692
1.304,-0.00836418569455771
1.308,-0.00836291154578267
1.312,-0.008364714586502064
1.316,-0.008365772370390778
1.32,-0.008362719221439269
1.324,-0.008360050721174564
1.328,-0.00836240669438124
1.332,-0.0083633202350124
1.336,-0.0083633202350124
1.34,-0.008362839424153895
1.344,-0.008360459410404293
1.348,-0.008360002640088713
1.352,-0.008359401626515581
1.356,-0.008360723856376472
1.36,-0.00835839192371272
1.364,-0.008359185261629255
1.368,-0.008361781640265183
1.372,-0.008361276788863753
1.3760000000000001,-0.008362310532209538
1.3800000000000001,-0.008365748329847851
1.3840000000000001,-0.008364954991931317
1.3880000000000001,-0.008362599018724642
1.3920000000000001,-0.00835935354542973
1.3960000000000001,-0.00835916122108633
1.4000000000000001,-0.008359593950858984
1.4040000000000001,-0.008361228707777902
1.408,-0.008364209735100634
1.412,-0.00836327215392655
1.416,-0.008362671140353418
1.42,-0.008358992937285852
1.424,-0.00835911314000048
1.428,-0.008357550504710336
1.432,-0.008358560207513199
1.436,-0.008361517194293006
1.44,-0.008358824653485376
1.444,-0.008359882437374087
1.448,-0.008360483450947219
1.452,-0.00836372892424213
1.456,-0.008361685478093482
1.46,-0.008361973964608586
1.464,-0.008361469113207155
1.468,-0.008362142248409062
1.472,-0.00836295962686852
1.476,-0.008361012342891574
1.48,-0.008360699815833546
1.484,-0.00836007476171749
1.488,-0.008358055356111766
1.492,-0.008358440004798571
1.496,-0.008359906477917012
1.5,-0.00835930546434388
1.504,-0.008360002640088713
1.508,-0.008360243045517966
1.512,-0.008357502423624485
1.516,-0.008358464045341497
1.52,-0.008365363681161047
1.524,-0.008363440437727026
1.528,-0.00835834384262687
1.532,-0.008359714153573611
1.536,-0.008362863464696819
1.54,-0.008360315167146743
1.544,-0.008352982801554536
1.548,-0.008350194098575205
1.552,-0.008350266220203982
1.556,-0.008352958761011612
1.56,-0.008357478383081561
1.564,-0.008358920815657077
1.568,-0.008357141815480607
1.572,-0.008356180193763597
1.576,-0.00835743030199571
1.58,-0.008359762234659462
1.584,-0.008359329504886806
1.588,-0.008359449707601432
1.592,-0.00835880061294245
1.596,-0.008358992937285852
1.6,-0.008358103437197617
1.604,-0.008357742829053738
1.608,-0.008354857963902708
1.612,-0.00835509836933196
1.616,-0.008354208869243726
1.62,-0.008357045653308906
1.624,-0.008358464045341497
1.6280000000000001,-0.008356636964079176
1.6320000000000001,-0.008355819585619718
1.6360000000000001,-0.008357550504710336
1.6400000000000001,-0.008357478383081561
1.6440000000000001,-0.008360964261805725
1.6480000000000001,-0.008358464045341497
1.6520000000000001,-0.008352718355582359
1.6560000000000001,-0.008351420166264395
1.6600000000000001,-0.008352069260923377
1.6640000000000001,-0.008354208869243726
1.668,-0.008353752098928146
1.672,-0.008354112707072025
1.676,-0.008358560207513199
1.68,-0.008357165856023533
1.684,-0.008357117774937682
1.688,-0.008355747463990941
1.692,-0.008357310099281085
1.696,-0.008354617558473455
1.7,-0.008353920382728622
1.704,-0.00835185289603705
1.708,-0.008351396125721468
1.712,-0.00835331936915549
1.716,-0.008353631896213519
1.72,-0.00835550705856169
1.724,-0.008353511693498893
1.728,-0.0083541848287008
1.732,-0.008351949058208751
1.736,-0.008350939355405889
1.74,-0.00835154036897902
1.744,-0.008350819152691263
1.748,-0.008350338341832757
1.752,-0.008350362382375683
1.756,-0.008350218139118131
1.76,-0.008350290260746907
1.764,-0.008351468247350245
1.768,-0.008352117342009227
1.772,-0.008346539936050567
1.776,-0.00834697266582322
1.78,-0.008348367017312886
1.784,-0.008345361949447228
1.788,-0.008346035084649135
1.792,-0.008346299530621314
1.796,-0.008347140949623699
1.8,-0.008349785409345476
1.804,-0.00834920843631527
1.808,-0.008345410030533079
1.812,-0.008343919516871712
1.816,-0.008346299530621314
1.82,-0.00834550619270478
1.824,-0.00834428012501559
1.828,-0.008344881138588722
1.832,-0.00834500134130335
1.836,-0.008345073462932125
1.84,-0.008343895476328788
1.844,-0.00834428012501559
1.848,-0.008344063760129264
1.852,-0.008340553840862176
1.856,-0.00833774109733992
1.86,-0.008339447975887614
1.864,-0.008340529800319251
1.868,-0.00833956817860224
1.872,-0.00833875080014278
1.8760000000000001,-0.008340986570634831
1.8800000000000001,-0.008343943557414638
1.8840000000000001,-0.008343799314157086
1.8880000000000001,-0.008341251016607008
1.8920000000000001,-0.008341611624750887
1.8960000000000001,-0.008340553840862176
1.9000000000000001,-0.008343606989813684
1.9040000000000001,-0.008345578314333555
1.9080000000000001,-0.008346179327906687
1.9120000000000001,-0.008344953260217499
1.9160000000000001,-0.00834793428754023
1.92,-0.00834408780067219
1.924,-0.008343054057326403
1.928,-0.008342404962667421
1.932,-0.00834016919217537
1.936,-0.008341010611177755
1.94,-0.008343751233071236
1.944,-0.008344400327730218
1.948,-0.00834509750347505
1.952,-0.00833956817860224
1.956,-0.0083381978676555
1.96,-0.008335745732277123
1.964,-0.008339231611001287
1.968,-0.008342404962667421
1.972,-0.008343198300583955
1.976,-0.00834509750347505
1.98,-0.008342717489725449
1.984,-0.008338967165029108
1.988,-0.008336875637794611
1.992,-0.008335986137706376
1.996,-0.008336755435079984
2.0,-0.008338366151455976
2.004,-0.008338774840685705
2.008,-0.008336346745850255
2.012,-0.00833504855653229
2.016,-0.00833408693481528
2.02,-0.008333654205042625
2.024,-0.008336298664764404
2.028,-0.008336995840509237
2.032,-0.00833449562404501
2.036,-0.00833627462422148
2.04,-0.008338342110913052
2.044,-0.008338077664940874
2.048,-0.0083381978676555
2.052,-0.008343510827641983
2.056,-0.008340097070546596
2.06,-0.008333774407757252
2.064,-0.00833307723201242
2.068,-0.00833733240811019
2.072,-0.008339015246114958
2.076,-0.008334399461873308
2.08,-0.00833271662386854
2.084,-0.008332091569752483
2.088,-0.008334519664587935
2.092,-0.008336370786393179
2.096,-0.008334303299701607
2.1,-0.008333029150926569
2.104,-0.008334231178072832
2.108,-0.008333509961785073
2.112,-0.008334159056444055
2.116,-0.008333942691557728
2.12,-0.008333053191469493
2.124,-0.008332476218439288
2.128,-0.008333389759070447
2.132,-0.008331586718351052
2.136,-0.008330408731747714
2.14,-0.008331562677808126
2.144,-0.008332259853552959
2.148,-0.008334808151103037
2.152,-0.008337043921595087
2.156,-0.008335577448476647
2.16,-0.008330721258805743
2.164,-0.008332644502239764
2.168,-0.008334062894272354
2.172,-0.008336947759423386
2.176,-0.008335361083590318
2.18,-0.008333942691557728
2.184,-0.008333437840156298
2.188,-0.008333918651014804
2.192,-0.008332259853552959
2.196,-0.008334736029474262
2.2,-0.008336803516165834
2.204,-0.008335216840332766
2.208,-0.00833262046169684
2.212,-0.008334471583502085
2.216,-0.008333269556355822
2.22,-0.008332836826583166
2.224,-0.008334760070017187
2.228,-0.008333341677984597
2.232,-0.008337067962138012
2.236,-0.008340794246291429
2.24,-0.008339447975887614
2.244,-0.00833651502965073
2.248,-0.008336803516165834
2.2520000000000002,-0.008338630597428155
2.2560000000000002,-0.00834012111108952
2.2600000000000002,-0.008338798881228631
2.2640000000000002,-0.008338366151455976
2.2680000000000002,-0.008338678678514006
2.2720000000000002,-0.008337019881052161
2.2760000000000002,-0.008337596854082368
2.2800000000000002,-0.008335313002504468
2.2840000000000003,-0.008331538637265202
2.2880000000000003,-0.008331081866949622
2.2920000000000003,-0.008331033785863771
2.2960000000000003,-0.00833555340793372
2.3000000000000003,-0.008336875637794611
2.3040000000000003,-0.008333437840156298
2.308,-0.008331033785863771
2.312,-0.008333341677984597
2.316,-0.008331730961608604
2.32,-0.00832947115057363
2.324,-0.008332019448123708
2.328,-0.008332115610295409
2.332,-0.00832870185320002
2.336,-0.00832733154225328
2.34,-0.008325648704248512
2.344,-0.008325143852847081
2.348,-0.008326345879993344
2.352,-0.0083290624613439
2.356,-0.0083290624613439
2.36,-0.008329302866773152
2.364,-0.008326514163793822
2.368,-0.008326153555649942
2.372,-0.00832778831256886
2.376,-0.008328413366684918
2.38,-0.008323965866243744
2.384,-0.008321826257923395
2.388,-0.008323004244526734
2.392,-0.00832627375836457
2.396,-0.008331779042694455
2.4,-0.008335313002504468
2.404,-0.008331755002151529
2.408,-0.008329663474917032
2.412,-0.00833139439400765
2.416,-0.008334711988931336
2.42,-0.008335192799789842
2.424,-0.008330913583149146
2.428,-0.008328028717998114
2.432,-0.008326442042165046
2.436,-0.008325456379905111
2.44,-0.008328293163970291
2.444,-0.008325961231306541
2.448,-0.008330913583149146
2.452,-0.008332981069840718
2.456,-0.008330264488490164
2.46,-0.008327547907139608
2.464,-0.008328677812657096
2.468,-0.00833043277229064
2.472,-0.00832992792088921
2.476,-0.008331947326494931
2.48,-0.00833367824558555
2.484,-0.00833875080014278
2.488,-0.008336995840509237
2.492,-0.008331274191293024
2.496,-0.008326706488137225
2.5,-0.008327908515283488
2.504,-0.008330240447947238
2.508,-0.008328990339715124
2.512,-0.008328629731571245
2.516,-0.008327716190940086
2.52,-0.008328894177543423
2.524,-0.008331105907492546
2.528,-0.008331178029121323
2.532,-0.008330625096634042
2.536,-0.008331226110207174
2.54,-0.008335649570105422
2.544,-0.008336370786393179
2.548,-0.008337765137882844
2.552,-0.008336394826936105
2.556,-0.008333485921242148
2.56,-0.008332548340068063
2.564,-0.008330288529033088
2.568,-0.008329831758717508
2.572,-0.008330769339891594
2.576,-0.008333053191469493
2.58,-0.008331202069664248
2.584,-0.00833454370513086
2.588,-0.008335865934991749
2.592,-0.008331971367037857
2.596,-0.008330577015548192
2.6,-0.008334327340244533
2.604,-0.008336755435079984
2.608,-0.008335938056620525
2.612,-0.008334399461873308
2.616,-0.008329278826230227
2.62,-0.00832733154225328
2.624,-0.008330913583149146
2.628,-0.008331538637265202
2.632,-0.008331538637265202
2.636,-0.00833632270530733
2.64,-0.008336587151279507
2.644,-0.008339880705660269
2.648,-0.008338822921771556
2.652,-0.008337957462226247
2.656,-0.008338077664940874
2.66,-0.00833673139453706
2.664,-0.008337092002680938
2.668,-0.00833870271905693
2.672,-0.008338486354170603
2.676,-0.008339231611001287
2.68,-0.008336058259335151
2.684,-0.008335072597075216
2.688,-0.008337260286481414
2.692,-0.008339087367743735
2.696,-0.008340818286834353
2.7,-0.00834089040846313
2.704,-0.00833992878674612
2.708,-0.008339880705660269
2.712,-0.00833961625968809
2.716,-0.008337380489196041
2.72,-0.00833920757045836
2.724,-0.008337428570281892
2.728,-0.00833596209716345
2.732,-0.008337668975711143
2.736,-0.008335793813362974
2.74,-0.008338943124486183
2.744,-0.008339423935344687
2.748,-0.00833875080014278
2.7520000000000002,-0.00833870271905693
2.7560000000000002,-0.008339087367743735
2.7600000000000002,-0.008340193232718297
2.7640000000000002,-0.008341010611177755
2.7680000000000002,-0.008339039286657884
2.7720000000000002,-0.00833774109733992
2.7760000000000002,-0.008333870569928953
2.7800000000000002,-0.008330841461520369
2.7840000000000003,-0.008329663474917032
2.7880000000000003,-0.008331658839979827
2.7920000000000003,-0.008333774407757252
2.7960000000000003,-0.008336635232365358
2.8000000000000003,-0.008338005543312097
2.8040000000000003,-0.008337524732453593
2.8080000000000003,-0.008335841894448824
2.8120000000000003,-0.008337909381140396
2.816,-0.00833814978656965
2.82,-0.008336034218792227
2.824,-0.008335024515989366
2.828,-0.008336154421506852
2.832,-0.008331947326494931
2.836,-0.008332884907669017
2.84,-0.008333702286128475
2.844,-0.00833271662386854
2.848,-0.008332019448123708
2.852,-0.008331226110207174
2.856,-0.008334303299701607
2.86,-0.008334880272731814
2.864,-0.008333942691557728
2.868,-0.0083336301644997
2.872,-0.008333221475269971
2.876,-0.008332836826583166
2.88,-0.00833189924540908
2.884,-0.00833235601572466
2.888,-0.008334760070017187
2.892,-0.008338438273084753
2.896,-0.008336394826936105
2.9,-0.008334471583502085
2.904,-0.008332259853552959
2.908,-0.008330264488490164
2.912,-0.008334014813186503
2.916,-0.008337164124309713
2.92,-0.008335529367390796
2.924,-0.00833682755670876
2.928,-0.008336154421506852
2.932,-0.00833262046169684
2.936,-0.008333509961785073
2.94,-0.008334952394360589
2.944,-0.008337404529738966
2.948,-0.008338366151455976
2.952,-0.008338438273084753
2.956,-0.0083381978676555
2.96,-0.008337116043223862
2.964,-0.0083404817192334
2.968,-0.008341876070723064
2.972,-0.008342477084296196
2.976,-0.008340457678690474
2.98,-0.008340962530091905
2.984,-0.008342477084296196
2.988,-0.008340313435432923
2.992,-0.008339880705660269
2.996,-0.008342092435609393
3.0,-0.008342044354523542
3.004,-0.00834180394909429
3.008,-0.008342140516695244
3.012,-0.0083427655708113
3.016,-0.008343174260041029
3.02,-0.008341635665293813
3.024,-0.00834134717877871
3.028,-0.00833870271905693
3.032,-0.008337092002680938
3.036,-0.008339640300231016
3.04,-0.008342669408639598
3.044,-0.008344376287187292
3.048,-0.008341924151808915
3.052,-0.008342837692440076
3.056,-0.008344256084472666
3.06,-0.008339472016430538
3.064,-0.008337212205395563
3.068,-0.008343126178955178
3.072,-0.008343895476328788
3.076,-0.008344015679043413
3.08,-0.008343967597957563
3.084,-0.008342645368096674
3.088,-0.008342837692440076
3.092,-0.008347285192881249
3.096,-0.008346347611707165
3.1,-0.008346900544194446
3.104,-0.008345578314333555
3.108,-0.008343462746556132
3.112,-0.00834423204392974
3.116,-0.008349593085002074
3.12,-0.008349136314686494
3.124,-0.008348463179484587
3.128,-0.008346299530621314
3.132,-0.00834966520663085
3.136,-0.008351203801378068
3.14,-0.008349424801201598
3.144,-0.008349424801201598
3.148,-0.008350867233777114
3.152,-0.008350194098575205
3.156,-0.008348823787628466
3.16,-0.008350314301289833
3.164,-0.008350602787804936
3.168,-0.00834824681459826
3.172,-0.00834641973333594
3.176,-0.008344809016959947
3.18,-0.008349953693145954
3.184,-0.00835327128806964
3.188,-0.008354425234130053
3.192,-0.008350506625633235
3.196,-0.008347309233424175
3.2,-0.008345337908904304
3.204,-0.008346083165734985
3.208,-0.008346996706366147
3.212,-0.008345169625103826
3.216,-0.008342837692440076
3.22,-0.008344472449358993
3.224,-0.008347044787451997
3.228,-0.00834697266582322
3.232,-0.008345722557591107
3.236,-0.008346227408992537
3.24,-0.008348102571340709
3.244,-0.008349785409345476
3.248,-0.008346299530621314
3.2520000000000002,-0.008346539936050567
3.2560000000000002,-0.008348511260570438
3.2600000000000002,-0.008350338341832757
3.2640000000000002,-0.008349304598486972
3.2680000000000002,-0.008344905179131648
3.2720000000000002,-0.008340650003033877
3.2760000000000002,-0.008343895476328788
3.2800000000000002,-0.008345361949447228
3.2840000000000003,-0.00834413588175804
3.2880000000000003,-0.008343414665470282
3.2920000000000003,-0.008344833057502872
3.2960000000000003,-0.00834281365189715
3.3000000000000003,-0.00833956817860224
3.3040000000000003,-0.008341996273437692
3.3080000000000003,-0.008342573246467897
3.3120000000000003,-0.008341683746379664
3.3160000000000003,-0.008343054057326403
3.3200000000000003,-0.008342789611354226
3.3240000000000003,-0.008347020746909071
3.3280000000000003,-0.008346251449535463
3.332,-0.008343342543841507
3.336,-0.008345361949447228
3.34,-0.008346443773878866
3.344,-0.008344520530444844
3.348,-0.008346588017136416
3.352,-0.008342693449182524
3.356,-0.008340265354347072
3.36,-0.008342332841038646
3.364,-0.008343030016783477
3.368,-0.008340674043576801
3.372,-0.008335433205219095
3.376,-0.008335745732277123
3.38,-0.008339832624574418
3.384,-0.008343174260041029
3.388,-0.008343005976240552
3.392,-0.008338630597428155
3.396,-0.008340289394889998
3.4,-0.00834180394909429
3.404,-0.0083405778814051
3.408,-0.008340457678690474
3.412,-0.008339952827289044
3.416,-0.00833911140828666
3.42,-0.008337837259511621
3.424,-0.008334231178072832
3.428,-0.008331418434550576
3.432,-0.008332981069840718
3.436,-0.00833358208341385
3.44,-0.008331995407580782
3.444,-0.008334207137529906
3.448,-0.008332524299525138
3.452,-0.008328846096457572
3.456,-0.008332259853552959
3.46,-0.008333750367214326
3.464,-0.008332259853552959
3.468,-0.008329134582972676
3.472,-0.00833276470495439
3.476,-0.00833550532684787
3.48,-0.0083381978676555
3.484,-0.008338919083943257
3.488,-0.008338798881228631
3.492,-0.008342861732983
3.496,-0.008341058692263606
3.5,-0.00833627462422148
3.504,-0.008337164124309713
3.508,-0.00833677947562291
3.512,-0.008335793813362974
3.516,-0.00833824594874135
3.52,-0.008338053624397948
3.524,-0.008336563110736581
3.528,-0.008336875637794611
3.532,-0.008337885340597472
3.536,-0.008338798881228631
3.54,-0.008337260286481414
3.544,-0.008338606556885229
3.548,-0.008337380489196041
3.552,-0.00833307723201242
3.556,-0.00833002408306091
3.56,-0.008329326907316078
3.564,-0.008332981069840718
3.568,-0.008334351380787457
3.572,-0.008331682880522754
3.576,-0.00832728346116743
3.58,-0.008329350947859002
3.584,-0.008333341677984597
3.588,-0.008337116043223862
3.592,-0.00833728432702434
3.596,-0.008332428137353437
3.6,-0.008329543272202405
3.604,-0.008328413366684918
3.608,-0.008327403663882056
3.612,-0.008327067096281103
3.616,-0.008325480420448035
3.62,-0.008326105474564093
3.624,-0.008328629731571245
3.628,-0.008328942258629273
3.632,-0.008327307501710356
3.636,-0.00832454283927395
3.64,-0.008325720825877288
3.644,-0.00832499960958953
3.648,-0.008323917785157894
3.652,-0.00832591315022069
3.656,-0.008327523866596683
3.66,-0.008325720825877288
3.664,-0.008327932555826412
3.668,-0.008330673177719893
3.672,-0.008333774407757252
3.676,-0.008335361083590318
3.68,-0.008333389759070447
3.684,-0.008329423069487779
3.688,-0.008329663474917032
3.692,-0.008330240447947238
3.696,-0.008327595988225458
3.7,-0.008331033785863771
3.704,-0.008336202502592703
3.708,-0.008336803516165834
3.712,-0.008333149353641194
3.716,-0.008333485921242148
3.72,-0.008328798015371721
3.724,-0.008329615393831181
3.728,-0.008328918218086349
3.732,-0.008326225677278719
3.736,-0.008324302433844698
3.74,-0.008325985271849466
3.744,-0.008327427704424982
3.748,-0.008327307501710356
3.7520000000000002,-0.008326466082707972
3.7560000000000002,-0.00832865377211417
3.7600000000000002,-0.008326490123250896
3.7640000000000002,-0.008325768906963139
3.7680000000000002,-0.00832728346116743
3.7720000000000002,-0.008326418001622121
3.7760000000000002,-0.008321008879463937
3.7800000000000002,-0.008320648271320057
3.7840000000000003,-0.008322811920183332
3.7880000000000003,-0.008324254352758848
3.7920000000000003,-0.008328677812657096
3.7960000000000003,-0.00833043277229064
3.8000000000000003,-0.008331081866949622
3.8040000000000003,-0.008330817420977445
3.8080000000000003,-0.00833235601572466
3.8120000000000003,-0.008329855799260433
3.8160000000000003,-0.008328413366684918
3.8200000000000003,-0.008326033352935316
3.8240000000000003,-0.008322090703895573
3.8280000000000003,-0.008316801784452014
3.8320000000000003,-0.008313363986813701
3.8360000000000003,-0.008314830459932143
3.84,-0.008313965000386832
3.844,-0.00831266681106887
3.848,-0.008312234081296214
3.852,-0.00831271489215472
3.856,-0.00831362843278588
3.86,-0.008312065797495738
3.864,-0.008307858702483817
3.868,-0.008308555878228648
3.872,-0.008308459716056949
3.876,-0.008310046391890015
3.88,-0.008311296500122129
3.884,-0.008313844797672207
3.888,-0.008313868838215133
3.892,-0.008314710257217516
3.896,-0.008315239149161872
3.9,-0.00831499874373262
3.904,-0.008311128216321653
3.908,-0.008309998310804164
3.912,-0.008309277094516407
3.916,-0.008307906783569668
3.92,-0.008309253053973481
3.924,-0.008307618297054564
3.928,-0.00830773849976919
3.932,-0.008306464350994152
3.936,-0.008306031621221496
3.94,-0.008305142121133261
3.944,-0.00830682495913803
3.948,-0.00830915689180178
3.952,-0.008309397297231033
3.956,-0.00831002235134709
3.96,-0.008306416269908301
3.964,-0.008305526769820066
3.968,-0.008306752837509254
3.972,-0.008307666378140415
3.976,-0.008307209607824835
3.98,-0.008302377458696856
3.984,-0.008304613229188906
3.988,-0.00830591141850687
3.992,-0.008306055661764422
3.996,-0.008311200337950428
4.0,-0.00830951749994566
4.0040000000000004,-0.008305935459049795
4.008,-0.008305286364390813
4.0120000000000005,-0.008307474053797012
4.016,-0.00831139266229383
4.0200000000000005,-0.008309902148632463
4.024,-0.008306921121309731
4.0280000000000005,-0.008308051026827218
4.032,-0.008308339513342321
4.0360000000000005,-0.00830490171570401
4.04,-0.008305743134706393
4.0440000000000005,-0.008306223945564899
4.048,-0.008305959499592721
4.0520000000000005,-0.008306199905021973
4.056,-0.008301776445123725
4.0600000000000005,-0.008305671013077618
4.064,-0.008307209607824835
4.0680000000000005,-0.008306921121309731
4.072,-0.008306800918595104
4.0760000000000005,-0.008303747769643596
4.08,-0.008302016850552978
4.0840000000000005,-0.008303603526386046
4.088,-0.008304613229188906
4.0920000000000005,-0.00830535848601959
4.096,-0.00830509404004741
4.1,-0.008303387161499717
4.104,-0.008303867972358223
4.108,-0.008302401499239782
4.112,-0.008303459283128494
4.116,-0.008301848566752501
4.12,-0.008302858269555362
4.124,-0.00830225725598223
4.128,-0.008301536039694472
4.132,-0.00830220917489638
4.136,-0.0083041324183304
4.14,-0.008302882310098287
4.144,-0.008303098674984615
4.148,-0.00830540656710544
4.152,-0.008307017283481433
4.156,-0.008306392229365375
4.16,-0.008302786147926585
4.164,-0.008300670580149163
4.168,-0.008300045526033107
4.172,-0.008302016850552978
4.176,-0.00830220917489638
4.18,-0.00830490171570401
4.184,-0.008302305337068081
4.188,-0.008297160660882074
4.192,-0.008296511566223092
4.196,-0.008301055228835967
4.2,-0.008303747769643596
4.204,-0.008302569783040259
4.208,-0.00830317079661339
4.212,-0.008304733431903532
4.216,-0.008305743134706393
4.22,-0.008304757472446458
4.224,-0.00830485363461816
4.228,-0.008304709391360608
4.232,-0.008302016850552978
4.236,-0.008301728364037874
4.24,-0.00830591141850687
4.244,-0.008307065364567283
4.248,-0.008307377891625311
4.252,-0.008304709391360608
4.256,-0.008304973837332785
4.26,-0.008302016850552978
4.264,-0.008301127350464742
4.268,-0.008304156458873327
4.272,-0.008303603526386046
4.276,-0.008302545742497332
4.28,-0.008302233215439304
4.284,-0.008305262323847888
4.288,-0.008305574850905917
4.292,-0.008300526336891611
4.296,-0.008300237850376507
4.3,-0.008300622499063312
4.304,-0.008302353418153932
4.308,-0.008298771377258067
4.312,-0.008297016417624523
4.316,-0.008296559647308943
4.32,-0.00829860309345759
4.324,-0.00829682409328112
4.328,-0.008295573985049006
4.332,-0.008293410336185733
4.336,-0.008294732566046622
4.34,-0.008295718228306558
4.344,-0.008294323876816893
4.348,-0.008294876809304174
4.352,-0.008295646106677783
4.356,-0.008293362255099882
4.36,-0.008292040025238994
4.364,-0.008291078403521984
4.368,-0.008293722863243761
4.372,-0.008296415404051391
4.376,-0.008295886512107036
4.38,-0.00829805016097031
4.384,-0.008296583687851867
4.388,-0.00829444407953152
4.392,-0.00829078991700688
4.396,-0.008293314174014032
4.4,-0.008295838431021186
4.404,-0.008297352985225477
4.408,-0.008294972971475875
4.412,-0.008298170363684935
4.416,-0.008295525903963156
4.42,-0.008293001646956004
4.424,-0.008295549944506082
4.428,-0.008294804687675399
4.432,-0.008294083471387641
4.436,-0.008296800052738196
4.44,-0.008297617431197654
4.444,-0.00829805016097031
4.448,-0.008300814823406714
4.452,-0.008300093607118957
4.456,-0.008295958633735811
4.46,-0.008297136620339148
4.464,-0.008296607728394793
4.468,-0.008297881877169832
4.472,-0.008297016417624523
4.476,-0.00829682409328112
4.48,-0.008296054795907512
4.484,-0.008296559647308943
4.488,-0.008301536039694472
4.492,-0.008301079269378892
4.496,-0.008299083904316095
4.5,-0.008300141688204806
4.5040000000000004,-0.008300141688204806
4.508,-0.008302113012724679
4.5120000000000005,-0.008303699688557747
4.516,-0.008300117647661882
4.5200000000000005,-0.008298074201513234
4.524,-0.008298939661058543
4.5280000000000005,-0.008296800052738196
4.532,-0.008291967903610217
4.5360000000000005,-0.008291679417095115
4.54,-0.0082927131604409
4.5440000000000005,-0.008294684484960773
4.548,-0.008294083471387641
4.5520000000000005,-0.008291967903610217
4.556,-0.008291919822524366
4.5600000000000005,-0.008292424673925797
4.564,-0.00829805016097031
4.5680000000000005,-0.008295237417448054
4.572,-0.008293145890213556
4.5760000000000005,-0.008296559647308943
4.58,-0.00829732894468255
4.5840000000000005,-0.00829581439047826
4.588,-0.008296439444594317
4.5920000000000005,-0.008296559647308943
4.596,-0.008298458850200039
4.6000000000000005,-0.008296415404051391
4.604,-0.008295333579619753
4.6080000000000005,-0.008292232349582396
4.612,-0.008289756173661093
4.616,-0.008294420038988594
4.62,-0.008297040458167449
4.624,-0.008295766309392409
4.628,-0.00829348245781451
4.632,-0.008293049728041854
4.636,-0.008294155593016416
4.64,-0.00829535762016268
4.644,-0.00829732894468255
4.648,-0.008296295201336765
4.652,-0.0082949008498471
4.656,-0.008294997012018801
4.66,-0.008293001646956004
4.664,-0.008295549944506082
4.668,-0.008295670147220708
4.672,-0.008296679850023568
4.676,-0.008298699255629292
4.68,-0.00829860309345759
4.684,-0.008300285931462358
4.688,-0.008298627134000515
4.692,-0.008297857836626907
4.696,-0.008298891579972694
4.7,-0.008297016417624523
4.704,-0.008295598025591933
4.708,-0.008295549944506082
4.712,-0.00829591055264996
4.716,-0.008294924890390024
4.72,-0.008295045093104652
4.724,-0.008295213376905128
4.728,-0.008295525903963156
4.732,-0.008296150958079214
4.736,-0.008295141255276353
4.74,-0.008296391363508467
4.744,-0.008295838431021186
4.748,-0.008298002079884459
4.752,-0.008292352552297022
4.756,-0.008292040025238994
4.76,-0.008296848133824046
4.764,-0.008298410769114188
4.768,-0.008296751971652345
4.772,-0.008295646106677783
4.776,-0.00829266507935505
4.78,-0.008291991944153143
4.784,-0.00829175153872389
4.788,-0.008294371957902743
4.792,-0.008294323876816893
4.796,-0.008296463485137242
4.8,-0.008296126917536287
4.804,-0.008295477822877305
4.808,-0.008296174998622138
4.812,-0.00829220830903947
4.816,-0.008289395565517214
4.82,-0.0082905254710347
4.824,-0.00829216022795362
4.828,-0.00829175153872389
4.832,-0.008291823660352665
4.836,-0.008292616998269199
4.84,-0.008291607295466338
4.844,-0.00829591055264996
4.848,-0.008294179633559341
4.852,-0.008293386295642809
4.856,-0.008294083471387641
4.86,-0.008297377025768401
4.864,-0.008300261890919433
4.868,-0.008301223512636444
4.872,-0.008300622499063312
4.876,-0.008299420471917049
4.88,-0.008293891147044239
4.884,-0.008288962835744559
4.888,-0.008287304038282716
4.892,-0.008289660011489392
4.896,-0.008289852335832794
4.9,-0.008289635970946467
4.904,-0.008292015984696068
4.908,-0.008289684052032318
4.912,-0.00828987637637572
4.916,-0.008289395565517214
4.92,-0.008285500997563321
4.924,-0.008284154727159506
4.928,-0.008282111281010859
4.932,-0.008280668848435344
4.936,-0.008282135321553785
4.94,-0.008282544010783514
4.944,-0.008280909253864596
4.948,-0.00828215936209671
4.952,-0.008283217145985422
4.956,-0.008289227281716738
4.96,-0.008291006281893207
4.964,-0.008288482024886055
4.968,-0.00828946768714599
4.972,-0.008287111713939314
4.976,-0.008286486659823258
4.98,-0.008288409903257278
4.984,-0.008290910119721506
4.988,-0.008287784849141222
4.992,-0.008287279997739792
4.996,-0.008287352119368567
5.0,-0.008290212943976673
5.0040000000000004,-0.008288986876287485
5.008,-0.008287568484254893
5.0120000000000005,-0.008288001214027549
5.016,-0.008287159795025164
5.0200000000000005,-0.008285092308333592
5.024,-0.00828439513258876
5.0280000000000005,-0.008284154727159506
5.032,-0.008285717362449648
5.0360000000000005,-0.008285885646250126
5.04,-0.008289203241173812
5.0440000000000005,-0.00828910707900211
5.048,-0.008285044227247742
5.0520000000000005,-0.008285116348876517
5.056,-0.008286991511224688
5.0600000000000005,-0.00828850606542898
5.064,-0.00828489998399019
5.0680000000000005,-0.008284010483901955
5.072,-0.008286029889507678
5.0760000000000005,-0.008287424240997343
5.08,-0.008285164429962367
5.0840000000000005,-0.008285212511048218
5.088,-0.008288722430315306
5.0920000000000005,-0.008291991944153143
5.096,-0.008291919822524366
5.1000000000000005,-0.00828850606542898
5.104,-0.008285717362449648
5.1080000000000005,-0.008286943430138837
5.112,-0.008290669714292253
5.1160000000000005,-0.008289948498004495
5.12,-0.008286198173308154
5.124,-0.008286919389595911
5.128,-0.008284779781275564
5.132,-0.008283217145985422
5.136,-0.008283697956843927
5.14,-0.008287496362626118
5.144,-0.008289443646603065
5.148,-0.008288025254570475
5.152,-0.00828663090308081
5.156,-0.00828663090308081
5.16,-0.008284178767702433
5.164,-0.008284515335303385
5.168,-0.008284731700189714
5.172,-0.008285621200277949
5.176,-0.008281197740379699
5.18,-0.00828124582146555
5.184,-0.008282087240467934
5.188,-0.008285188470505293
5.192,-0.00828206319992501
5.196,-0.008279803388890034
5.2,-0.008280668848435344
5.204,-0.008283721997386853
5.208,-0.00828631837602278
5.212,-0.00828718383556809
5.216,-0.008287376159911493
5.22,-0.008284683619103863
5.224,-0.00828271229458399
5.228,-0.008280861172778747
5.232,-0.008278697523915472
5.236,-0.008281149659293848
5.24,-0.008282640172955215
5.244,-0.00828134198363725
5.248,-0.00828215936209671
5.252,-0.008283794119015628
5.256,-0.008287063632853463
5.26,-0.00828718383556809
5.264,-0.008285476957020397
5.268,-0.008287039592310539
5.272,-0.008284707659646787
5.276,-0.008281125618750924
5.28,-0.008281582389066504
5.284,-0.008285645240820873
5.288,-0.00828946768714599
5.292,-0.008292592957726275
5.296,-0.00829083799809273
5.3,-0.008289491727688916
5.304,-0.008289948498004495
5.308,-0.008292568917183349
5.312,-0.0082905254710347
5.316,-0.00829083799809273
5.32,-0.008290405268320075
5.324,-0.008287448281540268
5.328,-0.008285741402992574
5.332,-0.008289852335832794
5.336,-0.008286126051679379
5.34,-0.008281390064723101
5.344,-0.008283385429785899
5.348,-0.0082856692813638
5.352,-0.008283409470328823
5.356,-0.008282544010783514
5.36,-0.008280452483549016
5.364,-0.00827718296971118
5.368,-0.008278721564458398
5.372,-0.008281822794495757
5.376,-0.008280861172778747
5.38,-0.008280620767349494
5.384,-0.008278986010430575
5.388,-0.008279562983460782
5.392,-0.008283673916301002
5.396,-0.008282111281010859
5.4,-0.00827937065911738
5.404,-0.008278841767173023
5.408,-0.008278384996857444
5.412,-0.008279250456402753
5.416,-0.008284635538018012
5.42,-0.008283000781099094
5.424,-0.008281053497122147
5.428,-0.008279659145632483
5.432,-0.00827571649659274
5.436,-0.008275692456049814
5.44,-0.00827713488862533
5.444,-0.008278745605001322
5.448,-0.008278649442829621
5.452,-0.008278024388713565
5.456,-0.008276581956138049
5.46,-0.008278625402286697
5.464,-0.008279779348347109
5.468,-0.008281654510695279
5.472,-0.008281942997210382
5.476,-0.008281269862008476
5.48,-0.00828201511883916
5.484,-0.008283553713586375
5.488,-0.00828170259178113
5.492,-0.008284226848788283
5.496,-0.008284683619103863
5.5,-0.008284058564987805
5.5040000000000004,-0.008282399767525962
5.508,-0.00828134198363725
5.5120000000000005,-0.008281173699836775
5.516,-0.008283866240644405
5.5200000000000005,-0.008282447848611813
5.524,-0.008282471889154739
5.5280000000000005,-0.008277783983284312
5.532,-0.0082767261993956
5.5360000000000005,-0.008279346618574454
5.54,-0.008282375726983038
5.5440000000000005,-0.008284226848788283
5.548,-0.008284659578560937
5.5520000000000005,-0.008283890281187329
5.556,-0.008281510267437727
5.5600000000000005,-0.008275932861479067
5.564,-0.008274971239762056
5.5680000000000005,-0.00827525972627716
5.572,-0.008279010050973501
5.5760000000000005,-0.00827804842925649
5.58,-0.008276245388537095
5.5840000000000005,-0.008277062766996555
5.588,-0.00827845711848622
5.5920000000000005,-0.008278168631971117
5.596,-0.00827617326690832
5.6000000000000005,-0.008277543577855059
5.604,-0.00827941874020323
5.6080000000000005,-0.008276077104736618
5.612,-0.008276750239938525
5.6160000000000005,-0.008277207010254107
5.62,-0.008271701725924221
5.6240000000000006,-0.008271172833979865
5.628,-0.00827028333389163
5.632,-0.008271124752894014
5.636,-0.00827114879343694
5.64,-0.008275043361390831
5.644,-0.008276846402110226
5.648,-0.008273096077413885
5.652,-0.008271990212439323
5.656,-0.008273793253158718
5.66,-0.008273624969358242
5.664,-0.008273961536959196
5.668,-0.008274153861302598
5.672,-0.008273697090987017
5.676,-0.008272711428727082
5.68,-0.008269970806833601
5.684,-0.008272446982754905
5.688,-0.008272206577325652
5.692,-0.0082744423478177
5.696,-0.008273769212615793
5.7,-0.008271725766467146
5.704,-0.008275355888448861
5.708,-0.008276966604824854
5.712,-0.008274370226188925
5.716,-0.00827261526655538
5.72,-0.008271533442123743
5.724,-0.008274322145103074
5.728,-0.0082744423478177
5.732,-0.008273745172072867
5.736,-0.008275740537135664
5.74,-0.008275091442476682
5.744,-0.008271966171896399
5.748,-0.00827201425298225
5.752,-0.008270956469093538
5.756,-0.008270956469093538
5.76,-0.008270427577149181
5.764,-0.008268768779687338
5.768,-0.008264946333362222
5.772,-0.008267879279599103
5.776,-0.008269345752717545
5.78,-0.008270523739320882
5.784,-0.008271581523209594
5.788,-0.008271773847552996
5.792,-0.008269489995975097
5.796,-0.008270187171719928
5.8,-0.00827160556375252
5.804,-0.008269994847376528
5.808,-0.008269850604118976
5.812,-0.008269249590545844
5.816,-0.008271485361037893
5.82,-0.008271773847552996
5.824,-0.008268480293172235
5.828,-0.008269009185116591
5.832,-0.00827165364483837
5.836,-0.008271942131353472
5.84,-0.008275139523562533
5.844,-0.00827840903740037
5.848,-0.008274658712704028
5.852,-0.00827083626637891
5.856,-0.00826936979326047
5.86,-0.008270980509636462
5.864,-0.00827160556375252
5.868,-0.008272278698954427
5.872,-0.008271797888095922
5.876,-0.008269514036518022
5.88,-0.008268215847200057
5.884,-0.008270523739320882
5.888,-0.008268552414801011
5.892,-0.008264994414448073
5.896,-0.008265811792907531
5.9,-0.008270884347464761
5.904,-0.008270187171719928
5.908,-0.008267350387654748
5.912,-0.008266124319965559
5.916,-0.008267254225483047
5.92,-0.00826754271199815
5.924,-0.008270163131177004
5.928,-0.008272278698954427
5.932,-0.008269514036518022
5.936,-0.008267638874169852
5.94,-0.008267807157970328
5.944,-0.008268215847200057
5.948,-0.008265355022591951
5.952,-0.008265835833450457
5.956,-0.008267230184940121
5.96,-0.008265883914536308
5.964,-0.008263551981872556
5.968,-0.008262422076355068
5.972,-0.008264201076531539
5.976,-0.008262133589839966
5.98,-0.008261845103324863
5.984,-0.008261628738438536
5.988,-0.008264273198160314
5.992,-0.008263960671102286
5.996,-0.008261989346582415
6.0,-0.0082653069415061
6.0040000000000004,-0.008262926927756499
6.008,-0.008264633806304194
6.0120000000000005,-0.00826744654982645
6.016,-0.008266508968652364
6.0200000000000005,-0.008264321279246164
6.024,-0.008265643509107055
6.0280000000000005,-0.008263503900786706
6.032,-0.008264273198160314
6.0360000000000005,-0.008265114617162698
6.04,-0.008267831198513253
6.0440000000000005,-0.008265883914536308
6.048,-0.0082630230899282
6.0520000000000005,-0.008262301873640443
6.056,-0.008265282900963176
6.0600000000000005,-0.008263744306215959
6.064,-0.008263744306215959
6.0680000000000005,-0.00826384046838766
6.072,-0.008261989346582415
6.0760000000000005,-0.008259248724688934
6.08,-0.008260018022062542
6.0840000000000005,-0.008259849738262066
6.088,-0.008260018022062542
6.0920000000000005,-0.008259897819347916
6.096,-0.008261676819524387
6.1000000000000005,-0.008265475225306577
6.104,-0.008264273198160314
6.1080000000000005,-0.008263359657529154
6.112,-0.008260883481607853
6.1160000000000005,-0.0082584553867724
6.12,-0.008260835400522002
6.1240000000000006,-0.008262325914183367
6.128,-0.008267374428197673
6.132000000000001,-0.008268840901316115
6.136,-0.008266965738967944
6.140000000000001,-0.008265162698248549
6.144,-0.00826485017119052
6.148,-0.008268191806657133
6.152,-0.008265499265849503
6.156,-0.008265499265849503
6.16,-0.008265403103677802
6.164,-0.008268095644485432
6.168,-0.008267085941682571
6.172,-0.008265114617162698
6.176,-0.00826626856322311
6.18,-0.008267230184940121
6.184,-0.008265547346935354
6.188,-0.008265330982049025
6.192,-0.008270163131177004
6.196,-0.008271172833979865
6.2,-0.00826840817154346
6.204,-0.008264729968475893
6.208,-0.0082630230899282
6.212,-0.008265956036165083
6.216,-0.008268937063487814
6.22,-0.008262926927756499
6.224,-0.008255089710762864
6.228,-0.008253358791672244
6.232,-0.00825383960253075
6.236,-0.008252397169955234
6.24,-0.008255738805421846
6.244,-0.008258743873287504
6.248,-0.008264898252276371
6.252,-0.008265114617162698
6.256,-0.00826119600866588
6.26,-0.008262782684498949
6.264,-0.008264008752188136
6.268,-0.008264465522503716
6.272,-0.008263311576443303
6.276,-0.008260066103148393
6.28,-0.008263263495357453
6.284,-0.00826662917136699
6.288,-0.008268191806657133
6.292,-0.008264922292819296
6.296,-0.008263287535900379
6.3,-0.008264080873816913
6.304,-0.008262999049385275
6.308,-0.008263263495357453
6.312,-0.00826307117101405
6.316,-0.008264465522503716
6.32,-0.008264008752188136
6.324,-0.008264946333362222
6.328,-0.008267398468740599
6.332,-0.008269345752717545
6.336,-0.008268071603942505
6.34,-0.008266965738967944
6.344,-0.008264537644132493
6.348,-0.008263936630559361
6.352,-0.008264465522503716
6.356,-0.008266605130824065
6.36,-0.008266364725394812
6.364,-0.008264898252276371
6.368,-0.008264561684675417
6.372,-0.00826622048213726
6.376,-0.008265403103677802
6.38,-0.008261436414095134
6.384,-0.008258527508401177
6.388,-0.008252493332126935
6.392,-0.008251507669866999
6.396,-0.008251940399639654
6.4,-0.008253527075472722
6.404,-0.00825896023817383
6.408,-0.008264225117074463
6.412,-0.008261869143867787
6.416,-0.008259344886860635
6.42,-0.008256820629853483
6.424,-0.008255907089222322
6.428,-0.008256460021709603
6.432,-0.008256051332479874
6.436,-0.008260114184234243
6.44,-0.00826160469789561
6.444,-0.008263912590016435
6.448,-0.00826307117101405
6.452,-0.008256460021709603
6.456,-0.00825343091330102
6.46,-0.008258311143514848
6.464,-0.008261123887037104
6.468,-0.008264128954902762
6.472,-0.008264826130647595
6.476,-0.008262902887213574
6.48,-0.008261748941153162
6.484,-0.008261580657352685
6.488,-0.008261244089751731
6.492,-0.008259657413918663
6.496,-0.008260979643779554
6.5,-0.008261676819524387
6.5040000000000004,-0.008262205711468741
6.508,-0.008264441481960792
6.5120000000000005,-0.008263864508930584
6.516,-0.0082606430761786
6.5200000000000005,-0.00825992185989084
6.524,-0.008258936197630906
6.5280000000000005,-0.008260354589663496
6.532,-0.008259585292289888
6.5360000000000005,-0.008256652346053005
6.54,-0.008255282035106266
6.5440000000000005,-0.008255859008136471
6.548,-0.008259513170661112
6.5520000000000005,-0.00825927276523186
6.556,-0.008255931129765248
6.5600000000000005,-0.008257181237997362
6.564,-0.008255859008136471
6.5680000000000005,-0.008254080007960003
6.572,-0.008254608899904358
6.5760000000000005,-0.00825566668379307
6.58,-0.00825840730568655
6.5840000000000005,-0.00825850346785825
6.588,-0.008256868710939334
6.5920000000000005,-0.00825795053537097
6.596,-0.008258166900257297
6.6000000000000005,-0.008254873345876537
6.604,-0.008254055967417077
6.6080000000000005,-0.008254224251217555
6.612,-0.008260402670749347
6.6160000000000005,-0.008261436414095134
6.62,-0.008259537211204038
6.6240000000000006,-0.00825561860270722
6.628,-0.008256652346053005
6.632000000000001,-0.008257734170484643
6.636,-0.008256171535194501
6.640000000000001,-0.008258767913830428
6.644,-0.008259585292289888
6.648000000000001,-0.008258623670572878
6.652,-0.008259825697719141
6.656000000000001,-0.008260114184234243
6.66,-0.008260859441064927
6.664,-0.008255931129765248
6.668,-0.008253647278187348
6.672,-0.008256147494651575
6.676,-0.008258599630029952
6.68,-0.008260450751835197
6.684,-0.008257373562340764
6.688,-0.008258166900257297
6.692,-0.00825557052162137
6.696,-0.008252685656470337
6.7,-0.00825292606189959
6.704,-0.008247757345170659
6.708,-0.00824785350734236
6.712,-0.0082516038320387
6.716,-0.008250449885978287
6.72,-0.008252733737556188
6.724,-0.008253911724159525
6.728,-0.008253166467328843
6.732,-0.008255738805421846
6.736,-0.008256460021709603
6.74,-0.008258431346229476
6.744,-0.008256387900080828
6.748,-0.00825557052162137
6.752,-0.008255041629677013
6.756,-0.008254464656646808
6.76,-0.008253527075472722
6.764,-0.008252060602354281
6.768,-0.008250377764349512
6.772,-0.00825246929158401
6.776,-0.008252781818642039
6.78,-0.008254464656646808
6.784,-0.008254200210674629
6.788,-0.00825109898063727
6.792,-0.008251507669866999
6.796,-0.008256676386595932
6.8,-0.008258311143514848
6.804,-0.00825703699473981
6.808,-0.008254031926874152
6.812,-0.008249488264261277
6.816,-0.00825338283221517
6.82,-0.00825557052162137
6.824,-0.008252733737556188
6.828,-0.00825520991347749
6.832,-0.008257638008312942
6.836,-0.008258431346229476
6.84,-0.008256892751482258
6.844,-0.00825506567021994
6.848,-0.008257205278540286
6.852,-0.008252902021356664
6.856,-0.008248238156029163
6.86,-0.00824927189937495
6.864,-0.008248166034400388
6.868,-0.008249488264261277
6.872,-0.008254729102618985
6.876,-0.008256363859537902
6.88,-0.008255546481078443
6.884,-0.00825333475112932
6.888,-0.008254007886331226
6.892,-0.008253671318730274
6.896,-0.008254248291760479
6.9,-0.008253214548414694
6.904,-0.008251892318553803
6.908,-0.008253695359273198
6.912,-0.008254681021533134
6.916,-0.008252853940270814
6.92,-0.00825069029140754
6.924,-0.008250978777922644
6.928,-0.008254825264790686
6.932,-0.00825795053537097
6.936,-0.00825576284596477
6.94,-0.008254993548591162
6.944,-0.008252084642897206
6.948,-0.008246964007254125
6.952,-0.008250305642720735
6.956,-0.008251002818465568
6.96,-0.008248238156029163
6.964,-0.008247012088339976
6.968,-0.00824516096653473
6.972,-0.008246939966711199
6.976,-0.008249993115662707
6.98,-0.008248190074943313
6.984,-0.008247156331597527
6.988,-0.008249920994033932
6.992,-0.008247733304627733
6.996,-0.008250570088692915
7.0,-0.008250449885978287
7.0040000000000004,-0.00824602642608004
7.008,-0.00824379065558799
7.0120000000000005,-0.008246964007254125
7.016,-0.008248694926344743
7.0200000000000005,-0.008247468858655555
7.024,-0.00824794966951406
7.0280000000000005,-0.008246747642367797
7.032,-0.008247877547885285
7.0360000000000005,-0.008248694926344743
7.04,-0.008248550683087191
7.0440000000000005,-0.008247132291054601
7.048,-0.008248117953314538
7.0520000000000005,-0.008250353723806586
7.056,-0.008249416142632502
7.0600000000000005,-0.008250497967064138
7.064,-0.008252950102442515
7.0680000000000005,-0.008253551116015646
7.072,-0.008255017589134089
7.0760000000000005,-0.008252781818642039
7.08,-0.008248141993857462
7.0840000000000005,-0.008242804993328055
7.088,-0.00824434358807527
7.0920000000000005,-0.008243502169072887
7.096,-0.008241266398580837
7.1000000000000005,-0.008241723168896417
7.104,-0.00824292519604268
7.1080000000000005,-0.008243958939388467
7.112,-0.008244752277305001
7.1160000000000005,-0.008244175304274794
7.12,-0.008243213682557784
7.1240000000000006,-0.008244031061017242
7.128,-0.008244367628618196
7.132000000000001,-0.008247637142456032
7.136,-0.008248598764173042
7.140000000000001,-0.008247132291054601
7.144,-0.00824648319639562
7.148000000000001,-0.008247180372140452
7.152,-0.00824653127748147
7.156000000000001,-0.00824749289919848
7.16,-0.0082446561151333
7.164000000000001,-0.008242228020297847
7.168,-0.008239655682204845
7.172,-0.008240785587722331
7.176,-0.008244103182646019
7.18,-0.008243526209615812
7.184,-0.008246435115309769
7.188,-0.008246170669337591
7.192,-0.00824429550698942
7.196,-0.008243357925815336
7.2,-0.00823881426320246
7.204,-0.00824059326337893
7.208,-0.008242324182469549
7.212,-0.008244583993504523
7.216,-0.00824612258825174
7.22,-0.008244511871875748
7.224,-0.008241699128353493
7.228,-0.008243045398757308
7.232,-0.008237972844200076
7.236,-0.008235063938506119
7.24,-0.008236963141397215
7.244,-0.008235063938506119
7.248,-0.008234631208733465
7.252,-0.008237828600942524
7.256,-0.008237828600942524
7.26,-0.008238165168543478
7.264,-0.008236674654882111
7.268,-0.008235737073708027
7.272,-0.008234270600589585
7.276,-0.008237251627912319
7.28,-0.00824145872292424
7.284,-0.008240833668808182
7.288,-0.008237996884743002
7.292,-0.00823607364130898
7.296,-0.008239511438947293
7.3,-0.008240160533606275
7.304,-0.008239463357861443
7.308,-0.008238742141573685
7.312,-0.00823881426320246
7.316,-0.008238790222659536
7.32,-0.00824013649306335
7.324,-0.008241314479666688
7.328,-0.008241867412153969
7.332,-0.008242203979754923
7.336,-0.008241795290525194
7.34,-0.008244992682734252
7.344,-0.008246771682910723
7.348,-0.008244848439476702
7.352,-0.00824054518229308
7.356,-0.008240424979578453
7.36,-0.008245761980107862
7.364,-0.008247565020827257
7.368,-0.00824754098028433
7.372,-0.008245257128706432
7.376,-0.00824297327712853
7.38,-0.008242083777040296
7.384,-0.008242131858126146
7.388,-0.008242035695954445
7.392,-0.008245257128706432
7.396,-0.008244583993504523
7.4,-0.008242588628441726
7.404,-0.008240977912065734
7.408,-0.008240088411977499
7.412,-0.008241314479666688
7.416,-0.008242636709527577
7.42,-0.008245473493592758
7.424,-0.00824415126373187
7.428,-0.008238670019944909
7.432,-0.008235713033165101
7.436,-0.008235592830450476
7.44,-0.00823689101976844
7.444,-0.008239559520033144
7.448,-0.008242540547355875
7.452,-0.008245473493592758
7.456,-0.008244367628618196
7.46,-0.00824100195260866
7.464,-0.008238237290172255
7.468,-0.008238645979401984
7.472,-0.008236410208909934
7.476,-0.008233260897786724
7.48,-0.008234222519503735
7.484,-0.008236722735967962
7.488,-0.008236915060311364
7.492,-0.008240761547179407
7.496,-0.008242540547355875
7.5,-0.008242780952785128
7.5040000000000004,-0.008240617303921855
7.508,-0.008240016290348724
7.5120000000000005,-0.008237443952255721
7.516,-0.008240400939035528
7.5200000000000005,-0.008240833668808182
7.524,-0.008242949236585606
7.5280000000000005,-0.008241146195866212
7.532,-0.00823927103351804
7.5360000000000005,-0.008240881749894033
7.54,-0.008239631641661919
7.5440000000000005,-0.008239992249805799
7.548,-0.008241266398580837
7.5520000000000005,-0.008239968209262873
7.556,-0.008237588195513273
7.5600000000000005,-0.008236314046738233
7.564,-0.008236338087281159
7.5680000000000005,-0.00823328493832965
7.572,-0.008234102316789109
7.5760000000000005,-0.008235785154793878
7.58,-0.008232034830097537
7.5840000000000005,-0.00823237139769849
7.588,-0.008235977479137279
7.5920000000000005,-0.008232683924756519
7.596,-0.008227923897257317
7.6000000000000005,-0.008230904924580049
7.604,-0.008234390803304212
7.6080000000000005,-0.008233669587016454
7.612,-0.00823201078955461
7.6160000000000005,-0.008233982114074483
7.62,-0.008232948370728696
7.6240000000000006,-0.008234390803304212
7.628,-0.008238597898316134
7.632000000000001,-0.008236987181940141
7.636,-0.008233621505930603
7.640000000000001,-0.008233645546473529
7.644,-0.008235977479137279
7.648000000000001,-0.00823470333036224
7.652,-0.008235977479137279
7.656000000000001,-0.008233789789731081
7.66,-0.008235352425021223
7.664000000000001,-0.008231385735438555
7.668,-0.008228717235173849
7.672000000000001,-0.008229246127118206
7.676,-0.00823100108675175
7.68,-0.008234342722218362
7.684,-0.008238093046914703
7.688,-0.00823967972274777
7.692,-0.008239078709174638
7.696,-0.008238501736144432
7.7,-0.008239198911889265
7.704,-0.008237996884743002
7.708,-0.008237780519856673
7.712,-0.008236794857596739
7.716,-0.008233260897786724
7.72,-0.008232058870640461
7.724,-0.008232491600413117
7.728,-0.008230063505577664
7.732,-0.00823150593815318
7.736,-0.008228548951373373
7.74,-0.008229414410918682
7.744,-0.008232299276069714
7.748,-0.008231794424668284
7.752,-0.008231890586839985
7.756,-0.008232395438241415
7.76,-0.008234991816877344
7.764,-0.008230207748835216
7.768,-0.008228236424315345
7.772,-0.008227322883684185
7.776,-0.008226241059252548
7.78,-0.008232611803127742
7.784,-0.00823273200584237
7.788,-0.008231938667925836
7.792,-0.008230207748835216
7.796,-0.00823145785706733
7.8,-0.008230880884037124
7.804,-0.008231866546297059
7.808,-0.008234535046561764
7.812,-0.00823282816801407
7.816,-0.008228476829744598
7.82,-0.008225616005136492
7.824,-0.008227226721512484
7.828,-0.008230880884037124
7.832,-0.008237780519856673
7.836,-0.008236338087281159
7.84,-0.008236698695425038
7.844,-0.008237756479313749
7.848,-0.00823424656004666
7.852,-0.008233477262673051
7.856,-0.00823511201959197
7.86,-0.008239559520033144
7.864,-0.008237131425197691
7.868,-0.00823826133071518
7.872,-0.008236049600766055
7.876,-0.008236674654882111
7.88,-0.008238525776687357
7.884,-0.00823729970899817
7.888,-0.008236049600766055
7.892,-0.008236722735967962
7.896,-0.008239126790260488
7.9,-0.008244079142103093
7.904,-0.008244992682734252
7.908,-0.008244632074590374
7.912,-0.008244175304274794
7.916,-0.008241747209439343
7.92,-0.008241362560752538
7.924,-0.008239343155146817
7.928,-0.008240449020121379
7.932,-0.0082378045603996
7.936,-0.008237492033341572
7.94,-0.008243285804186559
7.944,-0.008240449020121379
7.948,-0.008240761547179407
7.952,-0.008241074074237435
7.956,-0.008238141128000554
7.96,-0.008236915060311364
7.964,-0.008235376465564147
7.968,-0.008236097681851906
7.972,-0.008239030628088787
7.976,-0.008243021358214381
7.98,-0.008239391236232668
7.984,-0.008236001519680205
7.988,-0.008238381533429805
7.992,-0.00824100195260866
7.996,-0.00824049710120723
8.0,-0.008236145762937757
8.004,-0.008233092613986248
8.008000000000001,-0.00823318877615795
8.012,-0.008234583127647615
8.016,-0.008233837870816932
8.02,-0.008237732438770823
8.024000000000001,-0.00823830941180103
8.028,-0.008239631641661919
8.032,-0.0082379007225713
8.036,-0.008237251627912319
8.040000000000001,-0.008239751844376546
8.044,-0.008241242358037913
8.048,-0.008239872047091172
8.052,-0.008243406006901186
8.056000000000001,-0.00824287711495683
8.06,-0.008241723168896417
8.064,-0.008240857709351108
8.068,-0.008236674654882111
8.072000000000001,-0.008234535046561764
8.076,-0.008239391236232668
8.08,-0.008242540547355875
8.084,-0.008241098114780361
8.088000000000001,-0.008241146195866212
8.092,-0.00824004033089165
8.096,-0.00823638616836701
8.1,-0.008234270600589585
8.104000000000001,-0.008238333452343954
8.108,-0.008241675087810566
8.112,-0.008243357925815336
8.116,-0.008241602966181791
8.120000000000001,-0.008242588628441726
8.124,-0.008243189642014858
8.128,-0.008243478128529961
8.132,-0.008241723168896417
8.136000000000001,-0.008239583560576068
8.14,-0.008239439317318518
8.144,-0.008241242358037913
8.148,-0.008244079142103093
8.152000000000001,-0.008243285804186559
8.156,-0.008238549817230283
8.16,-0.00823607364130898
8.164,-0.008235953438594354
8.168000000000001,-0.008236097681851906
8.172,-0.008232804127471145
8.176,-0.008233044532900398
8.18,-0.00823287624909992
8.184000000000001,-0.008234030195160334
8.188,-0.00823424656004666
8.192,-0.008231337654352704
8.196,-0.008230856843494198
8.2,-0.008231217451638077
8.204,-0.008229943302863038
8.208,-0.00823273200584237
8.212,-0.008234102316789109
8.216,-0.008233453222130127
8.22,-0.00823297241127162
8.224,-0.00823278008692822
8.228,-0.008231337654352704
8.232,-0.008230159667749365
8.236,-0.008233260897786724
8.24,-0.00823328493832965
8.244,-0.008232347357155565
8.248,-0.008231890586839985
8.252,-0.008230231789378142
8.256,-0.008232491600413117
8.26,-0.008234294641132511
8.264,-0.00823374170864523
8.268,-0.00823241947878434
8.272,-0.008234847573619792
8.276,-0.008235737073708027
8.28,-0.008235208181763671
8.284,-0.008233813830274005
8.288,-0.00823237139769849
8.292,-0.008232058870640461
8.296,-0.008233525343758902
8.3,-0.008235015857420269
8.304,-0.008239126790260488
8.308,-0.00823689101976844
8.312,-0.008235136060134896
8.316,-0.008235544749364625
8.32,-0.008233260897786724
8.324,-0.008234535046561764
8.328,-0.008235280303392446
8.332,-0.00823460716819054
8.336,-0.008233381100501352
8.34,-0.008233645546473529
8.344,-0.008235640911536326
8.348,-0.008238838303745387
8.352,-0.008238189209086404
8.356,-0.008235232222306597
8.36,-0.008235039897963195
8.364,-0.008234222519503735
8.368,-0.00823287624909992
8.372,-0.008237131425197691
8.376,-0.008235448587192924
8.38,-0.008231097248923451
8.384,-0.00823013562720644
8.388,-0.008228332586487046
8.392,-0.008228116221600718
8.396,-0.00822912592440358
8.4,-0.008227707532370988
8.404,-0.008226745910653978
8.408,-0.008226168937623773
8.412,-0.008227274802598335
8.416,-0.00822592853219452
8.42,-0.008226289140338398
8.424,-0.008225640045679416
8.428,-0.008226048734909145
8.432,-0.008225039032106285
8.436,-0.008225351559164313
8.44,-0.00822369276170247
8.444,-0.008221673356096746
8.448,-0.008218524044973537
8.452,-0.00822023092352123
8.456,-0.00822318791030104
8.46,-0.008222442653470356
8.464,-0.008222033964240625
8.468,-0.00822150507229627
8.472,-0.008222851342700085
8.476,-0.008223019626500563
8.48,-0.008223933167131723
8.484,-0.008227178640426634
8.488,-0.00822520731590676
8.492,-0.008224173572560976
8.496,-0.008224462059076077
8.5,-0.008225688126765267
8.504,-0.008219822234291501
8.508000000000001,-0.00821708161239802
8.512,-0.008222370531841581
8.516,-0.008224005288760498
8.52,-0.008223476396816143
8.524000000000001,-0.008226000653823295
8.528,-0.008224846707762882
8.532,-0.00822328407247274
8.536,-0.00822068769383681
8.540000000000001,-0.008219437585604698
8.544,-0.008217947071943331
8.548,-0.0082220099236977
8.552,-0.008224438018533153
8.556000000000001,-0.00822684207282568
8.56,-0.008227178640426634
8.564,-0.00822515923482091
8.568,-0.008225351559164313
8.572000000000001,-0.008224317815818527
8.576,-0.008223620640073695
8.58,-0.008225063072649209
8.584,-0.008226048734909145
8.588000000000001,-0.008227082478254932
8.592,-0.008226866113368604
8.596,-0.008226457424138875
8.6,-0.008225495802421864
8.604000000000001,-0.008226289140338398
8.608,-0.008225447721336014
8.612,-0.008228140262143644
8.616,-0.008226409343053024
8.620000000000001,-0.008224413977990229
8.624,-0.00822227436966988
8.628,-0.008221865680440149
8.632,-0.008223837004960021
8.636000000000001,-0.008226096815994996
8.64,-0.008226649748482277
8.644,-0.008223476396816143
8.648,-0.008223308113015665
8.652000000000001,-0.008224582261790705
8.656,-0.00822551984296479
8.66,-0.008226457424138875
8.664,-0.008226048734909145
8.668000000000001,-0.00822470246450533
8.672,-0.008220759815465587
8.676,-0.008219798193748577
8.68,-0.008221481031753344
8.684000000000001,-0.008220110720806605
8.688,-0.008217057571855096
8.692,-0.00822003859917783
8.696,-0.008223812964417097
8.700000000000001,-0.008222490734556206
8.704,-0.00822424569418975
8.708,-0.008222971545414712
8.712,-0.008220086680263678
8.716,-0.008223043667043487
8.72,-0.00822323599138689
8.724,-0.00822369276170247
8.728,-0.008227034397169082
8.732,-0.008225808329479892
8.736,-0.00822150507229627
8.74,-0.008220880018180212
8.744,-0.008217826869228704
8.748,-0.00821373997693141
8.752,-0.008212249463270043
8.756,-0.008214797760820122
8.76,-0.008219629909948099
8.764,-0.008220014558634903
8.768,-0.008220423247864633
8.772,-0.008221168504695316
8.776,-0.008219918396463202
8.78,-0.008223524477901993
8.784,-0.008224558221247779
8.788,-0.008219197180175445
8.792,-0.008215494936564954
8.796,-0.008215254531135701
8.8,-0.008218139396286734
8.804,-0.008219485666690547
8.808,-0.008220303045150007
8.812,-0.008219389504518847
8.816,-0.00821967799103395
8.82,-0.008221408910124569
8.824,-0.008222755180528384
8.828,-0.008225327518621388
8.832,-0.008227587329656363
8.836,-0.008224317815818527
8.84,-0.008221072342523615
8.844,-0.00822054345057926
8.848,-0.008218524044973537
8.852,-0.00821876445040279
8.856,-0.008216095950138086
8.86,-0.008215591098736656
8.864,-0.008214076544532363
8.868,-0.008210470463093573
8.872,-0.008212321584898818
8.876,-0.008210254098207246
8.88,-0.008210181976578471
8.884,-0.008211624409153987
8.888,-0.008215158368964
8.892,-0.008212393706527595
8.896,-0.008212946639014876
8.9,-0.0082127783552144
8.904,-0.00821145612535351
8.908,-0.008210109854949695
8.912,-0.008211720571325687
8.916,-0.008210638746894051
8.92,-0.008204724773334436
8.924,-0.008201335056781974
8.928,-0.008205614273422672
8.932,-0.008204917097677839
8.936,-0.008206984584369411
8.94,-0.008207249030341588
8.944,-0.008206551854596756
8.948,-0.008206071043738251
8.952,-0.008206744178940158
8.956,-0.008206407611339204
8.96,-0.008210157936035545
8.964,-0.008207200949255738
8.968,-0.008203594867816948
8.972,-0.00820282557044334
8.976,-0.008205085381478315
8.98,-0.008205494070708044
8.984,-0.008205133462564166
8.988,-0.008204388205733482
8.992,-0.008207609638485467
8.996,-0.008212105220012492
9.0,-0.008212297544355894
9.004,-0.008212850476843175
9.008000000000001,-0.008210061773863844
9.012,-0.008210374300921874
9.016,-0.008210975314495005
9.02,-0.008209412679204862
9.024000000000001,-0.008203162138044295
9.028,-0.008203498705645247
9.032,-0.0082060229626524
9.036,-0.008206768219483084
9.040000000000001,-0.008206335489710429
9.044,-0.008207176908712813
9.048,-0.008207273070884515
9.052,-0.008205349827450492
9.056000000000001,-0.008202513043385313
9.06,-0.008203354462387695
9.064,-0.008206816300568935
9.068,-0.008204484367905183
9.072000000000001,-0.00820378719216035
9.076,-0.008201887989269255
9.08,-0.008203618908359874
9.084,-0.008205566192336821
9.088000000000001,-0.008209003989975133
9.092,-0.00820785004391472
9.096,-0.008203931435417902
9.1,-0.008204171840847155
9.104000000000001,-0.008204989219306614
9.108,-0.008202537083928237
9.112,-0.008202873651529191
9.116,-0.008203666989445725
9.120000000000001,-0.008197680894257334
9.124,-0.008198690597060194
9.128,-0.008199267570090402
9.132,-0.008197272205027605
9.136000000000001,-0.008195685529194537
9.14,-0.008196647150911547
9.144,-0.008200806164837619
9.148,-0.008199483934976728
9.152000000000001,-0.008199483934976728
9.156,-0.008199507975519655
9.16,-0.008198354029459242
9.164,-0.008199315651176252
9.168000000000001,-0.008196046137338415
9.172,-0.00819455562367705
9.176,-0.008193521880331263
9.18,-0.008197079880684202
9.184000000000001,-0.008199459894433804
9.188,-0.008196599069825698
9.192,-0.008195565326479911
9.196,-0.00819592593462379
9.200000000000001,-0.008194796029106303
9.204,-0.008194026731732694
9.208,-0.008193425718159562
9.212,-0.008192319853185
9.216000000000001,-0.008194146934447321
9.22,-0.008197608772628559
9.224,-0.008195156637250182
9.228,-0.008197007759055427
9.232,-0.008199147367375774
9.236,-0.008197512610456857
9.24,-0.008198281907830465
9.244,-0.00819734432665638
9.248,-0.008197368367199306
9.252,-0.008201719705468779
9.256,-0.008200445556693739
9.26,-0.008196671191454473
9.264,-0.008198089583487063
9.268,-0.008200445556693739
9.272,-0.008198834840317746
9.276,-0.00819861847543142
9.28,-0.008197560691542708
9.284,-0.008198834840317746
9.288,-0.00820058979995129
9.292,-0.008197272205027605
9.296,-0.008194796029106303
9.3,-0.0081946037047629
9.304,-0.008192848745129357
9.308,-0.008194627745305825
9.312,-0.008197127961770053
9.316,-0.00819720008339883
9.32,-0.008195156637250182
9.324,-0.008196526948196921
9.328,-0.008195949975166716
9.332,-0.008195901894080865
9.336,-0.008196238461681818
9.34,-0.008195829772452088
9.344,-0.008192704501871805
9.348,-0.00819373824521759
9.352,-0.00819820978620169
9.356,-0.008196983718512501
9.36,-0.008194363299333648
9.364,-0.008196719272540324
9.368,-0.008200373435064964
9.372,-0.008199027164661149
9.376,-0.00819861847543142
9.38,-0.008199844543120607
9.384,-0.008195949975166716
9.388,-0.008195445123765284
9.392,-0.00819506047507848
9.396,-0.008192584299157177
9.4,-0.00819354592087419
9.404,-0.008197512610456857
9.408,-0.008197801096971961
9.412,-0.00819638270493937
9.416,-0.008192800664043506
9.42,-0.008195204718336032
9.424,-0.008196599069825698
9.428,-0.008192800664043506
9.432,-0.00819323339381616
9.436,-0.008193978650646843
9.44,-0.008192632380243028
9.444,-0.008189795596177848
9.448,-0.008190757217894858
9.452,-0.008192584299157177
9.456,-0.008193185312730309
9.46,-0.008189266704233492
9.464,-0.008192031366669896
9.468,-0.008195637448108686
9.472,-0.008194291177704871
9.476,-0.008194747948020453
9.48,-0.008195204718336032
9.484,-0.008195877853537939
9.488,-0.008192512177528402
9.492,-0.008192704501871805
9.496,-0.008193930569560992
9.5,-0.00819378632630344
9.504,-0.00819354592087419
9.508000000000001,-0.008190685096266082
9.512,-0.008192488136985476
9.516,-0.008194483502048273
9.52,-0.00819354592087419
9.524000000000001,-0.008192800664043506
9.528,-0.008190805298980709
9.532,-0.008191622677440167
9.536,-0.0081946037047629
9.540000000000001,-0.008197488569913931
9.544,-0.008197969380772437
9.548,-0.008195685529194537
9.552,-0.00819378632630344
9.556000000000001,-0.008195348961593584
9.56,-0.008195324921050658
9.564,-0.008196719272540324
9.568,-0.008196599069825698
9.572000000000001,-0.0081991714079187
9.576,-0.008197127961770053
9.58,-0.00819546916430821
9.584,-0.008190300447579279
9.588000000000001,-0.008187728109486274
9.592,-0.00818998792052125
9.596,-0.008192920866758132
9.6,-0.00819542108322236
9.604000000000001,-0.008195156637250182
9.608,-0.008192079447755747
9.612,-0.008186502041797087
9.616,-0.0081900360016071
9.620000000000001,-0.008187175176998993
9.624,-0.008184747082163542
9.628,-0.00818679052831219
9.632,-0.008187175176998993
9.636000000000001,-0.008186622244511712
9.64,-0.008193209353273235
9.644,-0.008195084515621405
9.648,-0.008194988353449704
9.652000000000001,-0.008191935204498195
9.656,-0.008188064677087228
9.66,-0.00818907437989009
9.664,-0.008190060042150026
9.668000000000001,-0.008188761852832061
9.672,-0.00818770406894335
9.676,-0.00819227177209915
9.68,-0.008193714204674666
9.684000000000001,-0.008193401677616638
9.688,-0.008194699866934602
9.692,-0.008194844110192152
9.696,-0.008190997623324111
9.700000000000001,-0.00819039660975098
9.704,-0.00818770406894335
9.708,-0.008189314785319342
9.712,-0.008188377204145256
9.716000000000001,-0.008187103055370218
9.72,-0.008188954177175464
9.724,-0.008190612974637307
9.728,-0.008190468731379755
9.732,-0.00818820892034478
9.736,-0.00819186308286942
9.74,-0.008192800664043506
9.744,-0.008190156204321727
9.748,-0.00818962731237737
9.752,-0.008189002258261314
9.756,-0.008185949109309806
9.76,-0.008184314352390887
9.764,-0.008185227893022047
9.768,-0.00818724729862777
9.772,-0.008185756784966403
9.776,-0.008181766054840809
9.78,-0.008182727676557821
9.784,-0.00818501152813572
9.788,-0.008184146068590411
9.792,-0.008182294946785166
9.796,-0.008181213122353528
9.8,-0.008180035135750191
9.804,-0.008180347662808219
9.808,-0.008181501608868632
9.812,-0.008183064244158773
9.816,-0.008182535352214419
9.82,-0.008180636149323323
9.824,-0.008180660189866247
9.828,-0.008183929703704084
9.832,-0.00818679052831219
9.836,-0.008184170109133335
9.84,-0.008184218190219186
9.844,-0.008181934338641287
9.848,-0.008180732311495024
9.852,-0.008181213122353528
9.856,-0.008182463230585642
9.86,-0.008183160406330475
9.864,-0.00818212666298469
9.868,-0.00817993897357849
9.872,-0.008177510878743037
9.876,-0.008176236729968
9.88,-0.008175731878566569
9.884,-0.008175635716394868
9.888,-0.008176933905712832
9.892,-0.008175227027165138
9.896,-0.008175202986622212
9.9,-0.008174313486533979
9.904,-0.008176236729968
9.908,-0.008174890459564184
9.912,-0.008173808635132547
9.916,-0.008172822972872612
9.92,-0.008171644986269273
9.924,-0.00817039487803716
9.928,-0.008172822972872612
9.932,-0.00817491450010711
9.936,-0.008171813270069751
9.94,-0.008171019932153217
9.944,-0.00817491450010711
9.948,-0.008173255702645266
9.952,-0.008171116094324919
9.956,-0.008170587202380562
9.96,-0.008170875688895666
9.964,-0.008173279743188192
9.968,-0.008173760554046698
9.972,-0.008174193283819351
9.976,-0.00817532318933684
9.98,-0.008175395310965615
9.984,-0.00817359227024622
9.988,-0.008176356932682625
9.992,-0.0081740490405618
9.996,-0.008172318121471182
10.0,-0.00817770320308644
10.004,-0.008176044405624597
10.008000000000001,-0.008176308851596774
10.012,-0.008174770256849559
10.016,-0.008172245999842405
10.02,-0.008170635283466413
10.024000000000001,-0.008168207188630962
10.028,-0.008171164175410769
10.032,-0.008170875688895666
10.036,-0.00816943325632015
10.040000000000001,-0.008169841945549879
10.044,-0.008168351431888514
10.048,-0.008166524350626193
10.052,-0.008166356066825716
10.056000000000001,-0.008163230796245431
10.06,-0.008161355633897261
10.064,-0.00815613883608248
10.068,-0.008153758822332878
10.072000000000001,-0.008156499444226358
10.076,-0.008155850349567376
10.08,-0.008152628916815391
10.084,-0.008150609511209668
10.088000000000001,-0.008155008930564991
10.092,-0.008156283079340031
10.096,-0.00815664368748391
10.1,-0.008153927106133356
10.104000000000001,-0.008152917403330493
10.108,-0.008154047308847981
10.112,-0.008154287714277234
10.116,-0.008151499011297903
10.120000000000001,-0.008149311321891704
10.124,-0.00814928728134878
10.128,-0.008148710308318572
10.132,-0.008148590105603946
10.136000000000001,-0.008152051943785184
10.14,-0.008153253970931447
10.144,-0.008156066714453703
10.148,-0.008156403282054657
10.152000000000001,-0.008154095389933832
10.156,-0.008154984890022067
10.16,-0.008151859619441782
10.164,-0.008148493943432245
10.168000000000001,-0.008143781997018894
10.172,-0.008145152307965633
10.176,-0.008146883227056253
10.18,-0.008147989092030815
10.184000000000001,-0.008149647889492658
10.188,-0.008151066281525248
10.192,-0.008150633551752594
10.196,-0.008153253970931447
10.200000000000001,-0.008157004295627789
10.204,-0.008155946511739077
10.208,-0.008155081052193768
10.212,-0.008152676997901242
10.216000000000001,-0.008157845714630173
10.22,-0.008159648755349568
10.224,-0.008158398647117454
10.228,-0.008153157808759746
10.232000000000001,-0.008154095389933832
10.236,-0.008154480038620637
10.24,-0.0081556820657669
10.244,-0.008158254403859902
10.248,-0.008155609944138123
10.252,-0.008151691335641306
10.256,-0.008150777795010146
10.26,-0.008152676997901242
10.264,-0.008151042240982323
10.268,-0.008154095389933832
10.272,-0.00815623499825418
10.276,-0.008154095389933832
10.28,-0.0081513066869545
10.284,-0.008153085687130971
10.288,-0.00815303760604512
10.292,-0.008151282646411576
10.296,-0.008154023268305055
10.3,-0.00815988916077882
10.304,-0.008162437458328897
10.308,-0.008159696836435418
10.312,-0.008156307119882956
10.316,-0.008155898430653227
10.32,-0.008159384309377389
10.324,-0.008159817039150044
10.328,-0.008156114795539553
10.332,-0.008154095389933832
10.336,-0.008158903498518884
10.34,-0.008156331160425882
10.344,-0.008154600241335262
10.348,-0.008156763890198536
10.352,-0.008157773593001396
10.356,-0.008160995025753383
10.36,-0.008159744917521269
10.364,-0.008158470768746229
10.368,-0.008158735214718408
10.372,-0.008159624714806642
10.376,-0.008160970985210457
10.38,-0.008160730579781204
10.384,-0.008158903498518884
10.388,-0.008156283079340031
10.392,-0.008156884092913163
10.396,-0.008160009363493446
10.4,-0.008161620079869439
10.404,-0.008158663093089632
10.408,-0.008156571565855133
10.412,-0.00815714853888534
10.416,-0.008155970552282002
10.42,-0.008154071349390906
10.424,-0.008155537822509348
10.428,-0.008155225295451318
10.432,-0.008158735214718408
10.436,-0.008159143903948137
10.44,-0.008158374606574528
10.444,-0.00815765339028677
10.448,-0.008155970552282002
10.452,-0.00815563398468105
10.456,-0.008156811971284386
10.46,-0.00815760530920092
10.464,-0.008154263673734308
10.468,-0.008152845281701718
10.472,-0.008153109727673895
10.476,-0.008152965484416344
10.48,-0.008154287714277234
10.484,-0.00815613883608248
10.488,-0.008154287714277234
10.492,-0.008153782862875804
10.496,-0.008156331160425882
10.5,-0.008154143471019682
10.504,-0.008150922038267698
10.508000000000001,-0.008148181416374217
10.512,-0.008149191119177078
10.516,-0.00814856606506102
10.52,-0.0081443589700491
10.524000000000001,-0.008141017334582489
10.528,-0.008143781997018894
10.532,-0.008147844848773263
10.536,-0.008150008497636536
10.540000000000001,-0.008149599808406807
10.544,-0.008151042240982323
10.548,-0.008152652957358316
10.552,-0.008151186484239875
10.556000000000001,-0.008147315956828908
10.56,-0.008146017767510944
10.564,-0.008142147240099975
10.568,-0.008144431091677876
10.572000000000001,-0.00814522442959441
10.576,-0.008143589672675491
10.58,-0.008144984024165157
10.584,-0.008149551727320957
10.588000000000001,-0.008152556795186615
10.592,-0.008149720011121435
10.596,-0.008146666862169926
10.6,-0.008147796767687412
10.604000000000001,-0.008147796767687412
10.608,-0.008144743618735904
10.612,-0.00814161834815562
10.616,-0.00814080096969616
10.620000000000001,-0.00814024803720888
10.624,-0.00814294057801651
10.628,-0.008144791699821755
10.632,-0.008145921605339243
10.636000000000001,-0.008146979389227954
10.64,-0.008146474537826524
10.644,-0.008145104226879783
10.648,-0.008148517983975171
10.652000000000001,-0.008150561430123817
10.656,-0.008151643254555455
10.66,-0.008147796767687412
10.664,-0.008148349700174693
10.668000000000001,-0.008152701038444166
10.672,-0.008148301619088843
10.676,-0.008143661794304268
10.68,-0.008141810672499023
10.684000000000001,-0.00814440705113495
10.688,-0.008147003429770878
10.692,-0.008147412119000608
10.696,-0.008145464835023663
10.700000000000001,-0.008143469469960866
10.704,-0.008146162010768494
10.708,-0.008145921605339243
10.712,-0.008147796767687412
10.716000000000001,-0.008148758389404423
10.72,-0.008145873524253392
10.724,-0.00814755636225816
10.728,-0.008147003429770878
10.732000000000001,-0.008143781997018894
10.736,-0.008142964618559435
10.74,-0.008142411686072154
10.744,-0.008142435726615079
10.748000000000001,-0.008142868456387734
10.752,-0.00814618605131142
10.756,-0.008142916537473585
10.76,-0.00814106541566834
10.764,-0.008141233699468816
10.768,-0.008140873091324937
10.772,-0.008145032105251008
10.776,-0.00814527251068026
10.78,-0.008142507848243856
10.784,-0.008145008064708081
10.788,-0.008142820375301884
10.792,-0.008141858753584873
10.796,-0.008144863821450531
10.8,-0.008144022402448147
10.804,-0.008144238767334474
10.808,-0.008143229064531613
10.812,-0.00814106541566834
10.816,-0.008142387645529228
10.82,-0.008141233699468816
10.824,-0.008140512483181058
10.828,-0.008138132469431457
10.832,-0.008138012266716831
10.836,-0.00814075288861031
10.84,-0.008143421388875015
10.844,-0.008143757956475968
10.848,-0.008145560997195362
10.852,-0.008145945645882167
10.856,-0.008147364037914757
10.86,-0.008145969686425093
10.864,-0.008146666862169926
10.868,-0.008146258172940195
10.872,-0.008146162010768494
10.876,-0.00814568119990999
10.88,-0.008150994159896473
10.884,-0.008148782429947349
10.888,-0.008144599375478352
10.892,-0.008143349267246238
10.896,-0.008140223996665955
10.9,-0.00814010379395133
10.904,-0.008142339564443378
10.908,-0.008141786631956097
10.912,-0.008141377942726367
10.916,-0.008137699739658803
10.92,-0.008136305388169137
10.924,-0.008135055279937024
10.928,-0.008138709442461664
10.932,-0.008139021969519692
10.936,-0.008138781564090439
10.94,-0.008140055712865479
10.944,-0.00814152218598392
10.948,-0.008141714510327322
10.952,-0.008135656293510155
10.956,-0.008135488009709677
10.96,-0.008136858320656418
10.964,-0.008136978523371044
10.968,-0.00813644963142669
10.972,-0.008136209225997436
10.976,-0.008132362739129394
10.98,-0.008132362739129394
10.984,-0.0081329397121596
10.988,-0.008132771428359123
10.992,-0.008132651225644497
10.996,-0.008134526387992667
11.0,-0.008137531455858325
11.004,-0.008135848617853558
11.008000000000001,-0.008136714077398867
11.012,-0.008141353902183441
11.016,-0.008145104226879783
11.02,-0.008139550861464047
11.024000000000001,-0.00813842095594656
11.028,-0.00814080096969616
11.032,-0.008145585037738289
11.036,-0.00814390219973352
11.040000000000001,-0.008144551294392502
11.044,-0.008144527253849577
11.048,-0.00814431088896325
11.052,-0.008141714510327322
11.056000000000001,-0.008137579536944176
11.06,-0.008138805604633365
11.064,-0.008139959550693777
11.068,-0.008139238334406019
11.072000000000001,-0.00813791610454513
11.076,-0.008139238334406019
11.08,-0.008139286415491869
11.084,-0.008138949847890915
11.088000000000001,-0.008134983158308247
11.092,-0.008135896698939408
11.096,-0.008135752455681856
11.1,-0.00813431002310634
11.104000000000001,-0.008134983158308247
11.108,-0.00813568033405308
11.112,-0.008134622550164368
11.116,-0.008133420523018105
11.120000000000001,-0.008133444563561031
11.124,-0.008136738117941791
11.128,-0.008134911036679472
11.132,-0.008136281347626211
11.136000000000001,-0.008137026604456895
11.14,-0.008139598942549897
11.144,-0.008137723780201727
11.148,-0.008135752455681856
11.152000000000001,-0.008138493077575335
11.156,-0.008138084388345606
11.16,-0.008134213860934639
11.164,-0.008131256874154832
11.168000000000001,-0.008130631820038774
11.172,-0.008128516252261351
11.176,-0.008129453833435437
11.18,-0.008129405752349586
11.184000000000001,-0.008125823711453721
11.188,-0.008125487143852769
11.192,-0.008126929576428283
11.196,-0.008129117265834483
11.200000000000001,-0.008131785766099187
11.204,-0.008131208793068981
11.208,-0.008132242536414768
11.212,-0.008132218495871842
11.216000000000001,-0.008131280914697756
11.22,-0.008135656293510155
11.224,-0.008137819942373429
11.228,-0.008137363172057849
11.232000000000001,-0.008138180550517307
11.236,-0.008137771861287578
11.24,-0.008136665996313016
11.244,-0.008133516685189806
11.248000000000001,-0.008136305388169137
11.252,-0.008133949414962462
11.256,-0.008132194455328918
11.26,-0.008131328995783607
11.264,-0.008133180117588852
11.268,-0.00813116071198313
11.272,-0.008129838482122242
11.276,-0.008128107563031622
11.28,-0.008126112197968825
11.284,-0.008124838049193787
11.288,-0.008128540292804277
11.292,-0.008132146374243067
11.296,-0.008134502347449743
11.3,-0.008135608212424305
11.304,-0.008135488009709677
11.308,-0.00813572841513893
11.312,-0.008134526387992667
11.316,-0.00813298779324545
11.32,-0.00813375709061906
11.324,-0.008134382144735115
11.328,-0.008130968387639728
11.332,-0.008129453833435437
11.336,-0.008129598076692989
11.34,-0.00813481487450777
11.344,-0.008135824577310631
11.348,-0.008135367806995052
11.352,-0.008133660928447358
11.356,-0.008132410820215244
11.36,-0.008132002130985515
11.364,-0.008131641522841637
11.368,-0.008133733050076133
11.372,-0.008130367374066597
11.376,-0.008128900900948156
11.38,-0.008129525955064212
11.384,-0.008129982725379792
11.388,-0.008128516252261351
11.392,-0.008128997063119857
11.396,-0.008128275846832098
11.4,-0.008129838482122242
11.404,-0.008130752022753401
11.408,-0.008128900900948156
11.412,-0.008128612414433052
11.416,-0.008127169981857536
11.42,-0.008130848184925103
11.424,-0.008132098293157216
11.428,-0.00812933363072081
11.432,-0.008129477873978361
11.436,-0.008126833414256584
11.44,-0.008127218062943387
11.444,-0.008131978090442589
11.448,-0.008130776063296326
11.452,-0.008129574036150063
11.456,-0.008128396049546726
11.46,-0.008127867157602369
11.464,-0.008127650792716042
11.468,-0.008128083522488698
11.472,-0.008127795035973594
11.476,-0.008126256441226377
11.48,-0.008126256441226377
11.484,-0.008130006765922718
11.488,-0.008130415455152447
11.492,-0.00812942979289251
11.496,-0.008130367374066597
11.5,-0.008133107995960077
11.504,-0.008130319292980746
11.508000000000001,-0.008126761292627807
11.512,-0.008125871792539572
11.516,-0.008125751589824946
11.52,-0.008123636022047522
11.524000000000001,-0.008126424725026853
11.528,-0.008128973022576931
11.532,-0.008128852819862305
11.536,-0.008128275846832098
11.540000000000001,-0.008129453833435437
11.544,-0.008131040509268505
11.548,-0.008128131603574546
11.552,-0.008124982292451339
11.556000000000001,-0.008125967954711273
11.56,-0.008127314225115088
11.564,-0.008128323927917949
11.568,-0.008128203725203323
11.572000000000001,-0.008124501481592833
11.576,-0.008123467738247044
11.58,-0.008125847751996648
11.584,-0.008123611981504596
11.588000000000001,-0.008120438629838462
11.592,-0.008121953184042753
11.596,-0.00812507845462304
11.6,-0.00812796331977407
11.604000000000001,-0.008128732617147678
11.608,-0.00812695361697121
11.612,-0.008126136238511751
11.616,-0.008125871792539572
11.620000000000001,-0.008124453400506982
11.624,-0.008123972589648476
11.628,-0.00812313117064609
11.632,-0.008122842684130988
11.636000000000001,-0.008122698440873436
11.64,-0.008121039643411593
11.644,-0.008118779832376619
11.648,-0.008119549129750226
11.652000000000001,-0.00812426107616358
11.656,-0.008124333197792356
11.66,-0.008123756224762147
11.664,-0.008126833414256584
11.668000000000001,-0.008127626752173116
11.672,-0.008126352603398078
11.676,-0.008126448765569779
11.68,-0.008121784900242277
11.684000000000001,-0.008123467738247044
11.688,-0.008123227332817791
11.692,-0.008122962886845614
11.696,-0.008122409954358333
11.700000000000001,-0.008123660062590446
11.704,-0.008127891198145295
11.708,-0.008127674833258967
11.712,-0.008127097860228761
11.716000000000001,-0.008125967954711273
11.72,-0.008123419657161193
11.724,-0.00812313117064609
11.728,-0.00812572754928202
11.732000000000001,-0.008122385913815408
11.736,-0.00811988569735118
11.74,-0.008119116399977571
11.744,-0.008121736819156426
11.748000000000001,-0.008121111765040368
11.752,-0.008118299021518113
11.756,-0.008118900035091244
11.76,-0.008122506116530034
11.764000000000001,-0.00812430915724943
11.768,-0.00812226571110078
11.772,-0.008117986494460085
11.776,-0.00811861154857614
11.78,-0.00812226571110078
11.784,-0.008122794603045137
11.788,-0.008118491345861515
11.792,-0.008120270346037984
11.796,-0.008117457602515728
11.8,-0.008117577805230355
11.804,-0.008120919440696966
11.808,-0.008120222264952133
11.812,-0.008123107130103165
11.816,-0.00812527077896644
11.82,-0.008122073386757378
11.824,-0.008120102062237507
11.828,-0.008120150143323358
11.832,-0.008118299021518113
11.836,-0.008117625886316206
11.84,-0.008115943048311437
11.844,-0.008112336966872647
11.848,-0.008114115967049116
11.852,-0.008116976791657224
11.856,-0.008121015602868667
11.86,-0.008122842684130988
11.864,-0.008121881062413976
11.868,-0.008122001265128603
11.872,-0.008120630954181864
11.876,-0.008121496413727173
11.88,-0.008122241670557856
11.884,-0.008125655427653245
11.888,-0.008127602711630192
11.892,-0.008126136238511751
11.896,-0.008121616616441799
11.9,-0.00812029438658091
11.904,-0.00812034246766676
11.908,-0.00811978953517948
11.912,-0.008120679035267713
11.916,-0.008118419224232738
11.92,-0.008116087291568989
11.924,-0.008115991129397288
11.928,-0.008114091926506192
11.932,-0.008114428494107146
11.936,-0.008117673967402055
11.94,-0.008120895400154041
11.944,-0.008120823278525265
11.948,-0.00812079923798234
11.952,-0.00812130408938377
11.956,-0.008120871359611115
11.96,-0.008122746521959287
11.964,-0.008123804305848
11.968,-0.008122818643588062
11.972,-0.008119741454093629
11.976,-0.008120150143323358
11.98,-0.008119260643235123
11.984,-0.008119813575722404
11.988,-0.008118659629661991
11.992,-0.008118250940432262
11.996,-0.008116784467313821
12.0,-0.008114981426594427
12.004,-0.008118010535003009
12.008000000000001,-0.00811815477826056
12.012,-0.008117048913285999
12.016,-0.008117265278172326
12.02,-0.008117433561972804
12.024000000000001,-0.008115438196910007
12.028,-0.008117962453917158
12.032,-0.008120150143323358
12.036,-0.00812079923798234
12.040000000000001,-0.008118347102603963
12.044,-0.008115173750937829
12.048,-0.008115606480710483
12.052,-0.008114308291392518
12.056000000000001,-0.008114813142793949
12.06,-0.00811882791346247
12.064,-0.00812298692738854
12.068,-0.008120174183866282
12.072000000000001,-0.0081193327648639
12.076,-0.008118851954005394
12.08,-0.008119933778437031
12.084,-0.008118731751290768
12.088000000000001,-0.008116832548399672
12.092,-0.008117794170116682
12.096,-0.008118635589119067
12.1,-0.008122073386757378
12.104000000000001,-0.008120991562325743
12.108,-0.00811719315654355
12.112,-0.008117217197086475
12.116,-0.0081148612238798
12.120000000000001,-0.008110389682895701
12.124,-0.00811125514244101
12.128,-0.008108730885433858
12.132,-0.008108298155661203
12.136000000000001,-0.00810618258788378
12.14,-0.00810978866932257
12.144,-0.008113130304789181
12.148,-0.008112697575016526
12.152000000000001,-0.008112745656102377
12.156,-0.008116616183513344
12.16,-0.008113202426417956
12.164,-0.008112697575016526
12.168000000000001,-0.008112817777731153
12.172,-0.008110630088324954
12.176,-0.008107985628603175
12.18,-0.008108610682719232
12.184000000000001,-0.008108442398918754
12.188,-0.008104908439108742
12.192,-0.008104283384992684
12.196,-0.008107937547517324
12.200000000000001,-0.00810837027728998
12.204,-0.008107721182630997
12.208,-0.00810937998009284
12.212,-0.008109620385522093
12.216000000000001,-0.008109259777378213
12.22,-0.008107240371772491
12.224,-0.008108610682719232
12.228,-0.008109404020635765
12.232000000000001,-0.008107889466431473
12.236,-0.008110942615382982
12.24,-0.008108995331406035
12.244,-0.00810760097991637
12.248000000000001,-0.008106999966343238
12.252,-0.008108298155661203
12.256,-0.008110221399095225
12.26,-0.008110293520724
12.264000000000001,-0.008109932912580121
12.268,-0.008109500182807466
12.272,-0.008109620385522093
12.276,-0.008109812709865495
12.280000000000001,-0.008106975925800314
12.284,-0.008108586642176306
12.288,-0.008111543628956113
12.292,-0.008111976358728769
12.296,-0.008113058183160405
12.3,-0.008112096561443394
12.304,-0.008106927844714463
12.308,-0.008108899169234334
12.312,-0.008109235736835288
12.316,-0.00811034160180985
12.32,-0.008109211696292364
12.324,-0.008106663398742286
12.328,-0.008106206628426706
12.332,-0.008104403587707311
12.336,-0.008107745223173922
12.34,-0.008111086858640534
12.344,-0.008110437763981551
12.348,-0.008107024006886164
12.352,-0.00810837027728998
12.356,-0.008112385047958498
12.36,-0.008111928277642918
12.364,-0.00811450061573592
12.368,-0.008111687872213665
12.372,-0.008112000399271693
12.376,-0.008110654128867878
12.38,-0.008107048047429089
12.384,-0.008105846020282826
12.388,-0.008109355939549914
12.392,-0.008108947250320185
12.396,-0.00810613450679793
12.4,-0.008107216331229567
12.404,-0.008108851088148484
12.408,-0.008108899169234334
12.412,-0.00810709612851494
12.416,-0.008107865425888549
12.42,-0.008110774331582506
12.424,-0.008109476142264541
12.428,-0.008110293520724
12.432,-0.008110894534297131
12.436,-0.008109404020635765
12.44,-0.008110317561266926
12.444,-0.00811161575058489
12.448,-0.008112937980445779
12.452,-0.008112553331758974
12.456,-0.008112769696645303
12.46,-0.00811450061573592
12.464,-0.008113635156190612
12.468,-0.00811618345374069
12.472,-0.00811536607528123
12.476,-0.008113130304789181
12.48,-0.00811252929121605
12.484,-0.008111784034385366
12.488,-0.008113178385875032
12.492,-0.008115558399624632
12.496,-0.008114428494107146
12.5,-0.008116928710571373
12.504,-0.008116832548399672
12.508000000000001,-0.008112937980445779
12.512,-0.008112697575016526
12.516,-0.008112096561443394
12.52,-0.008111110899183458
12.524000000000001,-0.008112745656102377
12.528,-0.008112937980445779
12.532,-0.00811399576433449
12.536,-0.00810988483149427
12.540000000000001,-0.008109500182807466
12.544,-0.008110077155837673
12.548,-0.008110557966696177
12.552,-0.008111014737011759
12.556000000000001,-0.008112216764158022
12.56,-0.00811207252090047
12.564,-0.008109043412491886
12.568,-0.008113154345332106
12.572000000000001,-0.00811709699437185
12.576,-0.008112505250673124
12.58,-0.008112697575016526
12.584,-0.008114548696821771
12.588000000000001,-0.008116952751114298
12.592,-0.008116351737541166
12.596,-0.008113827480534014
12.6,-0.008114741021165174
12.604000000000001,-0.008116063251026063
12.608,-0.008111784034385366
12.612,-0.008111663831670739
12.616,-0.008113418791304285
12.620000000000001,-0.008109548263893316
12.624,-0.008109740588236719
12.628,-0.008114692940079323
12.632,-0.008116111332111913
12.636000000000001,-0.008114067885963265
12.64,-0.0081148612238798
12.644,-0.008113058183160405
12.648,-0.008111134939726384
12.652000000000001,-0.008113827480534014
12.656,-0.008114572737364698
12.66,-0.008112625453387751
12.664,-0.008108250074575352
12.668000000000001,-0.008108730885433858
12.672,-0.008112937980445779
12.676,-0.008108081790774876
12.68,-0.008105076722909218
12.684000000000001,-0.00810618258788378
12.688,-0.008108730885433858
12.692,-0.008104067020106357
12.696,-0.008097023141029254
12.700000000000001,-0.00809846557360477
12.704,-0.008100917708983147
12.708,-0.008104571871507787
12.712,-0.008108322196204129
12.716000000000001,-0.008108201993489501
12.72,-0.008108514520547531
12.724,-0.008104884398565815
12.728,-0.008103538128162
12.732000000000001,-0.008105196925623843
12.736,-0.008109812709865495
12.74,-0.00810567773648235
12.744,-0.008103898736305879
12.748000000000001,-0.008105389249967246
12.752,-0.00810476419585119
12.756,-0.008104379547164385
12.76,-0.008102552465902066
12.764000000000001,-0.00810070134409682
12.768,-0.008097600114059461
12.772,-0.00809750395188776
12.776,-0.008102288019929887
12.780000000000001,-0.008102167817215261
12.784,-0.00809800880328919
12.788,-0.008100100330523689
12.792,-0.008100076289980763
12.796000000000001,-0.008098826181748649
12.8,-0.008097119303200956
12.804,-0.008092792005474409
12.808,-0.008091638059413996
12.812,-0.008092912208189034
12.816,-0.008089666734894124
12.82,-0.008088705113177113
12.824,-0.008089786937608751
12.828,-0.008090291789010181
12.832,-0.008095075857052308
12.836,-0.00809978780346566
12.84,-0.008096878897771703
12.844,-0.008093465140676315
12.848,-0.008094619086736728
12.852,-0.008095172019224009
12.856,-0.008094474843479176
12.86,-0.008097119303200956
12.864,-0.008097431830258984
12.868,-0.008097167384286806
12.872,-0.008094979694880607
12.876,-0.008094667167822579
12.88,-0.008094907573251832
12.884,-0.008094835451623055
12.888,-0.008095340303024487
12.892,-0.008095388384110338
12.896,-0.008093417059590465
12.9,-0.00809110916746964
12.904,-0.00809110916746964
12.908,-0.008091133208012566
12.912,-0.008089330167293171
12.916,-0.008089498451093647
12.92,-0.008092215032444202
12.924,-0.008089498451093647
12.928,-0.008086926113000645
12.932,-0.008087382883316225
12.936,-0.00808608469399826
12.94,-0.00808896955914929
12.944,-0.008090387951181882
12.948,-0.008093056451446586
12.952,-0.008092142910815427
12.956,-0.00808896955914929
12.96,-0.008088945518606366
12.964,-0.008085916410197782
12.968,-0.008085964491283633
12.972,-0.008090051383580928
12.976,-0.008092743924388558
12.98,-0.008092335235158829
12.984,-0.008094330600221624
12.988,-0.008094234438049923
12.992,-0.008092455437873455
12.996,-0.008091013005297939
13.0,-0.008089378248379022
13.004,-0.008087599248202551
13.008000000000001,-0.00808654146431384
13.012,-0.008085411558796352
13.016,-0.008084425896536417
13.02,-0.008088272383404458
13.024000000000001,-0.00809115724855549
13.028,-0.008090820680954536
13.032,-0.008089450370007797
13.036,-0.008090171586295554
13.040000000000001,-0.008092215032444202
13.044,-0.008093633424476792
13.048,-0.008092359275701753
13.052,-0.008090868762040387
13.056000000000001,-0.008089810978151675
13.06,-0.008085387518253427
13.064,-0.008082574774731172
13.068,-0.008089546532179498
13.072000000000001,-0.008091541897242295
13.076,-0.008090508153896508
13.08,-0.008087863694174729
13.084,-0.008088200261775683
13.088000000000001,-0.00808704631571527
13.092,-0.008087430964402075
13.096,-0.008087623288745476
13.1,-0.00808896955914929
13.104000000000001,-0.008088705113177113
13.108,-0.008091013005297939
13.112,-0.008088560869919562
13.116,-0.008086060653455334
13.120000000000001,-0.008087382883316225
13.124,-0.008087406923859149
13.128,-0.008090171586295554
13.132,-0.008089642694351199
13.136000000000001,-0.00808795985634643
13.14,-0.008090436032267733
13.144,-0.008090892802583313
13.148,-0.008089546532179498
13.152000000000001,-0.008089979261952153
13.156,-0.008090387951181882
13.16,-0.008093224735247062
13.164,-0.00809526818139571
13.168000000000001,-0.008093056451446586
13.172,-0.00809065239715406
13.176,-0.00808877723480589
13.18,-0.008085700045311455
13.184000000000001,-0.00808649338322799
13.188,-0.008087094396801121
13.192,-0.00808928208620732
13.196,-0.008087286721144523
13.200000000000001,-0.008085483680425129
13.204,-0.008087623288745476
13.208,-0.008089378248379022
13.212,-0.008086445302142139
13.216000000000001,-0.008082767099074574
13.22,-0.008084978829023698
13.224,-0.008085796207483157
13.228,-0.008084978829023698
13.232000000000001,-0.008083993166763762
13.236,-0.008089306126750245
13.24,-0.008091854424300323
13.244,-0.008086709748114316
13.248000000000001,-0.008083368112647706
13.252,-0.008082238207130218
13.256,-0.008085002869566623
13.26,-0.008086733788657242
13.264000000000001,-0.00808658954539969
13.268,-0.008086805910286017
13.272,-0.008084906707394921
13.276,-0.00808389700459206
13.280000000000001,-0.008083584477534033
13.284,-0.008085339437167577
13.288,-0.00808166123410001
13.292,-0.008081829517900489
13.296000000000001,-0.008082767099074574
13.3,-0.008084882666851997
13.304,-0.00808329599101893
13.308,-0.00808481054522322
13.312000000000001,-0.008086060653455334
13.316,-0.00808872915372004
13.32,-0.008088825315891739
13.324,-0.008087695410374253
13.328,-0.008085099031738324
13.332,-0.008083368112647706
13.336,-0.008083993166763762
13.34,-0.00808649338322799
13.344,-0.008088128140146908
13.348,-0.008089137842949769
13.352,-0.008086853991371868
13.356,-0.008083247909933079
13.36,-0.008081348707041983
13.364,-0.008081060220526879
13.368,-0.00808187759898634
13.372,-0.008086252977798736
13.376,-0.008086733788657242
13.38,-0.008085796207483157
13.384,-0.008080795774554702
13.388,-0.008080867896183478
13.392,-0.008081757396271712
13.396,-0.008083079626132602
13.4,-0.008082093963872666
13.404,-0.008082574774731172
13.408,-0.008084401855993491
13.412,-0.008085940450740708
13.416,-0.008084522058708118
13.42,-0.008086228937255812
13.424,-0.008086012572369483
13.428,-0.008081036179983955
13.432,-0.008079593747408438
13.436,-0.008076877166057884
13.44,-0.008078463841890952
13.444,-0.00808019476098157
13.448,-0.008081324666499058
13.452,-0.00808283922070335
13.456,-0.008080435166410823
13.46,-0.008077790706689044
13.464,-0.008080531328582524
13.468,-0.008081733355728787
13.472,-0.008082454572016545
13.476,-0.008084377815450567
13.48,-0.008083488315362332
13.484,-0.008080891936726403
13.488,-0.008077983031032446
13.492,-0.008078247477004624
13.496,-0.008079569706865514
13.5,-0.008080531328582524
13.504,-0.008078055152661221
13.508000000000001,-0.008077526260716866
13.512,-0.008080699612383
13.516,-0.008083728720791584
13.52,-0.008083776801877435
13.524000000000001,-0.008083440234276481
13.528,-0.008081757396271712
13.532,-0.008082574774731172
13.536,-0.008081372747584909
13.540000000000001,-0.00808192568007219
13.544,-0.008082262247673142
13.548,-0.008081396788127833
13.552,-0.00808024284206742
13.556000000000001,-0.008086637626485541
13.56,-0.00808521923445295
13.564,-0.008082286288216068
13.568,-0.008082574774731172
13.572000000000001,-0.008079641828494289
13.576,-0.008079545666322588
13.58,-0.008081396788127833
13.584,-0.008082574774731172
13.588000000000001,-0.008083127707218453
13.592,-0.0080851711533671
13.596,-0.008085291356081726
13.6,-0.008086108734541185
13.604000000000001,-0.008088128140146908
13.608,-0.008086325099427513
13.612,-0.00808481054522322
13.616,-0.008084522058708118
13.620000000000001,-0.008084882666851997
13.624,-0.008085700045311455
13.628,-0.008085435599339278
13.632,-0.008084786504680296
13.636000000000001,-0.00808476246413737
13.64,-0.008084930747937848
13.644,-0.008086060653455334
13.648,-0.008086301058884587
13.652000000000001,-0.008083488315362332
13.656,-0.00808329599101893
13.66,-0.00808384892350621
13.664,-0.00808389700459206
13.668000000000001,-0.008083704680248658
13.672,-0.008085724085854382
13.676,-0.00808608469399826
13.68,-0.008085339437167577
13.684000000000001,-0.008085964491283633
13.688,-0.008088128140146908
13.692,-0.008085868329111932
13.696,-0.00808293538287505
13.700000000000001,-0.00808476246413737
13.704,-0.008086661667028466
13.708,-0.008082646896359947
13.712,-0.008080290923153271
13.716000000000001,-0.008082118004415592
13.72,-0.008078968693292382
13.724,-0.008076107868684276
13.728,-0.008075891503797948
13.732000000000001,-0.008080290923153271
13.736,-0.008082214166587292
13.74,-0.008081541031385385
13.744,-0.008081132342155656
13.748000000000001,-0.008082286288216068
13.752,-0.008077958990489522
13.756,-0.00807699736877251
13.76,-0.008080579409668375
13.764000000000001,-0.008082021842243891
13.768,-0.008080387085324972
13.772,-0.008079473544693813
13.776,-0.00808161315301416
13.780000000000001,-0.008080459206953747
13.784,-0.008078896571663606
13.788,-0.008081757396271712
13.792,-0.0080851711533671
13.796000000000001,-0.008085483680425129
13.8,-0.008080002436638168
13.804,-0.008077838787774894
13.808,-0.008080915977269329
13.812000000000001,-0.008080675571840076
13.816,-0.00807800707157537
13.82,-0.008077838787774894
13.824,-0.008083199828847228
13.828,-0.008080314963696197
13.832,-0.008075723219997472
13.836,-0.008075146246967264
13.84,-0.008075266449681892
13.844,-0.008072718152131814
13.848,-0.008074761598280461
13.852,-0.0080761319092272
13.856,-0.008074737557737535
13.86,-0.008077574341802717
13.864,-0.008081396788127833
13.868,-0.008083103666675527
13.872,-0.008083007504503826
13.876,-0.008081084261069805
13.88,-0.008080891936726403
13.884,-0.008080723652925927
13.888,-0.008076756963343259
13.892,-0.008079329301436261
13.896,-0.00807978607175184
13.9,-0.00807781474723197
13.904,-0.00807608382814135
13.908,-0.008078247477004624
13.912,-0.008078295558090474
13.916,-0.008079641828494289
13.92,-0.008080170720438646
13.924,-0.008078511922976803
13.928,-0.00808146890975661
13.932,-0.008077478179631016
13.936,-0.008075699179454545
13.94,-0.008075194328053115
13.944,-0.008076324233570603
13.948,-0.008076516557914006
13.952,-0.008077021409315436
13.956,-0.008072165219644533
13.96,-0.008069112070693024
13.964,-0.008072742192674738
13.968,-0.008077718585060269
13.972,-0.008078535963519727
13.976,-0.00807608382814135
13.98,-0.00807471351719461
13.984,-0.008074184625250254
13.988,-0.008071636327700176
13.992,-0.00807339128733372
13.996,-0.008074689476651685
14.0,-0.008073583611677123
14.004,-0.008074184625250254
14.008000000000001,-0.008074352909050732
14.012,-0.00807411250362148
14.016,-0.008073150881904469
14.02,-0.008072020976386981
14.024000000000001,-0.00807339128733372
14.028,-0.008072261381816234
14.032,-0.008070266016753437
14.036,-0.008071708449328953
14.040000000000001,-0.008071083395212895
14.044,-0.00807009773295296
14.048,-0.008068174489518938
14.052,-0.008069665003180305
14.056000000000001,-0.008069713084266156
14.06,-0.008070025611324184
14.064,-0.008071299760099224
14.068,-0.008070025611324184
14.072000000000001,-0.008067212867801928
14.076,-0.008065265583824982
14.08,-0.008068198530061865
14.084,-0.008071876733129429
14.088000000000001,-0.008074088463078553
14.092,-0.00807411250362148
14.096,-0.008073872098192226
14.1,-0.008071852692586505
14.104000000000001,-0.008072141179101607
14.108,-0.008067886003003835
14.112,-0.008064736691880627
14.116,-0.008068054286804313
14.120000000000001,-0.008071492084442624
14.124,-0.008071107435755821
14.128,-0.008072020976386981
14.132,-0.008072646030503037
14.136000000000001,-0.008071900773672355
14.14,-0.008070794908697792
14.144,-0.00806882358417792
14.148,-0.008069833286980781
14.152000000000001,-0.008073583611677123
14.156,-0.008070698746526092
14.16,-0.008068390854405265
14.164,-0.008067092665087303
14.168000000000001,-0.00807009773295296
14.172,-0.008072910476475216
14.176,-0.008071107435755821
14.18,-0.008072333503445009
14.184000000000001,-0.008074280787421955
14.188,-0.00806923227340765
14.192,-0.008067333070516554
14.196,-0.00806685225965805
14.200000000000001,-0.008064520326994298
14.204,-0.008062813448446605
14.208,-0.008059880502209724
14.212,-0.008060721921212106
14.216000000000001,-0.008062404759216876
14.22,-0.00806050555632578
14.224,-0.008058606353434684
14.228,-0.008062765367360754
14.232000000000001,-0.008062524961931501
14.236,-0.008064929016224028
14.24,-0.008062068191615921
14.244,-0.008060313231982377
14.248000000000001,-0.008061875867272519
14.252,-0.00805877463723516
14.256,-0.008058654434520534
14.26,-0.008062500921388577
14.264000000000001,-0.008063390421476812
14.268,-0.008061779705100818
14.272,-0.00806000070492435
14.276,-0.008059303529179516
14.280000000000001,-0.00806192394835837
14.284,-0.0080624287997598
14.288,-0.008061539299671567
14.292,-0.008063005772790007
14.296000000000001,-0.00806608296228444
14.3,-0.008065746394683488
14.304,-0.008063486583648513
14.308,-0.008061683542929118
14.312000000000001,-0.00806060171849748
14.316,-0.00806269324573198
14.32,-0.008061875867272519
14.324,-0.00806202011053007
14.328000000000001,-0.008063414462019736
14.332,-0.00806151525912864
14.336,-0.008059952623838499
14.34,-0.008061731624014969
14.344,-0.008064808813509402
14.348,-0.00806589063794104
14.352,-0.00805964009678047
14.356,-0.008060289191439453
14.36,-0.008059375650808292
14.364,-0.008059423731894142
14.368,-0.008061443137499865
14.372,-0.0080624287997598
14.376,-0.008059207367007815
14.38,-0.008057163920859168
14.384,-0.008054807947652492
14.388,-0.00805471178548079
14.392,-0.008053485717791603
14.396,-0.008056202299142157
14.4,-0.008056610988371887
14.404,-0.008048605487577774
14.408,-0.008049038217350429
14.412,-0.008052187528473639
14.416,-0.008050769136441049
14.42,-0.00804999983906744
14.424,-0.008050168122867917
14.428,-0.008047595784774913
14.432,-0.008049302663322606
14.436,-0.008055072393624671
14.44,-0.00805812554257618
14.444,-0.008059832421123873
14.448,-0.00805735624520257
14.452,-0.00806000070492435
14.456,-0.008058654434520534
14.46,-0.008059399691351218
14.464,-0.008056370582942634
14.468,-0.008057909177689851
14.472,-0.008056683110000663
14.476,-0.008057548569545972
14.48,-0.008057524529003048
14.484,-0.008053605920506229
14.488,-0.008052908744761396
14.492,-0.00805415885299351
14.496,-0.008050793176983973
14.5,-0.008050120041782067
14.504,-0.00804999983906744
14.508000000000001,-0.008047908311832943
14.512,-0.008048028514547568
14.516,-0.00805177883924391
14.52,-0.00805735624520257
14.524000000000001,-0.008056731191086514
14.528,-0.008056250380228008
14.532,-0.008051706717615133
14.536,-0.00804959114983771
14.540000000000001,-0.00804694669011593
14.544,-0.008046297595456949
14.548,-0.008047860230747092
14.552,-0.008051346109471254
14.556000000000001,-0.008053966528650107
14.56,-0.008053966528650107
14.564,-0.00805516855579637
14.568,-0.008050240244496692
14.572000000000001,-0.008046826487401305
14.576,-0.008046273554914024
14.58,-0.008047956392918791
14.584,-0.008046033149484771
14.588000000000001,-0.008046225473828173
14.592,-0.008048821852464102
14.596,-0.008052403893359966
14.6,-0.008052524096074593
14.604000000000001,-0.00804959114983771
14.608,-0.008051538433814657
14.612,-0.008053004906933097
14.616,-0.008047307298259811
14.620000000000001,-0.008043340608677141
14.624,-0.008043941622250273
14.628,-0.008049302663322606
14.632,-0.008053726123220856
14.636000000000001,-0.008051610555443432
14.64,-0.008052908744761396
14.644,-0.00805228369064534
14.648,-0.00805105762295615
14.652000000000001,-0.008047523663146138
14.656,-0.00805415885299351
14.66,-0.008052379852817041
14.664,-0.008050576812097646
14.668000000000001,-0.008051923082501461
14.672,-0.008054447339508613
14.676,-0.008055913812627054
14.68,-0.008056250380228008
14.684000000000001,-0.008056250380228008
14.688,-0.008059159285921965
14.692,-0.008058221704747879
14.696,-0.008057043718144542
14.700000000000001,-0.008058654434520534
14.704,-0.00805689947488699
14.708,-0.008054639663852016
14.712,-0.008053942488107183
14.716000000000001,-0.008050360447211318
14.72,-0.008048196798348044
14.724,-0.008047595784774913
14.728,-0.008050264285039618
14.732000000000001,-0.008053726123220856
14.736,-0.0080508172175269
14.74,-0.008052692379875069
14.744,-0.008053990569193033
14.748000000000001,-0.008056875434344066
14.752,-0.00805639462348556
14.756,-0.008057139880316243
14.76,-0.008058005339861552
14.764000000000001,-0.00805831786691958
14.768,-0.008056082096427532
14.772,-0.008053557839420378
14.776,-0.008053605920506229
14.780000000000001,-0.008051610555443432
14.784,-0.008051346109471254
14.788,-0.00805228369064534
14.792,-0.008053557839420378
14.796000000000001,-0.008049783474181112
14.8,-0.00805086529861275
14.804,-0.008049783474181112
14.808,-0.008053221271819426
14.812000000000001,-0.008053365515076976
14.816,-0.008053942488107183
14.82,-0.008052836623132621
14.824,-0.008051490352728806
14.828000000000001,-0.00805228369064534
14.832,-0.008053028947476023
14.836,-0.008052476014988742
14.84,-0.00805137015001418
14.844000000000001,-0.008053365515076976
14.848,-0.008053894407021332
14.852,-0.008053028947476023
14.856,-0.00805370208267793
14.86,-0.008053461677248677
14.864,-0.008051562474357581
14.868,-0.008049494987666009
14.872,-0.008050528731011796
14.876,-0.008050793176983973
14.88,-0.008049254582236756
14.884,-0.008051177825670778
14.888,-0.008051562474357581
14.892,-0.008048317001062672
14.896,-0.008050071960696216
14.9,-0.008051249947299553
14.904,-0.008052067325759013
14.908,-0.008052043285216087
14.912,-0.008051610555443432
14.916,-0.008052836623132621
14.92,-0.008053678042135005
14.924,-0.00805177883924391
14.928,-0.008054567542223239
14.932,-0.008056731191086514
14.936,-0.008055721488283653
14.94,-0.008054952190910044
14.944,-0.00805644270457141
14.948,-0.008053101069104798
14.952,-0.008049278622779682
14.956,-0.008049422866037234
14.96,-0.00805415885299351
14.964,-0.008056875434344066
14.968,-0.008053077028561874
14.972,-0.00805086529861275
14.976,-0.008052403893359966
14.98,-0.008052115406844864
14.984,-0.008050384487754244
14.988,-0.008046225473828173
14.992,-0.008044710919623882
14.996,-0.008048076595633419
15.0,-0.008049783474181112
15.004,-0.008045624460255042
15.008000000000001,-0.008041104838185093
15.012,-0.008041297162528495
15.016,-0.008043220405962516
15.02,-0.008043797378992721
15.024000000000001,-0.008041201000356794
15.028,-0.008044182027679526
15.032,-0.008044999406138984
15.036,-0.008045552338626265
15.040000000000001,-0.008045792744055518
15.044,-0.008043677176278095
15.048,-0.008044927284510209
15.052,-0.00804401374387905
15.056000000000001,-0.008043220405962516
15.06,-0.00804447051419463
15.064,-0.008044254149308303
15.068,-0.008044085865507825
15.072000000000001,-0.008045119608853612
15.076,-0.00804329252759129
15.08,-0.008041273121985569
15.084,-0.008043172324876665
15.088000000000001,-0.008044133946593675
15.092,-0.008043989703336123
15.096,-0.008044903243967285
15.1,-0.008043124243790814
15.104000000000001,-0.008043076162704964
15.108,-0.008039878770495903
15.112,-0.00803990281103883
15.116,-0.008038845027150118
15.120000000000001,-0.008035214905168403
15.124,-0.008037186229688274
15.128,-0.008038244013576987
15.132,-0.008036921783716096
15.136000000000001,-0.008037618959460929
15.14,-0.008037522797289228
15.144,-0.008036320770142965
15.148,-0.00803725835131705
15.152000000000001,-0.008037859364890182
15.156,-0.00803771512163263
15.16,-0.008038147851405286
15.164,-0.008036945824259022
15.168000000000001,-0.00803583995928446
15.172,-0.008037739162175555
15.176,-0.008039373919094473
15.18,-0.008033844594221663
15.184000000000001,-0.008033892675307514
15.188,-0.008034926418653299
15.192,-0.008035118742996701
15.196,-0.008037859364890182
15.200000000000001,-0.008038820986607192
15.204,-0.008036056324170787
15.208,-0.00803497449973915
15.212,-0.0080372102702312
15.216000000000001,-0.008039926851581754
15.22,-0.008041176959813868
15.224,-0.008041441405786045
15.228,-0.008039758567781278
15.232000000000001,-0.008040023013753455
15.236,-0.008040215338096858
15.24,-0.00803629672960004
15.244,-0.008035863999827385
15.248000000000001,-0.008034229242908466
15.252,-0.008030791445270155
15.256,-0.008030478918212127
15.26,-0.008032161756216894
15.264000000000001,-0.008034686013224048
15.268,-0.008035863999827385
15.272,-0.008036416932314666
15.276,-0.008035046621367926
15.280000000000001,-0.008035335107883028
15.284,-0.008035575513312281
15.288,-0.008035912080913235
15.292,-0.008038845027150118
15.296000000000001,-0.00804040766244026
15.3,-0.008038965229864744
15.304,-0.008039013310950595
15.308,-0.008038244013576987
15.312000000000001,-0.008038917148778893
15.316,-0.008043028081619113
15.32,-0.008039373919094473
15.324,-0.008036056324170787
15.328000000000001,-0.008035719756569833
15.332,-0.008034541769966496
15.336,-0.008035719756569833
15.34,-0.00803552743222643
15.344000000000001,-0.008033748432049962
15.348,-0.008033435904991934
15.352,-0.00803141649938621
15.356,-0.008026872836773337
15.36,-0.008028964364007834
15.364,-0.008031849229158866
15.368,-0.008034277323994317
15.372,-0.008030575080383826
15.376,-0.008029012445093684
15.38,-0.008029084566722461
15.384,-0.008028146985548375
15.388,-0.008029685580295593
15.392,-0.008029685580295593
15.396,-0.008033027215762203
15.4,-0.008032089634588119
15.404,-0.008027882539576198
15.408,-0.008027425769260618
15.412,-0.008027786377404497
15.416,-0.008029373053237563
15.42,-0.008031055891242332
15.424,-0.008035359148425954
15.428,-0.008035214905168403
15.432,-0.008032882972504653
15.436,-0.008025959296142176
15.44,-0.008027545971975244
15.444,-0.008029733661381443
15.448,-0.008031031850699408
15.452,-0.008030310634411649
15.456,-0.00802939709378049
15.46,-0.008033363783363157
15.464,-0.008037426635117527
15.468,-0.008038292094662837
15.472,-0.00803410904019384
15.476,-0.00803365226987826
15.48,-0.00803593612145616
15.484,-0.008033123377933904
15.488,-0.008034349445623094
15.492,-0.008032834891418802
15.496,-0.008030887607441856
15.5,-0.00803355610770656
15.504,-0.008032233877845671
15.508000000000001,-0.008029373053237563
15.512,-0.008029012445093684
15.516,-0.008026055458313877
15.52,-0.00802771425577572
15.524000000000001,-0.008028796080207358
15.528,-0.008030190431697023
15.532,-0.00802939709378049
15.536,-0.008029589418123892
15.540000000000001,-0.008033916715850438
15.544,-0.008034277323994317
15.548,-0.008036561175572218
15.552,-0.008031608823729613
15.556000000000001,-0.008032570445446623
15.56,-0.008036224607971263
15.564,-0.00803451772942357
15.568,-0.008031079931785258
15.572000000000001,-0.008028916282921983
15.576,-0.00802990194518192
15.58,-0.008028459512606403
15.584,-0.008026151620485578
15.588000000000001,-0.008026512228629457
15.592,-0.008024949593339315
15.596,-0.008021127147014197
15.6,-0.008022353214703386
15.604000000000001,-0.00802410817433693
15.608,-0.00802725748546014
15.612,-0.008029733661381443
15.616,-0.008027401728717692
15.620000000000001,-0.008030238512782874
15.624,-0.008029829823553145
15.628,-0.00802802678283375
15.632,-0.008030791445270155
15.636000000000001,-0.008030238512782874
15.64,-0.00802848355314933
15.644,-0.008032065594045193
15.648,-0.008030767404727229
15.652000000000001,-0.00803040679658335
15.656,-0.00803136841830036
15.66,-0.008029517296495115
15.664,-0.00802766617468987
15.668000000000001,-0.008025478485283672
15.672,-0.00802309847153407
15.676,-0.008022305133617536
15.68,-0.008023266755334546
15.684000000000001,-0.008025406363654895
15.688,-0.008026824755687487
15.692,-0.008025478485283672
15.696,-0.008021920484930731
15.700000000000001,-0.008020982903756645
15.704,-0.008024324539223257
15.708,-0.008021704120044404
15.712,-0.008024637066281285
15.716000000000001,-0.00802629586374313
15.72,-0.0080280748639196
15.724,-0.008031488621014988
15.728,-0.008031729026444239
15.732000000000001,-0.008025718890712923
15.736,-0.008024757268995913
15.74,-0.008024180295965706
15.744,-0.008026632431344084
15.748000000000001,-0.008028315269348852
15.752,-0.008030671242555527
15.756,-0.008029324972151712
15.76,-0.008029685580295593
15.764000000000001,-0.008032810850875876
15.768,-0.008031488621014988
15.772,-0.008032522364360773
15.776,-0.008032233877845671
15.780000000000001,-0.008035359148425954
15.784,-0.008036440972857592
15.788,-0.008032498323817848
15.792,-0.008030478918212127
15.796000000000001,-0.008032858931961727
15.8,-0.00803507066191085
15.804,-0.00803552743222643
15.808,-0.008041104838185093
15.812000000000001,-0.008040263419182708
15.816,-0.00803547935114058
15.82,-0.008037306432402901
15.824,-0.008039325838008623
15.828000000000001,-0.008036609256658068
15.832,-0.008031608823729613
15.836,-0.008033532067163634
15.84,-0.008034782175395747
15.844000000000001,-0.008033459945534858
15.848,-0.00803269064816125
15.852,-0.008033171459019755
15.856,-0.00803528702679718
15.860000000000001,-0.008031704985901314
15.864,-0.008031224175042808
15.868,-0.008035888040370311
15.872,-0.008036513094486367
15.876,-0.00803552743222643
15.88,-0.008036056324170787
15.884,-0.008038724824435491
15.888,-0.00803776320271848
15.892,-0.008033171459019755
15.896,-0.008032065594045193
15.9,-0.008029252850522937
15.904,-0.008030166391154097
15.908,-0.0080326425670754
15.912,-0.008030478918212127
15.916,-0.008028363350434702
15.92,-0.008025286160940268
15.924,-0.008024661106824212
15.928,-0.008022617660675564
15.932,-0.00802538232311197
15.936,-0.008023939890536453
15.94,-0.008024733228452987
15.944,-0.008026632431344084
15.948,-0.008024829390624688
15.952,-0.008024685147367136
15.956,-0.008024180295965706
15.96,-0.008018987538693848
15.964,-0.008018049957519764
15.968,-0.008019011579236774
15.972,-0.008018001876433914
15.976,-0.008015044889654106
15.98,-0.008014035186851245
15.984,-0.008012736997533281
15.988,-0.008014299632823423
15.992,-0.00801776147100466
15.996,-0.00801670368711595
16.0,-0.008014780443681927
16.004,-0.008017448943946633
16.008,-0.00802045401181229
16.012,-0.008018242281863167
16.016000000000002,-0.008016150754628668
16.02,-0.008016150754628668
16.024,-0.008018458646749493
16.028,-0.008020670376698617
16.032,-0.008022425336332161
16.036,-0.008019780876610382
16.04,-0.008016054592456967
16.044,-0.008013313970563487
16.048000000000002,-0.008011054159528512
16.052,-0.008009010713379864
16.056,-0.008009972335096874
16.06,-0.008014251551737572
16.064,-0.00801268891644743
16.068,-0.008009275159352043
16.072,-0.008012160024503074
16.076,-0.00801533337616921
16.080000000000002,-0.008017160457431529
16.084,-0.008013217808391785
16.088,-0.00800953960532422
16.092,-0.00801213598396015
16.096,-0.008018578849464119
16.1,-0.008015117011282881
16.104,-0.008011559010929942
16.108,-0.00801506893019703
16.112000000000002,-0.008013987105765395
16.116,-0.008011462848758241
16.12,-0.008009755970210548
16.124,-0.008011246483871914
16.128,-0.008013530335449815
16.132,-0.008011126281157289
