0.0,0.006108725997852405
0.004,0.00610920680871091
0.008,0.006102643740492313
0.012,0.006095792185758613
0.016,0.006099470388826179
0.02,0.00610692295713301
0.024,0.006108725997852405
0.028,0.006109375092511387
0.032,0.006109014484367508
0.036000000000000004,0.006110408835857173
0.04,0.0061111781332307815
0.044,0.006116611295931891
0.048,0.006116539174303115
0.052000000000000005,0.006113846633495486
0.056,0.006114014917295962
0.06,0.006113606228066233
0.064,0.006115048660641749
0.068,0.006115890079644133
0.07200000000000001,0.006117620998734752
0.076,0.006116226647245087
0.08,0.006115529471500254
0.084,0.006111202173773707
0.088,0.006113413903722831
0.092,0.006111514700831736
0.096,0.006112812890149699
0.1,0.0061154573498714785
0.10400000000000001,0.0061152169444422255
0.108,0.006114423606525692
0.112,0.006113990876753037
0.116,0.006114543809240319
0.12,0.006116394931045563
0.124,0.0061167314986465176
0.128,0.006109783781741116
0.132,0.006105192038042391
0.136,0.006110529038571799
0.14,0.006114471687611543
0.14400000000000002,0.006113942795667187
0.148,0.006114159160553514
0.152,0.006116130485073386
0.156,0.006115505430957329
0.16,0.006114760174126646
0.164,0.006113101376664803
0.168,0.00611326966046528
0.17200000000000001,0.006113197538836504
0.176,0.006113437944265756
0.18,0.006112740768520924
0.184,0.00611372643078086
0.188,0.006114303403811066
0.192,0.006115817958015357
0.196,0.006117332512219649
0.2,0.006116106444530461
0.20400000000000001,0.006116707458103592
0.20800000000000002,0.006117332512219649
0.212,0.006113894714581337
0.216,0.006114495728154468
0.22,0.00611692382298992
0.224,0.00611742867439135
0.228,0.006116130485073386
0.232,0.006115120782270525
0.23600000000000002,0.006117548877105977
0.24,0.00611605836344461
0.244,0.006115048660641749
0.248,0.006107908619392946
0.252,0.0061036774838381
0.256,0.006106586389532057
0.26,0.006112812890149699
0.264,0.006114135120010589
0.268,0.006116587255388966
0.272,0.006115505430957329
0.276,0.00611144257920296
0.28,0.006111370457574184
0.28400000000000003,0.006112380160377045
0.28800000000000003,0.006111130052144931
0.292,0.006113053295578952
0.296,0.006114279363268141
0.3,0.006113990876753037
0.304,0.006117620998734752
0.308,0.006118510498822987
0.312,0.006119760607055101
0.316,0.006120073134113129
0.32,0.006119640404340474
0.324,0.006117909485249855
0.328,0.006116106444530461
0.332,0.006114014917295962
0.336,0.006118534539365912
0.34,0.006117212309505023
0.34400000000000003,0.006116875741904069
0.34800000000000003,0.006118125850136183
0.352,0.006119015350224417
0.356,0.006119303836739521
0.36,0.0061191836340248945
0.364,0.006118053728507407
0.368,0.006118149890679108
0.372,0.006118029687964482
0.376,0.0061154573498714785
0.38,0.006115817958015357
0.384,0.006119159593481969
0.388,0.006114591890326169
0.392,0.0061150967417276
0.396,0.006116539174303115
0.4,0.006117500796020126
0.404,0.006118558579908838
0.40800000000000003,0.006115673714757806
0.41200000000000003,0.006115938160729984
0.41600000000000004,0.00611834221502251
0.42,0.006119616363797549
0.424,0.006118414336651286
0.428,0.006116827660818219
0.432,0.00611149066028881
0.436,0.006111803187346838
0.44,0.006116034322901685
0.444,0.006119784647598026
0.448,0.006119063431310268
0.452,0.006120073134113129
0.456,0.006117620998734752
0.46,0.006118534539365912
0.464,0.006120073134113129
0.468,0.006119784647598026
0.47200000000000003,0.006120025053027278
0.47600000000000003,0.0061171161473333215
0.48,0.006118366255565435
0.484,0.006120025053027278
0.488,0.006117933525792781
0.492,0.006119303836739521
0.496,0.006119832728683877
0.5,0.006117933525792781
0.504,0.006117140187876247
0.508,0.006118823025881015
0.512,0.006119784647598026
0.516,0.006118558579908838
0.52,0.006119135552939044
0.524,0.006117332512219649
0.528,0.006118053728507407
0.532,0.006121299201802317
0.536,0.006121395363974018
0.54,0.006120986674744289
0.544,0.0061189432285956415
0.548,0.006120914553115513
0.552,0.006122284864062254
0.556,0.006121635769403271
0.56,0.006119976971941428
0.5640000000000001,0.006120385661171158
0.5680000000000001,0.006119111512396119
0.5720000000000001,0.006121587688317421
0.5760000000000001,0.00612199637754715
0.58,0.006123078201978787
0.584,0.00612428022912505
0.588,0.0061252899319279115
0.592,0.006121828093746673
0.596,0.00611971252596925
0.6,0.006120481823342859
0.604,0.00612153960723157
0.608,0.00612149152614572
0.612,0.006113654309152084
0.616,0.006105288200214092
0.62,0.00611189934951854
0.624,0.006117861404164005
0.628,0.006122140620804702
0.632,0.0061232224452363385
0.636,0.00612016929628483
0.64,0.006120914553115513
0.644,0.006122068499175926
0.648,0.00612103475583014
0.652,0.0061229099181783105
0.656,0.006124592756183079
0.66,0.006123534972294367
0.664,0.006128006513278466
0.668,0.006130122081055889
0.672,0.006129136418795953
0.676,0.006127357418619484
0.68,0.006127525702419961
0.684,0.006125458215728388
0.6880000000000001,0.006123102242521712
0.6920000000000001,0.006124544675097228
0.6960000000000001,0.006124184066953349
0.7000000000000001,0.0061226695127490575
0.704,0.006121900215375449
0.708,0.00612067414768626
0.712,0.006121611728860346
0.716,0.006120025053027278
0.72,0.0061191836340248945
0.724,0.00612153960723157
0.728,0.006122741634377833
0.732,0.006120265458456531
0.736,0.006120409701714083
0.74,0.006121227080173541
0.744,0.006117620998734752
0.748,0.006111634903546361
0.752,0.0061151448228134505
0.756,0.006117068066247471
0.76,0.006117140187876247
0.764,0.006117693120363528
0.768,0.006118149890679108
0.772,0.0061197365665121755
0.776,0.006118871106966866
0.78,0.006119568282711698
0.784,0.006118774944795164
0.788,0.006116683417560667
0.792,0.0061106973223722764
0.796,0.006110000146627444
0.8,0.006117500796020126
0.804,0.0061207703098579615
0.808,0.00612108283691599
0.812,0.00611875090425224
0.8160000000000001,0.006116418971588489
0.8200000000000001,0.006115409268785628
0.8240000000000001,0.00611875090425224
0.8280000000000001,0.006118246052850809
0.8320000000000001,0.006114928457927123
0.836,0.006115866039101208
0.84,0.006118173931222033
0.844,0.006122044458633001
0.848,0.006122717593834908
0.852,0.006122405066776879
0.856,0.006122957999264161
0.86,0.006121707891032047
0.864,0.006121828093746673
0.868,0.006120577985514559
0.872,0.006116827660818219
0.876,0.006117717160906453
0.88,0.00611336582263698
0.884,0.006105167997499466
0.888,0.006111995511690241
0.892,0.006117741201449378
0.896,0.006120433742257008
0.9,0.00611884706642394
0.904,0.006119448079997072
0.908,0.006118005647421557
0.912,0.006117813323078154
0.916,0.006120145255741905
0.92,0.006121058796373065
0.924,0.006120794350400887
0.928,0.006117693120363528
0.932,0.0061207703098579615
0.936,0.0061239436615240965
0.9400000000000001,0.006123871539895321
0.9440000000000001,0.006121347282888168
0.9480000000000001,0.00612199637754715
0.9520000000000001,0.006124640837268929
0.9560000000000001,0.006124640837268929
0.96,0.006122597391120282
0.964,0.006121058796373065
0.968,0.006121852134289598
0.972,0.006113221579379429
0.976,0.006111610863003436
0.98,0.006118125850136183
0.984,0.006119063431310268
0.988,0.006120962634201364
0.992,0.0061193519178253716
0.996,0.006120505863885784
1.0,0.0061242561885821245
1.004,0.0061229099181783105
1.008,0.006123655175008993
1.012,0.006123198404693413
1.016,0.006120313539542382
1.02,0.006122308904605179
1.024,0.006122188701890552
1.028,0.006122212742433478
1.032,0.006123895580438246
1.036,0.0061226695127490575
1.04,0.006122621431663207
1.044,0.006120914553115513
1.048,0.006118101809593258
1.052,0.00611884706642394
1.056,0.006118510498822987
1.06,0.006118005647421557
1.064,0.006118053728507407
1.068,0.006119063431310268
1.072,0.006119520201625848
1.076,0.006118294133936659
1.08,0.006119303836739521
1.084,0.006120914553115513
1.088,0.006122789715463684
1.092,0.0061228377965495346
1.096,0.006123438810122666
1.1,0.006123198404693413
1.104,0.006119327877282446
1.108,0.006107908619392946
1.112,0.006112981173950176
1.116,0.006120409701714083
1.12,0.006122140620804702
1.124,0.006123679215551918
1.1280000000000001,0.006123270526322189
1.1320000000000001,0.006122236782976403
1.1360000000000001,0.006120890512572588
1.1400000000000001,0.006120145255741905
1.1440000000000001,0.006117548877105977
1.1480000000000001,0.0061162506877880125
1.1520000000000001,0.006116755539189443
1.156,0.006117813323078154
1.16,0.006118222012307883
1.164,0.006117548877105977
1.168,0.0061180777690503325
1.172,0.006119399998911221
1.176,0.006117140187876247
1.18,0.0061162506877880125
1.184,0.006116539174303115
1.188,0.00611692382298992
1.192,0.006119952931398503
1.196,0.006119808688140951
1.2,0.006120505863885784
1.204,0.006121659809946197
1.208,0.006120938593658439
1.212,0.0061229820398070855
1.216,0.0061229099181783105
1.22,0.006121347282888168
1.224,0.0061194961610829225
1.228,0.006119760607055101
1.232,0.006119976971941428
1.236,0.0061206020260574845
1.24,0.006118919188052716
1.244,0.006118534539365912
1.248,0.00612153960723157
1.252,0.006123102242521712
1.256,0.006124977404869883
1.26,0.006125169729213285
1.264,0.006123991742609947
1.268,0.006122405066776879
1.272,0.006121780012660822
1.276,0.006122717593834908
1.28,0.006122549310034431
1.284,0.006117092106790396
1.288,0.0061093510519684615
1.292,0.006114327444353991
1.296,0.006118149890679108
1.3,0.006120337580085307
1.304,0.006121395363974018
1.308,0.006119472120539997
1.312,0.006120650107143335
1.316,0.006122164661347627
1.32,0.006122068499175926
1.324,0.006123510931751442
1.328,0.006122236782976403
1.332,0.006113149457750653
1.336,0.006112572484720447
1.34,0.006117717160906453
1.344,0.0061218761748325235
1.348,0.006120409701714083
1.352,0.006122164661347627
1.356,0.006121972337004225
1.36,0.006121419404516944
1.364,0.006122260823519328
1.368,0.00612250122894858
1.372,0.006122885877635385
1.3760000000000001,0.006121371323431093
1.3800000000000001,0.006119616363797549
1.3840000000000001,0.006116202606702162
1.3880000000000001,0.00612108283691599
1.3920000000000001,0.00612245314786273
1.3960000000000001,0.00612286183709246
1.4000000000000001,0.006122260823519328
1.4040000000000001,0.006123174364150488
1.408,0.006121659809946197
1.412,0.006119063431310268
1.416,0.006121154958544766
1.42,0.006122308904605179
1.424,0.006120481823342859
1.428,0.006121203039630616
1.432,0.006120938593658439
1.436,0.006121635769403271
1.44,0.006121275161259392
1.444,0.0061232224452363385
1.448,0.006125530337357164
1.452,0.006127549742962886
1.456,0.006127285296990708
1.46,0.006127597824048737
1.464,0.0061226695127490575
1.468,0.00611925575565367
1.472,0.006123679215551918
1.476,0.006125097607584509
1.48,0.006124712958897705
1.484,0.006126035188758594
1.488,0.00612610731038737
1.492,0.006126636202331726
1.496,0.006126035188758594
1.5,0.006123198404693413
1.504,0.006123534972294367
1.508,0.006122621431663207
1.512,0.006115938160729984
1.516,0.0061176690798206024
1.52,0.006121707891032047
1.524,0.006125554377900089
1.528,0.006126035188758594
1.532,0.006125722661700566
1.536,0.006124640837268929
1.54,0.006124304269667975
1.544,0.006125121648127434
1.548,0.006121275161259392
1.552,0.006117236350047948
1.556,0.006119784647598026
1.56,0.006121948296461299
1.564,0.00612149152614572
1.568,0.006121948296461299
1.572,0.006120938593658439
1.576,0.006121106877458916
1.58,0.0061223569856910295
1.584,0.006119111512396119
1.588,0.006117092106790396
1.592,0.006120145255741905
1.596,0.006121828093746673
1.6,0.0061175969581918265
1.604,0.006115841998558282
1.608,0.006121395363974018
1.612,0.006121780012660822
1.616,0.0061197365665121755
1.62,0.006121419404516944
1.624,0.006120746269315036
1.6280000000000001,0.006120337580085307
1.6320000000000001,0.006124160026410424
1.6360000000000001,0.00612468891835478
1.6400000000000001,0.006125217810299136
1.6440000000000001,0.0061200490935702035
1.6480000000000001,0.006110288633142547
1.6520000000000001,0.0061141110794676636
1.6560000000000001,0.006118197971764958
1.6600000000000001,0.006122332945148104
1.6640000000000001,0.0061256024589859395
1.668,0.006125818823872267
1.672,0.00612747762133411
1.676,0.006126924688846829
1.68,0.006124881242698181
1.684,0.006124352350753826
1.688,0.006123607093923142
1.692,0.006118606660994688
1.696,0.006123006080350011
1.7,0.0061274295402482595
1.704,0.0061293287431393555
1.708,0.006128727729566224
1.712,0.006127285296990708
1.716,0.006128198837621868
1.72,0.006128607526851597
1.724,0.006130410567570992
1.728,0.006130843297343647
1.732,0.006129424905311057
1.736,0.006124640837268929
1.74,0.0061265159996171
1.744,0.006128487324136971
1.748,0.006127165094276082
1.752,0.006127910351106765
1.756,0.006125482256271313
1.76,0.006124400431839676
1.764,0.006124616796726004
1.768,0.006124424472382602
1.772,0.006126443877988324
1.776,0.0061290883377101025
1.78,0.006127501661877035
1.784,0.006128270959250644
1.788,0.0061276699456775125
1.792,0.006126924688846829
1.796,0.0061261553914732205
1.8,0.00612834308087942
1.804,0.006129833594540786
1.808,0.006130001878341263
1.812,0.006128511364679896
1.816,0.006130338445942216
1.82,0.006129593189111533
1.824,0.006123174364150488
1.828,0.006117813323078154
1.832,0.006123583053380217
1.836,0.006128896013366701
1.84,0.0061301942026846645
1.844,0.006127958432192615
1.848,0.006125530337357164
1.852,0.006126035188758594
1.856,0.006127453580791185
1.86,0.006125001445412808
1.864,0.006127068932104381
1.868,0.00612610731038737
1.872,0.006124761039983556
1.8760000000000001,0.0061271891348190066
1.8800000000000001,0.006129593189111533
1.8840000000000001,0.006127525702419961
1.8880000000000001,0.006128198837621868
1.8920000000000001,0.006129208540424729
1.8960000000000001,0.006129232580967654
1.9000000000000001,0.006128367121422345
1.9040000000000001,0.006127525702419961
1.9080000000000001,0.006126660242874651
1.9120000000000001,0.006127525702419961
1.9160000000000001,0.006126059229301519
1.92,0.006122308904605179
1.924,0.006122525269491506
1.928,0.006124833161612331
1.932,0.0061263957969024735
1.936,0.006127718026763363
1.94,0.006127645905134587
1.944,0.006129545108025683
1.948,0.00613017016214174
1.952,0.006128511364679896
1.956,0.006126467918531249
1.96,0.006116130485073386
1.964,0.006114062998381813
1.968,0.006119856769226802
1.972,0.00612468891835478
1.976,0.006125698621157641
1.98,0.006126900648303904
1.984,0.006124616796726004
1.988,0.006122765674920759
1.992,0.006122693553291983
1.996,0.006124087904781648
2.0,0.00612514568867036
2.004,0.0061226695127490575
2.008,0.006124304269667975
2.012,0.006127068932104381
2.016,0.006127068932104381
2.02,0.006125386094099612
2.024,0.006124448512925527
2.028,0.006126732364503427
2.032,0.006122573350577356
2.036,0.006121130918001841
2.04,0.006120121215198979
2.044,0.006123631134466068
2.048,0.006118774944795164
2.052,0.006109687619569416
2.056,0.006115289066071001
2.06,0.00612331860740804
2.064,0.006124664877811855
2.068,0.006125265891384986
2.072,0.006125362053556687
2.076,0.00612514568867036
2.08,0.0061261553914732205
2.084,0.0061244965940113775
2.088,0.006122260823519328
2.092,0.0061218761748325235
2.096,0.006121828093746673
2.1,0.006122068499175926
2.104,0.006119063431310268
2.108,0.006122020418090075
2.112,0.006123342647950965
2.116,0.006123534972294367
2.12,0.006122957999264161
2.124,0.006124352350753826
2.128,0.006126636202331726
2.132,0.006125554377900089
2.136,0.006128751770109149
2.14,0.006126059229301519
2.144,0.0061252899319279115
2.148,0.006125001445412808
2.152,0.00612839116196527
2.156,0.0061309154189724225
2.16,0.006128751770109149
2.164,0.006127693986220438
2.168,0.00612697276993268
2.172,0.006128823891737925
2.176,0.006126756405046352
2.18,0.006123871539895321
2.184,0.006117548877105977
2.188,0.006113894714581337
2.192,0.006119472120539997
2.196,0.006122813756006609
2.2,0.006125434175185462
2.204,0.006124616796726004
2.208,0.0061229099181783105
2.212,0.006126083269844445
2.216,0.006126443877988324
2.22,0.0061271170131902315
2.224,0.006125025485955733
2.228,0.006124664877811855
2.232,0.006129448945853982
2.236,0.006133175230007398
2.24,0.006131804919060658
2.244,0.006130963500058273
2.248,0.006131660675803106
2.2520000000000002,0.006131251986573377
2.2560000000000002,0.006128559445765747
2.2600000000000002,0.006126275594187847
2.2640000000000002,0.006125313972470837
2.2680000000000002,0.006127910351106765
2.2720000000000002,0.006126347715816623
2.2760000000000002,0.006123294566865114
2.2800000000000002,0.00612468891835478
2.2840000000000003,0.006126011148215669
2.2880000000000003,0.0061242561885821245
2.2920000000000003,0.006122477188405655
2.2960000000000003,0.00612565054007179
2.3000000000000003,0.0061258428644151925
2.3040000000000003,0.0061267083239605015
2.308,0.00612884793228085
2.312,0.006130506729742693
2.316,0.006127309337533633
2.32,0.006121707891032047
2.324,0.006124712958897705
2.328,0.0061250495264986585
2.332,0.006125386094099612
2.336,0.006127357418619484
2.34,0.006126780445589277
2.344,0.006125674580614715
2.348,0.006124208107496274
2.352,0.006124472553468452
2.356,0.006125506296814238
2.36,0.006124400431839676
2.364,0.006116178566159237
2.368,0.006114303403811066
2.372,0.006120794350400887
2.376,0.006123438810122666
2.38,0.006127285296990708
2.384,0.006128126715993092
2.388,0.006125313972470837
2.392,0.006125818823872267
2.396,0.006125626499528865
2.4,0.0061252899319279115
2.404,0.006124857202155256
2.408,0.006117933525792781
2.412,0.006111394498117109
2.416,0.006117188268962097
2.42,0.0061223569856910295
2.424,0.006123342647950965
2.428,0.0061224291073198045
2.432,0.006121395363974018
2.436,0.006121251120716467
2.44,0.006124881242698181
2.444,0.0061265640807029505
2.448,0.006125746702243491
2.452,0.006122477188405655
2.456,0.006121154958544766
2.46,0.006122621431663207
2.464,0.00612478508052648
2.468,0.006125169729213285
2.472,0.006125097607584509
2.476,0.006123270526322189
2.48,0.006123751337180694
2.484,0.006122597391120282
2.488,0.006121780012660822
2.492,0.0061237032560948436
2.496,0.006122573350577356
2.5,0.006119688485426325
2.504,0.006119832728683877
2.508,0.006121707891032047
2.512,0.006122933958721236
2.516,0.006123270526322189
2.52,0.006123078201978787
2.524,0.006122260823519328
2.528,0.006121635769403271
2.532,0.006120241417913606
2.536,0.006118197971764958
2.54,0.006118414336651286
2.544,0.006119279796196596
2.548,0.006122621431663207
2.552,0.006121587688317421
2.556,0.006119616363797549
2.56,0.006120746269315036
2.564,0.006119616363797549
2.568,0.006116611295931891
2.572,0.00611742867439135
2.576,0.006119063431310268
2.58,0.006117765241992304
2.584,0.006117909485249855
2.588,0.00611468805249787
2.592,0.006115817958015357
2.596,0.006118173931222033
2.6,0.006118726863709315
2.604,0.0061197365665121755
2.608,0.006118558579908838
2.612,0.006119544242168773
2.616,0.0061194961610829225
2.62,0.006119111512396119
2.624,0.006119952931398503
2.628,0.006117909485249855
2.632,0.0061141110794676636
2.636,0.006106730632789608
2.64,0.006111610863003436
2.644,0.0061189432285956415
2.648,0.006120433742257008
2.652,0.0061213232423452425
2.656,0.006122188701890552
2.66,0.006121515566688645
2.664,0.006121058796373065
2.668,0.006121419404516944
2.672,0.006123270526322189
2.676,0.006120433742257008
2.68,0.006110480957485949
2.684,0.006114303403811066
2.688,0.006117476755477201
2.692,0.006117548877105977
2.696,0.006120265458456531
2.7,0.006121395363974018
2.704,0.006122573350577356
2.708,0.0061229099181783105
2.712,0.0061234628506655914
2.716,0.006123246485779264
2.72,0.006122405066776879
2.724,0.006120505863885784
2.728,0.006121731931574973
2.732,0.0061243283102109
2.736,0.006123030120892936
2.74,0.006124039823695798
2.744,0.006124929323784032
2.748,0.006123751337180694
2.7520000000000002,0.006127141053733157
2.7560000000000002,0.006127573783505811
2.7600000000000002,0.006124520634554303
2.7640000000000002,0.006123679215551918
2.7680000000000002,0.006117548877105977
2.7720000000000002,0.006116346849959714
2.7760000000000002,0.006118823025881015
2.7800000000000002,0.00611697190407577
2.7840000000000003,0.006120914553115513
2.7880000000000003,0.006122621431663207
2.7920000000000003,0.006122308904605179
2.7960000000000003,0.006122645472206132
2.8000000000000003,0.0061247369994406305
2.8040000000000003,0.0061244965940113775
2.8080000000000003,0.006124544675097228
2.8120000000000003,0.006122308904605179
2.816,0.006123438810122666
2.82,0.006122717593834908
2.824,0.006122957999264161
2.828,0.006122381026233954
2.832,0.00612331860740804
2.836,0.006124640837268929
2.84,0.0061258428644151925
2.844,0.006124929323784032
2.848,0.006124015783152872
2.852,0.0061221165802617765
2.856,0.006119880809769727
2.86,0.006119520201625848
2.864,0.006117092106790396
2.868,0.006117933525792781
2.872,0.006118438377194211
2.876,0.006118414336651286
2.88,0.006119063431310268
2.884,0.006120433742257008
2.888,0.006124135985867499
2.892,0.006125001445412808
2.896,0.006122308904605179
2.9,0.0061204577827999335
2.904,0.006110048227713294
2.908,0.006111466619745885
2.912,0.006119808688140951
2.916,0.006123919620981171
2.92,0.0061228377965495346
2.924,0.006120433742257008
2.928,0.006119424039454147
2.932,0.006119015350224417
2.936,0.006120121215198979
2.94,0.006121130918001841
2.944,0.006119015350224417
2.948,0.006118294133936659
2.952,0.006120097174656054
2.956,0.006122212742433478
2.96,0.006121852134289598
2.964,0.006122188701890552
2.968,0.006123583053380217
2.972,0.006124160026410424
2.976,0.006123871539895321
2.98,0.006122236782976403
2.984,0.006122741634377833
2.988,0.006124352350753826
2.992,0.00612067414768626
2.996,0.0061175248365630515
3.0,0.006118438377194211
3.004,0.006120385661171158
3.008,0.006119784647598026
3.012,0.006119039390767343
3.016,0.006122957999264161
3.02,0.00612428022912505
3.024,0.0061242561885821245
3.028,0.006126588121245875
3.032,0.006128030553821391
3.036,0.006128679648480373
3.04,0.0061290883377101025
3.044,0.006127693986220438
3.048,0.006126756405046352
3.052,0.006126275594187847
3.056,0.006125939026586894
3.06,0.006123294566865114
3.064,0.00611920767456782
3.068,0.006118486458280062
3.072,0.006119976971941428
3.076,0.006120097174656054
3.08,0.006119856769226802
3.084,0.00611884706642394
3.088,0.00612016929628483
3.092,0.006121804053203748
3.096,0.006123174364150488
3.1,0.006120025053027278
3.104,0.00612062606660041
3.108,0.006116707458103592
3.112,0.006116298768873863
3.116,0.006115529471500254
3.12,0.0061189432285956415
3.124,0.006118462417737136
3.128,0.006108942362738732
3.132,0.006099278064482776
3.136,0.006108317308622675
3.14,0.006118702823166389
3.144,0.00612103475583014
3.148,0.006119448079997072
3.152,0.006119544242168773
3.156,0.006119279796196596
3.16,0.0061197365665121755
3.164,0.0061189432285956415
3.168,0.0061180777690503325
3.172,0.0061132456199223546
3.176,0.006112211876576568
3.18,0.006116154525616311
3.184,0.00611875090425224
3.188,0.006119832728683877
3.192,0.006120025053027278
3.196,0.006119063431310268
3.2,0.006115649674214881
3.204,0.006119592323254624
3.208,0.006119688485426325
3.212,0.006119592323254624
3.216,0.006118991309681492
3.22,0.006117981606878631
3.224,0.006121178999087691
3.228,0.006122236782976403
3.232,0.006122957999264161
3.236,0.00612428022912505
3.24,0.006123270526322189
3.244,0.006120650107143335
3.248,0.006120866472029663
3.2520000000000002,0.0061204577827999335
3.2560000000000002,0.006120986674744289
3.2600000000000002,0.006119640404340474
3.2640000000000002,0.006109519335768939
3.2680000000000002,0.006114447647068618
3.2720000000000002,0.0061228377965495346
3.2760000000000002,0.006122381026233954
3.2800000000000002,0.006122381026233954
3.2840000000000003,0.006121900215375449
3.2880000000000003,0.006122140620804702
3.2920000000000003,0.00612250122894858
3.2960000000000003,0.00612382345880947
3.3000000000000003,0.006121611728860346
3.3040000000000003,0.0061193519178253716
3.3080000000000003,0.0061176690798206024
3.3120000000000003,0.006122188701890552
3.3160000000000003,0.006122525269491506
3.3200000000000003,0.006119616363797549
3.3240000000000003,0.006120073134113129
3.3280000000000003,0.006118702823166389
3.332,0.0061196644448834
3.336,0.006116707458103592
3.34,0.006113966836210112
3.344,0.006115048660641749
3.348,0.006114447647068618
3.352,0.006115385228242703
3.356,0.006117140187876247
3.36,0.006117741201449378
3.364,0.00611742867439135
3.368,0.006117693120363528
3.372,0.006116539174303115
3.376,0.0061176690798206024
3.38,0.006116635336474816
3.384,0.006120505863885784
3.388,0.006120073134113129
3.392,0.006120073134113129
3.396,0.0061150967417276
3.4,0.006110048227713294
3.404,0.006114038957838888
3.408,0.006120866472029663
3.412,0.006122645472206132
3.416,0.006122308904605179
3.42,0.006121515566688645
3.424,0.006120698188229186
3.428,0.006119856769226802
3.432,0.006120890512572588
3.436,0.006117789282535229
3.44,0.0061160102823587595
3.444,0.0061175248365630515
3.448,0.0061196644448834
3.452,0.006119784647598026
3.456,0.006120962634201364
3.46,0.006121515566688645
3.464,0.006120505863885784
3.468,0.0061194961610829225
3.472,0.006121972337004225
3.476,0.006120001012484353
3.48,0.0061183902961083605
3.484,0.006115409268785628
3.488,0.006106802754418383
3.492,0.006111154092687856
3.496,0.006118125850136183
3.5,0.00612153960723157
3.504,0.00612149152614572
3.508,0.006121900215375449
3.512,0.006124376391296751
3.516,0.006125362053556687
3.52,0.006126419837445399
3.524,0.0061266121617888
3.528,0.006124087904781648
3.532,0.006120433742257008
3.536,0.006125121648127434
3.54,0.00612925662151058
3.544,0.006128511364679896
3.548,0.006129112378253028
3.552,0.0061282228781647935
3.556,0.006125434175185462
3.56,0.00612610731038737
3.564,0.006128102675450167
3.568,0.0061298095539978606
3.572,0.006130122081055889
3.576,0.0061263957969024735
3.58,0.006123126283064637
3.584,0.006123679215551918
3.588,0.006125241850842061
3.592,0.006125073567041584
3.596,0.006127886310563839
3.6,0.00612747762133411
3.604,0.006126924688846829
3.608,0.006128751770109149
3.612,0.006125626499528865
3.616,0.006126900648303904
3.62,0.006120385661171158
3.624,0.006112620565806298
3.628,0.006119592323254624
3.632,0.006124953364326957
3.636,0.006127213175361932
3.64,0.006127068932104381
3.644,0.0061271891348190066
3.648,0.006127501661877035
3.652,0.006128030553821391
3.656,0.006128871972823776
3.66,0.006129376824225206
3.664,0.006127645905134587
3.668,0.006127068932104381
3.672,0.0061271170131902315
3.676,0.006127549742962886
3.68,0.006127405499705334
3.684,0.006127693986220438
3.688,0.006124905283241107
3.692,0.006128030553821391
3.696,0.006127958432192615
3.7,0.006128078634907242
3.704,0.00612843924305112
3.708,0.00612839116196527
3.712,0.006128030553821391
3.716,0.006130073999970039
3.72,0.00612747762133411
3.724,0.0061303624864851415
3.728,0.006133607959780052
3.732,0.006129833594540786
3.736,0.006129040256624252
3.74,0.006131251986573377
3.744,0.006130939459515348
3.748,0.006128679648480373
3.7520000000000002,0.006129953797255412
3.7560000000000002,0.006129472986396907
3.7600000000000002,0.006131011581144124
3.7640000000000002,0.006130650973000245
3.7680000000000002,0.006127742067306288
3.7720000000000002,0.006127549742962886
3.7760000000000002,0.006128631567394523
3.7800000000000002,0.006130001878341263
3.7840000000000003,0.006129617229654458
3.7880000000000003,0.0061282228781647935
3.7920000000000003,0.00612843924305112
3.7960000000000003,0.006130073999970039
3.8000000000000003,0.006124640837268929
3.8040000000000003,0.006124712958897705
3.8080000000000003,0.00612884793228085
3.8120000000000003,0.00613209340557576
3.8160000000000003,0.006133680081408828
3.8200000000000003,0.00613062693245732
3.8240000000000003,0.006132718459691817
3.8280000000000003,0.006132838662406444
3.8320000000000003,0.006132766540777668
3.8360000000000003,0.0061320212839469845
3.84,0.00613113178385875
3.844,0.006128968134995477
3.848,0.006128511364679896
3.852,0.006131396229830928
3.856,0.00613062693245732
3.86,0.00613062693245732
3.864,0.006132333811005013
3.868,0.00612925662151058
3.872,0.00612884793228085
3.876,0.006129737432369085
3.88,0.00613067501354317
3.884,0.006129833594540786
3.888,0.006126756405046352
3.892,0.006116611295931891
3.896,0.00611692382298992
3.9,0.006123342647950965
3.904,0.006127790148392138
3.908,0.006129929756712487
3.912,0.006130723094629021
3.916,0.0061298816756266365
3.92,0.006129136418795953
3.924,0.006130314405399291
3.928,0.006131444310916778
3.932,0.0061279824727355405
3.936,0.006119472120539997
3.94,0.006121972337004225
3.944,0.006126924688846829
3.948,0.006128294999793569
3.952,0.006129713391826159
3.956,0.006131636635260181
3.96,0.006131396229830928
3.964,0.006128920053909626
3.968,0.00612610731038737
3.972,0.006125073567041584
3.976,0.006124881242698181
3.98,0.006119424039454147
3.984,0.006110889646715679
3.988,0.006114543809240319
3.992,0.006118919188052716
3.996,0.006122212742433478
4.0,0.0061232224452363385
4.0040000000000004,0.00612062606660041
4.008,0.006120361620628232
4.0120000000000005,0.006120097174656054
4.016,0.006122645472206132
4.0200000000000005,0.006122381026233954
4.024,0.006119327877282446
4.0280000000000005,0.006117212309505023
4.032,0.006119520201625848
4.0360000000000005,0.006121852134289598
4.04,0.00612286183709246
4.0440000000000005,0.006122308904605179
4.048,0.006123583053380217
4.0520000000000005,0.006124063864238723
4.056,0.006124977404869883
4.0600000000000005,0.006124544675097228
4.064,0.006124544675097228
4.0680000000000005,0.006124352350753826
4.072,0.006124424472382602
4.0760000000000005,0.006125434175185462
4.08,0.006125866904958118
4.0840000000000005,0.0061248091210694055
4.088,0.006126011148215669
4.0920000000000005,0.006125313972470837
4.096,0.006124520634554303
4.1,0.006125073567041584
4.104,0.006124544675097228
4.108,0.006123246485779264
4.112,0.006123631134466068
4.116,0.006116178566159237
4.12,0.006118366255565435
4.124,0.006125362053556687
4.128,0.006128006513278466
4.132,0.006128920053909626
4.136,0.006128319040336495
4.14,0.006129521067482758
4.144,0.006127068932104381
4.148,0.006125987107672743
4.152,0.006127237215904857
4.156,0.006125866904958118
4.16,0.006125722661700566
4.164,0.006129472986396907
4.168,0.006128920053909626
4.172,0.0061267083239605015
4.176,0.006125338013013762
4.18,0.006125001445412808
4.184,0.006124160026410424
4.188,0.006125506296814238
4.192,0.006124232148039199
4.196,0.0061258428644151925
4.2,0.006126732364503427
4.204,0.0061186307015376135
4.208,0.006111923390061465
4.212,0.006116635336474816
4.216,0.006122693553291983
4.22,0.006124761039983556
4.224,0.00612199637754715
4.228,0.006125338013013762
4.232,0.006124712958897705
4.236,0.006124352350753826
4.24,0.006124424472382602
4.244,0.0061233907290368155
4.248,0.006124304269667975
4.252,0.006124087904781648
4.256,0.00612428022912505
4.26,0.006124712958897705
4.264,0.006124160026410424
4.268,0.006125241850842061
4.272,0.006126131350930295
4.276,0.006124905283241107
4.28,0.006124135985867499
4.284,0.006121852134289598
4.288,0.006123150323607563
4.292,0.0061232224452363385
4.296,0.0061229099181783105
4.3,0.0061234628506655914
4.304,0.006125698621157641
4.308,0.006125554377900089
4.312,0.0061267083239605015
4.316,0.006125506296814238
4.32,0.006126251553644922
4.324,0.006123583053380217
4.328,0.006123342647950965
4.332,0.0061239436615240965
4.336,0.006122789715463684
4.34,0.006123799418266545
4.344,0.006124905283241107
4.348,0.006124160026410424
4.352,0.006122260823519328
4.356,0.006123246485779264
4.36,0.006125746702243491
4.364,0.006126780445589277
4.368,0.006125482256271313
4.372,0.006124592756183079
4.376,0.0061193519178253716
4.38,0.006120866472029663
4.384,0.006123583053380217
4.388,0.006124448512925527
4.392,0.006123631134466068
4.396,0.006120914553115513
4.4,0.006117308471676724
4.404,0.006120938593658439
4.408,0.006122212742433478
4.412,0.0061252899319279115
4.416,0.0061271891348190066
4.42,0.00612514568867036
4.424,0.006123583053380217
4.428,0.006125698621157641
4.432,0.006128367121422345
4.436,0.006127790148392138
4.44,0.006124833161612331
4.444,0.006125963067129819
4.448,0.006126083269844445
4.452,0.0061263957969024735
4.456,0.006126732364503427
4.46,0.006127165094276082
4.464,0.00611925575565367
4.468,0.006112115714404867
4.472,0.006116779579732368
4.476,0.006120241417913606
4.48,0.006122405066776879
4.484,0.006126035188758594
4.488,0.006123751337180694
4.492,0.006122405066776879
4.496,0.006122236782976403
4.5,0.006122188701890552
4.5040000000000004,0.006122020418090075
4.508,0.006119976971941428
4.5120000000000005,0.006120097174656054
4.516,0.006121515566688645
4.5200000000000005,0.006120529904428709
4.524,0.0061196644448834
4.5280000000000005,0.006120698188229186
4.532,0.006117645039277677
4.5360000000000005,0.006118654742080539
4.54,0.006121948296461299
4.5440000000000005,0.006124160026410424
4.548,0.0061234628506655914
4.5520000000000005,0.006119135552939044
4.556,0.00611560159312903
4.5600000000000005,0.0061167314986465176
4.564,0.00612199637754715
4.5680000000000005,0.006123486891208517
4.572,0.006121227080173541
4.5760000000000005,0.006115385228242703
4.58,0.006110096308799145
4.5840000000000005,0.006116587255388966
4.588,0.006122813756006609
4.5920000000000005,0.00612834308087942
4.596,0.006125169729213285
4.6000000000000005,0.00612062606660041
4.604,0.006121900215375449
4.6080000000000005,0.0061233907290368155
4.612,0.006124833161612331
4.616,0.006124905283241107
4.62,0.006123655175008993
4.624,0.006122332945148104
4.628,0.006122405066776879
4.632,0.006122525269491506
4.636,0.006121106877458916
4.64,0.006121852134289598
4.644,0.006119616363797549
4.648,0.006121347282888168
4.652,0.006125386094099612
4.656,0.006122549310034431
4.66,0.006116683417560667
4.664,0.006117332512219649
4.668,0.006119231715110745
4.672,0.006120914553115513
4.676,0.006122188701890552
4.68,0.0061223569856910295
4.684,0.006122140620804702
4.688,0.006114856336298347
4.692,0.006105240119128242
4.696,0.00611108197105908
4.7,0.006115577552586105
4.704,0.006118125850136183
4.708,0.006118510498822987
4.712,0.006115577552586105
4.716,0.00611692382298992
4.72,0.006117909485249855
4.724,0.006117741201449378
4.728,0.006117332512219649
4.732,0.006118534539365912
4.736,0.006119568282711698
4.74,0.006121467485602794
4.744,0.006120481823342859
4.748,0.00612067414768626
4.752,0.006120313539542382
4.756,0.006120890512572588
4.76,0.0061226695127490575
4.764,0.006119760607055101
4.768,0.006117909485249855
4.772,0.006118871106966866
4.776,0.006118149890679108
4.78,0.006116274728330938
4.784,0.006118173931222033
4.788,0.006119784647598026
4.792,0.006118967269138567
4.796,0.0061194961610829225
4.8,0.006118606660994688
4.804,0.006117813323078154
4.808,0.006122260823519328
4.812,0.006123559012837293
4.816,0.006123631134466068
4.82,0.006123030120892936
4.824,0.006112500363091671
4.828,0.006110480957485949
4.832,0.006116178566159237
4.836,0.006122332945148104
4.84,0.006124953364326957
4.844,0.006126035188758594
4.848,0.006121972337004225
4.852,0.006123919620981171
4.856,0.006125217810299136
4.86,0.006126756405046352
4.864,0.0061272612564477824
4.868,0.0061265640807029505
4.872,0.006127092972647306
4.876,0.006124039823695798
4.88,0.006124135985867499
4.884,0.00612428022912505
4.888,0.006125169729213285
4.892,0.006124063864238723
4.896,0.006124039823695798
4.9,0.006123342647950965
4.904,0.006123991742609947
4.908,0.006123847499352395
4.912,0.006127958432192615
4.916,0.006126804486132203
4.92,0.006126179432016146
4.924,0.0061261553914732205
4.928,0.006126924688846829
4.932,0.006128030553821391
4.936,0.00611697190407577
4.94,0.006114087038924738
4.944,0.0061204577827999335
4.948,0.006126251553644922
4.952,0.006127645905134587
4.956,0.006128126715993092
4.96,0.00612514568867036
4.964,0.006128078634907242
4.968,0.0061274295402482595
4.972,0.0061263957969024735
4.976,0.006126828526675128
4.98,0.006127790148392138
4.984,0.006128319040336495
4.988,0.006129593189111533
4.992,0.006129472986396907
4.996,0.006128920053909626
5.0,0.006128078634907242
5.0040000000000004,0.0061263236752736976
5.008,0.006128583486308672
5.0120000000000005,0.006127886310563839
5.016,0.00612793439164969
5.0200000000000005,0.006127766107849214
5.024,0.006127309337533633
5.0280000000000005,0.006128054594364316
5.032,0.006128246918707719
5.0360000000000005,0.006129352783682281
5.04,0.00613062693245732
5.0440000000000005,0.006131756837974807
5.048,0.006128751770109149
5.0520000000000005,0.006128102675450167
5.056,0.006127838229477989
5.0600000000000005,0.006125578418443014
5.064,0.0061282228781647935
5.0680000000000005,0.0061252899319279115
5.072,0.00611468805249787
5.0760000000000005,0.006113846633495486
5.08,0.006118726863709315
5.0840000000000005,0.006124472553468452
5.088,0.006125386094099612
5.0920000000000005,0.006123631134466068
5.096,0.006125626499528865
5.1000000000000005,0.006127165094276082
5.104,0.006124833161612331
5.1080000000000005,0.006127165094276082
5.112,0.006126059229301519
5.1160000000000005,0.006124953364326957
5.12,0.006125530337357164
5.124,0.0061233907290368155
5.128,0.006125169729213285
5.132,0.006127549742962886
5.136,0.0061247369994406305
5.14,0.00612478508052648
5.144,0.006126347715816623
5.148,0.00612468891835478
5.152,0.0061244965940113775
5.156,0.006125890945501043
5.16,0.006124039823695798
5.164,0.006123631134466068
5.168,0.006124232148039199
5.172,0.006126179432016146
5.176,0.006127573783505811
5.18,0.006125674580614715
5.184,0.006117068066247471
5.188,0.006113437944265756
5.192,0.006118173931222033
5.196,0.006122020418090075
5.2,0.006124304269667975
5.204,0.006124304269667975
5.208,0.006125674580614715
5.212,0.0061265159996171
5.216,0.006124520634554303
5.22,0.006123246485779264
5.224,0.006125626499528865
5.228,0.006125482256271313
5.232,0.006127285296990708
5.236,0.006127910351106765
5.24,0.006127742067306288
5.244,0.006128006513278466
5.248,0.006127044891561456
5.252,0.0061248091210694055
5.256,0.006124087904781648
5.26,0.00612286183709246
5.264,0.006124857202155256
5.268,0.006128006513278466
5.272,0.006126732364503427
5.276,0.006125530337357164
5.28,0.006124544675097228
5.284,0.006123583053380217
5.288,0.006125963067129819
5.292,0.00612478508052648
5.296,0.0061173805933055
5.3,0.006116274728330938
5.304,0.006121178999087691
5.308,0.006126035188758594
5.312,0.0061282228781647935
5.316,0.006125890945501043
5.32,0.006126443877988324
5.324,0.00612976147291201
5.328,0.00613021824322759
5.332,0.006130530770285619
5.336,0.006130530770285619
5.34,0.006129521067482758
5.344,0.006132237648833312
5.348,0.006137045757418365
5.352,0.006137887176420749
5.356,0.006137382325019319
5.36,0.006133704121951754
5.364,0.006131612594717255
5.368,0.006132526135348416
5.372,0.00613245401371964
5.376,0.0061322616893762375
5.38,0.00613387240575223
5.384,0.006129400864768131
5.388,0.006128030553821391
5.392,0.006129352783682281
5.396,0.006131203905487526
5.4,0.006130554810828544
5.404,0.006127357418619484
5.408,0.006118294133936659
5.412,0.006119544242168773
5.416,0.00612519376975621
5.42,0.0061290883377101025
5.424,0.006131251986573377
5.428,0.006130001878341263
5.432,0.006128415202508195
5.436,0.006132117446118686
5.44,0.006131444310916778
5.444,0.006129833594540786
5.448,0.0061293287431393555
5.452,0.00612793439164969
5.456,0.0061263236752736976
5.46,0.006126251553644922
5.464,0.006125265891384986
5.468,0.006127790148392138
5.472,0.006129112378253028
5.476,0.006128054594364316
5.48,0.006128944094452552
5.484,0.006128126715993092
5.488,0.006128294999793569
5.492,0.006129160459338878
5.496,0.006125362053556687
5.5,0.006128030553821391
5.5040000000000004,0.0061293287431393555
5.508,0.006128006513278466
5.5120000000000005,0.006127044891561456
5.516,0.006126996810475605
5.5200000000000005,0.006125939026586894
5.524,0.006129400864768131
5.5280000000000005,0.006127309337533633
5.532,0.0061269487293897544
5.5360000000000005,0.006125073567041584
5.54,0.00612478508052648
5.5440000000000005,0.006116298768873863
5.548,0.006115817958015357
5.5520000000000005,0.006121467485602794
5.556,0.006125241850842061
5.5600000000000005,0.006128319040336495
5.564,0.0061276699456775125
5.5680000000000005,0.006126443877988324
5.572,0.006125794783329342
5.5760000000000005,0.006125818823872267
5.58,0.006127766107849214
5.5840000000000005,0.006128150756536018
5.588,0.0061276699456775125
5.5920000000000005,0.006130530770285619
5.596,0.0061294970269398326
5.6000000000000005,0.006128198837621868
5.604,0.006129352783682281
5.6080000000000005,0.006127621864591662
5.612,0.006126275594187847
5.6160000000000005,0.006127693986220438
5.62,0.006127165094276082
5.6240000000000006,0.006128583486308672
5.628,0.006130650973000245
5.632,0.006128896013366701
5.636,0.006129352783682281
5.64,0.00612976147291201
5.644,0.006131612594717255
5.648,0.0061306028919143945
5.652,0.006125362053556687
5.656,0.006113846633495486
5.66,0.006117332512219649
5.664,0.006121611728860346
5.668,0.006125674580614715
5.672,0.006125482256271313
5.676,0.006125554377900089
5.68,0.0061276699456775125
5.684,0.006127525702419961
5.688,0.006126804486132203
5.692,0.006128679648480373
5.696,0.006129376824225206
5.7,0.006130530770285619
5.704,0.006130795216257796
5.708,0.0061295691485686084
5.712,0.00612884793228085
5.716,0.006130506729742693
5.72,0.006128968134995477
5.724,0.0061265159996171
5.728,0.006128920053909626
5.732,0.006133079067835697
5.736,0.006134858068012166
5.74,0.00613245401371964
5.744,0.0061290883377101025
5.748,0.006129472986396907
5.752,0.006130578851371469
5.756,0.006130506729742693
5.76,0.006133728162494679
5.764,0.006133127148921547
5.768,0.006122332945148104
5.772,0.0061202173773706806
5.776,0.0061256024589859395
5.78,0.006129689351283234
5.784,0.006132478054262565
5.788,0.006129929756712487
5.792,0.006128583486308672
5.796,0.006128679648480373
5.8,0.006130146121598815
5.804,0.006131324108202153
5.808,0.006131492392002629
5.812,0.00612925662151058
5.816,0.006129352783682281
5.82,0.006130723094629021
5.824,0.006129689351283234
5.828,0.0061295691485686084
5.832,0.006128799851195
5.836,0.006126347715816623
5.84,0.006127597824048737
5.844,0.0061274295402482595
5.848,0.006128006513278466
5.852,0.006128174797078943
5.856,0.006128487324136971
5.86,0.00612839116196527
5.864,0.006127549742962886
5.868,0.006127405499705334
5.872,0.006130650973000245
5.876,0.006134208973353184
5.88,0.006131492392002629
5.884,0.006132117446118686
5.888,0.00613428109498196
5.892,0.0061343291760678105
5.896,0.006134809986926316
5.9,0.0061296412701973835
5.904,0.006119303836739521
5.908,0.0061202173773706806
5.912,0.006125458215728388
5.916,0.006129545108025683
5.92,0.006128944094452552
5.924,0.006127597824048737
5.928,0.006130290364856366
5.932,0.006131276027116302
5.936,0.006131420270373853
5.94,0.006130987540601198
5.944,0.006128463283594046
5.948,0.006129905716169562
5.952,0.006131636635260181
5.956,0.006129833594540786
5.96,0.006127285296990708
5.964,0.006124857202155256
5.968,0.006124712958897705
5.972,0.006128294999793569
5.976,0.00613113178385875
5.98,0.006130963500058273
5.984,0.006128511364679896
5.988,0.006128198837621868
5.992,0.006126275594187847
5.996,0.006130242283770515
6.0,0.006130771175714872
6.0040000000000004,0.006130073999970039
6.008,0.006130073999970039
6.0120000000000005,0.006127525702419961
6.016,0.006117981606878631
6.0200000000000005,0.006120025053027278
6.024,0.0061263236752736976
6.0280000000000005,0.006130290364856366
6.032,0.00613204532448991
6.0360000000000005,0.006131444310916778
6.04,0.006128367121422345
6.0440000000000005,0.006129136418795953
6.048,0.006131660675803106
6.0520000000000005,0.006132718459691817
6.056,0.006131035621687049
6.0600000000000005,0.006129617229654458
6.064,0.006129737432369085
6.0680000000000005,0.00612839116196527
6.072,0.0061301942026846645
6.0760000000000005,0.006129617229654458
6.08,0.0061268766077609785
6.0840000000000005,0.006124953364326957
6.088,0.0061269487293897544
6.0920000000000005,0.006129040256624252
6.096,0.006129953797255412
6.1000000000000005,0.006131516432545554
6.104,0.0061344012976965855
6.1080000000000005,0.006137310203390543
6.112,0.006136685149274486
6.1160000000000005,0.0061335358381512765
6.12,0.00613017016214174
6.1240000000000006,0.006126011148215669
6.128,0.0061157698769295065
6.132000000000001,0.0061193519178253716
6.136,0.006123607093923142
6.140000000000001,0.006130386527028067
6.144,0.006131203905487526
6.148,0.006127886310563839
6.152,0.006128968134995477
6.156,0.006131324108202153
6.16,0.006128607526851597
6.164,0.006128944094452552
6.168,0.006128487324136971
6.172,0.006128463283594046
6.176,0.0061303624864851415
6.18,0.006131564513631405
6.184,0.006133271392179098
6.188,0.006130386527028067
6.192,0.006127333378076558
6.196,0.006122789715463684
6.2,0.006125458215728388
6.204,0.0061285354052228215
6.208,0.006129472986396907
6.212,0.006127068932104381
6.216,0.006124953364326957
6.22,0.006125265891384986
6.224,0.006128559445765747
6.228,0.006130314405399291
6.232,0.0061303624864851415
6.236,0.006128559445765747
6.24,0.006127549742962886
6.244,0.006127092972647306
6.248,0.006125818823872267
6.252,0.006126299634730772
6.256,0.006127718026763363
6.26,0.006123054161435861
6.264,0.006115986241815834
6.268,0.006120914553115513
6.272,0.0061242561885821245
6.276,0.006127693986220438
6.28,0.006126660242874651
6.284,0.006124472553468452
6.288,0.00612514568867036
6.292,0.006125578418443014
6.296,0.00612514568867036
6.3,0.006125866904958118
6.304,0.006125482256271313
6.308,0.0061258428644151925
6.312,0.006127645905134587
6.316,0.0061271891348190066
6.32,0.00612702085101853
6.324,0.00612747762133411
6.328,0.006125241850842061
6.332,0.006127766107849214
6.336,0.006129953797255412
6.34,0.006129521067482758
6.344,0.006128799851195
6.348,0.006129521067482758
6.352,0.006125410134642537
6.356,0.006125313972470837
6.36,0.00612747762133411
6.364,0.006126756405046352
6.368,0.006126347715816623
6.372,0.006121467485602794
6.376,0.006113582187523308
6.38,0.006117092106790396
6.384,0.006118510498822987
6.388,0.00612286183709246
6.392,0.006126924688846829
6.396,0.006124448512925527
6.4,0.006125073567041584
6.404,0.006125530337357164
6.408,0.006125169729213285
6.412,0.00612697276993268
6.416,0.00612382345880947
6.42,0.006124087904781648
6.424,0.006128030553821391
6.428,0.0061265640807029505
6.432,0.006129737432369085
6.436,0.006129448945853982
6.44,0.006127790148392138
6.444,0.0061271891348190066
6.448,0.006125674580614715
6.452,0.006127357418619484
6.456,0.0061271170131902315
6.46,0.0061282228781647935
6.464,0.006127141053733157
6.468,0.006125506296814238
6.472,0.006124640837268929
6.476,0.0061267083239605015
6.48,0.006126347715816623
6.484,0.006122188701890552
6.488,0.006114303403811066
6.492,0.006119039390767343
6.496,0.00612336668849389
6.5,0.00612382345880947
6.5040000000000004,0.006125674580614715
6.508,0.006125722661700566
6.5120000000000005,0.006124664877811855
6.516,0.0061256024589859395
6.5200000000000005,0.0061271891348190066
6.524,0.006124063864238723
6.5280000000000005,0.0061229820398070855
6.532,0.006124520634554303
6.5360000000000005,0.006125770742786417
6.54,0.006123174364150488
6.5440000000000005,0.0061239436615240965
6.548,0.006125025485955733
6.5520000000000005,0.006124039823695798
6.556,0.006123799418266545
6.5600000000000005,0.006124544675097228
6.564,0.006129040256624252
6.5680000000000005,0.0061295691485686084
6.572,0.00612839116196527
6.5760000000000005,0.006127958432192615
6.58,0.006129977837798338
6.5840000000000005,0.006129112378253028
6.588,0.006128270959250644
6.5920000000000005,0.006126828526675128
6.596,0.006124184066953349
6.6000000000000005,0.006122789715463684
6.604,0.006124184066953349
6.6080000000000005,0.006123871539895321
6.612,0.006124761039983556
6.6160000000000005,0.006124424472382602
6.62,0.006123679215551918
6.6240000000000006,0.006124881242698181
6.628,0.0061234628506655914
6.632000000000001,0.00612382345880947
6.636,0.006127309337533633
6.640000000000001,0.006128559445765747
6.644,0.006127068932104381
6.648000000000001,0.0061287758106520745
6.652,0.0061298816756266365
6.656000000000001,0.0061304346081139174
6.66,0.006129400864768131
6.664,0.006124304269667975
6.668,0.0061156977553007315
6.672,0.006121251120716467
6.676,0.006126419837445399
6.68,0.006128270959250644
6.684,0.006129352783682281
6.688,0.0061266121617888
6.692,0.006125241850842061
6.696,0.0061271170131902315
6.7,0.0061252899319279115
6.704,0.006125241850842061
6.708,0.00612839116196527
6.712,0.006127910351106765
6.716,0.006128102675450167
6.72,0.006128078634907242
6.724,0.006127838229477989
6.728,0.006127141053733157
6.732,0.006118967269138567
6.736,0.006115000579555899
6.74,0.006122381026233954
6.744,0.006126203472559071
6.748,0.006128679648480373
6.752,0.006130963500058273
6.756,0.0061290883377101025
6.76,0.006129064297167177
6.764,0.006128823891737925
6.768,0.006129929756712487
6.772,0.006127357418619484
6.776,0.006125025485955733
6.78,0.006124712958897705
6.784,0.006125866904958118
6.788,0.006128559445765747
6.792,0.006128078634907242
6.796,0.00612428022912505
6.8,0.006125818823872267
6.804,0.006128463283594046
6.808,0.006129040256624252
6.812,0.006129929756712487
6.816,0.006128968134995477
6.82,0.006127838229477989
6.824,0.006125482256271313
6.828,0.006126828526675128
6.832,0.006127790148392138
6.836,0.006128319040336495
6.84,0.006131372189288003
6.844,0.006131107743315825
6.848,0.006124616796726004
6.852,0.006130578851371469
6.856,0.006135723527557475
6.86,0.006137382325019319
6.864,0.006135362919413597
6.868,0.006131564513631405
6.872,0.006130098040512964
6.876,0.006127333378076558
6.88,0.006128487324136971
6.884,0.006130723094629021
6.888,0.006128006513278466
6.892,0.00612702085101853
6.896,0.006125386094099612
6.9,0.006124905283241107
6.904,0.006126227513101996
6.908,0.0061265640807029505
6.912,0.006123871539895321
6.916,0.006124544675097228
6.92,0.006126275594187847
6.924,0.006125313972470837
6.928,0.006126011148215669
6.932,0.006126035188758594
6.936,0.006124568715640153
6.94,0.0061233907290368155
6.944,0.006124160026410424
6.948,0.006126371756359548
6.952,0.006128871972823776
6.956,0.006128270959250644
6.96,0.00612839116196527
6.964,0.006128487324136971
6.968,0.006129352783682281
6.972,0.006131612594717255
6.976,0.00613017016214174
6.98,0.006120890512572588
6.984,0.006117500796020126
6.988,0.006122885877635385
6.992,0.006127501661877035
6.996,0.006128631567394523
7.0,0.006128463283594046
7.0040000000000004,0.006128679648480373
7.008,0.006130963500058273
7.0120000000000005,0.0061306028919143945
7.016,0.00612697276993268
7.0200000000000005,0.006125914986043968
7.024,0.006125362053556687
7.0280000000000005,0.006124761039983556
7.032,0.006127862270020914
7.0360000000000005,0.006128631567394523
7.04,0.006126491959074175
7.0440000000000005,0.006126467918531249
7.048,0.006127621864591662
7.0520000000000005,0.006129545108025683
7.056,0.006129737432369085
7.0600000000000005,0.006131925121775284
7.064,0.0061304346081139174
7.0680000000000005,0.006128511364679896
7.072,0.0061269487293897544
7.0760000000000005,0.006126275594187847
7.08,0.0061296412701973835
7.0840000000000005,0.006129040256624252
7.088,0.006129376824225206
7.0920000000000005,0.00612382345880947
7.096,0.006119976971941428
7.1000000000000005,0.006124616796726004
7.104,0.0061295691485686084
7.1080000000000005,0.006130554810828544
7.112,0.006128559445765747
7.1160000000000005,0.006126203472559071
7.12,0.006127958432192615
7.1240000000000006,0.006130963500058273
7.128,0.006131203905487526
7.132000000000001,0.006131780878517732
7.136,0.00613245401371964
7.140000000000001,0.006132550175891341
7.144,0.006134305135524885
7.148000000000001,0.006132478054262565
7.152,0.00613067501354317
7.156000000000001,0.00613158855417433
7.16,0.006131324108202153
7.164000000000001,0.006132357851547939
7.168,0.0061294970269398326
7.172,0.00612843924305112
7.176,0.006129040256624252
7.18,0.006131011581144124
7.184,0.006132141486661611
7.188,0.006134665743668764
7.192,0.006136420703302308
7.196,0.006136060095158429
7.2,0.0061372621223046925
7.204,0.006128270959250644
7.208,0.00612331860740804
7.212,0.0061309154189724225
7.216,0.006135531203214074
7.22,0.006135266757241895
7.224,0.006133656040865903
7.228,0.006131756837974807
7.232,0.006132742500234743
7.236,0.006136661108731561
7.24,0.0061379352575066
7.244,0.006137190000675917
7.248,0.0061332954327220236
7.252,0.006133559878694202
7.256,0.006137646770991496
7.26,0.006138969000852386
7.264,0.006136973635789589
7.268,0.006136973635789589
7.272,0.006137093838504215
7.276,0.006134497459868287
7.28,0.006132934824578145
7.284,0.0061343291760678105
7.288,0.006134545540954137
7.292,0.006136661108731561
7.296,0.006137983338592451
7.3,0.006135411000499447
7.304,0.006135891811357952
7.308,0.006136973635789589
7.312,0.006137214041218842
7.316,0.006135483122128223
7.32,0.006134665743668764
7.324,0.006137502527733945
7.328,0.006137598689905646
7.332,0.0061381275818500015
7.336,0.006138175662935852
7.34,0.006126347715816623
7.344,0.006127357418619484
7.348,0.006131684716346031
7.352,0.006136012014072579
7.356,0.006136228378958906
7.36,0.006134425338239511
7.364,0.0061337762435805295
7.368,0.006135771608643326
7.372,0.006137190000675917
7.376,0.006137214041218842
7.38,0.006138007379135375
7.384,0.006137286162847618
7.388,0.006138584352165582
7.392,0.006140964365915183
7.396,0.0061426472039199514
7.4,0.006139690217140144
7.404,0.006134016649009782
7.408,0.006130458648656843
7.412,0.006133079067835697
7.416,0.006137334243933468
7.42,0.006139377690082115
7.424,0.006139425771167966
7.428,0.006134906149098017
7.432,0.006134112811181483
7.436,0.006133728162494679
7.44,0.0061344012976965855
7.444,0.00613752656827687
7.448,0.006137646770991496
7.452,0.006127165094276082
7.456,0.006128319040336495
7.46,0.006134978270726793
7.464,0.0061379352575066
7.468,0.006140074865826948
7.472,0.006139449811710891
7.476,0.006138223744021703
7.48,0.00613985850094062
7.484,0.006140579717228378
7.488,0.006141661541660015
7.492,0.006140122946912799
7.496,0.0061357475681004005
7.5,0.006136516865474009
7.5040000000000004,0.00613884879813776
7.508,0.006139185365738714
7.5120000000000005,0.006140050825284023
7.516,0.00613752656827687
7.5200000000000005,0.006133704121951754
7.524,0.006133511797608351
7.5280000000000005,0.0061351946356131195
7.532,0.006135723527557475
7.5360000000000005,0.0061359158519008776
7.54,0.006135507162671148
7.5440000000000005,0.006135891811357952
7.548,0.0061379352575066
7.5520000000000005,0.006138247784564628
7.556,0.00613889687922361
7.5600000000000005,0.006140339311799126
7.564,0.006129160459338878
7.5680000000000005,0.006125482256271313
7.572,0.006130506729742693
7.5760000000000005,0.006133319473264949
7.58,0.006133175230007398
7.5840000000000005,0.00613478594638339
7.588,0.006137646770991496
7.5920000000000005,0.006138752635966058
7.596,0.006139377690082115
7.6000000000000005,0.006140315271256201
7.604,0.006137045757418365
7.6080000000000005,0.006138223744021703
7.612,0.006136252419501831
7.6160000000000005,0.006134593622039988
7.62,0.00613524271669897
7.6240000000000006,0.006134713824754614
7.628,0.006134136851724408
7.632000000000001,0.006133992608466856
7.636,0.006133728162494679
7.640000000000001,0.006133680081408828
7.644,0.006134160892267333
7.648000000000001,0.006133199270550322
7.652,0.006134305135524885
7.656000000000001,0.006133607959780052
7.66,0.006132766540777668
7.664000000000001,0.006134208973353184
7.668,0.006134040689552707
7.672000000000001,0.006130314405399291
7.676,0.006130458648656843
7.68,0.006131516432545554
7.684,0.006131877040689434
7.688,0.006133247351636173
7.692,0.006135098473441418
7.696,0.00613158855417433
7.7,0.006121371323431093
7.704,0.0061256024589859395
7.708,0.006132694419148892
7.712,0.006135386959956522
7.716,0.006134305135524885
7.72,0.006131540473088479
7.724,0.00613706979796129
7.728,0.006137286162847618
7.732,0.0061363005005876815
7.736,0.006137454446648094
7.74,0.006135579284299924
7.744,0.006133752203037604
7.748,0.006133439675979575
7.752,0.0061332954327220236
7.756,0.006134858068012166
7.76,0.006134665743668764
7.764,0.006133607959780052
7.768,0.006131492392002629
7.772,0.006132550175891341
7.776,0.006129929756712487
7.78,0.0061310837027729
7.784,0.006133319473264949
7.788,0.006130939459515348
7.792,0.006129737432369085
7.796,0.006132189567747462
7.8,0.0061322616893762375
7.804,0.006133704121951754
7.808,0.006133175230007398
7.812,0.0061224291073198045
7.816,0.00612702085101853
7.82,0.006134930189640942
7.824,0.006138632433251432
7.828,0.006140050825284023
7.832,0.006139281527910414
7.836,0.006139065163024087
7.84,0.006143801149980364
7.844,0.006144618528439822
7.848,0.006139666176597219
7.852,0.00613473786529754
7.856,0.006133103108378622
7.86,0.006135146554527269
7.864,0.00613341563543665
7.868,0.0061324299731767146
7.872,0.0061348821085550915
7.876,0.006133223311093248
7.88,0.006134040689552707
7.884,0.006135002311269717
7.888,0.006135579284299924
7.892,0.0061368534330749624
7.896,0.006136276460044756
7.9,0.006134257054439035
7.904,0.006135843730272102
7.908,0.006139305568453339
7.912,0.006140627798314229
7.916,0.006138223744021703
7.92,0.00613752656827687
7.924,0.006137863135877824
7.928,0.006139329608996265
7.932,0.006137646770991496
7.936,0.006136444743845233
7.94,0.006134930189640942
7.944,0.006132405932633789
7.948,0.006125674580614715
7.952,0.0061309154189724225
7.956,0.006135675446471625
7.96,0.006138416068365105
7.964,0.006136492824931084
7.968,0.006132598256977191
7.972,0.006135819689729176
7.976,0.006136637068188636
7.98,0.006136757270903262
7.984,0.006135314838327746
7.988,0.006136925554703738
7.992,0.006138079500764151
7.996,0.006139425771167966
8.0,0.0061424067984906985
8.004,0.006142142352518521
8.008000000000001,0.006143632866179887
8.012,0.006142070230889745
8.016,0.006143344379664784
8.02,0.006144426204096421
8.024000000000001,0.006142214474147296
8.028,0.006138223744021703
8.032,0.0061394017306250406
8.036,0.006137959298049525
8.040000000000001,0.00614026719017035
8.044,0.00613985850094062
8.048,0.006138536271079732
8.052,0.006142190433604372
8.056000000000001,0.0061375746493627205
8.06,0.006129136418795953
8.064,0.006136420703302308
8.068,0.006142190433604372
8.072000000000001,0.006142935690435054
8.076,0.0061400267847410974
8.08,0.006138752635966058
8.084,0.006140363352342052
8.088000000000001,0.0061405075955996025
8.092,0.006139137284652863
8.096,0.006137791014249048
8.1,0.006137742933163198
8.104000000000001,0.006139377690082115
8.108,0.006141469217316614
8.112,0.006142070230889745
8.116,0.006145459947442207
8.120000000000001,0.006144089636495467
8.124,0.0061405075955996025
8.128,0.00614026719017035
8.132,0.00614346458237941
8.136000000000001,0.006144618528439822
8.14,0.0061432001364072324
8.144,0.006141974068718044
8.148,0.006140820122657631
8.152000000000001,0.0061432001364072324
8.156,0.006143392460750635
8.16,0.006144907014954926
8.164,0.006144065595952541
8.168000000000001,0.006140098906369873
8.172,0.0061320212839469845
8.176,0.00613569948701455
8.18,0.006141252852430286
8.184000000000001,0.006145604190699759
8.188,0.0061451955014700296
8.192,0.006140772041571781
8.196,0.0061346417031258385
8.2,0.006135386959956522
8.204,0.006138151622392927
8.208,0.006140315271256201
8.212,0.006137141919590066
8.216,0.006135386959956522
8.22,0.0061378150547919735
8.224,0.0061405075955996025
8.228,0.006142166393061446
8.232,0.006141901947089268
8.236,0.0061391613251957885
8.24,0.006137502527733945
8.244,0.006136012014072579
8.248,0.006135843730272102
8.252,0.006136132216787205
8.256,0.006137622730448571
8.26,0.006134930189640942
8.264,0.006137454446648094
8.268,0.006138488189993881
8.272,0.006142286595776072
8.276,0.006143103974235531
8.28,0.006142310636318997
8.284,0.0061389209197665355
8.288,0.006139065163024087
8.292,0.006139065163024087
8.296,0.006139113244109938
8.3,0.006141950028175119
8.304,0.006136829392532037
8.308,0.006130098040512964
8.312,0.006136661108731561
8.316,0.006140050825284023
8.32,0.006141974068718044
8.324,0.006140820122657631
8.328,0.00613935364953919
8.332,0.0061416134605741645
8.336,0.0061428876093492036
8.34,0.006142262555233147
8.344,0.006140002744198172
8.348,0.006136372622216457
8.352,0.006135098473441418
8.356,0.006138800717051909
8.36,0.006142983771520905
8.364,0.006143777109437439
8.368,0.006143945393237916
8.372,0.006143632866179887
8.376,0.006145916717757787
8.38,0.0061450272176695525
8.384,0.006145315704184655
8.388,0.006141901947089268
8.392,0.006141421136230763
8.396,0.006138536271079732
8.4,0.006139570014425518
8.404,0.006138608392708507
8.408,0.006138536271079732
8.412,0.006139329608996265
8.416,0.006135290797784821
8.42,0.006130650973000245
8.424,0.006133343513807874
8.428,0.006134906149098017
8.432,0.0061357475681004005
8.436,0.006136444743845233
8.44,0.006137454446648094
8.444,0.006138151622392927
8.448,0.0061365409060169344
8.452,0.006135867770815027
8.456,0.006138560311622657
8.46,0.006137622730448571
8.464,0.006135507162671148
8.468,0.006138007379135375
8.472,0.006139521933339667
8.476,0.006138175662935852
8.48,0.0061365409060169344
8.484,0.006138343946736329
8.488,0.0061410605280868835
8.492,0.006137430406105169
8.496,0.006138728595423133
8.5,0.00613889687922361
8.504,0.006136180297873056
8.508000000000001,0.0061381275818500015
8.512,0.006141324974059062
8.516,0.006140002744198172
8.52,0.00614067587940008
8.524000000000001,0.006140964365915183
8.528,0.006134665743668764
8.532,0.006128487324136971
8.536,0.006132381892090864
8.540000000000001,0.006133800284123454
8.544,0.006137334243933468
8.548,0.006136276460044756
8.552,0.0061322616893762375
8.556000000000001,0.0061381275818500015
8.56,0.0061380314196783
8.564,0.006135651405928699
8.568,0.006135579284299924
8.572000000000001,0.00612976147291201
8.576,0.006127718026763363
8.58,0.006134906149098017
8.584,0.006137742933163198
8.588000000000001,0.006137238081761767
8.592,0.006133247351636173
8.596,0.006136516865474009
8.6,0.006139137284652863
8.604000000000001,0.006138079500764151
8.608,0.006135867770815027
8.612,0.006135146554527269
8.616,0.006136036054615504
8.620000000000001,0.006137334243933468
8.624,0.006137646770991496
8.628,0.006137766973706123
8.632,0.006135098473441418
8.636000000000001,0.006135675446471625
8.64,0.00613610817624428
8.644,0.006135290797784821
8.648,0.006138416068365105
8.652000000000001,0.0061407480010288555
8.656,0.006139786379311845
8.66,0.006138488189993881
8.664,0.006130146121598815
8.668000000000001,0.006128174797078943
8.672,0.006137358284476394
8.676,0.006140820122657631
8.68,0.006139329608996265
8.684000000000001,0.006138199703478777
8.688,0.006134208973353184
8.692,0.006132838662406444
8.696,0.006135170595070194
8.700000000000001,0.00613661302764571
8.704,0.006135891811357952
8.708,0.0061343291760678105
8.712,0.006134689784211689
8.716,0.006136829392532037
8.72,0.006139425771167966
8.724,0.0061391613251957885
8.728,0.0061361562573301305
8.732,0.006135603324842849
8.736,0.0061389209197665355
8.74,0.006140171027998649
8.744,0.00613884879813776
8.748,0.006139065163024087
8.752,0.00613976233876892
8.756,0.006139618095511368
8.76,0.006140531636142528
8.764,0.0061425029606624
8.768,0.006141373055144912
8.772,0.006139930622569396
8.776,0.006130843297343647
8.78,0.006126996810475605
8.784,0.006132237648833312
8.788,0.006137863135877824
8.792,0.006138969000852386
8.796,0.0061361562573301305
8.8,0.00613428109498196
8.804,0.006135074432898493
8.808,0.006135771608643326
8.812,0.006137141919590066
8.816,0.006137117879047141
8.82,0.006134858068012166
8.824,0.00613341563543665
8.828,0.00613656494655986
8.832,0.006137670811534422
8.836,0.006136973635789589
8.84,0.006133247351636173
8.844,0.0061337762435805295
8.848,0.006135771608643326
8.852,0.006136781311446187
8.856,0.006138247784564628
8.86,0.006138584352165582
8.864,0.0061374063655622434
8.868,0.0061378150547919735
8.872,0.006138464149450956
8.876,0.006137983338592451
8.88,0.006139329608996265
8.884,0.006136973635789589
8.888,0.006133127148921547
8.892,0.00613656494655986
8.896,0.00613889687922361
8.9,0.006138223744021703
8.904,0.006137791014249048
8.908,0.006134040689552707
8.912,0.006122284864062254
8.916,0.006123102242521712
8.92,0.006132622297520116
8.924,0.00613752656827687
8.928,0.006135819689729176
8.932,0.006131612594717255
8.936,0.006132694419148892
8.94,0.006132213608290387
8.944,0.006134593622039988
8.948,0.006136060095158429
8.952,0.006137863135877824
8.956,0.006135050392355568
8.96,0.006135290797784821
8.964,0.006134978270726793
8.968,0.006134377257153661
8.972,0.006134425338239511
8.976,0.006134136851724408
8.98,0.006134016649009782
8.984,0.006136492824931084
8.988,0.006137502527733945
8.992,0.006136805351989112
8.996,0.006136901514160813
9.0,0.006132934824578145
9.004,0.006132117446118686
9.008000000000001,0.006136228378958906
9.012,0.006135675446471625
9.016,0.006137478487191019
9.02,0.006136685149274486
9.024000000000001,0.006126756405046352
9.028,0.006124881242698181
9.032,0.006132478054262565
9.036,0.006136372622216457
9.040000000000001,0.0061365409060169344
9.044,0.006135603324842849
9.048,0.00613524271669897
9.052,0.006132357851547939
9.056000000000001,0.006133247351636173
9.06,0.006135939892443803
9.064,0.0061346417031258385
9.068,0.006133896446295155
9.072000000000001,0.006135002311269717
9.076,0.006136781311446187
9.08,0.006137887176420749
9.084,0.006138223744021703
9.088000000000001,0.006137911216963675
9.092,0.006136973635789589
9.096,0.0061374063655622434
9.1,0.006135891811357952
9.104000000000001,0.006134930189640942
9.108,0.006133583919237127
9.112,0.00613295886512107
9.116,0.006134978270726793
9.120000000000001,0.006134569581497063
9.124,0.006135627365385774
9.128,0.006134954230183867
9.132,0.0061340887706385575
9.136000000000001,0.006127309337533633
9.14,0.006126756405046352
9.144,0.006130891378429497
9.148,0.006137646770991496
9.152000000000001,0.006136372622216457
9.156,0.006135651405928699
9.16,0.006134978270726793
9.164,0.006136973635789589
9.168000000000001,0.006135483122128223
9.172,0.006136973635789589
9.176,0.006137141919590066
9.18,0.006133079067835697
9.184000000000001,0.00613478594638339
9.188,0.006134208973353184
9.192,0.006133632000322978
9.196,0.006132838662406444
9.200000000000001,0.0061304346081139174
9.204,0.0061293287431393555
9.208,0.0061310837027729
9.212,0.0061335358381512765
9.216000000000001,0.006134136851724408
9.22,0.006136973635789589
9.224,0.0061389209197665355
9.228,0.0061425750822911756
9.232,0.006144089636495467
9.236,0.006141445176773688
9.24,0.0061407480010288555
9.244,0.006139930622569396
9.248,0.006128679648480373
9.252,0.006124953364326957
9.256,0.006128511364679896
9.26,0.006131973202861135
9.264,0.006133680081408828
9.268,0.0061348821085550915
9.272,0.006131372189288003
9.276,0.006129905716169562
9.28,0.006133079067835697
9.284,0.006132237648833312
9.288,0.006130723094629021
9.292,0.006128102675450167
9.296,0.0061298816756266365
9.3,0.006129785513454935
9.304,0.006130795216257796
9.308,0.006130554810828544
9.312,0.006128246918707719
9.316,0.0061265640807029505
9.32,0.006128487324136971
9.324,0.006130098040512964
9.328,0.006129905716169562
9.332,0.006131828959603583
9.336,0.006132165527204536
9.34,0.006132886743492294
9.344,0.006130001878341263
9.348,0.0061306028919143945
9.352,0.006130723094629021
9.356,0.006130001878341263
9.36,0.006129593189111533
9.364,0.006129400864768131
9.368,0.006130723094629021
9.372,0.006132189567747462
9.376,0.006132862702949369
9.38,0.0061328146218635185
9.384,0.006121635769403271
9.388,0.006125265891384986
9.392,0.006131973202861135
9.396,0.006135579284299924
9.4,0.006133151189464473
9.404,0.006131276027116302
9.408,0.0061337762435805295
9.412,0.006134593622039988
9.416,0.006134809986926316
9.42,0.006132934824578145
9.424,0.006132742500234743
9.428,0.0061301942026846645
9.432,0.006132213608290387
9.436,0.006133752203037604
9.44,0.006132838662406444
9.444,0.006131444310916778
9.448,0.00612834308087942
9.452,0.006127766107849214
9.456,0.00612843924305112
9.46,0.006130098040512964
9.464,0.006132574216434266
9.468,0.00613204532448991
9.472,0.006129737432369085
9.476,0.006127790148392138
9.48,0.006128487324136971
9.484,0.006130122081055889
9.488,0.006129833594540786
9.492,0.006125386094099612
9.496,0.00611697190407577
9.5,0.006121948296461299
9.504,0.006123510931751442
9.508000000000001,0.006123871539895321
9.512,0.006127549742962886
9.516,0.0061267083239605015
9.52,0.0061243283102109
9.524000000000001,0.006128751770109149
9.528,0.0061306028919143945
9.532,0.006131853000146508
9.536,0.006134449378782436
9.540000000000001,0.006132694419148892
9.544,0.006131997243404059
9.548,0.0061338483652093045
9.552,0.006133968567923931
9.556000000000001,0.006132838662406444
9.56,0.0061306028919143945
9.564,0.00613017016214174
9.568,0.006134136851724408
9.572000000000001,0.006133896446295155
9.576,0.006132718459691817
9.58,0.006133127148921547
9.584,0.006132381892090864
9.588000000000001,0.006133439675979575
9.592,0.006133824324666379
9.596,0.006132189567747462
9.6,0.006131660675803106
9.604000000000001,0.00612884793228085
9.608,0.006121419404516944
9.612,0.006125866904958118
9.616,0.006131804919060658
9.620000000000001,0.00613428109498196
9.624,0.006133728162494679
9.628,0.006128727729566224
9.632,0.006126083269844445
9.636000000000001,0.006130867337886572
9.64,0.006132285729919163
9.644,0.0061374063655622434
9.648,0.006134954230183867
9.652000000000001,0.006130867337886572
9.656,0.0061344012976965855
9.66,0.006136925554703738
9.664,0.006132886743492294
9.668000000000001,0.006128030553821391
9.672,0.006129448945853982
9.676,0.00612925662151058
9.68,0.006133439675979575
9.684000000000001,0.006134305135524885
9.688,0.00613209340557576
9.692,0.006132117446118686
9.696,0.006130242283770515
9.700000000000001,0.0061304346081139174
9.704,0.006134425338239511
9.708,0.006137141919590066
9.712,0.006134569581497063
9.716000000000001,0.006132405932633789
9.72,0.006130987540601198
9.724,0.0061304346081139174
9.728,0.006129472986396907
9.732,0.006130025918884188
9.736,0.006129280662053505
9.74,0.0061252899319279115
9.744,0.006117765241992304
9.748,0.006122957999264161
9.752,0.006130771175714872
9.756,0.0061310837027729
9.76,0.006130001878341263
9.764,0.006128487324136971
9.768,0.006129617229654458
9.772,0.0061298095539978606
9.776,0.0061295691485686084
9.78,0.006130314405399291
9.784,0.00613067501354317
9.788,0.006129376824225206
9.792,0.0061300499594271135
9.796,0.006131300067659227
9.8,0.006131107743315825
9.804,0.006130723094629021
9.808,0.0061296412701973835
9.812,0.006128126715993092
9.816,0.006127645905134587
9.82,0.006131107743315825
9.824,0.006130891378429497
9.828,0.006128415202508195
9.832,0.006127790148392138
9.836,0.006129472986396907
9.84,0.006129545108025683
9.844,0.006131564513631405
9.848,0.00613295886512107
9.852,0.0061309154189724225
9.856,0.006121587688317421
9.86,0.006124111945324574
9.864,0.006130554810828544
9.868,0.0061319491623182095
9.872,0.006131612594717255
9.876,0.006131804919060658
9.88,0.006132934824578145
9.884,0.006130001878341263
9.888,0.006125530337357164
9.892,0.00613026632431344
9.896,0.006133607959780052
9.9,0.0061310837027729
9.904,0.006132069365032835
9.908,0.006131973202861135
9.912,0.006132165527204536
9.916,0.006133199270550322
9.92,0.006133127148921547
9.924,0.006131828959603583
9.928,0.006132886743492294
9.932,0.006133175230007398
9.936,0.006132213608290387
9.94,0.006131564513631405
9.944,0.00613204532448991
9.948,0.006133103108378622
9.952,0.006133247351636173
9.956,0.006133223311093248
9.96,0.006133463716522501
9.964,0.006131276027116302
9.968,0.006122813756006609
9.972,0.006124304269667975
9.976,0.0061268766077609785
9.98,0.006128607526851597
9.984,0.0061300499594271135
9.988,0.006127573783505811
9.992,0.006126131350930295
9.996,0.006125722661700566
10.0,0.006124953364326957
10.004,0.006127357418619484
10.008000000000001,0.006129400864768131
10.012,0.006129184499881804
10.016,0.006129280662053505
10.02,0.006128126715993092
10.024000000000001,0.006128078634907242
10.028,0.006130891378429497
10.032,0.006131732797431882
10.036,0.006128968134995477
10.040000000000001,0.00612925662151058
10.044,0.0061298095539978606
10.048,0.006129448945853982
10.052,0.006126852567218053
10.056000000000001,0.0061274295402482595
10.06,0.006130843297343647
10.064,0.006133247351636173
10.068,0.006132886743492294
10.072000000000001,0.006130578851371469
10.076,0.006130122081055889
10.08,0.006130963500058273
10.084,0.006131636635260181
10.088000000000001,0.006132646338063041
10.092,0.0061343291760678105
10.096,0.006131877040689434
10.1,0.006128294999793569
10.104000000000001,0.006120193336827755
10.108,0.006125963067129819
10.112,0.006130771175714872
10.116,0.006133607959780052
10.120000000000001,0.006133680081408828
10.124,0.006130650973000245
10.128,0.006134906149098017
10.132,0.0061346417031258385
10.136000000000001,0.006134473419325361
10.14,0.006136228378958906
10.144,0.006135843730272102
10.148,0.006129040256624252
10.152000000000001,0.006131396229830928
10.156,0.0061330550272927714
10.16,0.006134545540954137
10.164,0.00613245401371964
10.168000000000001,0.006132718459691817
10.172,0.006133247351636173
10.176,0.006132838662406444
10.18,0.006131300067659227
10.184000000000001,0.006132237648833312
10.188,0.006131444310916778
10.192,0.006131227946030451
10.196,0.006132694419148892
10.200000000000001,0.006130699054086096
10.204,0.006131420270373853
10.208,0.006135122513984344
10.212,0.006129689351283234
10.216000000000001,0.00612067414768626
10.22,0.006125121648127434
10.224,0.0061309154189724225
10.228,0.006133607959780052
10.232000000000001,0.006130771175714872
10.236,0.006129833594540786
10.24,0.0061329829056639956
10.244,0.006135819689729176
10.248,0.006132886743492294
10.252,0.006131227946030451
10.256,0.006129689351283234
10.26,0.006124424472382602
10.264,0.0061256024589859395
10.268,0.006125914986043968
10.272,0.0061263957969024735
10.276,0.00612793439164969
10.28,0.0061243283102109
10.284,0.006124977404869883
10.288,0.006127165094276082
10.292,0.0061271891348190066
10.296,0.006124905283241107
10.3,0.006123727296637769
10.304,0.006125386094099612
10.308,0.006128198837621868
10.312,0.006127958432192615
10.316,0.006123174364150488
10.32,0.006124520634554303
10.324,0.006122717593834908
10.328,0.006114423606525692
10.332,0.006120722228772111
10.336,0.00612702085101853
10.34,0.006129040256624252
10.344,0.006128198837621868
10.348,0.006126347715816623
10.352,0.006128463283594046
10.356,0.006131853000146508
10.36,0.006130699054086096
10.364,0.00612839116196527
10.368,0.0061265640807029505
10.372,0.006129713391826159
10.376,0.006129833594540786
10.38,0.0061306028919143945
10.384,0.00613113178385875
10.388,0.006131925121775284
10.392,0.006129280662053505
10.396,0.006129929756712487
10.4,0.006132381892090864
10.404,0.0061309154189724225
10.408,0.006124304269667975
10.412,0.006125434175185462
10.416,0.006125914986043968
10.42,0.0061293287431393555
10.424,0.006133079067835697
10.428,0.006133824324666379
10.432,0.006131780878517732
10.436,0.006129593189111533
10.44,0.006131396229830928
10.444,0.006133175230007398
10.448,0.006134473419325361
10.452,0.00613113178385875
10.456,0.006129376824225206
10.46,0.006122092539718851
10.464,0.006116635336474816
10.468,0.006124184066953349
10.472,0.006129064297167177
10.476,0.006128030553821391
10.48,0.006127525702419961
10.484,0.0061304346081139174
10.488,0.006133247351636173
10.492,0.006134064730095632
10.496,0.006135555243756999
10.5,0.00613620433841598
10.504,0.006132478054262565
10.508000000000001,0.006132357851547939
10.512,0.006134040689552707
10.516,0.006135531203214074
10.52,0.006137694852077347
10.524000000000001,0.006136781311446187
10.528,0.006134016649009782
10.532,0.006135723527557475
10.536,0.006135891811357952
10.540000000000001,0.006135218676156045
10.544,0.006137238081761767
10.548,0.006138247784564628
10.552,0.0061365409060169344
10.556000000000001,0.006137502527733945
10.56,0.006138295865650479
10.564,0.006138416068365105
10.568,0.0061379352575066
10.572000000000001,0.0061330550272927714
10.576,0.006131636635260181
10.58,0.006135963932986728
10.584,0.006134425338239511
10.588000000000001,0.006134713824754614
10.592,0.006133680081408828
10.596,0.006124640837268929
10.6,0.006122308904605179
10.604000000000001,0.006130530770285619
10.608,0.0061325020948054905
10.612,0.006134377257153661
10.616,0.006134040689552707
10.620000000000001,0.006134257054439035
10.624,0.006137141919590066
10.628,0.006140603757771304
10.632,0.0061407480010288555
10.636000000000001,0.006138007379135375
10.64,0.006133896446295155
10.644,0.006132574216434266
10.648,0.006133680081408828
10.652000000000001,0.006136324541130607
10.656,0.006136060095158429
10.66,0.006136637068188636
10.664,0.006138824757594834
10.668000000000001,0.006137286162847618
10.672,0.006137238081761767
10.676,0.006136973635789589
10.68,0.006134377257153661
10.684000000000001,0.006134978270726793
10.688,0.00613524271669897
10.692,0.0061344012976965855
10.696,0.006134858068012166
10.700000000000001,0.006134449378782436
10.704,0.006135122513984344
10.708,0.006124400431839676
10.712,0.006122597391120282
10.716000000000001,0.006127790148392138
10.72,0.006130891378429497
10.724,0.006130482689199768
10.728,0.006130963500058273
10.732000000000001,0.0061301942026846645
10.736,0.0061348821085550915
10.74,0.006137839095334899
10.744,0.0061365409060169344
10.748000000000001,0.006137646770991496
10.752,0.006137478487191019
10.756,0.006138319906193404
10.76,0.006136516865474009
10.764,0.006137310203390543
10.768,0.0061348821085550915
10.772,0.006132670378605967
10.776,0.006134425338239511
10.78,0.0061375746493627205
10.784,0.00613706979796129
10.788,0.006137165960132991
10.792,0.00613839202782218
10.796,0.006138175662935852
10.8,0.00613884879813776
10.804,0.006137983338592451
10.808,0.006137141919590066
10.812,0.006136420703302308
10.816,0.006135555243756999
10.82,0.006124616796726004
10.824,0.006121635769403271
10.828,0.006129593189111533
10.832,0.006135771608643326
10.836,0.006136973635789589
10.84,0.006132838662406444
10.844,0.006131732797431882
10.848,0.0061344012976965855
10.852,0.00613620433841598
10.856,0.006135603324842849
10.86,0.006137286162847618
10.864,0.0061354350410423725
10.868,0.006136396662759383
10.872,0.006134954230183867
10.876,0.006134858068012166
10.88,0.006134112811181483
10.884,0.006135651405928699
10.888,0.0061333675543507995
10.892,0.006133463716522501
10.896,0.006134425338239511
10.9,0.006131660675803106
10.904,0.006133752203037604
10.908,0.006135939892443803
10.912,0.006136685149274486
10.916,0.0061339204868380804
10.92,0.006134497459868287
10.924,0.006137238081761767
10.928,0.0061359879735296535
10.932,0.006129160459338878
10.936,0.006127405499705334
10.94,0.006133632000322978
10.944,0.006136949595246664
10.948,0.006139209406281638
10.952,0.0061405075955996025
10.956,0.0061400267847410974
10.96,0.006139618095511368
10.964,0.006137742933163198
10.968,0.006139017081938237
10.972,0.006140074865826948
10.976,0.006136492824931084
10.98,0.006134761905840465
10.984,0.006137911216963675
10.988,0.006138536271079732
10.992,0.00613985850094062
10.996,0.006136877473617888
11.0,0.006135651405928699
11.004,0.0061379352575066
11.008000000000001,0.006138656473794357
11.012,0.006137286162847618
11.016,0.0061375746493627205
11.02,0.006138656473794357
11.024000000000001,0.006138824757594834
11.028,0.006141012447001033
11.032,0.006137766973706123
11.036,0.006134761905840465
11.040000000000001,0.00613524271669897
11.044,0.006124953364326957
11.048,0.006123246485779264
11.052,0.006131492392002629
11.056000000000001,0.006133223311093248
11.06,0.006131877040689434
11.064,0.0061311558244016755
11.068,0.006131251986573377
11.072000000000001,0.006132550175891341
11.076,0.006135098473441418
11.08,0.006137694852077347
11.084,0.0061413009335161365
11.088000000000001,0.006139882541483546
11.092,0.006139666176597219
11.096,0.006143632866179887
11.1,0.006141950028175119
11.104000000000001,0.006139065163024087
11.108,0.0061394738522538165
11.112,0.006134617662582913
11.116,0.006131059662229974
11.120000000000001,0.0061324299731767146
11.124,0.006134497459868287
11.128,0.006136084135701355
11.132,0.006132622297520116
11.136000000000001,0.006130963500058273
11.14,0.006132478054262565
11.144,0.006133199270550322
11.148,0.00613209340557576
11.152000000000001,0.006132237648833312
11.156,0.0061295691485686084
11.16,0.006130699054086096
11.164,0.006133511797608351
11.168000000000001,0.00613610817624428
11.172,0.006135531203214074
11.176,0.006136372622216457
11.18,0.006135483122128223
11.184000000000001,0.006135771608643326
11.188,0.006137622730448571
11.192,0.006139185365738714
11.196,0.006138295865650479
11.200000000000001,0.006136180297873056
11.204,0.006135459081585298
11.208,0.0061359879735296535
11.212,0.006137598689905646
11.216000000000001,0.0061391613251957885
11.22,0.006137983338592451
11.224,0.0061293287431393555
11.228,0.006127886310563839
11.232000000000001,0.006135362919413597
11.236,0.006138079500764151
11.24,0.006139377690082115
11.244,0.006140339311799126
11.248000000000001,0.006138776676508984
11.252,0.00613981041985477
11.256,0.006139137284652863
11.26,0.006138007379135375
11.264,0.006137959298049525
11.268,0.006136805351989112
11.272,0.006137718892620272
11.276,0.006136757270903262
11.28,0.0061381275818500015
11.284,0.006140339311799126
11.288,0.006139257487367489
11.292,0.006137887176420749
11.296,0.00613935364953919
11.3,0.006137694852077347
11.304,0.006138536271079732
11.308,0.006140171027998649
11.312,0.00613706979796129
11.316,0.00613473786529754
11.32,0.006137502527733945
11.324,0.006138728595423133
11.328,0.006138944960309461
11.332,0.006138824757594834
11.336,0.0061290883377101025
11.34,0.006123607093923142
11.344,0.0061310837027729
11.348,0.00613569948701455
11.352,0.006135531203214074
11.356,0.006136324541130607
11.36,0.006135386959956522
11.364,0.006137839095334899
11.368,0.006141252852430286
11.372,0.006140820122657631
11.376,0.006139209406281638
11.38,0.006138103541307076
11.384,0.006137959298049525
11.388,0.006135362919413597
11.392,0.006138055460221226
11.396,0.006137959298049525
11.4,0.006135507162671148
11.404,0.006130073999970039
11.408,0.006133680081408828
11.412,0.006139017081938237
11.416,0.006141228811887361
11.42,0.006143753068894513
11.424,0.0061407480010288555
11.428,0.006136252419501831
11.432,0.006140531636142528
11.436,0.006142911649892129
11.44,0.006142911649892129
11.444,0.006142911649892129
11.448,0.006140555676685453
11.452,0.006141421136230763
11.456,0.006141925987632193
11.46,0.006140146987455724
11.464,0.006140315271256201
11.468,0.006141324974059062
11.472,0.0061405075955996025
11.476,0.006140892244286407
11.48,0.00614163750111709
11.484,0.006140964365915183
11.488,0.006141925987632193
11.492,0.006140483555056677
11.496,0.006139017081938237
11.5,0.006142214474147296
11.504,0.006142863568806278
11.508000000000001,0.006142430839033624
11.512,0.006139906582026471
11.516,0.006137310203390543
11.52,0.0061396421360542935
11.524000000000001,0.0061401950685415745
11.528,0.006140531636142528
11.532,0.0061399546631123215
11.536,0.00613620433841598
11.540000000000001,0.0061268766077609785
11.544,0.006131612594717255
11.548,0.006138536271079732
11.552,0.0061402191090845
11.556000000000001,0.006139834460397695
11.56,0.006139618095511368
11.564,0.006141950028175119
11.568,0.006142863568806278
11.572000000000001,0.006140459514513752
11.576,0.006141757703831716
11.58,0.0061410605280868835
11.584,0.006140339311799126
11.588000000000001,0.006144738731154449
11.592,0.006142118311975596
11.596,0.0061425029606624
11.6,0.006141950028175119
11.604000000000001,0.006142022149803895
11.608,0.0061418538660034175
11.612,0.006143320339121859
11.616,0.006142983771520905
11.620000000000001,0.006142142352518521
11.624,0.006139137284652863
11.628,0.006138223744021703
11.632,0.006139017081938237
11.636000000000001,0.00614118073080151
11.64,0.006144041555409616
11.644,0.0061442338797530185
11.648,0.006142911649892129
11.652000000000001,0.006133704121951754
11.656,0.006136444743845233
11.66,0.006140579717228378
11.664,0.006141974068718044
11.668000000000001,0.006144306001381794
11.672,0.006143825190523289
11.676,0.006143825190523289
11.68,0.006144257920295944
11.684000000000001,0.006145844596129011
11.688,0.006146902380017723
11.692,0.006146710055674321
11.696,0.006142815487720428
11.700000000000001,0.006141565379488315
11.704,0.0061420942714326705
11.708,0.006144955096040777
11.712,0.006145652271785609
11.716000000000001,0.006144714690611524
11.72,0.0061460609610153386
11.724,0.006147190866532826
11.728,0.006145844596129011
11.732000000000001,0.006144137717581317
11.736,0.006140411433427901
11.74,0.00614026719017035
11.744,0.006146469650245068
11.748000000000001,0.006150845029057466
11.752,0.006149426637024875
11.756,0.006150003610055082
11.76,0.006147335109790378
11.764000000000001,0.0061435126634652604
11.768,0.006146277325901666
11.772,0.006148104407163986
11.776,0.006149402596481951
11.78,0.006142214474147296
11.784,0.006138824757594834
11.788,0.006131973202861135
11.792,0.006134569581497063
11.796,0.00613981041985477
11.8,0.006140122946912799
11.804,0.006140699919943005
11.808,0.0061420942714326705
11.812,0.006142719325548727
11.816,0.006143103974235531
11.82,0.0061457484339573105
11.824,0.006148104407163986
11.828,0.0061450272176695525
11.832,0.0061409884064581085
11.836,0.006142839528263353
11.84,0.006144714690611524
11.844,0.006143632866179887
11.848,0.006142983771520905
11.852,0.006142334676861923
11.856,0.006144017514866691
11.86,0.006142719325548727
11.864,0.0061429597309779795
11.868,0.006142815487720428
11.872,0.0061415413389453895
11.876,0.006141012447001033
11.88,0.006145315704184655
11.884,0.006146109042101189
11.888,0.006143079933692606
11.892,0.0061433684202077095
11.896,0.006138969000852386
11.9,0.006129929756712487
11.904,0.006135122513984344
11.908,0.006141324974059062
11.912,0.006144306001381794
11.916,0.00614620520427289
11.92,0.006145387825813431
11.924,0.0061439213526949905
11.928,0.006144017514866691
11.932,0.0061434405418364845
11.936,0.006142911649892129
11.94,0.006140627798314229
11.944,0.0061399546631123215
11.948,0.006140435473970827
11.952,0.006141517298402464
11.956,0.00614387327160914
11.96,0.00614433004192472
11.964,0.006145075298755403
11.968,0.006145219542012954
11.972,0.0061450272176695525
11.976,0.006143560744551111
11.98,0.006146517731330918
11.984,0.006147575515219631
11.988,0.006145628231242684
11.992,0.0061486813801941926
11.996,0.006148585218022491
12.0,0.006145051258212478
12.004,0.006143272258036008
12.008000000000001,0.006137214041218842
12.012,0.006130530770285619
12.016,0.006138704554880208
12.02,0.006144955096040777
12.024000000000001,0.006145940758300712
12.028,0.006146806217846022
12.032,0.0061486813801941926
12.036,0.00615259998869101
12.040000000000001,0.00615661475935953
12.044,0.006155316570041565
12.048,0.006154090502352377
12.052,0.006152672110319786
12.056000000000001,0.006150171893855558
12.06,0.006152191299461281
12.064,0.006149907447883381
12.068,0.006147791880105957
12.072000000000001,0.006144762771697374
12.076,0.006144714690611524
12.08,0.006147287028704527
12.084,0.006147551474676705
12.088000000000001,0.006148705420737118
12.092,0.006147936123363509
12.096,0.006143656906722812
12.1,0.0061424067984906985
12.104000000000001,0.006146830258388947
12.108,0.00614615712318704
12.112,0.006142238514690221
12.116,0.006143248217493083
12.120000000000001,0.006144041555409616
12.124,0.006145556109613908
12.128,0.0061468542989318725
12.132,0.006145820555586086
12.136000000000001,0.006145844596129011
12.14,0.006143272258036008
12.144,0.006135627365385774
12.148,0.006133079067835697
12.152000000000001,0.006137863135877824
12.156,0.006140531636142528
12.16,0.006143632866179887
12.164,0.006143392460750635
12.168000000000001,0.00614072396048593
12.172,0.0061444742851822715
12.176,0.006144570447353973
12.18,0.006145940758300712
12.184000000000001,0.006146637934045545
12.188,0.006144594487896898
12.192,0.0061451955014700296
12.196,0.006144498325725197
12.200000000000001,0.0061420942714326705
12.204,0.006144618528439822
12.208,0.006145267623098805
12.212,0.006144618528439822
12.216000000000001,0.0061461330826441144
12.22,0.006145435906899282
12.224,0.006143584785094036
12.228,0.006145652271785609
12.232000000000001,0.006147815920648883
12.236,0.0061471668259899005
12.24,0.006149186231595623
12.244,0.0061479601639064345
12.248000000000001,0.006148392893679089
12.252,0.006146421569159217
12.256,0.006138872838680685
12.26,0.006133223311093248
12.264000000000001,0.006140243149627425
12.268,0.006147287028704527
12.272,0.00614798420444936
12.276,0.006150532501999438
12.280000000000001,0.006151325839915971
12.284,0.006151854731860327
12.288,0.006150965231772092
12.292,0.006150075731683857
12.296,0.006150171893855558
12.3,0.006147936123363509
12.304,0.006144498325725197
12.308,0.006145123379841254
12.312,0.006144907014954926
12.316,0.006146421569159217
12.32,0.006146806217846022
12.324,0.006146686015131395
12.328,0.006148873704537594
12.332,0.00614711874490405
12.336,0.006146397528616293
12.34,0.006147599555762556
12.344,0.0061489939072522206
12.348,0.006146181163729965
12.352,0.006147936123363509
12.356,0.006148705420737118
12.36,0.00615118159665842
12.364,0.006151878772403252
12.368,0.006144979136583702
12.372,0.006137839095334899
12.376,0.00614346458237941
12.38,0.006146181163729965
12.384,0.006147888042277659
12.388,0.0061521672589183556
12.392,0.006149402596481951
12.396,0.006150195934398484
12.4,0.006151109475029644
12.404,0.006149282393767324
12.408,0.006149498758653651
12.412,0.006149090069423922
12.416,0.006149330474853175
12.42,0.006153802015837273
12.424,0.006154595353753807
12.428,0.00615300867792074
12.432,0.006151614326431075
12.436,0.006146277325901666
12.44,0.006147070663818199
12.444,0.006149162191052698
12.448,0.006150820988514541
12.452,0.006152359583261758
12.456,0.0061521672589183556
12.46,0.006151926853489103
12.464,0.006151109475029644
12.468,0.006150532501999438
12.472,0.0061511335155725695
12.476,0.006150965231772092
12.48,0.006148392893679089
12.484,0.006150484420913587
12.488,0.006152744231948562
12.492,0.006153561610408021
12.496,0.00615259998869101
12.5,0.0061508931101433165
12.504,0.006141709622745866
12.508000000000001,0.006143103974235531
12.512,0.006149643001911203
12.516,0.006151758569688626
12.52,0.006152503826519309
12.524000000000001,0.006154739597011359
12.528,0.0061535135293221705
12.532,0.006155605056556668
12.536,0.006154835759183059
12.540000000000001,0.006155773340357145
12.544,0.006155028083526462
12.548,0.006151397961544747
12.552,0.006150820988514541
12.556000000000001,0.006150244015484334
12.56,0.006149835326254605
12.564,0.006151470083173523
12.568,0.006149186231595623
12.572000000000001,0.006147839961191808
12.576,0.006146950461103574
12.58,0.006145003177126627
12.584,0.006147599555762556
12.588000000000001,0.006148128447706912
12.592,0.00615031613711311
12.596,0.006149667042454128
12.6,0.006151349880458896
12.604000000000001,0.006151950894032028
12.608,0.006152984637377815
12.612,0.006151830691317401
12.616,0.006144137717581317
12.620000000000001,0.006141012447001033
12.624,0.006145171460927104
12.628,0.0061482005693356875
12.632,0.006153802015837273
12.636000000000001,0.006150748866885765
12.64,0.006148320772050313
12.644,0.006151037353400868
12.648,0.006151397961544747
12.652000000000001,0.006150244015484334
12.656,0.006151013312857943
12.66,0.006150075731683857
12.664,0.0061506527047140635
12.668000000000001,0.006152768272491487
12.672,0.00615397029963775
12.676,0.006153176961721216
12.68,0.006151061393943794
12.684000000000001,0.006149739164082904
12.688,0.006149931488426306
12.692,0.006149907447883381
12.696,0.006151974934574953
12.700000000000001,0.006153657772579721
12.704,0.006152047056203729
12.708,0.006153249083349992
12.712,0.00615529252949864
12.716000000000001,0.006156374353930277
12.72,0.006156157989043949
12.724,0.006156566678273679
12.728,0.006147767839563032
12.732000000000001,0.006144306001381794
12.736,0.006150484420913587
12.74,0.006155316570041565
12.744,0.006158249516278447
12.748000000000001,0.0061581052730208955
12.752,0.006156109907958098
12.756,0.006155869502528846
12.76,0.006155869502528846
12.764000000000001,0.006155701218728369
12.768,0.006153393326607544
12.772,0.006153753934751423
12.776,0.006156061826872248
12.780000000000001,0.006153898178008974
12.784,0.006154835759183059
12.788,0.006156374353930277
12.792,0.006156109907958098
12.796000000000001,0.006155532934927892
12.8,0.006155388691670341
12.804,0.006156903245874632
12.808,0.00615803315139212
12.812,0.006156470516101978
12.816,0.006153249083349992
12.82,0.0061487535018229685
12.824,0.006150364218198961
12.828,0.006151590285888149
12.832,0.006153657772579721
12.836,0.0061546193942967325
12.84,0.0061516864480598505
12.844,0.0061529605968348895
12.848,0.006153705853665572
12.852,0.006154643434839658
12.856,0.006154907880811835
12.86,0.006152503826519309
12.864,0.006149258353224399
12.868,0.006153561610408021
12.872,0.006154571313210882
12.876,0.006155316570041565
12.88,0.006155556975470817
12.884,0.006151109475029644
12.888,0.006145315704184655
12.892,0.006151013312857943
12.896,0.0061549319213547605
12.9,0.006154523232125031
12.904,0.006154330907781629
12.908,0.0061535135293221705
12.912,0.006156566678273679
12.916,0.006157528299990689
12.92,0.00615803315139212
12.924,0.00615894669202328
12.928,0.006158177394649671
12.932,0.006157456178361913
12.936,0.006157263854018511
12.94,0.00615940346233886
12.944,0.006159163056909607
12.948,0.006158129313563821
12.952,0.006155052124069387
12.956,0.006153946259094825
12.96,0.006153321204978768
12.964,0.006153321204978768
12.968,0.006153946259094825
12.972,0.0061569994080463335
12.976,0.006149955528969232
12.98,0.006151590285888149
12.984,0.006158369718993074
12.988,0.006162408530204518
12.992,0.00616538955752725
12.996,0.006163778841151258
13.0,0.006160581448942198
13.004,0.006160893976000226
13.008000000000001,0.006159475583967636
13.012,0.006159980435369066
13.016,0.006158634164965251
13.02,0.006157360016190212
13.024000000000001,0.006158321637907223
13.028,0.006158874570394504
13.032,0.0061596919488539625
13.036,0.006157287894561436
13.040000000000001,0.006157720624334092
13.044,0.006155773340357145
13.048,0.006156470516101978
13.052,0.006157648502705316
13.056000000000001,0.006158441840621849
13.06,0.006157335975647287
13.064,0.006154859799725985
13.068,0.0061567590026170805
13.072000000000001,0.006158441840621849
13.076,0.006157648502705316
13.08,0.006157696583791166
13.084,0.006158922651480355
13.088000000000001,0.0061486813801941926
13.092,0.006142430839033624
13.096,0.0061490660288809965
13.1,0.006155581016013743
13.104000000000001,0.006157961029763344
13.108,0.006156109907958098
13.112,0.006152912515749039
13.116,0.006156326272844426
13.120000000000001,0.00615762446216239
13.124,0.006158009110849194
13.128,0.006157335975647287
13.132,0.006155677178185444
13.136000000000001,0.006155965664700547
13.14,0.006156590718816604
13.144,0.006157263854018511
13.148,0.006156686880988305
13.152000000000001,0.006155388691670341
13.156,0.006155532934927892
13.16,0.006157480218904839
13.164,0.006156542637730754
13.168000000000001,0.006157480218904839
13.172,0.006156927286417558
13.176,0.006153850096923124
13.18,0.00615305675900659
13.184000000000001,0.00615300867792074
13.188,0.006157263854018511
13.192,0.006157263854018511
13.196,0.006158441840621849
13.200000000000001,0.006155364651127416
13.204,0.006158057191935045
13.208,0.006157408097276063
13.212,0.006154835759183059
13.216000000000001,0.006155629097099593
13.22,0.006157071529675109
13.224,0.00614985936679753
13.228,0.006151325839915971
13.232000000000001,0.006155845461985921
13.236,0.006156734962074155
13.24,0.006154306867238704
13.244,0.006152047056203729
13.248000000000001,0.006153609691493872
13.252,0.006157239813475586
13.256,0.006159235178538383
13.26,0.006156975367503408
13.264000000000001,0.00615671092153123
13.268,0.006154451110496255
13.272,0.006155556975470817
13.276,0.006153874137466049
13.280000000000001,0.006155052124069387
13.284,0.006157720624334092
13.288,0.00615579738090007
13.292,0.0061535135293221705
13.296000000000001,0.006154475151039181
13.3,0.006154210705067003
13.304,0.006156879205331707
13.308,0.0061549319213547605
13.312000000000001,0.006156013745786398
13.316,0.0061588986109374294
13.32,0.0061586582055081765
13.324,0.006156326272844426
13.328,0.006155556975470817
13.332,0.006150556542542363
13.336,0.006141252852430286
13.34,0.006145099339298328
13.344,0.006150508461456513
13.348,0.0061505805830852885
13.352,0.006150845029057466
13.356,0.006149402596481951
13.36,0.006151758569688626
13.364,0.006155244448412789
13.368,0.006155941624157622
13.372,0.006154090502352377
13.376,0.006152335542718833
13.38,0.006154475151039181
13.384,0.006154234745609928
13.388,0.006153417367150469
13.392,0.006154282826695778
13.396,0.006155196367326939
13.4,0.006153249083349992
13.404,0.006153609691493872
13.408,0.006154210705067003
13.412,0.006153609691493872
13.416,0.006154138583438227
13.42,0.006154571313210882
13.424,0.006153441407693395
13.428,0.006153681813122647
13.432,0.0061557252592712945
13.436,0.006153393326607544
13.44,0.006154282826695778
13.444,0.006155268488955715
13.448,0.006144907014954926
13.452,0.006141901947089268
13.456,0.0061487535018229685
13.46,0.006153369286064619
13.464,0.0061573119351043615
13.468,0.006156494556644903
13.472,0.006156326272844426
13.476,0.006157504259447764
13.48,0.006160557408399272
13.484,0.006162408530204518
13.488,0.006162408530204518
13.492,0.006161639232830909
13.496,0.00615904285419498
13.5,0.006158754367679878
13.504,0.006158177394649671
13.508000000000001,0.006158850529851579
13.512,0.006158321637907223
13.516,0.006158153354106746
13.52,0.006158489921707699
13.524000000000001,0.006160990138171927
13.528,0.006160557408399272
13.532,0.006160653570570974
13.536,0.006161519030116283
13.540000000000001,0.006163298030292752
13.544,0.006161494989573357
13.548,0.006160341043512945
13.552,0.0061602448813412435
13.556000000000001,0.0061604852867704965
13.56,0.006158009110849194
13.564,0.0061607256921997495
13.568,0.006162168124775265
13.572000000000001,0.00616168731391676
13.576,0.006159740029939813
13.58,0.006158201435192597
13.584,0.006152071096746654
13.588000000000001,0.006158369718993074
13.592,0.0061619998409747885
13.596,0.006162216205861115
13.6,0.006159090935280831
13.604000000000001,0.006155508894384967
13.608,0.00616123054360118
13.612,0.006163370151921528
13.616,0.006160893976000226
13.620000000000001,0.0061610382192577775
13.624,0.006161567111202133
13.628,0.006161783476088461
13.632,0.006162288327489891
13.636000000000001,0.006161783476088461
13.64,0.006160220840798319
13.644,0.00615945154342471
13.648,0.006159547705596412
13.652000000000001,0.006157047489132184
13.656,0.006157720624334092
13.66,0.006159980435369066
13.664,0.0061610382192577775
13.668000000000001,0.006158778408222803
13.672,0.00615579738090007
13.676,0.006158129313563821
13.68,0.00615945154342471
13.684000000000001,0.006160461246227571
13.688,0.006160893976000226
13.692,0.006158393759535999
13.696,0.0061489939072522206
13.700000000000001,0.006154499191582106
13.704,0.006160533367856347
13.708,0.006161855597717237
13.712,0.0061619998409747885
13.716000000000001,0.0061583456784501485
13.72,0.0061599323542832155
13.724,0.006162480651833294
13.728,0.006163033584320575
13.732000000000001,0.006162504692376219
13.736,0.006162576814004995
13.74,0.0061607256921997495
13.744,0.006160389124598795
13.748000000000001,0.0061592111379954574
13.752,0.006158994773109131
13.756,0.0061623844896615924
13.76,0.006162336408575742
13.764000000000001,0.006159499624510561
13.768,0.006161446908487507
13.772,0.006163754800608333
13.776,0.006163009543777649
13.780000000000001,0.006162456611290368
13.784,0.006163273989749827
13.788,0.00616264893563377
13.792,0.006161615192287984
13.796000000000001,0.0061586582055081765
13.8,0.0061592111379954574
13.804,0.006158369718993074
13.808,0.0061490660288809965
13.812000000000001,0.006153249083349992
13.816,0.0061610382192577775
13.82,0.006162961462691799
13.824,0.006161951759888938
13.828,0.006160148719169543
13.832,0.006162672976176695
13.836,0.0061650770304692215
13.84,0.006165269354812624
13.844,0.0061642115709239125
13.848,0.006164692381782418
13.852,0.006161014178714852
13.856,0.0061617594355455356
13.86,0.006161302665229956
13.864,0.0061636586384366315
13.868,0.006163273989749827
13.872,0.006161326705772881
13.876,0.006161783476088461
13.88,0.00616260085454792
13.884,0.0061634182330073785
13.888,0.0061649327872116706
13.892,0.006164692381782418
13.896,0.006161855597717237
13.9,0.006165269354812624
13.904,0.006170197666112303
13.908,0.00617178434194537
13.912,0.006172962328548708
13.916,0.006173395058321363
13.92,0.006170125544483527
13.924,0.006167961895620254
13.928,0.006168827355165563
13.932,0.0061671445171607945
13.936,0.006169476449824545
13.94,0.006163730760065407
13.944,0.006154258786152853
13.948,0.0061569994080463335
13.952,0.006161903678803087
13.956,0.006166663706302289
13.96,0.006165678044042353
13.964,0.006163298030292752
13.968,0.006166495422501812
13.972,0.006164451976353165
13.976,0.00616173539500261
13.98,0.0061634182330073785
13.984,0.006160557408399272
13.988,0.006160292962427094
13.992,0.00616264893563377
13.996,0.006162047922060638
14.0,0.006162240246404041
14.004,0.006161519030116283
14.008000000000001,0.006159259219081308
14.012,0.006162937422148873
14.016,0.006166735827931065
14.02,0.0061663511792442605
14.024000000000001,0.006166110773815008
14.028,0.006165822287299905
14.032,0.006166856030645691
14.036,0.006168082098334879
14.040000000000001,0.006165581881870653
14.044,0.006166663706302289
14.048,0.0061695245309103955
14.052,0.006163225908663977
14.056000000000001,0.00615259998869101
14.06,0.006158754367679878
14.064,0.006165942490014531
14.068,0.006168947557880189
14.072000000000001,0.006168106138877805
14.076,0.00616351439517908
14.08,0.006165221273726773
14.084,0.00616767340910515
14.088000000000001,0.00616401924658051
14.092,0.006160821854371451
14.096,0.006161663273373834
14.1,0.006162336408575742
14.104000000000001,0.006161879638260162
14.108,0.006162408530204518
14.112,0.0061630576248635
14.116,0.006161302665229956
14.120000000000001,0.00615808123247797
14.124,0.0061578648675916425
14.128,0.006158994773109131
14.132,0.0061596919488539625
14.136000000000001,0.006159788111025664
14.14,0.006156326272844426
14.144,0.00615808123247797
14.148,0.006160076597540767
14.152000000000001,0.006160918016543151
14.156,0.006162216205861115
14.16,0.006163826922237109
14.164,0.00615904285419498
14.168000000000001,0.006150869069600391
14.172,0.006156975367503408
14.176,0.006162216205861115
14.18,0.006163490354636154
14.184000000000001,0.006165173192640923
14.188,0.006162769138348396
14.192,0.006160196800255394
14.196,0.006161903678803087
14.200000000000001,0.006164548138524866
14.204,0.0061676253280193
14.208,0.006165822287299905
14.212,0.006163610557350781
14.216000000000001,0.006163129746492276
14.22,0.006161879638260162
14.224,0.006160317002970019
14.228,0.006162937422148873
14.232000000000001,0.006165533800784802
14.236,0.006164572179067791
14.24,0.006165533800784802
14.244,0.0061639711654946595
14.248000000000001,0.00616173539500261
14.252,0.0061626970167196204
14.256,0.006162504692376219
14.26,0.006163802881694183
14.264000000000001,0.00616630309815841
14.268,0.006166158854900859
14.272,0.0061674570442188225
14.276,0.00616813017942073
14.280000000000001,0.006166375219787186
14.284,0.006165437638613101
14.288,0.006167024314446168
14.292,0.006166615625216439
14.296000000000001,0.00616630309815841
14.3,0.006157287894561436
14.304,0.006152503826519309
14.308,0.006158682246051102
14.312000000000001,0.006163899043865884
14.316,0.006164812584497044
14.32,0.006163009543777649
14.324,0.006161398827401657
14.328000000000001,0.006161975800431863
14.332,0.006163706719522482
14.336,0.006164187530380987
14.34,0.006164163489838062
14.344,0.006164908746668745
14.348,0.006165654003499428
14.352,0.0061649327872116706
14.356,0.00616168731391676
14.36,0.006160196800255394
14.364,0.0061636586384366315
14.368,0.006163995206037585
14.372,0.0061658703683857554
14.376,0.006167553206390524
14.38,0.006166759868473991
14.384,0.006164716422325343
14.388,0.006164668341239492
14.392,0.006163634597893706
14.396,0.006161134381429479
14.4,0.00616620693598671
14.404,0.0061663511792442605
14.408,0.006163730760065407
14.412,0.006155917583614697
14.416,0.006149835326254605
14.42,0.006154691515925508
14.424,0.006160341043512945
14.428,0.006164091368209286
14.432,0.006163634597893706
14.436,0.006164139449295137
14.44,0.006167360882047122
14.444,0.006166158854900859
14.448,0.006166134814357934
14.452,0.006167793611819777
14.456,0.006165942490014531
14.46,0.0061658703683857554
14.464,0.0061684186659358336
14.468,0.006167841692905627
14.472,0.006166230976529635
14.476,0.0061668319901027665
14.48,0.006164500057439015
14.484,0.006166495422501812
14.488,0.006166375219787186
14.492,0.006167553206390524
14.496,0.006170029382311826
14.5,0.006167817652362702
14.504,0.006165101071012147
14.508000000000001,0.006168586949736311
14.512,0.0061687311929938616
14.516,0.006168298463221207
14.52,0.006170149585026452
14.524000000000001,0.006164620260153642
14.528,0.006160533367856347
14.532,0.006165654003499428
14.536,0.006167000273903243
14.540000000000001,0.006168875436251413
14.544,0.006170678476970808
14.548,0.006170197666112303
14.552,0.00616995726068305
14.556000000000001,0.0061663511792442605
14.56,0.006164644300696567
14.564,0.00616803401724903
14.568,0.006166976233360317
14.572000000000001,0.006166255017072559
14.576,0.006166952192817392
14.58,0.006165221273726773
14.584,0.006167096436074944
14.588000000000001,0.006168899476794339
14.592,0.006169548571453321
14.596,0.006170991004028837
14.6,0.0061721449500892495
14.604000000000001,0.006172313233889726
14.608,0.0061697649363396485
14.612,0.006170029382311826
14.616,0.006168298463221207
14.620000000000001,0.006167529165847598
14.624,0.006168009976706104
14.628,0.0061674570442188225
14.632,0.006166976233360317
14.636000000000001,0.006163778841151258
14.64,0.006163730760065407
14.644,0.0061645240979819405
14.648,0.006163706719522482
14.652000000000001,0.006164740462868268
14.656,0.00616630309815841
14.66,0.006155532934927892
14.664,0.006154403029410405
14.668000000000001,0.006158778408222803
14.672,0.006159595786682262
14.676,0.006160821854371451
14.68,0.006160701651656824
14.684000000000001,0.006160893976000226
14.688,0.006163177827578126
14.692,0.00616173539500261
14.696,0.006162985503234724
14.700000000000001,0.006165269354812624
14.704,0.006164620260153642
14.708,0.0061652453142696986
14.712,0.006165894408928681
14.716000000000001,0.006167360882047122
14.72,0.006165750165671129
14.724,0.006166615625216439
14.728,0.00616721663878957
14.732000000000001,0.00616995726068305
14.736,0.00616945240928162
14.74,0.006167985936163179
14.744,0.006168346544307058
14.748000000000001,0.0061682503821353565
14.752,0.006170245747198154
14.756,0.0061708708013142105
14.76,0.006173419098864289
14.764000000000001,0.006173827788094018
14.768,0.006172553639318979
14.772,0.0061631057059493505
14.776,0.006160413165141721
14.780000000000001,0.006165101071012147
14.784,0.006168947557880189
14.788,0.006168298463221207
14.792,0.006167312800961272
14.796000000000001,0.006167985936163179
14.8,0.006168586949736311
14.804,0.006169260084938217
14.808,0.006169837057968424
14.812000000000001,0.006171712220316594
14.816,0.006173707585379391
14.82,0.006177986802020088
14.824,0.00617858781559322
14.828000000000001,0.006177001139760153
14.832,0.0061721449500892495
14.836,0.0061676253280193
14.84,0.006166447341415962
14.844000000000001,0.006165028949383372
14.848,0.006165293395355549
14.852,0.006166375219787186
14.856,0.0061639711654946595
14.86,0.0061634182330073785
14.864,0.0061660386521862325
14.868,0.0061684186659358336
14.872,0.006167985936163179
14.876,0.006166158854900859
14.88,0.006166856030645691
14.884,0.006159475583967636
14.888,0.0061539222185519
14.892,0.006163490354636154
14.896,0.006167985936163179
14.9,0.006168659071365086
14.904,0.006168947557880189
14.908,0.006163730760065407
14.912,0.006163322070835677
14.916,0.0061634182330073785
14.92,0.006163947124951734
14.924,0.006165509760241877
14.928,0.00616721663878957
14.932,0.006167985936163179
14.936,0.006169692814710873
14.94,0.0061710390851146876
14.944,0.0061711833283722385
14.948,0.006168106138877805
14.952,0.006167120476617869
14.956,0.006169187963309442
14.96,0.006166928152274467
14.964,0.006164451976353165
14.968,0.006165149152097997
14.972,0.006165750165671129
14.976,0.006164091368209286
14.98,0.006165269354812624
14.984,0.006166639665759364
14.988,0.006167745530733926
14.992,0.006166471381958887
14.996,0.006162096003146489
15.0,0.006163298030292752
15.004,0.006164596219610716
15.008000000000001,0.006167433003675898
15.012,0.0061695245309103955
15.016,0.006170558274256182
15.02,0.006170582314799107
15.024000000000001,0.006170341909369855
15.028,0.00616995726068305
15.032,0.006169163922766517
15.036,0.00616671178738814
15.040000000000001,0.006164043287123435
15.044,0.006165101071012147
15.048,0.00616813017942073
15.052,0.006169067760594816
15.056000000000001,0.006170053422854751
15.06,0.006167985936163179
15.064,0.006155869502528846
15.068,0.006155004042983536
15.072000000000001,0.006160220840798319
15.076,0.00616401924658051
15.08,0.006162745097805471
15.084,0.006159018813652056
15.088000000000001,0.006160220840798319
15.092,0.006169476449824545
15.096,0.006169909179597199
15.1,0.006171543936516118
15.104000000000001,0.006168875436251413
15.108,0.006166807949559841
15.112,0.0061706303958849575
15.116,0.006171616058144894
15.120000000000001,0.006170702517513733
15.124,0.0061692841254811425
15.128,0.006169260084938217
15.132,0.006168586949736311
15.136000000000001,0.006169260084938217
15.14,0.006168298463221207
15.144,0.006168226341592431
15.148,0.006166134814357934
15.152000000000001,0.006167288760418346
15.156,0.0061673849225900475
15.16,0.00616945240928162
15.164,0.006168394625392908
15.168000000000001,0.006168947557880189
15.172,0.00616767340910515
15.176,0.006160004475911991
15.18,0.0061551723267840135
15.184000000000001,0.0061604852867704965
15.188,0.006163370151921528
15.192,0.006165894408928681
15.196,0.006166255017072559
15.200000000000001,0.006166375219787186
15.204,0.006168899476794339
15.208,0.006169187963309442
15.212,0.006165293395355549
15.216000000000001,0.006165365516984325
15.22,0.006164259652009763
15.224,0.006167745530733926
15.228,0.006169981301225975
15.232000000000001,0.0061708708013142105
15.236,0.006170438071541556
15.24,0.006170053422854751
15.244,0.0061703178688269295
15.248000000000001,0.006169380287652844
15.252,0.0061684907875646094
15.256,0.006168346544307058
15.26,0.006169620693082097
15.264000000000001,0.006168586949736311
15.268,0.0061665915846735135
15.272,0.0061673849225900475
15.276,0.0061692120038523675
15.280000000000001,0.0061676974496480755
15.284,0.006167913814534403
15.288,0.006157480218904839
15.292,0.006153249083349992
15.296000000000001,0.0061599323542832155
15.3,0.006162576814004995
15.304,0.006165052989926296
15.308,0.006166014611643307
15.312000000000001,0.006165990571100382
15.316,0.006167745530733926
15.32,0.006169620693082097
15.324,0.006169981301225975
15.328000000000001,0.006168635030822161
15.332,0.006168610990279236
15.336,0.0061706303958849575
15.34,0.00616803401724903
15.344000000000001,0.0061682503821353565
15.348,0.006167024314446168
15.352,0.006166255017072559
15.356,0.006166182895443784
15.36,0.006170269787741079
15.364,0.006172024747374623
15.368,0.006169837057968424
15.372,0.006168274422678282
15.376,0.006168659071365086
15.38,0.006171231409458089
15.384,0.006169813017425499
15.388,0.0061684186659358336
15.392,0.006172962328548708
15.396,0.006172601720404829
15.4,0.006164644300696567
15.404,0.006159571746139337
15.408,0.0061630576248635
15.412,0.006165894408928681
15.416,0.006170582314799107
15.42,0.006172048787917548
15.424,0.006168586949736311
15.428,0.006167312800961272
15.432,0.006169788976882574
15.436,0.006172168990632175
15.44,0.006173322936692587
15.444,0.006170558274256182
15.448,0.006170389990455705
15.452,0.006169909179597199
15.456,0.006168058057791954
15.46,0.0061665915846735135
15.464,0.006169428368738694
15.468,0.0061710390851146876
15.472,0.006172313233889726
15.476,0.006172914247462857
15.48,0.006172673842033605
15.484,0.006170894841857136
15.488,0.006172337274432651
15.492,0.006172794044748232
15.496,0.006174188396237896
15.5,0.006175246180126609
15.504,0.00617361142320769
15.508000000000001,0.00617402011243742
15.512,0.0061741162746091205
15.516,0.006174549004381776
15.52,0.006176448207272872
15.524000000000001,0.006173515261035989
15.528,0.0061751500179549074
15.532,0.00617406819352327
15.536,0.006164307733095614
15.540000000000001,0.006162408530204518
15.544,0.006168899476794339
15.548,0.006171616058144894
15.552,0.006173082531263334
15.556000000000001,0.006172433436604352
15.56,0.006172048787917548
15.564,0.0061726978825765305
15.568,0.006172000706831698
15.572000000000001,0.006171856463574146
15.576,0.006172481517690203
15.58,0.006169668774167947
15.584,0.0061713516121727156
15.588000000000001,0.006173827788094018
15.592,0.00617310657180626
15.596,0.006172072828460474
15.6,0.006171543936516118
15.604000000000001,0.00617046211208448
15.608,0.006170269787741079
15.612,0.006170918882400061
15.616,0.006171015044571762
15.620000000000001,0.0061719045446599965
15.624,0.006165173192640923
15.628,0.006156566678273679
15.632,0.006161422867944582
15.636000000000001,0.006164740462868268
15.64,0.006167841692905627
15.644,0.006167553206390524
15.648,0.006166182895443784
15.652000000000001,0.006166567544130588
15.656,0.00616620693598671
15.66,0.006167553206390524
15.664,0.006166928152274467
15.668000000000001,0.006166447341415962
15.672,0.006168779274079712
15.676,0.006171375652715641
15.68,0.006169260084938217
15.684000000000001,0.006169019679508965
15.688,0.0061684186659358336
15.692,0.006168274422678282
15.696,0.006170510193170331
15.700000000000001,0.006168947557880189
15.704,0.006170149585026452
15.708,0.00617406819352327
15.712,0.006176015477500216
15.716000000000001,0.006175823153156815
15.72,0.006176568409987497
15.724,0.006174212436780822
15.728,0.006175726990985114
15.732000000000001,0.006177674274962059
15.736,0.006172024747374623
15.74,0.0061623844896615924
15.744,0.006167408963132973
15.748000000000001,0.006172072828460474
15.752,0.006170005341768901
15.756,0.006170894841857136
15.76,0.006169692814710873
15.764000000000001,0.006170558274256182
15.768,0.006171471814887342
15.772,0.006172914247462857
15.776,0.006174428801667149
15.780000000000001,0.006171495855430267
15.784,0.006170942922942986
15.788,0.006172721923119456
15.792,0.00617315465289211
15.796000000000001,0.0061753904233841595
15.8,0.006177025180303078
15.804,0.0061756308288134125
15.808,0.006173274855606737
15.812000000000001,0.006171832423031221
15.816,0.0061721449500892495
15.82,0.00617132757162979
15.824,0.006173827788094018
15.828000000000001,0.006173202733977961
15.832,0.006173635463750615
15.836,0.006173875869179868
15.84,0.006175991436957291
15.844000000000001,0.006174957693611505
15.848,0.0061669041117315415
15.852,0.006159066894737906
15.856,0.0061630576248635
15.860000000000001,0.0061673849225900475
15.864,0.0061738037475510925
15.868,0.006172625760947755
15.872,0.006174284558409598
15.876,0.006173346977235513
15.88,0.006175029815240281
15.884,0.006175823153156815
15.888,0.006176568409987497
15.892,0.006175198099040758
15.896,0.006171495855430267
15.9,0.006174476882753
15.904,0.006173274855606737
15.908,0.0061743566800383735
15.912,0.006175318301755384
15.916,0.0061719045446599965
15.92,0.006169620693082097
15.924,0.006171111206743463
15.928,0.0061721930311751
15.932,0.006172673842033605
15.936,0.006171519895973193
15.94,0.006173635463750615
15.944,0.0061735633421218395
15.948,0.0061708708013142105
15.952,0.006173827788094018
15.956,0.006174885571982729
15.96,0.0061741162746091205
15.964,0.0061743566800383735
15.968,0.006176784774873825
15.972,0.00617680881541675
15.976,0.006175198099040758
15.98,0.006172433436604352
15.984,0.0061653414764414
15.988,0.0061630576248635
15.992,0.006169476449824545
15.996,0.006172024747374623
16.0,0.006173467179950138
16.004,0.006175198099040758
16.008,0.006175510626098786
16.012,0.006174789409811028
16.016000000000002,0.006176856896502601
16.02,0.006176904977588452
16.024,0.006176207801843619
16.028,0.006175198099040758
16.032,0.006176592450530423
16.036,0.0061778425587625365
16.04,0.0061780108425630136
16.044,0.0061780829641917894
16.048000000000002,0.006178539734507369
16.052,0.006173827788094018
16.056,0.006175582747727562
16.06,0.006176279923472395
16.064,0.00617589527478559
16.068,0.006175534666641711
16.072,0.006177241545189405
16.076,0.006176544369444572
16.080000000000002,0.0061767607343309
16.084,0.006177361747904031
16.088,0.006172866166377007
16.092,0.006175871234242665
16.096,0.00617132757162979
16.1,0.00616671178738814
16.104,0.006172673842033605
16.108,0.006176255882929469
16.112000000000002,0.0061767607343309
16.116,0.006175342342298309
16.12,0.006174332639495448
16.124,0.006172962328548708
16.128,0.006173274855606737
16.132,0.006175101936869057
16.136,0.006175919315328515
16.14,0.0061740441529803455
16.144000000000002,0.006173635463750615
16.148,0.006173467179950138
16.152,0.006173587382664765
16.156,0.0061767607343309
16.16,0.00617310657180626
16.164,0.006172000706831698
16.168,0.0061769770992172275
16.172,0.0061795253967673065
16.176000000000002,0.006177794477676686
16.18,0.006176279923472395
16.184,0.006176111639671918
16.188,0.006177097301931853
16.192,0.006178683977764921
16.196,0.006177914680391312
16.2,0.006176207801843619
16.204,0.0061745970854676265
16.208000000000002,0.006167312800961272
16.212,0.0061599323542832155
16.216,0.006168514828107535
16.22,0.0061749096125256545
16.224,0.006176087599128992
16.228,0.0061743566800383735
16.232,0.006174428801667149
16.236,0.0061740441529803455
16.240000000000002,0.006174765369268103
16.244,0.006179260950795128
16.248,0.006181472680744252
16.252,0.006176880937045526
16.256,0.0061761837613006935
16.26,0.006178155085820565
16.264,0.006178539734507369
16.268,0.006179116707537576
16.272000000000002,0.006179958126539961
16.276,0.006175751031528039
16.28,0.006178683977764921
16.284,0.006179477315681456
16.288,0.006178034883105939
16.292,0.006176640531616273
16.296,0.006178203166906416
16.3,0.006177866599305462
16.304000000000002,0.006180198531969213
16.308,0.006179549437310232
16.312,0.006177962761477163
16.316,0.006177169423560629
16.32,0.00617680881541675
16.324,0.006176832855959676
16.328,0.006175991436957291
16.332,0.006175198099040758
16.336000000000002,0.0061748374908968786
16.34,0.006172818085291157
16.344,0.00616630309815841
16.348,0.006166134814357934
16.352,0.006171015044571762
16.356,0.006175029815240281
16.36,0.006177914680391312
16.364,0.006175246180126609
16.368000000000002,0.006174308598952523
16.372,0.006176953058674302
16.376,0.006177241545189405
16.38,0.006177073261388928
16.384,0.006176664572159199
16.388,0.0061741162746091205
16.392,0.006177121342474778
16.396,0.006179429234595605
16.4,0.0061792849913380535
16.404,0.006177433869532807
16.408,0.006176520328901647
16.412,0.006175558707184637
16.416,0.006176640531616273
16.42,0.006175726990985114
16.424,0.0061751500179549074
16.428,0.006174428801667149
16.432,0.006173082531263334
16.436,0.006173346977235513
16.44,0.006175053855783206
16.444,0.006175125977411982
16.448,0.006174260517866672
16.452,0.006175558707184637
16.456,0.006168923517337264
16.46,0.006164283692552688
16.464,0.0061689715984231145
16.468,0.006174188396237896
16.472,0.006173851828636943
16.476,0.0061745249638388506
16.48,0.006174957693611505
16.484,0.006178443572335668
16.488,0.0061786358966790704
16.492,0.006178419531792743
16.496,0.006180487018484317
16.5,0.006179140748080502
16.504,0.006180102369797513
16.508,0.006179789842739484
16.512,0.0061811120726003735
16.516000000000002,0.006179212869709278
16.52,0.006175702950442188
16.524,0.006176352045101171
16.528,0.00617630396401532
16.532,0.006177650234419135
16.536,0.00617899650482295
16.54,0.0061782512479922665
16.544,0.006177481950618658
16.548000000000002,0.006177554072247434
16.552,0.006177073261388928
16.556,0.006179212869709278
16.56,0.0061775300317045085
16.564,0.006177241545189405
16.568,0.0061706303958849575
