0.0,6.264003864606682E-4
0.004,6.298862651848314E-4
0.008,6.401034959280684E-4
0.012,6.452241315711496E-4
0.016,6.351030629996137E-4
0.02,6.250541160568535E-4
0.024,6.211595481029607E-4
0.028,6.244771430266471E-4
0.032,6.29116967811223E-4
0.036000000000000004,6.291890894399988E-4
0.04,6.297179813843545E-4
0.044,6.334202249948452E-4
0.048,6.359444820019978E-4
0.052000000000000005,6.342856845401547E-4
0.056,6.317614275330021E-4
0.06,6.291410083541483E-4
0.064,6.268811973191735E-4
0.068,6.270735216625756E-4
0.07200000000000001,6.289967650965967E-4
0.076,6.303670760433366E-4
0.08,6.315210221037494E-4
0.084,6.32122035676881E-4
0.088,6.317854680759274E-4
0.092,6.294054543263261E-4
0.096,6.267129135186966E-4
0.1,6.261118999455651E-4
0.10400000000000001,6.270735216625756E-4
0.108,6.275062514352303E-4
0.112,6.298381840989808E-4
0.116,6.341414412826031E-4
0.12,6.35872360373222E-4
0.124,6.341414412826031E-4
0.128,6.29766062470205E-4
0.132,6.267850351474724E-4
0.136,6.291890894399988E-4
0.14,6.313286977603473E-4
0.14400000000000002,6.305353598438135E-4
0.148,6.29573738126803E-4
0.152,6.271696838342767E-4
0.156,6.253906836578072E-4
0.16,6.247896700846756E-4
0.164,6.258714945163124E-4
0.168,6.254387647436577E-4
0.17200000000000001,6.241886565115438E-4
0.176,6.248858322563766E-4
0.18,6.261118999455651E-4
0.184,6.243088592261702E-4
0.188,6.260878594026398E-4
0.192,6.267850351474724E-4
0.196,6.256791701729103E-4
0.2,6.250300755139282E-4
0.20400000000000001,6.277947379503335E-4
0.20800000000000002,6.300785895282335E-4
0.212,6.338769953104252E-4
0.216,6.366176172039052E-4
0.22,6.329634546792652E-4
0.224,6.135386959956522E-4
0.228,5.822859901928096E-4
0.232,5.591349473557806E-4
0.23600000000000002,5.425950538231993E-4
0.24,5.409362563613561E-4
0.244,5.57981001295368E-4
0.248,5.754103949161841E-4
0.252,5.92911910165776E-4
0.256,6.18442966752406E-4
0.26,6.352953873430158E-4
0.264,6.401034959280684E-4
0.268,6.405362257007231E-4
0.272,6.352473062571653E-4
0.276,6.3111233287402E-4
0.28,6.328432519646389E-4
0.28400000000000003,6.339250763962757E-4
0.28800000000000003,6.339731574821263E-4
0.292,6.359444820019978E-4
0.296,6.379158065218694E-4
0.3,6.338529547674999E-4
0.304,6.278187784932587E-4
0.308,6.247896700846756E-4
0.312,6.248858322563766E-4
0.316,6.264003864606682E-4
0.32,6.252945214861061E-4
0.324,6.294775759551019E-4
0.328,6.314729410178989E-4
0.332,6.300064678994577E-4
0.336,6.269533189479493E-4
0.34,6.248858322563766E-4
0.34400000000000003,6.285640353239419E-4
0.34800000000000003,6.302468733287103E-4
0.352,6.298862651848314E-4
0.356,6.26929278405024E-4
0.36,6.235636023954871E-4
0.364,6.216403589614659E-4
0.368,6.222894536204481E-4
0.372,6.223615752492239E-4
0.376,6.230587509940564E-4
0.38,6.221692509058217E-4
0.384,6.228423861077291E-4
0.388,6.24116534882768E-4
0.392,6.244290619407965E-4
0.396,6.242848186832449E-4
0.4,6.214480346180639E-4
0.404,6.216163184185407E-4
0.40800000000000003,6.209912643024839E-4
0.41200000000000003,6.24116534882768E-4
0.41600000000000004,6.300785895282335E-4
0.42,6.297179813843545E-4
0.424,6.226741023072523E-4
0.428,6.194767100981923E-4
0.432,6.186593316387333E-4
0.436,6.17986196436826E-4
0.44,6.200296425854734E-4
0.444,6.223375347062986E-4
0.448,6.192122641260144E-4
0.452,6.212076291888112E-4
0.456,6.224577374209249E-4
0.46,6.201498453000996E-4
0.464,6.209912643024839E-4
0.468,6.245252241124976E-4
0.47200000000000003,6.225058185067755E-4
0.47600000000000003,6.221211698199712E-4
0.48,6.274341298064545E-4
0.484,6.271216027484262E-4
0.488,6.25655129629985E-4
0.492,6.227943050218786E-4
0.496,6.197171155274449E-4
0.5,6.203181291005765E-4
0.504,6.223615752492239E-4
0.508,6.217846022190175E-4
0.512,6.198373182420712E-4
0.516,6.224336968779997E-4
0.52,6.246694673700492E-4
0.524,6.238280483676649E-4
0.528,6.228183455648039E-4
0.532,6.198373182420712E-4
0.536,6.206787372444554E-4
0.54,6.226741023072523E-4
0.544,6.237078456530386E-4
0.548,6.240924943398429E-4
0.552,6.244771430266471E-4
0.556,6.24380980854946E-4
0.56,6.222654130775228E-4
0.5640000000000001,6.215201562468397E-4
0.5680000000000001,6.222654130775228E-4
0.5720000000000001,6.231308726228323E-4
0.5760000000000001,6.207027777873807E-4
0.58,6.209191426737081E-4
0.584,6.227462239360281E-4
0.588,6.211595481029607E-4
0.592,6.199334804137723E-4
0.596,6.210393453883343E-4
0.6,6.203902507293523E-4
0.604,6.205585345298291E-4
0.608,6.223615752492239E-4
0.612,6.227221833931028E-4
0.616,6.22193291448747E-4
0.62,6.21544196789765E-4
0.624,6.228904671935797E-4
0.628,6.21279750817587E-4
0.632,6.236838051101133E-4
0.636,6.241886565115438E-4
0.64,6.171928585202923E-4
0.644,6.171447774344417E-4
0.648,6.207027777873807E-4
0.652,6.242367375973944E-4
0.656,6.224336968779997E-4
0.66,6.202940885576512E-4
0.664,6.178659937221997E-4
0.668,6.197171155274449E-4
0.672,6.224336968779997E-4
0.676,6.197892371562207E-4
0.68,6.194767100981923E-4
0.684,6.196690344415944E-4
0.6880000000000001,6.201258047571744E-4
0.6920000000000001,6.224336968779997E-4
0.6960000000000001,6.244290619407965E-4
0.7000000000000001,6.246454268271238E-4
0.704,6.257272512587608E-4
0.708,6.270014000337998E-4
0.712,6.260397783167893E-4
0.716,6.262561432031166E-4
0.72,6.262801837460419E-4
0.724,6.257993728875366E-4
0.728,6.211114670171101E-4
0.732,6.195007506411176E-4
0.736,6.220250076482702E-4
0.74,6.258714945163124E-4
0.744,6.262321026601913E-4
0.748,6.260878594026398E-4
0.752,6.240444132539923E-4
0.756,6.195247911840429E-4
0.76,6.192603452118649E-4
0.764,6.221211698199712E-4
0.768,6.273620081776787E-4
0.772,6.275543325210809E-4
0.776,6.19548831726968E-4
0.78,6.18178520780228E-4
0.784,6.186593316387333E-4
0.788,6.210393453883343E-4
0.792,6.216163184185407E-4
0.796,6.222894536204481E-4
0.8,6.220730887341208E-4
0.804,6.227221833931028E-4
0.808,6.224336968779997E-4
0.812,6.195728722698933E-4
0.8160000000000001,6.196690344415944E-4
0.8200000000000001,6.209431832166334E-4
0.8240000000000001,6.207027777873807E-4
0.8280000000000001,6.189478181538365E-4
0.8320000000000001,6.208710615878576E-4
0.836,6.214720751609892E-4
0.84,6.205344939869039E-4
0.844,6.213037913605123E-4
0.848,6.19909439870847E-4
0.852,6.182506424090038E-4
0.856,6.208951021307828E-4
0.86,6.235636023954871E-4
0.864,6.25102197142704E-4
0.868,6.248377511705261E-4
0.872,6.261599810314155E-4
0.876,6.29213129982924E-4
0.88,6.342856845401547E-4
0.884,6.329153735934147E-4
0.888,6.232751158803839E-4
0.892,6.014463029042446E-4
0.896,5.81324368475799E-4
0.9,5.627410287945701E-4
0.904,5.515862168772479E-4
0.908,5.513938925338458E-4
0.912,5.661788264328829E-4
0.916,5.834639767961474E-4
0.92,5.985854782961383E-4
0.924,6.198373182420712E-4
0.928,6.323864816490589E-4
0.932,6.330836573938915E-4
0.936,6.325547654495357E-4
0.9400000000000001,6.307757652730661E-4
0.9440000000000001,6.271696838342767E-4
0.9480000000000001,6.268811973191735E-4
0.9520000000000001,6.273620081776787E-4
0.9560000000000001,6.245252241124976E-4
0.96,6.240924943398429E-4
0.964,6.242126970544691E-4
0.968,6.225058185067755E-4
0.972,6.213759129892881E-4
0.976,6.216884400473165E-4
0.98,6.203902507293523E-4
0.984,6.213999535322134E-4
0.988,6.228664266506544E-4
0.992,6.226019806784765E-4
0.996,6.234914807667113E-4
1.0,6.239963321681418E-4
1.004,6.244771430266471E-4
1.008,6.236116834813375E-4
1.012,6.262080621172661E-4
1.016,6.310642517881694E-4
1.02,6.289967650965967E-4
1.024,6.243088592261702E-4
1.028,6.222654130775228E-4
1.032,6.203421696435018E-4
1.036,6.215922778756154E-4
1.04,6.260878594026398E-4
1.044,6.254387647436577E-4
1.048,6.222654130775228E-4
1.052,6.202219669288754E-4
1.056,6.229625888223555E-4
1.06,6.276024136069314E-4
1.064,6.300064678994577E-4
1.068,6.288765623819703E-4
1.072,6.294054543263261E-4
1.076,6.31208495045721E-4
1.08,6.310402112452442E-4
1.084,6.306555625584399E-4
1.088,6.312806166744967E-4
1.092,6.344780088835568E-4
1.096,6.352953873430158E-4
1.1,6.353915495147168E-4
1.104,6.376273200067663E-4
1.108,6.382523741228232E-4
1.112,6.351271035425389E-4
1.116,6.326028465353863E-4
1.12,6.348386170274357E-4
1.124,6.341654818255284E-4
1.1280000000000001,6.335644682523968E-4
1.1320000000000001,6.312806166744967E-4
1.1360000000000001,6.281793866371378E-4
1.1400000000000001,6.283236298946893E-4
1.1440000000000001,6.272898865489029E-4
1.1480000000000001,6.270975622055009E-4
1.1520000000000001,6.252464404002556E-4
1.156,6.257993728875366E-4
1.16,6.25198359314405E-4
1.164,6.245492646554229E-4
1.168,6.244290619407965E-4
1.172,6.272898865489029E-4
1.176,6.24573305198348E-4
1.18,6.247896700846756E-4
1.184,6.238280483676649E-4
1.188,6.238280483676649E-4
1.192,6.223615752492239E-4
1.196,6.222413725345975E-4
1.2,6.333961844519199E-4
1.204,6.306074814725893E-4
1.208,6.281553460942125E-4
1.212,6.272418054630524E-4
1.216,6.294535354121767E-4
1.22,6.29573738126803E-4
1.224,6.281313055512872E-4
1.228,6.272898865489029E-4
1.232,6.257993728875366E-4
1.236,6.273620081776787E-4
1.24,6.289967650965967E-4
1.244,6.306074814725893E-4
1.248,6.326268870783116E-4
1.252,6.306555625584399E-4
1.256,6.303911165862619E-4
1.26,6.309200085306178E-4
1.264,6.301266706140841E-4
1.268,6.318095086188525E-4
1.272,6.335644682523968E-4
1.276,6.331317384797421E-4
1.28,6.327470897929379E-4
1.284,6.311604139598705E-4
1.288,6.312806166744967E-4
1.292,6.318575897047031E-4
1.296,6.307036436442904E-4
1.3,6.296699002985041E-4
1.304,6.284438326093156E-4
1.308,6.304151571291872E-4
1.312,6.331557790226673E-4
1.316,6.3568003602982E-4
1.32,6.353675089717915E-4
1.324,6.360887252595494E-4
1.328,6.334683060806957E-4
1.332,6.302709138716356E-4
1.336,6.294535354121767E-4
1.34,6.28660197495643E-4
1.344,6.303911165862619E-4
1.348,6.306555625584399E-4
1.352,6.312806166744967E-4
1.356,6.29766062470205E-4
1.36,6.315931437325252E-4
1.364,6.330115357651157E-4
1.368,6.344299277977063E-4
1.372,6.316412248183758E-4
1.3760000000000001,6.321701167627316E-4
1.3800000000000001,6.364252928605031E-4
1.3840000000000001,6.38973590410581E-4
1.3880000000000001,6.399832932134421E-4
1.3920000000000001,6.376513605496916E-4
1.3960000000000001,6.385408606379263E-4
1.4000000000000001,6.342616439972295E-4
1.4040000000000001,6.317373869900768E-4
1.408,6.318816302476283E-4
1.412,6.328432519646389E-4
1.416,6.348386170274357E-4
1.42,6.3750711729214E-4
1.424,6.365454955751294E-4
1.428,6.324586032778347E-4
1.432,6.302468733287103E-4
1.436,6.331798195655926E-4
1.44,6.362810496029516E-4
1.444,6.4024773918562E-4
1.448,6.395024823549368E-4
1.452,6.380119686935705E-4
1.456,6.357521576585958E-4
1.46,6.339010358533505E-4
1.464,6.346943737698842E-4
1.468,6.356079144010442E-4
1.472,6.344780088835568E-4
1.476,6.356319549439695E-4
1.48,6.336125493382473E-4
1.484,6.353675089717915E-4
1.488,6.369782253477842E-4
1.492,6.351511440854642E-4
1.496,6.3659357666098E-4
1.5,6.383004552086737E-4
1.504,6.369782253477842E-4
1.508,6.364252928605031E-4
1.512,6.379879281506452E-4
1.516,6.381321714081968E-4
1.52,6.359444820019978E-4
1.524,6.357281171156705E-4
1.528,6.372426713199621E-4
1.532,6.409929960163031E-4
1.536,6.407766311299758E-4
1.54,6.402717797285453E-4
1.544,6.398630904988158E-4
1.548,6.456328208008791E-4
1.552,6.471473750051706E-4
1.556,6.44983726141897E-4
1.56,6.384206579232999E-4
1.564,6.200296425854734E-4
1.568,5.964218294328646E-4
1.572,5.78319300610141E-4
1.576,5.661788264328829E-4
1.58,5.676212590083987E-4
1.584,5.829350848517916E-4
1.588,5.977921403796045E-4
1.592,6.176015477500217E-4
1.596,6.412334014455558E-4
1.6,6.509217402444371E-4
1.604,6.522439701053266E-4
1.608,6.544797405973761E-4
1.612,6.513544700170919E-4
1.616,6.495995103835477E-4
1.62,6.483494021514338E-4
1.624,6.485898075806864E-4
1.6280000000000001,6.52195889019476E-4
1.6320000000000001,6.499360779845014E-4
1.6360000000000001,6.468829290329928E-4
1.6400000000000001,6.496956725552487E-4
1.6440000000000001,6.500081996132772E-4
1.6480000000000001,6.470752533763948E-4
1.6520000000000001,6.423633069630432E-4
1.6560000000000001,6.434451313946802E-4
1.6600000000000001,6.459693884018328E-4
1.6640000000000001,6.468829290329928E-4
1.668,6.44623117998018E-4
1.672,6.430124016220252E-4
1.676,6.454645370004023E-4
1.68,6.464021181744875E-4
1.684,6.483494021514338E-4
1.688,6.493831454972203E-4
1.692,6.45440496457477E-4
1.696,6.402236986426947E-4
1.7,6.395746039837126E-4
1.704,6.402958202714705E-4
1.708,6.421469420767158E-4
1.712,6.410410771021537E-4
1.716,6.451760504852991E-4
1.72,6.453202937428507E-4
1.724,6.480849561792559E-4
1.728,6.517631592468213E-4
1.732,6.52003564676074E-4
1.736,6.522439701053266E-4
1.74,6.51090024044914E-4
1.744,6.488782940957896E-4
1.748,6.506813348151845E-4
1.752,6.506813348151845E-4
1.756,6.502245644996045E-4
1.76,6.505851726434835E-4
1.764,6.509698213302877E-4
1.768,6.52917105307234E-4
1.772,6.525084160775045E-4
1.776,6.507053753581097E-4
1.78,6.522680106482518E-4
1.784,6.504890104717824E-4
1.788,6.491667806108928E-4
1.792,6.528449836784582E-4
1.796,6.531334701935614E-4
1.8,6.553932812285361E-4
1.804,6.516910376180455E-4
1.808,6.500322401562024E-4
1.812,6.496716320123234E-4
1.816,6.511140645878393E-4
1.82,6.504649699288571E-4
1.824,6.486619292094622E-4
1.828,6.497918347269497E-4
1.832,6.470271722905444E-4
1.836,6.473156588056475E-4
1.84,6.476762669495264E-4
1.844,6.487821319240886E-4
1.848,6.474118209773486E-4
1.852,6.491427400679675E-4
1.856,6.508015375298108E-4
1.86,6.507534564439603E-4
1.864,6.470512128334696E-4
1.868,6.447914017984949E-4
1.872,6.447433207126443E-4
1.8760000000000001,6.48181118350957E-4
1.8800000000000001,6.497677941840245E-4
1.8840000000000001,6.491186995250422E-4
1.8880000000000001,6.480849561792559E-4
1.8920000000000001,6.452000910282243E-4
1.8960000000000001,6.471714155480959E-4
1.9000000000000001,6.464021181744875E-4
1.9040000000000001,6.465223208891139E-4
1.9080000000000001,6.440942260536622E-4
1.9120000000000001,6.458251451442812E-4
1.9160000000000001,6.477483885783022E-4
1.92,6.478445507500033E-4
1.924,6.476281858636759E-4
1.928,6.485176859519107E-4
1.932,6.452000910282243E-4
1.936,6.440701855107369E-4
1.94,6.445029152833918E-4
1.944,6.464021181744875E-4
1.948,6.484215237802096E-4
1.952,6.462097938310854E-4
1.956,6.435893746522317E-4
1.96,6.439259422531854E-4
1.964,6.431806854225022E-4
1.968,6.420267393620894E-4
1.972,6.431326043366517E-4
1.976,6.458251451442812E-4
1.98,6.450318072277475E-4
1.984,6.441903882253633E-4
1.988,6.453443342857759E-4
1.992,6.443586720258402E-4
1.996,6.435172530234559E-4
2.0,6.418824961045379E-4
2.004,6.412093609026305E-4
2.008,6.442384693112138E-4
2.012,6.465704019749643E-4
2.016,6.458732262301317E-4
2.02,6.439019017102602E-4
2.024,6.422671447913421E-4
2.028,6.441182665965875E-4
2.032,6.423152258771927E-4
2.036,6.403439013573211E-4
2.04,6.4161805013236E-4
2.044,6.443586720258402E-4
2.048,6.451760504852991E-4
2.052,6.450077666848222E-4
2.056,6.473396993485728E-4
2.06,6.499841590703519E-4
2.064,6.507534564439603E-4
2.068,6.486138481236117E-4
2.072,6.483253616085086E-4
2.076,6.440701855107369E-4
2.08,6.434691719376053E-4
2.084,6.462097938310854E-4
2.088,6.475801047778254E-4
2.092,6.480609156363306E-4
2.096,6.484936454089855E-4
2.1,6.501284023279034E-4
2.104,6.524362944487287E-4
2.108,6.51090024044914E-4
2.112,6.512102267595403E-4
2.116,6.52003564676074E-4
2.12,6.509217402444371E-4
2.124,6.478685912929286E-4
2.128,6.483253616085086E-4
2.132,6.49623550926473E-4
2.136,6.530613485647856E-4
2.14,6.53470037794515E-4
2.144,6.530373080218603E-4
2.148,6.539989297388708E-4
2.152,6.543595378827498E-4
2.156,6.527247809638318E-4
2.16,6.479887940075549E-4
2.164,6.448635234272707E-4
2.168,6.457289829725801E-4
2.172,6.470512128334696E-4
2.176,6.474839426061244E-4
2.18,6.502245644996045E-4
2.184,6.495514292976972E-4
2.188,6.48734050838238E-4
2.192,6.485657670377613E-4
2.196,6.43084523250801E-4
2.2,6.440701855107369E-4
2.204,6.475079831490497E-4
2.208,6.475560642349001E-4
2.212,6.48637888666537E-4
2.216,6.511140645878393E-4
2.22,6.511140645878393E-4
2.224,6.482532399797328E-4
2.228,6.456328208008791E-4
2.232,6.467867668612917E-4
2.236,6.486138481236117E-4
2.24,6.50633253729334E-4
2.244,6.540950919105719E-4
2.248,6.545278216832266E-4
2.2520000000000002,6.540229702817961E-4
2.2560000000000002,6.514506321887929E-4
2.2600000000000002,6.502005239566792E-4
2.2640000000000002,6.49190821153818E-4
2.2680000000000002,6.477964696641528E-4
2.2720000000000002,6.483494021514338E-4
2.2760000000000002,6.469310101188433E-4
2.2800000000000002,6.469550506617686E-4
2.2840000000000003,6.467146452325159E-4
2.2880000000000003,6.49359104954295E-4
2.2920000000000003,6.523641728199529E-4
2.2960000000000003,6.494793076689214E-4
2.3000000000000003,6.487821319240886E-4
2.3040000000000003,6.488302130099391E-4
2.308,6.487100102953128E-4
2.312,6.502486050425297E-4
2.316,6.477483885783022E-4
2.32,6.492389022396686E-4
2.324,6.497677941840245E-4
2.328,6.505130510147077E-4
2.332,6.523641728199529E-4
2.336,6.507774969868855E-4
2.34,6.51642956532195E-4
2.344,6.551769163422088E-4
2.348,6.574126868342582E-4
2.352,6.525805377062803E-4
2.356,6.375311578350652E-4
2.36,6.143079933692607E-4
2.364,5.92094531706317E-4
2.368,5.74665138085501E-4
2.372,5.662990291475092E-4
2.376,5.760835301180915E-4
2.38,5.934408021101318E-4
2.384,6.093796820695815E-4
2.388,6.33300022280219E-4
2.392,6.522680106482518E-4
2.396,6.56018335344593E-4
2.4,6.554894434002372E-4
2.404,6.515948754463445E-4
2.408,6.448154423414201E-4
2.412,6.461136316593843E-4
2.416,6.485898075806864E-4
2.42,6.486859697523875E-4
2.424,6.491427400679675E-4
2.428,6.508496186156613E-4
2.432,6.498879968986508E-4
2.436,6.490465778962665E-4
2.44,6.490706184391917E-4
2.444,6.497437536410992E-4
2.448,6.521718484765508E-4
2.452,6.509217402444371E-4
2.456,6.517631592468213E-4
2.46,6.516910376180455E-4
2.464,6.525084160775045E-4
2.468,6.546961054837034E-4
2.472,6.533979161657392E-4
2.476,6.540229702817961E-4
2.48,6.523160917341024E-4
2.484,6.523641728199529E-4
2.488,6.545759027690772E-4
2.492,6.528930647643087E-4
2.496,6.528209431355329E-4
2.5,6.514025511029424E-4
2.504,6.485657670377613E-4
2.508,6.500081996132772E-4
2.512,6.541431729964225E-4
2.516,6.527728620496824E-4
2.52,6.52652659335056E-4
2.524,6.527969025926076E-4
2.528,6.551769163422088E-4
2.532,6.576050111776603E-4
2.536,6.562827813167708E-4
2.54,6.54744186569554E-4
2.544,6.570761192333045E-4
2.548,6.582541058366424E-4
2.552,6.566674300035751E-4
2.556,6.566674300035751E-4
2.56,6.57484808463034E-4
2.564,6.566433894606498E-4
2.568,6.558260110011908E-4
2.572,6.553211595997603E-4
2.576,6.571001597762298E-4
2.58,6.554654028573119E-4
2.584,6.568597543469771E-4
2.588,6.558019704582655E-4
2.592,6.532777134511129E-4
2.596,6.546961054837034E-4
2.6,6.564751056601729E-4
2.604,6.565231867460235E-4
2.608,6.564510651172477E-4
2.612,6.536864026808424E-4
2.616,6.510419429590635E-4
2.62,6.536383215949919E-4
2.624,6.511140645878393E-4
2.628,6.506092131864088E-4
2.632,6.530373080218603E-4
2.636,6.519554835902235E-4
2.64,6.498399158128003E-4
2.644,6.510419429590635E-4
2.648,6.522439701053266E-4
2.652,6.518352808755971E-4
2.656,6.516910376180455E-4
2.66,6.52652659335056E-4
2.664,6.515708349034193E-4
2.668,6.515708349034193E-4
2.672,6.495273887547719E-4
2.676,6.457530235155054E-4
2.68,6.441903882253633E-4
2.684,6.453202937428507E-4
2.688,6.476281858636759E-4
2.692,6.488782940957896E-4
2.696,6.467627263183665E-4
2.7,6.459213073159823E-4
2.704,6.445990774550927E-4
2.708,6.461857532881601E-4
2.712,6.477724291212275E-4
2.716,6.469069695759181E-4
2.72,6.440701855107369E-4
2.724,6.44623117998018E-4
2.728,6.435653341093064E-4
2.732,6.442384693112138E-4
2.736,6.449596855989718E-4
2.74,6.443105909399896E-4
2.744,6.438778611673349E-4
2.748,6.446952396267938E-4
2.7520000000000002,6.453443342857759E-4
2.7560000000000002,6.459453478589075E-4
2.7600000000000002,6.467146452325159E-4
2.7640000000000002,6.467867668612917E-4
2.7680000000000002,6.432768475942033E-4
2.7720000000000002,6.442865503970644E-4
2.7760000000000002,6.452241315711496E-4
2.7800000000000002,6.464021181744875E-4
2.7840000000000003,6.48181118350957E-4
2.7880000000000003,6.466184830608148E-4
2.7920000000000003,6.454164559145517E-4
2.7960000000000003,6.459213073159823E-4
2.8000000000000003,6.467867668612917E-4
2.8040000000000003,6.468348479471423E-4
2.8080000000000003,6.480128345504802E-4
2.8120000000000003,6.466665641466654E-4
2.816,6.460895911164591E-4
2.82,6.460174694876832E-4
2.824,6.476041453207506E-4
2.828,6.462338343740107E-4
2.832,6.473156588056475E-4
2.836,6.465223208891139E-4
2.84,6.453683748287012E-4
2.844,6.466425236037401E-4
2.848,6.462819154598612E-4
2.852,6.450318072277475E-4
2.856,6.445029152833918E-4
2.86,6.453683748287012E-4
2.864,6.470271722905444E-4
2.868,6.46546361432039E-4
2.872,6.482291994368075E-4
2.876,6.465223208891139E-4
2.88,6.44623117998018E-4
2.884,6.46810807404217E-4
2.888,6.466425236037401E-4
2.892,6.449596855989718E-4
2.896,6.47724348035377E-4
2.9,6.48541726494836E-4
2.904,6.458011046013559E-4
2.908,6.437816989956338E-4
2.912,6.459934289447581E-4
2.916,6.458732262301317E-4
2.92,6.479407129217044E-4
2.924,6.49359104954295E-4
2.928,6.449596855989718E-4
2.932,6.434210908517549E-4
2.936,6.458011046013559E-4
2.94,6.47724348035377E-4
2.944,6.485898075806864E-4
2.948,6.48998496810416E-4
2.952,6.472435371768717E-4
2.956,6.463059560027865E-4
2.96,6.493110238684445E-4
2.964,6.491186995250422E-4
2.968,6.476281858636759E-4
2.972,6.458491856872065E-4
2.976,6.422911853342674E-4
2.98,6.399352121275915E-4
2.984,6.424594691347442E-4
2.988,6.434451313946802E-4
2.992,6.429883610791E-4
2.996,6.452241315711496E-4
3.0,6.469550506617686E-4
3.004,6.444788747404665E-4
3.008,6.432287665083528E-4
3.012,6.429402799932494E-4
3.016,6.438057395385591E-4
3.02,6.434691719376053E-4
3.024,6.420267393620894E-4
3.028,6.435893746522317E-4
3.032,6.46354037088637E-4
3.036,6.461857532881601E-4
3.04,6.433730097659044E-4
3.044,6.434932124805306E-4
3.048,6.449596855989718E-4
3.052,6.451520099423738E-4
3.056,6.47003131747619E-4
3.06,6.467627263183665E-4
3.064,6.477003074924517E-4
3.068,6.443105909399896E-4
3.072,6.451520099423738E-4
3.076,6.459453478589075E-4
3.08,6.452481721140749E-4
3.084,6.420267393620894E-4
3.088,6.401756175568442E-4
3.092,6.414257257889578E-4
3.096,6.4253159076352E-4
3.1,6.438538206244096E-4
3.104,6.430364421649505E-4
3.108,6.436855368239328E-4
3.112,6.435412935663811E-4
3.116,6.43974023339036E-4
3.12,6.442625098541391E-4
3.124,6.49359104954295E-4
3.128,6.523160917341024E-4
3.132,6.497197130981739E-4
3.136,6.395505634407873E-4
3.14,6.147647636848407E-4
3.144,5.892096665552854E-4
3.148,5.670683265211177E-4
3.152,5.544951225712048E-4
3.156,5.542306765990269E-4
3.16,5.756748408883621E-4
3.164,5.926955452794486E-4
3.168,6.17986196436826E-4
3.172,6.419305771903884E-4
3.176,6.507534564439603E-4
3.18,6.52003564676074E-4
3.184,6.493350644113698E-4
3.188,6.444067531116907E-4
3.192,6.459934289447581E-4
3.196,6.478445507500033E-4
3.2,6.484215237802096E-4
3.204,6.453924153716265E-4
3.208,6.432768475942033E-4
3.212,6.469310101188433E-4
3.216,6.457530235155054E-4
3.22,6.437336179097833E-4
3.224,6.450318072277475E-4
3.228,6.463059560027865E-4
3.232,6.474599020631991E-4
3.236,6.473877804344233E-4
3.24,6.467627263183665E-4
3.244,6.457530235155054E-4
3.248,6.438538206244096E-4
3.2520000000000002,6.439980638819611E-4
3.2560000000000002,6.434932124805306E-4
3.2600000000000002,6.431326043366517E-4
3.2640000000000002,6.432047259654275E-4
3.2680000000000002,6.412814825314063E-4
3.2720000000000002,6.433730097659044E-4
3.2760000000000002,6.4207482044794E-4
3.2800000000000002,6.417142123040611E-4
3.2840000000000003,6.42435428591819E-4
3.2880000000000003,6.433249286800538E-4
3.2920000000000003,6.436134151951569E-4
3.2960000000000003,6.459453478589075E-4
3.3000000000000003,6.462097938310854E-4
3.3040000000000003,6.427479556498474E-4
3.3080000000000003,6.4161805013236E-4
3.3120000000000003,6.445029152833918E-4
3.3160000000000003,6.452722126570001E-4
3.3200000000000003,6.464021181744875E-4
3.3240000000000003,6.433970503088296E-4
3.3280000000000003,6.435893746522317E-4
3.332,6.464982803461886E-4
3.336,6.468829290329928E-4
3.34,6.468829290329928E-4
3.344,6.474839426061244E-4
3.348,6.475079831490497E-4
3.352,6.469069695759181E-4
3.356,6.469550506617686E-4
3.36,6.458732262301317E-4
3.364,6.459934289447581E-4
3.368,6.474839426061244E-4
3.372,6.455606991721033E-4
3.376,6.445509963692422E-4
3.38,6.451279693994485E-4
3.384,6.467627263183665E-4
3.388,6.445990774550927E-4
3.392,6.429162394503243E-4
3.396,6.393101580115348E-4
3.4,6.383004552086737E-4
3.404,6.399352121275915E-4
3.408,6.401515770139189E-4
3.412,6.408487527587516E-4
3.416,6.388053066101042E-4
3.42,6.394544012690863E-4
3.424,6.400073337563673E-4
3.428,6.386370228096274E-4
3.432,6.405602662436484E-4
3.436,6.398630904988158E-4
3.44,6.338289142245748E-4
3.444,6.332279006514432E-4
3.448,6.363050901458769E-4
3.452,6.385408606379263E-4
3.456,6.37867725436019E-4
3.46,6.350549819137631E-4
3.464,6.340452791109021E-4
3.468,6.337327520528737E-4
3.472,6.349828602849873E-4
3.476,6.355357927722684E-4
3.48,6.357281171156705E-4
3.484,6.339250763962757E-4
3.488,6.320018329622547E-4
3.492,6.320739545910305E-4
3.496,6.347905359415853E-4
3.5,6.341174007396779E-4
3.504,6.351271035425389E-4
3.508,6.351030629996137E-4
3.512,6.381562119511221E-4
3.516,6.370984280624105E-4
3.52,6.327230492500126E-4
3.524,6.320018329622547E-4
3.528,6.355357927722684E-4
3.532,6.395746039837126E-4
3.536,6.400794553851431E-4
3.54,6.392861174686095E-4
3.544,6.386610633525526E-4
3.548,6.375311578350652E-4
3.552,6.355838738581189E-4
3.556,6.351271035425389E-4
3.56,6.3568003602982E-4
3.564,6.359925630878484E-4
3.568,6.349107386562115E-4
3.572,6.372907524058126E-4
3.576,6.372667118628874E-4
3.58,6.357281171156705E-4
3.584,6.337087115099484E-4
3.588,6.34405887254781E-4
3.592,6.347424548557347E-4
3.596,6.343818467118557E-4
3.6,6.33035576308041E-4
3.604,6.322903194773579E-4
3.608,6.339010358533505E-4
3.612,6.343337656260052E-4
3.616,6.354396306005673E-4
3.62,6.332759817372937E-4
3.624,6.33035576308041E-4
3.628,6.339971980250515E-4
3.632,6.329634546792652E-4
3.636,6.360887252595494E-4
3.64,6.361608468883252E-4
3.644,6.342616439972295E-4
3.648,6.354877116864178E-4
3.652,6.369061037190084E-4
3.656,6.342616439972295E-4
3.66,6.33300022280219E-4
3.664,6.343337656260052E-4
3.668,6.357761982015211E-4
3.672,6.371945902341116E-4
3.676,6.35872360373222E-4
3.68,6.348145764845104E-4
3.684,6.340452791109021E-4
3.688,6.348386170274357E-4
3.692,6.351751846283895E-4
3.696,6.364733739463536E-4
3.7,6.361368063454E-4
3.704,6.3705034697656E-4
3.708,6.346943737698842E-4
3.712,6.353675089717915E-4
3.716,6.367137793756063E-4
3.72,6.365454955751294E-4
3.724,6.342856845401547E-4
3.728,6.351271035425389E-4
3.732,6.352953873430158E-4
3.736,6.351751846283895E-4
3.74,6.330115357651157E-4
3.744,6.313767788461978E-4
3.748,6.325066843636852E-4
3.7520000000000002,6.327230492500126E-4
3.7560000000000002,6.309921301593936E-4
3.7600000000000002,6.326028465353863E-4
3.7640000000000002,6.343578061689304E-4
3.7680000000000002,6.284919136951661E-4
3.7720000000000002,6.242126970544691E-4
3.7760000000000002,6.256070485441346E-4
3.7800000000000002,6.279149406649598E-4
3.7840000000000003,6.288525218390451E-4
3.7880000000000003,6.295016164980272E-4
3.7920000000000003,6.317614275330021E-4
3.7960000000000003,6.314489004749736E-4
3.8000000000000003,6.30847886901842E-4
3.8040000000000003,6.320499140481052E-4
3.8080000000000003,6.310882923310947E-4
3.8120000000000003,6.318095086188525E-4
3.8160000000000003,6.336606304240979E-4
3.8200000000000003,6.356079144010442E-4
3.8240000000000003,6.3522326571424E-4
3.8280000000000003,6.320979951339558E-4
3.8320000000000003,6.29573738126803E-4
3.8360000000000003,6.296939408414292E-4
3.84,6.298862651848314E-4
3.844,6.303189949574861E-4
3.848,6.303911165862619E-4
3.852,6.3202587350518E-4
3.856,6.321460762198063E-4
3.86,6.355598333151936E-4
3.864,6.350790224566884E-4
3.868,6.345020494264821E-4
3.872,6.365695361180547E-4
3.876,6.382523741228232E-4
3.88,6.364252928605031E-4
3.884,6.346462926840337E-4
3.888,6.3430972508308E-4
3.892,6.353915495147168E-4
3.896,6.336606304240979E-4
3.9,6.326990087070874E-4
3.904,6.304391976721124E-4
3.908,6.32122035676881E-4
3.912,6.346222521411084E-4
3.916,6.382523741228232E-4
3.92,6.385649011808515E-4
3.924,6.35415590057642E-4
3.928,6.237078456530386E-4
3.932,6.032493436236393E-4
3.936,5.82141746935258E-4
3.94,5.640632586554597E-4
3.944,5.535575413971195E-4
3.948,5.574521093510122E-4
3.952,5.781990978955147E-4
3.956,5.931042345091781E-4
3.96,6.104134254153679E-4
3.964,6.330596168509663E-4
3.968,6.419786582762389E-4
3.972,6.414738068748084E-4
3.976,6.412574419884811E-4
3.98,6.385408606379263E-4
3.984,6.381321714081968E-4
3.988,6.3659357666098E-4
3.992,6.362810496029516E-4
3.996,6.364493334034284E-4
4.0,6.331317384797421E-4
4.0040000000000004,6.335404277094715E-4
4.008,6.333240628231441E-4
4.0120000000000005,6.330596168509663E-4
4.016,6.301507111570093E-4
4.0200000000000005,6.270975622055009E-4
4.024,6.306315220155146E-4
4.0280000000000005,6.323143600202831E-4
4.032,6.333961844519199E-4
4.0360000000000005,6.304151571291872E-4
4.04,6.308959679876926E-4
4.0440000000000005,6.322903194773579E-4
4.048,6.332038601085179E-4
4.0520000000000005,6.351751846283895E-4
4.056,6.355357927722684E-4
4.0600000000000005,6.345260899694073E-4
4.064,6.326509276212368E-4
4.0680000000000005,6.348145764845104E-4
4.072,6.354636711434926E-4
4.0760000000000005,6.352473062571653E-4
4.08,6.326749681641621E-4
4.0840000000000005,6.351751846283895E-4
4.088,6.37146509148261E-4
4.0920000000000005,6.359685225449231E-4
4.096,6.362570090600263E-4
4.1,6.361608468883252E-4
4.104,6.363772117746526E-4
4.108,6.399592526705168E-4
4.112,6.400313742992926E-4
4.116,6.392620769256842E-4
4.12,6.38973590410581E-4
4.124,6.401996580997695E-4
4.128,6.389495498676557E-4
4.132,6.399111715846663E-4
4.136,6.384687390091505E-4
4.14,6.384687390091505E-4
4.144,6.404160229860968E-4
4.148,6.414978474177336E-4
4.152,6.412334014455558E-4
4.156,6.405602662436484E-4
4.16,6.404160229860968E-4
4.164,6.403198608143958E-4
4.168,6.373147929487379E-4
4.172,6.362810496029516E-4
4.176,6.393101580115348E-4
4.18,6.34862657570361E-4
4.184,6.346222521411084E-4
4.188,6.363531712317273E-4
4.192,6.341174007396779E-4
4.196,6.346462926840337E-4
4.2,6.320018329622547E-4
4.204,6.303670760433366E-4
4.208,6.284919136951661E-4
4.212,6.303911165862619E-4
4.216,6.307276841872157E-4
4.22,6.325307249066105E-4
4.224,6.326028465353863E-4
4.228,6.310161707023189E-4
4.232,6.289486840107461E-4
4.236,6.288044407531945E-4
4.24,6.279870622937356E-4
4.244,6.278909001220345E-4
4.248,6.282034271800629E-4
4.252,6.29766062470205E-4
4.256,6.3111233287402E-4
4.26,6.294054543263261E-4
4.264,6.296939408414292E-4
4.268,6.298141435560556E-4
4.272,6.293814137834009E-4
4.276,6.29573738126803E-4
4.28,6.313767788461978E-4
4.284,6.316171842754505E-4
4.288,6.302468733287103E-4
4.292,6.316171842754505E-4
4.296,6.309921301593936E-4
4.3,6.314008193891231E-4
4.304,6.305594003867388E-4
4.308,6.280591839225114E-4
4.312,6.271456432913514E-4
4.316,6.279630217508103E-4
4.32,6.278187784932587E-4
4.324,6.253185620290314E-4
4.328,6.261840215743408E-4
4.332,6.270735216625756E-4
4.336,6.297179813843545E-4
4.34,6.306796031013651E-4
4.344,6.287082785814934E-4
4.348,6.277226163215577E-4
4.352,6.290929272682977E-4
4.356,6.298141435560556E-4
4.36,6.316412248183758E-4
4.364,6.301026300711588E-4
4.368,6.316171842754505E-4
4.372,6.320739545910305E-4
4.376,6.296218192126535E-4
4.38,6.275543325210809E-4
4.384,6.289246434678209E-4
4.388,6.306315220155146E-4
4.392,6.29766062470205E-4
4.396,6.316412248183758E-4
4.4,6.310642517881694E-4
4.404,6.292852516116998E-4
4.408,6.304151571291872E-4
4.412,6.299583868136072E-4
4.416,6.313767788461978E-4
4.42,6.323384005632083E-4
4.424,6.330836573938915E-4
4.428,6.317854680759274E-4
4.432,6.292612110687745E-4
4.436,6.286842380385683E-4
4.44,6.287804002102693E-4
4.444,6.305353598438135E-4
4.448,6.301747516999346E-4
4.452,6.29213129982924E-4
4.456,6.285640353239419E-4
4.46,6.277466568644829E-4
4.464,6.290688867253725E-4
4.468,6.290208056395219E-4
4.472,6.273379676347535E-4
4.476,6.280832244654367E-4
4.48,6.272418054630524E-4
4.484,6.282034271800629E-4
4.488,6.265205891752946E-4
4.492,6.261599810314155E-4
4.496,6.279630217508103E-4
4.5,6.280351433795861E-4
4.5040000000000004,6.295016164980272E-4
4.508,6.30847886901842E-4
4.5120000000000005,6.279630217508103E-4
4.516,6.27842819036184E-4
4.5200000000000005,6.29573738126803E-4
4.524,6.294775759551019E-4
4.5280000000000005,6.298141435560556E-4
4.532,6.310402112452442E-4
4.5360000000000005,6.308719274447673E-4
4.54,6.318816302476283E-4
4.5440000000000005,6.332038601085179E-4
4.548,6.327711303358632E-4
4.5520000000000005,6.303430355004114E-4
4.556,6.290929272682977E-4
4.5600000000000005,6.285159542380914E-4
4.564,6.295977786697283E-4
4.5680000000000005,6.304151571291872E-4
4.572,6.277706974074082E-4
4.5760000000000005,6.298381840989808E-4
4.58,6.307757652730661E-4
4.5840000000000005,6.275062514352303E-4
4.588,6.27193724377202E-4
4.5920000000000005,6.277226163215577E-4
4.596,6.280351433795861E-4
4.6000000000000005,6.282755488088387E-4
4.604,6.30847886901842E-4
4.6080000000000005,6.290688867253725E-4
4.612,6.28299589351764E-4
4.616,6.276985757786324E-4
4.62,6.253185620290314E-4
4.624,6.273379676347535E-4
4.628,6.274341298064545E-4
4.632,6.282755488088387E-4
4.636,6.268090756903977E-4
4.64,6.282274677229882E-4
4.644,6.29116967811223E-4
4.648,6.302709138716356E-4
4.652,6.310161707023189E-4
4.656,6.290448461824472E-4
4.66,6.291650488970735E-4
4.664,6.289246434678209E-4
4.668,6.291650488970735E-4
4.672,6.280351433795861E-4
4.676,6.299103057277566E-4
4.68,6.315691031896E-4
4.684,6.327230492500126E-4
4.688,6.3111233287402E-4
4.692,6.320499140481052E-4
4.696,6.347184143128095E-4
4.7,6.389976309535063E-4
4.704,6.37867725436019E-4
4.708,6.351030629996137E-4
4.712,6.270735216625756E-4
4.716,6.050043032571835E-4
4.72,5.836563011395496E-4
4.724,5.646642722285913E-4
4.728,5.563702849193754E-4
4.732,5.618034476204849E-4
4.736,5.78872233097422E-4
4.74,5.952438428295266E-4
4.744,6.159908313740292E-4
4.748,6.368820631760831E-4
4.752,6.441903882253633E-4
4.756,6.406083473294989E-4
4.76,6.414738068748084E-4
4.764,6.418344150186874E-4
4.768,6.396948066983389E-4
4.772,6.396707661554137E-4
4.776,6.401034959280684E-4
4.78,6.405602662436484E-4
4.784,6.405843067865737E-4
4.788,6.393101580115348E-4
4.792,6.395986445266379E-4
4.796,6.384206579232999E-4
4.8,6.374109551204389E-4
4.804,6.34862657570361E-4
4.808,6.323384005632083E-4
4.812,6.339250763962757E-4
4.816,6.401515770139189E-4
4.82,6.383004552086737E-4
4.824,6.360646847166242E-4
4.828,6.352473062571653E-4
4.832,6.362570090600263E-4
4.836,6.366416577468305E-4
4.84,6.359204414590726E-4
4.844,6.364974144892789E-4
4.848,6.372667118628874E-4
4.852,6.3476649539866E-4
4.856,6.367618604614568E-4
4.86,6.387331849813284E-4
4.864,6.386370228096274E-4
4.868,6.377475227213926E-4
4.872,6.392139958398337E-4
4.876,6.407045095012E-4
4.88,6.394063201832357E-4
4.884,6.393822796403106E-4
4.888,6.375792389209158E-4
4.892,6.389014687818052E-4
4.896,6.387091444384032E-4
4.9,6.403198608143958E-4
4.904,6.44166347682438E-4
4.908,6.432287665083528E-4
4.912,6.428200772786232E-4
4.916,6.424835096776694E-4
4.92,6.430124016220252E-4
4.924,6.433970503088296E-4
4.928,6.420267393620894E-4
4.932,6.443586720258402E-4
4.936,6.462819154598612E-4
4.94,6.452722126570001E-4
4.944,6.443105909399896E-4
4.948,6.419786582762389E-4
4.952,6.387091444384032E-4
4.956,6.396948066983389E-4
4.96,6.399592526705168E-4
4.964,6.403439013573211E-4
4.968,6.371705496911863E-4
4.972,6.352473062571653E-4
4.976,6.3476649539866E-4
4.98,6.347905359415853E-4
4.984,6.355357927722684E-4
4.988,6.346943737698842E-4
4.992,6.332038601085179E-4
4.996,6.329394141363399E-4
5.0,6.323384005632083E-4
5.0040000000000004,6.308959679876926E-4
5.008,6.303189949574861E-4
5.0120000000000005,6.313527383032725E-4
5.016,6.309440490735431E-4
5.0200000000000005,6.318575897047031E-4
5.024,6.320499140481052E-4
5.0280000000000005,6.318575897047031E-4
5.032,6.33492346623621E-4
5.0360000000000005,6.298141435560556E-4
5.04,6.293333326975503E-4
5.0440000000000005,6.289006029248956E-4
5.048,6.298862651848314E-4
5.0520000000000005,6.28660197495643E-4
5.056,6.278668595791093E-4
5.0600000000000005,6.286842380385683E-4
5.064,6.281553460942125E-4
5.0680000000000005,6.300064678994577E-4
5.072,6.313767788461978E-4
5.0760000000000005,6.308719274447673E-4
5.08,6.321941573056568E-4
5.0840000000000005,6.329634546792652E-4
5.088,6.332519411943684E-4
5.0920000000000005,6.304391976721124E-4
5.096,6.317614275330021E-4
5.1000000000000005,6.336846709670231E-4
5.104,6.309680896164684E-4
5.1080000000000005,6.307757652730661E-4
5.112,6.299103057277566E-4
5.1160000000000005,6.299583868136072E-4
5.12,6.305353598438135E-4
5.124,6.305353598438135E-4
5.128,6.31208495045721E-4
5.132,6.328672925075641E-4
5.136,6.346462926840337E-4
5.14,6.345741710552579E-4
5.144,6.323384005632083E-4
5.148,6.343337656260052E-4
5.152,6.322662789344326E-4
5.156,6.315210221037494E-4
5.16,6.310642517881694E-4
5.164,6.318575897047031E-4
5.168,6.321941573056568E-4
5.172,6.312806166744967E-4
5.176,6.317373869900768E-4
5.18,6.314489004749736E-4
5.184,6.298381840989808E-4
5.188,6.318095086188525E-4
5.192,6.326028465353863E-4
5.196,6.337327520528737E-4
5.2,6.34405887254781E-4
5.204,6.365454955751294E-4
5.208,6.375311578350652E-4
5.212,6.330596168509663E-4
5.216,6.309200085306178E-4
5.22,6.323384005632083E-4
5.224,6.349107386562115E-4
5.228,6.359685225449231E-4
5.232,6.343337656260052E-4
5.236,6.314008193891231E-4
5.24,6.321941573056568E-4
5.244,6.320979951339558E-4
5.248,6.298622246419061E-4
5.252,6.301987922428599E-4
5.256,6.312565761315716E-4
5.26,6.282515082659135E-4
5.264,6.277706974074082E-4
5.268,6.275783730640062E-4
5.272,6.287082785814934E-4
5.276,6.280591839225114E-4
5.28,6.244290619407965E-4
5.284,6.274581703493798E-4
5.288,6.310161707023189E-4
5.292,6.305353598438135E-4
5.296,6.296458597555788E-4
5.3,6.307998058159914E-4
5.304,6.286121164097925E-4
5.308,6.301266706140841E-4
5.312,6.287323191244187E-4
5.316,6.256310890870598E-4
5.32,6.22193291448747E-4
5.324,6.246454268271238E-4
5.328,6.252464404002556E-4
5.332,6.268571567762482E-4
5.336,6.266407918899209E-4
5.34,6.26929278405024E-4
5.344,6.277466568644829E-4
5.348,6.271696838342767E-4
5.352,6.232270347945333E-4
5.356,6.227221833931028E-4
5.36,6.222654130775228E-4
5.364,6.237318861959639E-4
5.368,6.232751158803839E-4
5.372,6.244290619407965E-4
5.376,6.246694673700492E-4
5.38,6.249098727993019E-4
5.384,6.257993728875366E-4
5.388,6.251262376856293E-4
5.392,6.245492646554229E-4
5.396,6.256791701729103E-4
5.4,6.240684537969176E-4
5.404,6.237799672818144E-4
5.408,6.23924210539366E-4
5.412,6.252704809431808E-4
5.416,6.245973457412733E-4
5.42,6.260397783167893E-4
5.424,6.274822108923051E-4
5.428,6.267609946045471E-4
5.432,6.286121164097925E-4
5.436,6.279149406649598E-4
5.44,6.278909001220345E-4
5.444,6.277466568644829E-4
5.448,6.279389812078851E-4
5.452,6.298862651848314E-4
5.456,6.281072650083619E-4
5.46,6.309921301593936E-4
5.464,6.358964009161473E-4
5.468,6.384687390091505E-4
5.472,6.359685225449231E-4
5.476,6.316893059042263E-4
5.48,6.191641830401638E-4
5.484,5.988739648112414E-4
5.488,5.786077871252442E-4
5.492,5.628852720521218E-4
5.496,5.579329202095174E-4
5.5,5.664192318621356E-4
5.5040000000000004,5.842573147126812E-4
5.508,5.993066945838961E-4
5.5120000000000005,6.157744664877017E-4
5.516,6.304391976721124E-4
5.5200000000000005,6.39887131041741E-4
5.524,6.4116127981678E-4
5.5280000000000005,6.392620769256842E-4
5.532,6.341414412826031E-4
5.5360000000000005,6.306315220155146E-4
5.54,6.303911165862619E-4
5.5440000000000005,6.302709138716356E-4
5.548,6.328672925075641E-4
5.5520000000000005,6.342856845401547E-4
5.556,6.325547654495357E-4
5.5600000000000005,6.305594003867388E-4
5.564,6.303911165862619E-4
5.5680000000000005,6.321701167627316E-4
5.572,6.335404277094715E-4
5.5760000000000005,6.342616439972295E-4
5.58,6.326509276212368E-4
5.5840000000000005,6.319297113334789E-4
5.588,6.327951708787883E-4
5.5920000000000005,6.345260899694073E-4
5.596,6.362089279741758E-4
5.6000000000000005,6.354877116864178E-4
5.604,6.337327520528737E-4
5.6080000000000005,6.354636711434926E-4
5.612,6.370984280624105E-4
5.6160000000000005,6.360166036307736E-4
5.62,6.367378199185316E-4
5.6240000000000006,6.359444820019978E-4
5.628,6.360887252595494E-4
5.632,6.376994416355421E-4
5.636,6.375792389209158E-4
5.64,6.368099415473074E-4
5.644,6.345741710552579E-4
5.648,6.356079144010442E-4
5.652,6.377956038072432E-4
5.656,6.3750711729214E-4
5.66,6.348866981132862E-4
5.664,6.362089279741758E-4
5.668,6.391899552969084E-4
5.672,6.371224686053358E-4
5.676,6.361127658024747E-4
5.68,6.376754010926168E-4
5.684,6.371945902341116E-4
5.688,6.3659357666098E-4
5.692,6.373628740345883E-4
5.696,6.375311578350652E-4
5.7,6.387331849813284E-4
5.704,6.405362257007231E-4
5.708,6.402236986426947E-4
5.712,6.394784418120115E-4
5.716,6.387331849813284E-4
5.72,6.374109551204389E-4
5.724,6.374590362062894E-4
5.728,6.394063201832357E-4
5.732,6.346462926840337E-4
5.736,6.328913330504894E-4
5.74,6.34862657570361E-4
5.744,6.357521576585958E-4
5.748,6.348145764845104E-4
5.752,6.343818467118557E-4
5.756,6.351751846283895E-4
5.76,6.347424548557347E-4
5.764,6.330596168509663E-4
5.768,6.315210221037494E-4
5.772,6.326028465353863E-4
5.776,6.331317384797421E-4
5.78,6.327711303358632E-4
5.784,6.320018329622547E-4
5.788,6.32578805992461E-4
5.792,6.349347791991368E-4
5.796,6.329634546792652E-4
5.8,6.311363734169452E-4
5.804,6.31304657217422E-4
5.808,6.303189949574861E-4
5.812,6.298141435560556E-4
5.816,6.301026300711588E-4
5.82,6.322422383915074E-4
5.824,6.326268870783116E-4
5.828,6.367859010043821E-4
5.832,6.348866981132862E-4
5.836,6.324105221919841E-4
5.84,6.306796031013651E-4
5.844,6.29766062470205E-4
5.848,6.302468733287103E-4
5.852,6.300545489853083E-4
5.856,6.294775759551019E-4
5.86,6.296939408414292E-4
5.864,6.317614275330021E-4
5.868,6.329874952221905E-4
5.872,6.332519411943684E-4
5.876,6.333721439089947E-4
5.88,6.350549819137631E-4
5.884,6.359925630878484E-4
5.888,6.336846709670231E-4
5.892,6.354636711434926E-4
5.896,6.374830767492147E-4
5.9,6.35872360373222E-4
5.904,6.331798195655926E-4
5.908,6.346703332269589E-4
5.912,6.348145764845104E-4
5.916,6.350549819137631E-4
5.92,6.347184143128095E-4
5.924,6.327470897929379E-4
5.928,6.33300022280219E-4
5.932,6.342135629113789E-4
5.936,6.336606304240979E-4
5.94,6.314729410178989E-4
5.944,6.328192114217136E-4
5.948,6.344539683406315E-4
5.952,6.327230492500126E-4
5.956,6.334202249948452E-4
5.96,6.358483198302969E-4
5.964,6.369782253477842E-4
5.968,6.388533876959548E-4
5.972,6.385889417237768E-4
5.976,6.374109551204389E-4
5.98,6.34862657570361E-4
5.984,6.370984280624105E-4
5.988,6.373388334916632E-4
5.992,6.345020494264821E-4
5.996,6.343818467118557E-4
6.0,6.338289142245748E-4
6.0040000000000004,6.344780088835568E-4
6.008,6.345501305123326E-4
6.0120000000000005,6.324586032778347E-4
6.016,6.3476649539866E-4
6.0200000000000005,6.349828602849873E-4
6.024,6.3568003602982E-4
6.0280000000000005,6.385408606379263E-4
6.032,6.372907524058126E-4
6.0360000000000005,6.351751846283895E-4
6.04,6.34958819742062E-4
6.0440000000000005,6.376754010926168E-4
6.048,6.390937931252073E-4
6.0520000000000005,6.367137793756063E-4
6.056,6.358964009161473E-4
6.0600000000000005,6.364493334034284E-4
6.064,6.349828602849873E-4
6.0680000000000005,6.367137793756063E-4
6.072,6.380840903223463E-4
6.0760000000000005,6.401996580997695E-4
6.08,6.396226850695631E-4
6.0840000000000005,6.367378199185316E-4
6.088,6.345020494264821E-4
6.0920000000000005,6.336125493382473E-4
6.096,6.355357927722684E-4
6.1000000000000005,6.380119686935705E-4
6.104,6.38973590410581E-4
6.1080000000000005,6.377475227213926E-4
6.112,6.360166036307736E-4
6.1160000000000005,6.3887742823888E-4
6.12,6.38060049779421E-4
6.1240000000000006,6.366416577468305E-4
6.128,6.385408606379263E-4
6.132000000000001,6.414497663318831E-4
6.136,6.417863339328369E-4
6.140000000000001,6.401756175568442E-4
6.144,6.401756175568442E-4
6.148,6.411372392738547E-4
6.152,6.393582390973853E-4
6.156,6.400554148422179E-4
6.16,6.377956038072432E-4
6.164,6.3705034697656E-4
6.168,6.380119686935705E-4
6.172,6.373147929487379E-4
6.176,6.357521576585958E-4
6.18,6.352713468000905E-4
6.184,6.360887252595494E-4
6.188,6.346943737698842E-4
6.192,6.362089279741758E-4
6.196,6.367859010043821E-4
6.2,6.351030629996137E-4
6.204,6.34405887254781E-4
6.208,6.326028465353863E-4
6.212,6.316893059042263E-4
6.216,6.316893059042263E-4
6.22,6.339731574821263E-4
6.224,6.380360092364958E-4
6.228,6.419065366474632E-4
6.232,6.455847397150285E-4
6.236,6.471233344622454E-4
6.24,6.439499827961107E-4
6.244,6.381321714081968E-4
6.248,6.209672237595586E-4
6.252,5.96277586175313E-4
6.256,5.762037328327179E-4
6.26,5.611303124185775E-4
6.264,5.609379880751753E-4
6.268,5.752661516586325E-4
6.272,5.923349371355697E-4
6.276,6.100287767285637E-4
6.28,6.327230492500126E-4
6.284,6.476762669495264E-4
6.288,6.502486050425297E-4
6.292,6.505611321005582E-4
6.296,6.467867668612917E-4
6.3,6.423152258771927E-4
6.304,6.411853203597053E-4
6.308,6.421229015337905E-4
6.312,6.409449149304526E-4
6.316,6.4024773918562E-4
6.32,6.422190637054916E-4
6.324,6.440221044248864E-4
6.328,6.418584555616127E-4
6.332,6.376994416355421E-4
6.336,6.386851038954779E-4
6.34,6.426037123922958E-4
6.344,6.435893746522317E-4
6.348,6.414497663318831E-4
6.352,6.429402799932494E-4
6.356,6.439980638819611E-4
6.36,6.438057395385591E-4
6.364,6.434932124805306E-4
6.368,6.430604827078758E-4
6.372,6.437576584527086E-4
6.376,6.433249286800538E-4
6.38,6.443827125687654E-4
6.384,6.473637398914981E-4
6.388,6.470752533763948E-4
6.392,6.458732262301317E-4
6.396,6.470271722905444E-4
6.4,6.474839426061244E-4
6.404,6.454164559145517E-4
6.408,6.457289829725801E-4
6.412,6.45440496457477E-4
6.416,6.446952396267938E-4
6.42,6.410170365592284E-4
6.424,6.448394828843454E-4
6.428,6.475560642349001E-4
6.432,6.495514292976972E-4
6.436,6.473156588056475E-4
6.44,6.454645370004023E-4
6.444,6.479887940075549E-4
6.448,6.50272645585455E-4
6.452,6.514746727317182E-4
6.456,6.517631592468213E-4
6.46,6.540710513676466E-4
6.464,6.531334701935614E-4
6.468,6.533017539940382E-4
6.472,6.528690242213834E-4
6.476,6.514746727317182E-4
6.48,6.522199295624013E-4
6.484,6.512102267595403E-4
6.488,6.493110238684445E-4
6.492,6.490465778962665E-4
6.496,6.491667806108928E-4
6.5,6.496716320123234E-4
6.5040000000000004,6.453443342857759E-4
6.508,6.450318072277475E-4
6.5120000000000005,6.442144287682885E-4
6.516,6.417863339328369E-4
6.5200000000000005,6.398150094129653E-4
6.524,6.421469420767158E-4
6.5280000000000005,6.397188472412642E-4
6.532,6.395746039837126E-4
6.5360000000000005,6.404400635290221E-4
6.54,6.405843067865737E-4
6.5440000000000005,6.425556313064452E-4
6.548,6.38973590410581E-4
6.5520000000000005,6.386129822667021E-4
6.556,6.396707661554137E-4
6.5600000000000005,6.39887131041741E-4
6.564,6.408727933016769E-4
6.5680000000000005,6.413776447031074E-4
6.572,6.3979096887004E-4
6.5760000000000005,6.396226850695631E-4
6.58,6.430604827078758E-4
6.5840000000000005,6.403198608143958E-4
6.588,6.38781266067179E-4
6.5920000000000005,6.385408606379263E-4
6.596,6.374109551204389E-4
6.6000000000000005,6.361848874312505E-4
6.604,6.367378199185316E-4
6.6080000000000005,6.3979096887004E-4
6.612,6.376513605496916E-4
6.6160000000000005,6.377715632643179E-4
6.62,6.394544012690863E-4
6.6240000000000006,6.387331849813284E-4
6.628,6.390697525822821E-4
6.632000000000001,6.411131987309295E-4
6.636,6.401034959280684E-4
6.640000000000001,6.386129822667021E-4
6.644,6.38516820095001E-4
6.648000000000001,6.396467256124884E-4
6.652,6.388293471530295E-4
6.656000000000001,6.376994416355421E-4
6.66,6.367859010043821E-4
6.664,6.37146509148261E-4
6.668,6.367378199185316E-4
6.672,6.369061037190084E-4
6.676,6.357281171156705E-4
6.68,6.3476649539866E-4
6.684,6.340452791109021E-4
6.688,6.333721439089947E-4
6.692,6.353434684288662E-4
6.696,6.384927795520757E-4
6.7,6.387331849813284E-4
6.704,6.362570090600263E-4
6.708,6.360646847166242E-4
6.712,6.352713468000905E-4
6.716,6.370984280624105E-4
6.72,6.39238036382759E-4
6.724,6.393822796403106E-4
6.728,6.383485362945242E-4
6.732,6.399832932134421E-4
6.736,6.400554148422179E-4
6.74,6.406323878724242E-4
6.744,6.390697525822821E-4
6.748,6.381562119511221E-4
6.752,6.365454955751294E-4
6.756,6.367378199185316E-4
6.76,6.368580226331578E-4
6.764,6.374109551204389E-4
6.768,6.369782253477842E-4
6.772,6.392861174686095E-4
6.776,6.350549819137631E-4
6.78,6.351992251713147E-4
6.784,6.344299277977063E-4
6.788,6.340693196538273E-4
6.792,6.343818467118557E-4
6.796,6.343337656260052E-4
6.8,6.33492346623621E-4
6.804,6.338529547674999E-4
6.808,6.369541848048589E-4
6.812,6.376754010926168E-4
6.816,6.364974144892789E-4
6.82,6.355838738581189E-4
6.824,6.362810496029516E-4
6.828,6.370263064336347E-4
6.832,6.370984280624105E-4
6.836,6.358964009161473E-4
6.84,6.357281171156705E-4
6.844,6.322903194773579E-4
6.848,6.324345627349094E-4
6.852,6.332759817372937E-4
6.856,6.318095086188525E-4
6.86,6.312806166744967E-4
6.864,6.332759817372937E-4
6.868,6.312565761315716E-4
6.872,6.293814137834009E-4
6.876,6.309680896164684E-4
6.88,6.299343462706819E-4
6.884,6.29309292154625E-4
6.888,6.299343462706819E-4
6.892,6.305834409296641E-4
6.896,6.303189949574861E-4
6.9,6.300064678994577E-4
6.904,6.340212385679768E-4
6.908,6.353194278859411E-4
6.912,6.335885087953221E-4
6.916,6.359925630878484E-4
6.92,6.372667118628874E-4
6.924,6.37867725436019E-4
6.928,6.359925630878484E-4
6.932,6.363772117746526E-4
6.936,6.362089279741758E-4
6.94,6.346703332269589E-4
6.944,6.358964009161473E-4
6.948,6.34405887254781E-4
6.952,6.357040765727453E-4
6.956,6.385408606379263E-4
6.96,6.379398470647947E-4
6.964,6.360887252595494E-4
6.968,6.361368063454E-4
6.972,6.361848874312505E-4
6.976,6.377715632643179E-4
6.98,6.38060049779421E-4
6.984,6.39430360726161E-4
6.988,6.464261587174128E-4
6.992,6.476281858636759E-4
6.996,6.439499827961107E-4
7.0,6.338048736816495E-4
7.0040000000000004,6.0923543881203E-4
7.008,5.84978531000439E-4
7.0120000000000005,5.693281375560925E-4
7.016,5.583896905250975E-4
7.0200000000000005,5.60721623188848E-4
7.024,5.771172734638779E-4
7.0280000000000005,5.945707076276193E-4
7.032,6.146686015131396E-4
7.0360000000000005,6.366656982897558E-4
7.04,6.50537091557633E-4
7.0440000000000005,6.514987132746435E-4
7.048,6.508736591585866E-4
7.0520000000000005,6.454645370004023E-4
7.056,6.416420906752853E-4
7.0600000000000005,6.440221044248864E-4
7.064,6.438778611673349E-4
7.0680000000000005,6.423633069630432E-4
7.072,6.435893746522317E-4
7.0760000000000005,6.43709577366858E-4
7.08,6.428200772786232E-4
7.0840000000000005,6.411372392738547E-4
7.088,6.394063201832357E-4
7.0920000000000005,6.381802524940474E-4
7.096,6.400313742992926E-4
7.1000000000000005,6.405121851577979E-4
7.104,6.408247122158263E-4
7.1080000000000005,6.404160229860968E-4
7.112,6.421950231625663E-4
7.1160000000000005,6.433730097659044E-4
7.12,6.4207482044794E-4
7.1240000000000006,6.421950231625663E-4
7.128,6.427479556498474E-4
7.132000000000001,6.442384693112138E-4
7.136,6.441182665965875E-4
7.140000000000001,6.462578749169359E-4
7.144,6.451520099423738E-4
7.148000000000001,6.442144287682885E-4
7.152,6.46546361432039E-4
7.156000000000001,6.478685912929286E-4
7.16,6.471714155480959E-4
7.164000000000001,6.45536658629178E-4
7.168,6.459693884018328E-4
7.172,6.482532399797328E-4
7.176,6.502005239566792E-4
7.18,6.489263751816402E-4
7.184,6.499120374415761E-4
7.188,6.508736591585866E-4
7.192,6.507774969868855E-4
7.196,6.481089967221812E-4
7.2,6.495995103835477E-4
7.204,6.524122539058035E-4
7.208,6.541672135393476E-4
7.212,6.526045782492056E-4
7.216,6.52003564676074E-4
7.22,6.519795241331487E-4
7.224,6.513544700170919E-4
7.228,6.50272645585455E-4
7.232,6.490225373533412E-4
7.236,6.489504157245654E-4
7.24,6.480368750934055E-4
7.244,6.480368750934055E-4
7.248,6.481089967221812E-4
7.252,6.465944425178896E-4
7.256,6.44623117998018E-4
7.26,6.429883610791E-4
7.264,6.404641040719473E-4
7.268,6.413776447031074E-4
7.272,6.410651176450789E-4
7.276,6.405602662436484E-4
7.28,6.406323878724242E-4
7.284,6.403439013573211E-4
7.288,6.411372392738547E-4
7.292,6.419546177333136E-4
7.296,6.420988609908652E-4
7.3,6.43156644879577E-4
7.304,6.4161805013236E-4
7.308,6.422911853342674E-4
7.312,6.401515770139189E-4
7.316,6.398630904988158E-4
7.32,6.396226850695631E-4
7.324,6.407525905870505E-4
7.328,6.38060049779421E-4
7.332,6.376513605496916E-4
7.336,6.364252928605031E-4
7.34,6.36329130688802E-4
7.344,6.399352121275915E-4
7.348,6.397188472412642E-4
7.352,6.370984280624105E-4
7.356,6.365454955751294E-4
7.36,6.398630904988158E-4
7.364,6.389255093247305E-4
7.368,6.409449149304526E-4
7.372,6.396707661554137E-4
7.376,6.395746039837126E-4
7.38,6.390216714964315E-4
7.384,6.384446984662252E-4
7.388,6.398150094129653E-4
7.392,6.40896833844602E-4
7.396,6.414497663318831E-4
7.4,6.403679419002463E-4
7.404,6.407285500441253E-4
7.408,6.409449149304526E-4
7.412,6.400554148422179E-4
7.416,6.38516820095001E-4
7.42,6.3979096887004E-4
7.424,6.417863339328369E-4
7.428,6.437576584527086E-4
7.432,6.433008881371286E-4
7.436,6.420026988191642E-4
7.44,6.430364421649505E-4
7.444,6.393822796403106E-4
7.448,6.403439013573211E-4
7.452,6.420988609908652E-4
7.456,6.39887131041741E-4
7.46,6.386129822667021E-4
7.464,6.416661312182105E-4
7.468,6.404400635290221E-4
7.472,6.38781266067179E-4
7.476,6.375311578350652E-4
7.48,6.407045095012E-4
7.484,6.408487527587516E-4
7.488,6.410170365592284E-4
7.492,6.430604827078758E-4
7.496,6.424594691347442E-4
7.5,6.386851038954779E-4
7.5040000000000004,6.395746039837126E-4
7.508,6.415940095894347E-4
7.5120000000000005,6.419786582762389E-4
7.516,6.434691719376053E-4
7.5200000000000005,6.437576584527086E-4
7.524,6.409929960163031E-4
7.5280000000000005,6.3933419855446E-4
7.532,6.404160229860968E-4
7.5360000000000005,6.436374557380822E-4
7.54,6.428681583644737E-4
7.5440000000000005,6.43974023339036E-4
7.548,6.431085637937263E-4
7.5520000000000005,6.436855368239328E-4
7.556,6.455847397150285E-4
7.5600000000000005,6.43709577366858E-4
7.564,6.410170365592284E-4
7.5680000000000005,6.420507799050147E-4
7.572,6.447673612555696E-4
7.5760000000000005,6.470271722905444E-4
7.58,6.466906046895907E-4
7.5840000000000005,6.446952396267938E-4
7.588,6.412334014455558E-4
7.5920000000000005,6.409929960163031E-4
7.596,6.423873475059685E-4
7.6000000000000005,6.425075502205947E-4
7.604,6.427960367356979E-4
7.6080000000000005,6.403679419002463E-4
7.612,6.412093609026305E-4
7.6160000000000005,6.404160229860968E-4
7.62,6.386129822667021E-4
7.6240000000000006,6.369782253477842E-4
7.628,6.383485362945242E-4
7.632000000000001,6.385889417237768E-4
7.636,6.363050901458769E-4
7.640000000000001,6.401034959280684E-4
7.644,6.435412935663811E-4
7.648000000000001,6.434691719376053E-4
7.652,6.43156644879577E-4
7.656000000000001,6.438778611673349E-4
7.66,6.445029152833918E-4
7.664000000000001,6.454645370004023E-4
7.668,6.456328208008791E-4
7.672000000000001,6.442384693112138E-4
7.676,6.438057395385591E-4
7.68,6.406323878724242E-4
7.684,6.412093609026305E-4
7.688,6.415940095894347E-4
7.692,6.435653341093064E-4
7.696,6.443105909399896E-4
7.7,6.447192801697191E-4
7.704,6.426998745639968E-4
7.708,6.427960367356979E-4
7.712,6.443827125687654E-4
7.716,6.43156644879577E-4
7.72,6.409449149304526E-4
7.724,6.461857532881601E-4
7.728,6.494312265830708E-4
7.732,6.515708349034193E-4
7.736,6.547201460266287E-4
7.74,6.52195889019476E-4
7.744,6.448154423414201E-4
7.748,6.25006034971003E-4
7.752,6.038022761109203E-4
7.756,5.85699747288197E-4
7.76,5.72477448679302E-4
7.764,5.67092367064043E-4
7.768,5.80146381872461E-4
7.772,5.995471000131488E-4
7.776,6.161110340886554E-4
7.78,6.362329685171011E-4
7.784,6.517631592468213E-4
7.788,6.571242003191551E-4
7.792,6.571242003191551E-4
7.796,6.534459972515898E-4
7.8,6.531334701935614E-4
7.804,6.527488215067571E-4
7.808,6.529411458501593E-4
7.812,6.507774969868855E-4
7.816,6.493110238684445E-4
7.82,6.474599020631991E-4
7.824,6.473877804344233E-4
7.828,6.486619292094622E-4
7.832,6.505611321005582E-4
7.836,6.485176859519107E-4
7.84,6.459453478589075E-4
7.844,6.466425236037401E-4
7.848,6.473396993485728E-4
7.852,6.483013210655833E-4
7.856,6.489263751816402E-4
7.86,6.473156588056475E-4
7.864,6.476041453207506E-4
7.868,6.478445507500033E-4
7.872,6.47267577719797E-4
7.876,6.462819154598612E-4
7.88,6.462578749169359E-4
7.884,6.474118209773486E-4
7.888,6.473156588056475E-4
7.892,6.458251451442812E-4
7.896,6.480368750934055E-4
7.9,6.48277280522658E-4
7.904,6.480849561792559E-4
7.908,6.481570778080317E-4
7.912,6.485657670377613E-4
7.916,6.514506321887929E-4
7.92,6.509698213302877E-4
7.924,6.521718484765508E-4
7.928,6.533498350798887E-4
7.932,6.535661999662161E-4
7.936,6.548884298271056E-4
7.94,6.544076189686003E-4
7.944,6.551769163422088E-4
7.948,6.559221731728919E-4
7.952,6.559221731728919E-4
7.956,6.552009568851339E-4
7.96,6.551528757992835E-4
7.964,6.567155110894255E-4
7.968,6.54383578425675E-4
7.972,6.536623621379172E-4
7.976,6.57484808463034E-4
7.98,6.592638086395034E-4
7.984,6.576530922635109E-4
7.988,6.579896598644645E-4
7.992,6.58398349094194E-4
7.996,6.572444030337813E-4
8.0,6.552009568851339E-4
8.004,6.51642956532195E-4
8.008000000000001,6.516910376180455E-4
8.012,6.511621456736897E-4
8.016,6.530132674789351E-4
8.02,6.535181188803656E-4
8.024000000000001,6.53373875622814E-4
8.028,6.499841590703519E-4
8.032,6.503688077571561E-4
8.036,6.497437536410992E-4
8.040000000000001,6.512823483883161E-4
8.044,6.500081996132772E-4
8.048,6.483974832372844E-4
8.052,6.480128345504802E-4
8.056000000000001,6.489263751816402E-4
8.06,6.488782940957896E-4
8.064,6.482291994368075E-4
8.068,6.487821319240886E-4
8.072000000000001,6.490706184391917E-4
8.076,6.454885775433276E-4
8.08,6.441903882253633E-4
8.084,6.465223208891139E-4
8.088000000000001,6.473877804344233E-4
8.092,6.479407129217044E-4
8.096,6.470752533763948E-4
8.1,6.47724348035377E-4
8.104000000000001,6.472435371768717E-4
8.108,6.493110238684445E-4
8.112,6.484455643231349E-4
8.116,6.476281858636759E-4
8.120000000000001,6.470752533763948E-4
8.124,6.443827125687654E-4
8.128,6.45897266773057E-4
8.132,6.47820510207078E-4
8.136000000000001,6.474358615202739E-4
8.14,6.471233344622454E-4
8.144,6.460655505735338E-4
8.148,6.443827125687654E-4
8.152000000000001,6.474358615202739E-4
8.156,6.473877804344233E-4
8.16,6.485898075806864E-4
8.164,6.501284023279034E-4
8.168000000000001,6.48998496810416E-4
8.172,6.488542535528644E-4
8.176,6.481089967221812E-4
8.18,6.487100102953128E-4
8.184000000000001,6.512583078453908E-4
8.188,6.522439701053266E-4
8.192,6.520516457619245E-4
8.196,6.508015375298108E-4
8.2,6.488542535528644E-4
8.204,6.507534564439603E-4
8.208,6.515227538175687E-4
8.212,6.503928483000813E-4
8.216,6.518112403326719E-4
8.22,6.534940783374403E-4
8.224,6.523882133628782E-4
8.228,6.495754698406224E-4
8.232,6.479887940075549E-4
8.236,6.484696048660602E-4
8.24,6.489263751816402E-4
8.244,6.489263751816402E-4
8.248,6.445269558263169E-4
8.252,6.452000910282243E-4
8.256,6.48277280522658E-4
8.26,6.48541726494836E-4
8.264,6.480368750934055E-4
8.268,6.456568613438043E-4
8.272,6.449116045131212E-4
8.276,6.459453478589075E-4
8.28,6.453202937428507E-4
8.284,6.471473750051706E-4
8.288,6.435893746522317E-4
8.292,6.402236986426947E-4
8.296,6.443827125687654E-4
8.3,6.460655505735338E-4
8.304,6.453202937428507E-4
8.308,6.44623117998018E-4
8.312,6.471233344622454E-4
8.316,6.479166723787791E-4
8.32,6.461376722023096E-4
8.324,6.433970503088296E-4
8.328,6.422431042484169E-4
8.332,6.428200772786232E-4
8.336,6.414497663318831E-4
8.34,6.433249286800538E-4
8.344,6.462338343740107E-4
8.348,6.477003074924517E-4
8.352,6.453924153716265E-4
8.356,6.445029152833918E-4
8.36,6.439499827961107E-4
8.364,6.416901717611358E-4
8.368,6.410651176450789E-4
8.372,6.429883610791E-4
8.376,6.443827125687654E-4
8.38,6.435172530234559E-4
8.384,6.436614962810075E-4
8.388,6.465944425178896E-4
8.392,6.455126180862527E-4
8.396,6.459213073159823E-4
8.4,6.462578749169359E-4
8.404,6.44623117998018E-4
8.408,6.445509963692422E-4
8.412,6.429402799932494E-4
8.416,6.4161805013236E-4
8.42,6.410651176450789E-4
8.424,6.396467256124884E-4
8.428,6.419305771903884E-4
8.432,6.421950231625663E-4
8.436,6.423873475059685E-4
8.44,6.437816989956338E-4
8.444,6.422671447913421E-4
8.448,6.414978474177336E-4
8.452,6.427479556498474E-4
8.456,6.420507799050147E-4
8.46,6.42170982619641E-4
8.464,6.441423071395127E-4
8.468,6.460415100306085E-4
8.472,6.461136316593843E-4
8.476,6.475560642349001E-4
8.48,6.501284023279034E-4
8.484,6.524843755345793E-4
8.488,6.507534564439603E-4
8.492,6.370263064336347E-4
8.496,6.136348581673533E-4
8.5,5.910607883605307E-4
8.504,5.767566653199988E-4
8.508000000000001,5.699772322150746E-4
8.512,5.758190841459136E-4
8.516,5.947870725139466E-4
8.52,6.108221146450974E-4
8.524000000000001,6.306555625584399E-4
8.528,6.480609156363306E-4
8.532,6.571722814050056E-4
8.536,6.563549029455466E-4
8.540000000000001,6.531575107364867E-4
8.544,6.469310101188433E-4
8.548,6.47724348035377E-4
8.552,6.505130510147077E-4
8.556000000000001,6.506092131864088E-4
8.56,6.488542535528644E-4
8.564,6.461617127452349E-4
8.568,6.464742398032633E-4
8.572000000000001,6.474839426061244E-4
8.576,6.469310101188433E-4
8.58,6.49815875269875E-4
8.584,6.512342673024655E-4
8.588000000000001,6.514025511029424E-4
8.592,6.473877804344233E-4
8.596,6.453202937428507E-4
8.6,6.453683748287012E-4
8.604000000000001,6.433970503088296E-4
8.608,6.433970503088296E-4
8.612,6.433008881371286E-4
8.616,6.464742398032633E-4
8.620000000000001,6.464261587174128E-4
8.624,6.449116045131212E-4
8.628,6.450318072277475E-4
8.632,6.487821319240886E-4
8.636000000000001,6.464982803461886E-4
8.64,6.4253159076352E-4
8.644,6.420026988191642E-4
8.648,6.453683748287012E-4
8.652000000000001,6.472435371768717E-4
8.656,6.49623550926473E-4
8.66,6.527247809638318E-4
8.664,6.530132674789351E-4
8.668000000000001,6.515708349034193E-4
8.672,6.501284023279034E-4
8.676,6.536383215949919E-4
8.68,6.547682271124792E-4
8.684000000000001,6.55753889372415E-4
8.688,6.546720649407781E-4
8.692,6.548643892841803E-4
8.696,6.552009568851339E-4
8.700000000000001,6.54287416253974E-4
8.704,6.543114567968992E-4
8.708,6.544797405973761E-4
8.712,6.518593214185224E-4
8.716,6.499120374415761E-4
8.72,6.495995103835477E-4
8.724,6.472194966339464E-4
8.728,6.465944425178896E-4
8.732,6.46810807404217E-4
8.736,6.470992939193201E-4
8.74,6.459934289447581E-4
8.744,6.448394828843454E-4
8.748,6.47003131747619E-4
8.752,6.46354037088637E-4
8.756,6.445509963692422E-4
8.76,6.453202937428507E-4
8.764,6.468829290329928E-4
8.768,6.465223208891139E-4
8.772,6.453924153716265E-4
8.776,6.453924153716265E-4
8.78,6.453924153716265E-4
8.784,6.450077666848222E-4
8.788,6.441423071395127E-4
8.792,6.445029152833918E-4
8.796,6.395505634407873E-4
8.8,6.381321714081968E-4
8.804,6.416661312182105E-4
8.808,6.422190637054916E-4
8.812,6.410651176450789E-4
8.816,6.43156644879577E-4
8.82,6.446711990838685E-4
8.824,6.429162394503243E-4
8.828,6.443346314829149E-4
8.832,6.417863339328369E-4
8.836,6.42170982619641E-4
8.84,6.43709577366858E-4
8.844,6.410651176450789E-4
8.848,6.430124016220252E-4
8.852,6.427479556498474E-4
8.856,6.418584555616127E-4
8.86,6.431326043366517E-4
8.864,6.438057395385591E-4
8.868,6.43156644879577E-4
8.872,6.437336179097833E-4
8.876,6.462578749169359E-4
8.88,6.457770640584307E-4
8.884,6.396467256124884E-4
8.888,6.385889417237768E-4
8.892,6.38973590410581E-4
8.896,6.403919824431715E-4
8.9,6.405843067865737E-4
8.904,6.391178336681326E-4
8.908,6.389255093247305E-4
8.912,6.405843067865737E-4
8.916,6.412574419884811E-4
8.92,6.415699690465094E-4
8.924,6.429402799932494E-4
8.928,6.435412935663811E-4
8.932,6.443105909399896E-4
8.936,6.44623117998018E-4
8.94,6.43709577366858E-4
8.944,6.422431042484169E-4
8.948,6.401275364709937E-4
8.952,6.398150094129653E-4
8.956,6.401996580997695E-4
8.96,6.420267393620894E-4
8.964,6.461617127452349E-4
8.968,6.432768475942033E-4
8.972,6.452722126570001E-4
8.976,6.463780776315623E-4
8.98,6.451039288565233E-4
8.984,6.419546177333136E-4
8.988,6.419065366474632E-4
8.992,6.401515770139189E-4
8.996,6.38973590410581E-4
9.0,6.3933419855446E-4
9.004,6.386851038954779E-4
9.008000000000001,6.377475227213926E-4
9.012,6.377234821784674E-4
9.016,6.37867725436019E-4
9.02,6.375311578350652E-4
9.024000000000001,6.36329130688802E-4
9.028,6.369061037190084E-4
9.032,6.379879281506452E-4
9.036,6.395505634407873E-4
9.040000000000001,6.399352121275915E-4
9.044,6.391418742110579E-4
9.048,6.408727933016769E-4
9.052,6.417382528469863E-4
9.056000000000001,6.419786582762389E-4
9.06,6.419786582762389E-4
9.064,6.405602662436484E-4
9.068,6.408727933016769E-4
9.072000000000001,6.399592526705168E-4
9.076,6.385408606379263E-4
9.08,6.3933419855446E-4
9.084,6.403439013573211E-4
9.088000000000001,6.399832932134421E-4
9.092,6.401275364709937E-4
9.096,6.395986445266379E-4
9.1,6.388533876959548E-4
9.104000000000001,6.386129822667021E-4
9.108,6.378917659789441E-4
9.112,6.332519411943684E-4
9.116,6.323624411061336E-4
9.120000000000001,6.339731574821263E-4
9.124,6.370743875194852E-4
9.128,6.365454955751294E-4
9.132,6.377234821784674E-4
9.136000000000001,6.371945902341116E-4
9.14,6.355598333151936E-4
9.144,6.342135629113789E-4
9.148,6.338529547674999E-4
9.152000000000001,6.351030629996137E-4
9.156,6.339250763962757E-4
9.16,6.367618604614568E-4
9.164,6.361608468883252E-4
9.168000000000001,6.362329685171011E-4
9.172,6.369061037190084E-4
9.176,6.339731574821263E-4
9.18,6.31304657217422E-4
9.184000000000001,6.32578805992461E-4
9.188,6.343818467118557E-4
9.192,6.367378199185316E-4
9.196,6.36689738832681E-4
9.200000000000001,6.34862657570361E-4
9.204,6.341414412826031E-4
9.208,6.358483198302969E-4
9.212,6.366656982897558E-4
9.216000000000001,6.346462926840337E-4
9.22,6.34862657570361E-4
9.224,6.362089279741758E-4
9.228,6.343818467118557E-4
9.232,6.371705496911863E-4
9.236,6.371705496911863E-4
9.24,6.364733739463536E-4
9.244,6.370984280624105E-4
9.248,6.391418742110579E-4
9.252,6.412334014455558E-4
9.256,6.441423071395127E-4
9.26,6.437336179097833E-4
9.264,6.445269558263169E-4
9.268,6.43156644879577E-4
9.272,6.316893059042263E-4
9.276,6.033695463382656E-4
9.28,5.774778816077568E-4
9.284,5.610101097039512E-4
9.288,5.517064195918743E-4
9.292,5.591109068128554E-4
9.296,5.7959344938518E-4
9.3,5.963016267182382E-4
9.304,6.20270048014726E-4
9.308,6.409449149304526E-4
9.312,6.461136316593843E-4
9.316,6.461617127452349E-4
9.32,6.452481721140749E-4
9.324,6.432768475942033E-4
9.328,6.405362257007231E-4
9.332,6.395265228978621E-4
9.336,6.39430360726161E-4
9.34,6.417142123040611E-4
9.344,6.412093609026305E-4
9.348,6.3933419855446E-4
9.352,6.375311578350652E-4
9.356,6.375311578350652E-4
9.36,6.384206579232999E-4
9.364,6.376273200067663E-4
9.368,6.38060049779421E-4
9.372,6.39887131041741E-4
9.376,6.402958202714705E-4
9.38,6.383725768374494E-4
9.384,6.374830767492147E-4
9.388,6.377956038072432E-4
9.392,6.381081308652716E-4
9.396,6.368339820902327E-4
9.4,6.367378199185316E-4
9.404,6.396467256124884E-4
9.408,6.42892198907399E-4
9.412,6.433008881371286E-4
9.416,6.43252807051278E-4
9.42,6.4161805013236E-4
9.424,6.423152258771927E-4
9.428,6.431085637937263E-4
9.432,6.40896833844602E-4
9.436,6.423392664201179E-4
9.44,6.452722126570001E-4
9.444,6.447192801697191E-4
9.448,6.447192801697191E-4
9.452,6.47820510207078E-4
9.456,6.460174694876832E-4
9.46,6.436374557380822E-4
9.464,6.43156644879577E-4
9.468,6.418584555616127E-4
9.472,6.420026988191642E-4
9.476,6.427960367356979E-4
9.48,6.433730097659044E-4
9.484,6.452000910282243E-4
9.488,6.449116045131212E-4
9.492,6.433008881371286E-4
9.496,6.425796718493705E-4
9.5,6.415940095894347E-4
9.504,6.413536041601821E-4
9.508000000000001,6.4207482044794E-4
9.512,6.438057395385591E-4
9.516,6.422190637054916E-4
9.52,6.396226850695631E-4
9.524000000000001,6.399592526705168E-4
9.528,6.399592526705168E-4
9.532,6.410170365592284E-4
9.536,6.410651176450789E-4
9.540000000000001,6.402236986426947E-4
9.544,6.386129822667021E-4
9.548,6.371224686053358E-4
9.552,6.353915495147168E-4
9.556000000000001,6.350069008279126E-4
9.56,6.357521576585958E-4
9.564,6.377956038072432E-4
9.568,6.387572255242537E-4
9.572000000000001,6.388053066101042E-4
9.576,6.365454955751294E-4
9.58,6.341654818255284E-4
9.584,6.336846709670231E-4
9.588000000000001,6.350549819137631E-4
9.592,6.346462926840337E-4
9.596,6.344539683406315E-4
9.6,6.323864816490589E-4
9.604000000000001,6.298622246419061E-4
9.608,6.317133464471516E-4
9.612,6.340212385679768E-4
9.616,6.345741710552579E-4
9.620000000000001,6.345020494264821E-4
9.624,6.341174007396779E-4
9.628,6.3430972508308E-4
9.632,6.320018329622547E-4
9.636000000000001,6.314008193891231E-4
9.64,6.322181978485821E-4
9.644,6.331076979368168E-4
9.648,6.326509276212368E-4
9.652000000000001,6.331557790226673E-4
9.656,6.319537518764041E-4
9.66,6.312806166744967E-4
9.664,6.332519411943684E-4
9.668000000000001,6.362810496029516E-4
9.672,6.367378199185316E-4
9.676,6.346222521411084E-4
9.68,6.332038601085179E-4
9.684000000000001,6.318575897047031E-4
9.688,6.331798195655926E-4
9.692,6.346222521411084E-4
9.696,6.345501305123326E-4
9.700000000000001,6.370743875194852E-4
9.704,6.396467256124884E-4
9.708,6.386610633525526E-4
9.712,6.352953873430158E-4
9.716000000000001,6.350309413708379E-4
9.72,6.361368063454E-4
9.724,6.348386170274357E-4
9.728,6.343337656260052E-4
9.732,6.368580226331578E-4
9.736,6.356559954868947E-4
9.74,6.3476649539866E-4
9.744,6.356559954868947E-4
9.748,6.354877116864178E-4
9.752,6.342616439972295E-4
9.756,6.343578061689304E-4
9.76,6.34862657570361E-4
9.764,6.33492346623621E-4
9.768,6.328192114217136E-4
9.772,6.333481033660694E-4
9.776,6.330836573938915E-4
9.78,6.315691031896E-4
9.784,6.33300022280219E-4
9.788,6.35872360373222E-4
9.792,6.348145764845104E-4
9.796,6.352953873430158E-4
9.8,6.363772117746526E-4
9.804,6.348866981132862E-4
9.808,6.35415590057642E-4
9.812,6.363050901458769E-4
9.816,6.328913330504894E-4
9.82,6.323384005632083E-4
9.824,6.342135629113789E-4
9.828,6.342135629113789E-4
9.832,6.333961844519199E-4
9.836,6.331317384797421E-4
9.84,6.310161707023189E-4
9.844,6.291650488970735E-4
9.848,6.317373869900768E-4
9.852,6.320018329622547E-4
9.856,6.342135629113789E-4
9.86,6.332759817372937E-4
9.864,6.320499140481052E-4
9.868,6.320739545910305E-4
9.872,6.344539683406315E-4
9.876,6.33949116939201E-4
9.88,6.307998058159914E-4
9.884,6.301026300711588E-4
9.888,6.335404277094715E-4
9.892,6.323624411061336E-4
9.896,6.322903194773579E-4
9.9,6.33300022280219E-4
9.904,6.345741710552579E-4
9.908,6.350549819137631E-4
9.912,6.352713468000905E-4
9.916,6.360887252595494E-4
9.92,6.381081308652716E-4
9.924,6.370263064336347E-4
9.928,6.367378199185316E-4
9.932,6.359685225449231E-4
9.936,6.376273200067663E-4
9.94,6.397188472412642E-4
9.944,6.396226850695631E-4
9.948,6.391659147539831E-4
9.952,6.39430360726161E-4
9.956,6.371945902341116E-4
9.96,6.370263064336347E-4
9.964,6.340693196538273E-4
9.968,6.321460762198063E-4
9.972,6.333721439089947E-4
9.976,6.350549819137631E-4
9.98,6.3933419855446E-4
9.984,6.390937931252073E-4
9.988,6.396467256124884E-4
9.992,6.390697525822821E-4
9.996,6.392861174686095E-4
10.0,6.382283335798979E-4
10.004,6.382042930369726E-4
10.008000000000001,6.359444820019978E-4
10.012,6.356559954868947E-4
10.016,6.367859010043821E-4
10.02,6.393822796403106E-4
10.024000000000001,6.424835096776694E-4
10.028,6.398150094129653E-4
10.032,6.379158065218694E-4
10.036,6.365454955751294E-4
10.040000000000001,6.351030629996137E-4
10.044,6.394544012690863E-4
10.048,6.421950231625663E-4
10.052,6.411853203597053E-4
10.056000000000001,6.392620769256842E-4
10.06,6.384206579232999E-4
10.064,6.401034959280684E-4
10.068,6.392139958398337E-4
10.072000000000001,6.376994416355421E-4
10.076,6.366176172039052E-4
10.08,6.376273200067663E-4
10.084,6.385408606379263E-4
10.088000000000001,6.379158065218694E-4
10.092,6.407285500441253E-4
10.096,6.395746039837126E-4
10.1,6.390937931252073E-4
10.104000000000001,6.418584555616127E-4
10.108,6.428200772786232E-4
10.112,6.460655505735338E-4
10.116,6.483974832372844E-4
10.120000000000001,6.455606991721033E-4
10.124,6.371705496911863E-4
10.128,6.168803314622639E-4
10.132,5.899789639288939E-4
10.136000000000001,5.720687594495725E-4
10.14,5.587262581260512E-4
10.144,5.591830284416312E-4
10.148,5.758912057746894E-4
10.152000000000001,5.918300857341392E-4
10.156,6.107259524733963E-4
10.16,6.374109551204389E-4
10.164,6.52652659335056E-4
10.168000000000001,6.531815512794118E-4
10.172,6.53470037794515E-4
10.176,6.494793076689214E-4
10.18,6.44623117998018E-4
10.184000000000001,6.46354037088637E-4
10.188,6.484696048660602E-4
10.192,6.45440496457477E-4
10.196,6.457770640584307E-4
10.200000000000001,6.477483885783022E-4
10.204,6.479166723787791E-4
10.208,6.458251451442812E-4
10.212,6.454645370004023E-4
10.216000000000001,6.45079888313598E-4
10.22,6.459934289447581E-4
10.224,6.469550506617686E-4
10.228,6.461617127452349E-4
10.232000000000001,6.452722126570001E-4
10.236,6.437336179097833E-4
10.24,6.453202937428507E-4
10.244,6.461857532881601E-4
10.248,6.459453478589075E-4
10.252,6.453924153716265E-4
10.256,6.431806854225022E-4
10.26,6.427479556498474E-4
10.264,6.413295636172569E-4
10.268,6.437336179097833E-4
10.272,6.439499827961107E-4
10.276,6.451520099423738E-4
10.28,6.468348479471423E-4
10.284,6.470752533763948E-4
10.288,6.452962531999254E-4
10.292,6.434210908517549E-4
10.296,6.443105909399896E-4
10.3,6.467386857754412E-4
10.304,6.475079831490497E-4
10.308,6.491186995250422E-4
10.312,6.507774969868855E-4
10.316,6.478926318358539E-4
10.32,6.488782940957896E-4
10.324,6.49815875269875E-4
10.328,6.499360779845014E-4
10.332,6.49094658982117E-4
10.336,6.479407129217044E-4
10.34,6.47267577719797E-4
10.344,6.458732262301317E-4
10.348,6.459213073159823E-4
10.352,6.484696048660602E-4
10.356,6.484696048660602E-4
10.36,6.504409293859319E-4
10.364,6.489504157245654E-4
10.368,6.484455643231349E-4
10.372,6.474599020631991E-4
10.376,6.421950231625663E-4
10.38,6.403439013573211E-4
10.384,6.413776447031074E-4
10.388,6.401034959280684E-4
10.392,6.399111715846663E-4
10.396,6.399352121275915E-4
10.4,6.390697525822821E-4
10.404,6.399352121275915E-4
10.408,6.409449149304526E-4
10.412,6.424594691347442E-4
10.416,6.436614962810075E-4
10.42,6.443827125687654E-4
10.424,6.439980638819611E-4
10.428,6.424113880488936E-4
10.432,6.399832932134421E-4
10.436,6.398630904988158E-4
10.44,6.423152258771927E-4
10.444,6.427479556498474E-4
10.448,6.429643205361747E-4
10.452,6.409929960163031E-4
10.456,6.423633069630432E-4
10.46,6.428681583644737E-4
10.464,6.422190637054916E-4
10.468,6.415459285035842E-4
10.472,6.389976309535063E-4
10.476,6.359204414590726E-4
10.48,6.381802524940474E-4
10.484,6.395024823549368E-4
10.488,6.386851038954779E-4
10.492,6.394544012690863E-4
10.496,6.410651176450789E-4
10.5,6.403919824431715E-4
10.504,6.383725768374494E-4
10.508000000000001,6.36689738832681E-4
10.512,6.362089279741758E-4
10.516,6.383485362945242E-4
10.52,6.369782253477842E-4
10.524000000000001,6.387331849813284E-4
10.528,6.4207482044794E-4
10.532,6.414257257889578E-4
10.536,6.401275364709937E-4
10.540000000000001,6.39430360726161E-4
10.544,6.394063201832357E-4
10.548,6.381802524940474E-4
10.552,6.395265228978621E-4
10.556000000000001,6.38781266067179E-4
10.56,6.391418742110579E-4
10.564,6.427479556498474E-4
10.568,6.406323878724242E-4
10.572000000000001,6.370743875194852E-4
10.576,6.374109551204389E-4
10.58,6.387091444384032E-4
10.584,6.401996580997695E-4
10.588000000000001,6.422911853342674E-4
10.592,6.412334014455558E-4
10.596,6.391178336681326E-4
10.6,6.354877116864178E-4
10.604000000000001,6.355357927722684E-4
10.608,6.390937931252073E-4
10.612,6.392620769256842E-4
10.616,6.369782253477842E-4
10.620000000000001,6.355117522293431E-4
10.624,6.361848874312505E-4
10.628,6.385889417237768E-4
10.632,6.369782253477842E-4
10.636000000000001,6.372186307770368E-4
10.64,6.381802524940474E-4
10.644,6.37146509148261E-4
10.648,6.360887252595494E-4
10.652000000000001,6.374349956633642E-4
10.656,6.397669283271147E-4
10.66,6.383004552086737E-4
10.664,6.369301442619336E-4
10.668000000000001,6.388293471530295E-4
10.672,6.396948066983389E-4
10.676,6.399111715846663E-4
10.68,6.365695361180547E-4
10.684000000000001,6.348386170274357E-4
10.688,6.34862657570361E-4
10.692,6.332519411943684E-4
10.696,6.328432519646389E-4
10.700000000000001,6.341654818255284E-4
10.704,6.33949116939201E-4
10.708,6.344780088835568E-4
10.712,6.351751846283895E-4
10.716000000000001,6.352713468000905E-4
10.72,6.328672925075641E-4
10.724,6.297901030131303E-4
10.728,6.314969815608242E-4
10.732000000000001,6.31665265361301E-4
10.736,6.360406441736989E-4
10.74,6.364012523175778E-4
10.744,6.366176172039052E-4
10.748000000000001,6.355357927722684E-4
10.752,6.345020494264821E-4
10.756,6.33492346623621E-4
10.76,6.341414412826031E-4
10.764,6.350549819137631E-4
10.768,6.351030629996137E-4
10.772,6.362810496029516E-4
10.776,6.392139958398337E-4
10.78,6.401515770139189E-4
10.784,6.402717797285453E-4
10.788,6.373388334916632E-4
10.792,6.360166036307736E-4
10.796,6.333240628231441E-4
10.8,6.314489004749736E-4
10.804,6.327951708787883E-4
10.808,6.322181978485821E-4
10.812,6.337567925957989E-4
10.816,6.356079144010442E-4
10.82,6.351030629996137E-4
10.824,6.349828602849873E-4
10.828,6.346222521411084E-4
10.832,6.359925630878484E-4
10.836,6.384446984662252E-4
10.84,6.385408606379263E-4
10.844,6.38324495751599E-4
10.848,6.3887742823888E-4
10.852,6.3933419855446E-4
10.856,6.394063201832357E-4
10.86,6.382523741228232E-4
10.864,6.370984280624105E-4
10.868,6.349828602849873E-4
10.872,6.331317384797421E-4
10.876,6.346222521411084E-4
10.88,6.342616439972295E-4
10.884,6.334683060806957E-4
10.888,6.355598333151936E-4
10.892,6.357281171156705E-4
10.896,6.359685225449231E-4
10.9,6.36329130688802E-4
10.904,6.342135629113789E-4
10.908,6.332038601085179E-4
10.912,6.317614275330021E-4
10.916,6.300785895282335E-4
10.92,6.341654818255284E-4
10.924,6.374590362062894E-4
10.928,6.38781266067179E-4
10.932,6.402236986426947E-4
10.936,6.391899552969084E-4
10.94,6.386129822667021E-4
10.944,6.402717797285453E-4
10.948,6.419546177333136E-4
10.952,6.392139958398337E-4
10.956,6.364974144892789E-4
10.96,6.376273200067663E-4
10.964,6.392620769256842E-4
10.968,6.376513605496916E-4
10.972,6.394544012690863E-4
10.976,6.423152258771927E-4
10.98,6.432047259654275E-4
10.984,6.437816989956338E-4
10.988,6.434932124805306E-4
10.992,6.418584555616127E-4
10.996,6.436614962810075E-4
11.0,6.40896833844602E-4
11.004,6.390216714964315E-4
11.008000000000001,6.403679419002463E-4
11.012,6.430364421649505E-4
11.016,6.435893746522317E-4
11.02,6.436614962810075E-4
11.024000000000001,6.420267393620894E-4
11.028,6.344780088835568E-4
11.032,6.185150883811818E-4
11.036,5.962295050894624E-4
11.040000000000001,5.751940300298568E-4
11.044,5.600004069010901E-4
11.048,5.597600014718375E-4
11.052,5.761556517468673E-4
11.056000000000001,5.925993831077475E-4
11.06,6.073362359209343E-4
11.064,6.320979951339558E-4
11.068,6.464021181744875E-4
11.072000000000001,6.497918347269497E-4
11.076,6.508496186156613E-4
11.08,6.464742398032633E-4
11.084,6.451520099423738E-4
11.088000000000001,6.448394828843454E-4
11.092,6.442384693112138E-4
11.096,6.435412935663811E-4
11.1,6.431326043366517E-4
11.104000000000001,6.40896833844602E-4
11.108,6.430364421649505E-4
11.112,6.462097938310854E-4
11.116,6.440701855107369E-4
11.120000000000001,6.417382528469863E-4
11.124,6.430364421649505E-4
11.128,6.43974023339036E-4
11.132,6.43252807051278E-4
11.136000000000001,6.427960367356979E-4
11.14,6.453924153716265E-4
11.144,6.441423071395127E-4
11.148,6.44623117998018E-4
11.152000000000001,6.428681583644737E-4
11.156,6.439499827961107E-4
11.16,6.432768475942033E-4
11.164,6.429643205361747E-4
11.168000000000001,6.425796718493705E-4
11.172,6.412334014455558E-4
11.176,6.411853203597053E-4
11.18,6.416661312182105E-4
11.184000000000001,6.415940095894347E-4
11.188,6.407766311299758E-4
11.192,6.413055230743316E-4
11.196,6.436374557380822E-4
11.200000000000001,6.451520099423738E-4
11.204,6.482051588938822E-4
11.208,6.482291994368075E-4
11.212,6.491186995250422E-4
11.216000000000001,6.478445507500033E-4
11.22,6.452481721140749E-4
11.224,6.47820510207078E-4
11.228,6.484696048660602E-4
11.232000000000001,6.464982803461886E-4
11.236,6.479166723787791E-4
11.24,6.468588884900675E-4
11.244,6.475079831490497E-4
11.248000000000001,6.470752533763948E-4
11.252,6.450558477706727E-4
11.256,6.464742398032633E-4
11.26,6.467627263183665E-4
11.264,6.474358615202739E-4
11.268,6.461617127452349E-4
11.272,6.438297800814844E-4
11.276,6.44623117998018E-4
11.28,6.460895911164591E-4
11.284,6.442625098541391E-4
11.288,6.419305771903884E-4
11.292,6.429883610791E-4
11.296,6.427479556498474E-4
11.3,6.425075502205947E-4
11.304,6.403679419002463E-4
11.308,6.382523741228232E-4
11.312,6.379158065218694E-4
11.316,6.395746039837126E-4
11.32,6.4161805013236E-4
11.324,6.409689554733778E-4
11.328,6.397428877841895E-4
11.332,6.400313742992926E-4
11.336,6.381802524940474E-4
11.34,6.361368063454E-4
11.344,6.366176172039052E-4
11.348,6.345020494264821E-4
11.352,6.346703332269589E-4
11.356,6.342616439972295E-4
11.36,6.340693196538273E-4
11.364,6.345741710552579E-4
11.368,6.340452791109021E-4
11.372,6.323624411061336E-4
11.376,6.325066843636852E-4
11.38,6.319777924193294E-4
11.384,6.337567925957989E-4
11.388,6.342616439972295E-4
11.392,6.328913330504894E-4
11.396,6.320499140481052E-4
11.4,6.331076979368168E-4
11.404,6.34405887254781E-4
11.408,6.339731574821263E-4
11.412,6.357761982015211E-4
11.416,6.369061037190084E-4
11.42,6.361848874312505E-4
11.424,6.340452791109021E-4
11.428,6.334683060806957E-4
11.432,6.372907524058126E-4
11.436,6.388533876959548E-4
11.44,6.364252928605031E-4
11.444,6.390937931252073E-4
11.448,6.389495498676557E-4
11.452,6.374349956633642E-4
11.456,6.37867725436019E-4
11.46,6.377234821784674E-4
11.464,6.378196443501684E-4
11.468,6.3979096887004E-4
11.472,6.415459285035842E-4
11.476,6.389495498676557E-4
11.48,6.374590362062894E-4
11.484,6.369782253477842E-4
11.488,6.383725768374494E-4
11.492,6.404881446148726E-4
11.496,6.411131987309295E-4
11.5,6.403919824431715E-4
11.504,6.377475227213926E-4
11.508000000000001,6.373388334916632E-4
11.512,6.384206579232999E-4
11.516,6.389255093247305E-4
11.52,6.377715632643179E-4
11.524000000000001,6.35872360373222E-4
11.528,6.347184143128095E-4
11.532,6.352713468000905E-4
11.536,6.349347791991368E-4
11.540000000000001,6.340452791109021E-4
11.544,6.344539683406315E-4
11.548,6.360406441736989E-4
11.552,6.340933601967526E-4
11.556000000000001,6.351511440854642E-4
11.56,6.350309413708379E-4
11.564,6.333721439089947E-4
11.568,6.352953873430158E-4
11.572000000000001,6.3568003602982E-4
11.576,6.361368063454E-4
11.58,6.371705496911863E-4
11.584,6.367859010043821E-4
11.588000000000001,6.357040765727453E-4
11.592,6.374590362062894E-4
11.596,6.353434684288662E-4
11.6,6.308959679876926E-4
11.604000000000001,6.331798195655926E-4
11.608,6.345982115981831E-4
11.612,6.3476649539866E-4
11.616,6.320739545910305E-4
11.620000000000001,6.290929272682977E-4
11.624,6.285880758668672E-4
11.628,6.282515082659135E-4
11.632,6.30030508442383E-4
11.636000000000001,6.319777924193294E-4
11.64,6.328192114217136E-4
11.644,6.330115357651157E-4
11.648,6.327230492500126E-4
11.652000000000001,6.307998058159914E-4
11.656,6.293333326975503E-4
11.66,6.280351433795861E-4
11.664,6.318575897047031E-4
11.668000000000001,6.324345627349094E-4
11.672,6.282034271800629E-4
11.676,6.281313055512872E-4
11.68,6.303189949574861E-4
11.684000000000001,6.313286977603473E-4
11.688,6.307998058159914E-4
11.692,6.278909001220345E-4
11.696,6.29116967811223E-4
11.700000000000001,6.303670760433366E-4
11.704,6.291410083541483E-4
11.708,6.315691031896E-4
11.712,6.343818467118557E-4
11.716000000000001,6.335885087953221E-4
11.72,6.336846709670231E-4
11.724,6.332279006514432E-4
11.728,6.337808331387242E-4
11.732000000000001,6.323384005632083E-4
11.736,6.328913330504894E-4
11.74,6.324586032778347E-4
11.744,6.319056707905536E-4
11.748000000000001,6.307757652730661E-4
11.752,6.295256570409525E-4
11.756,6.331076979368168E-4
11.76,6.334202249948452E-4
11.764000000000001,6.318816302476283E-4
11.768,6.32122035676881E-4
11.772,6.310402112452442E-4
11.776,6.326990087070874E-4
11.78,6.328192114217136E-4
11.784,6.328192114217136E-4
11.788,6.301987922428599E-4
11.792,6.308959679876926E-4
11.796,6.349828602849873E-4
11.8,6.370743875194852E-4
11.804,6.368580226331578E-4
11.808,6.356559954868947E-4
11.812,6.355598333151936E-4
11.816,6.347424548557347E-4
11.82,6.326749681641621E-4
11.824,6.30222832785785E-4
11.828,6.281793866371378E-4
11.832,6.272898865489029E-4
11.836,6.281553460942125E-4
11.84,6.284197920663903E-4
11.844,6.285640353239419E-4
11.848,6.314729410178989E-4
11.852,6.324105221919841E-4
11.856,6.330115357651157E-4
11.86,6.326509276212368E-4
11.864,6.311604139598705E-4
11.868,6.297179813843545E-4
11.872,6.275302919781556E-4
11.876,6.266407918899209E-4
11.88,6.309921301593936E-4
11.884,6.336606304240979E-4
11.888,6.347184143128095E-4
11.892,6.340452791109021E-4
11.896,6.335885087953221E-4
11.9,6.329394141363399E-4
11.904,6.313286977603473E-4
11.908,6.314969815608242E-4
11.912,6.324105221919841E-4
11.916,6.332279006514432E-4
11.92,6.339731574821263E-4
11.924,6.335885087953221E-4
11.928,6.363772117746526E-4
11.932,6.368099415473074E-4
11.936,6.360166036307736E-4
11.94,6.345020494264821E-4
11.944,6.357761982015211E-4
11.948,6.344539683406315E-4
11.952,6.346943737698842E-4
11.956,6.369301442619336E-4
11.96,6.383485362945242E-4
11.964,6.396948066983389E-4
11.968,6.396948066983389E-4
11.972,6.418824961045379E-4
11.976,6.392861174686095E-4
11.98,6.354636711434926E-4
11.984,6.198373182420712E-4
11.988,5.937292886252349E-4
11.992,5.725976513939283E-4
11.996,5.55793311889169E-4
12.0,5.454318378883805E-4
12.004,5.558654335179447E-4
12.008000000000001,5.770691923780273E-4
12.012,5.923108965926444E-4
12.016,6.161350746315807E-4
12.02,6.377956038072432E-4
12.024000000000001,6.470271722905444E-4
12.028,6.474358615202739E-4
12.032,6.474599020631991E-4
12.036,6.429883610791E-4
12.040000000000001,6.417142123040611E-4
12.044,6.390216714964315E-4
12.048,6.376273200067663E-4
12.052,6.384687390091505E-4
12.056000000000001,6.411853203597053E-4
12.06,6.402958202714705E-4
12.064,6.403919824431715E-4
12.068,6.396226850695631E-4
12.072000000000001,6.391178336681326E-4
12.076,6.403198608143958E-4
12.08,6.396226850695631E-4
12.084,6.37867725436019E-4
12.088000000000001,6.38516820095001E-4
12.092,6.404400635290221E-4
12.096,6.396226850695631E-4
12.1,6.371705496911863E-4
12.104000000000001,6.375792389209158E-4
12.108,6.381081308652716E-4
12.112,6.387091444384032E-4
12.116,6.4024773918562E-4
12.120000000000001,6.402236986426947E-4
12.124,6.392139958398337E-4
12.128,6.372667118628874E-4
12.132,6.387091444384032E-4
12.136000000000001,6.388533876959548E-4
12.14,6.414738068748084E-4
12.144,6.420988609908652E-4
12.148,6.405843067865737E-4
12.152000000000001,6.416420906752853E-4
12.156,6.432768475942033E-4
12.16,6.433008881371286E-4
12.164,6.429402799932494E-4
12.168000000000001,6.426758340210716E-4
12.172,6.419546177333136E-4
12.176,6.428441178215485E-4
12.18,6.405121851577979E-4
12.184000000000001,6.408247122158263E-4
12.188,6.447433207126443E-4
12.192,6.465223208891139E-4
12.196,6.468829290329928E-4
12.200000000000001,6.443105909399896E-4
12.204,6.433970503088296E-4
12.208,6.443105909399896E-4
12.212,6.466184830608148E-4
12.216000000000001,6.444548341975412E-4
12.22,6.439980638819611E-4
12.224,6.435893746522317E-4
12.228,6.442384693112138E-4
12.232000000000001,6.43709577366858E-4
12.236,6.408247122158263E-4
12.24,6.417622933899116E-4
12.244,6.419546177333136E-4
12.248000000000001,6.433008881371286E-4
12.252,6.408727933016769E-4
12.256,6.383004552086737E-4
12.26,6.377234821784674E-4
12.264000000000001,6.386129822667021E-4
12.268,6.376994416355421E-4
12.272,6.381081308652716E-4
12.276,6.372667118628874E-4
12.280000000000001,6.360887252595494E-4
12.284,6.359685225449231E-4
12.288,6.356559954868947E-4
12.292,6.349347791991368E-4
12.296,6.382283335798979E-4
12.3,6.392139958398337E-4
12.304,6.353915495147168E-4
12.308,6.339250763962757E-4
12.312,6.354396306005673E-4
12.316,6.351271035425389E-4
12.32,6.336606304240979E-4
12.324,6.346222521411084E-4
12.328,6.38060049779421E-4
12.332,6.370984280624105E-4
12.336,6.362570090600263E-4
12.34,6.333721439089947E-4
12.344,6.333721439089947E-4
12.348,6.335404277094715E-4
12.352,6.336846709670231E-4
12.356,6.337567925957989E-4
12.36,6.348145764845104E-4
12.364,6.355598333151936E-4
12.368,6.351030629996137E-4
12.372,6.364733739463536E-4
12.376,6.366656982897558E-4
12.38,6.346222521411084E-4
12.384,6.358964009161473E-4
12.388,6.351271035425389E-4
12.392,6.321701167627316E-4
12.396,6.333721439089947E-4
12.4,6.342616439972295E-4
12.404,6.334683060806957E-4
12.408,6.346222521411084E-4
12.412,6.338048736816495E-4
12.416,6.335644682523968E-4
12.42,6.315210221037494E-4
12.424,6.329153735934147E-4
12.428,6.336125493382473E-4
12.432,6.337087115099484E-4
12.436,6.319777924193294E-4
12.44,6.328432519646389E-4
12.444,6.319056707905536E-4
12.448,6.294054543263261E-4
12.452,6.329634546792652E-4
12.456,6.364252928605031E-4
12.46,6.343337656260052E-4
12.464,6.357281171156705E-4
12.468,6.35415590057642E-4
12.472,6.350549819137631E-4
12.476,6.351030629996137E-4
12.48,6.346462926840337E-4
12.484,6.352473062571653E-4
12.488,6.351030629996137E-4
12.492,6.35872360373222E-4
12.496,6.360166036307736E-4
12.5,6.356319549439695E-4
12.504,6.370984280624105E-4
12.508000000000001,6.359204414590726E-4
12.512,6.367378199185316E-4
12.516,6.378917659789441E-4
12.52,6.39238036382759E-4
12.524000000000001,6.38781266067179E-4
12.528,6.370984280624105E-4
12.532,6.388293471530295E-4
12.536,6.383004552086737E-4
12.540000000000001,6.397669283271147E-4
12.544,6.3887742823888E-4
12.548,6.390457120393568E-4
12.552,6.402717797285453E-4
12.556000000000001,6.405843067865737E-4
12.56,6.38781266067179E-4
12.564,6.384446984662252E-4
12.568,6.381321714081968E-4
12.572000000000001,6.396948066983389E-4
12.576,6.389976309535063E-4
12.58,6.372186307770368E-4
12.584,6.370022658907094E-4
12.588000000000001,6.38781266067179E-4
12.592,6.407766311299758E-4
12.596,6.400794553851431E-4
12.6,6.404160229860968E-4
12.604000000000001,6.412574419884811E-4
12.608,6.409929960163031E-4
12.612,6.403439013573211E-4
12.616,6.369782253477842E-4
12.620000000000001,6.390216714964315E-4
12.624,6.395265228978621E-4
12.628,6.401756175568442E-4
12.632,6.364252928605031E-4
12.636000000000001,6.358242792873716E-4
12.64,6.382523741228232E-4
12.644,6.374590362062894E-4
12.648,6.342135629113789E-4
12.652000000000001,6.345982115981831E-4
12.656,6.366656982897558E-4
12.66,6.383004552086737E-4
12.664,6.3887742823888E-4
12.668000000000001,6.377475227213926E-4
12.672,6.364493334034284E-4
12.676,6.383004552086737E-4
12.68,6.380119686935705E-4
12.684000000000001,6.350069008279126E-4
12.688,6.345982115981831E-4
12.692,6.350069008279126E-4
12.696,6.340212385679768E-4
12.700000000000001,6.33492346623621E-4
12.704,6.346222521411084E-4
12.708,6.315691031896E-4
12.712,6.320499140481052E-4
12.716000000000001,6.342376034543042E-4
12.72,6.30847886901842E-4
12.724,6.318335491617778E-4
12.728,6.320979951339558E-4
12.732000000000001,6.338048736816495E-4
12.736,6.349828602849873E-4
12.74,6.355117522293431E-4
12.744,6.326028465353863E-4
12.748000000000001,6.366656982897558E-4
12.752,6.400554148422179E-4
12.756,6.37603279463841E-4
12.76,6.367137793756063E-4
12.764000000000001,6.3659357666098E-4
12.768,6.357040765727453E-4
12.772,6.363050901458769E-4
12.776,6.364012523175778E-4
12.780000000000001,6.341654818255284E-4
12.784,6.311363734169452E-4
12.788,6.31665265361301E-4
12.792,6.342616439972295E-4
12.796000000000001,6.370984280624105E-4
12.8,6.374109551204389E-4
12.804,6.367618604614568E-4
12.808,6.370263064336347E-4
12.812,6.359685225449231E-4
12.816,6.360646847166242E-4
12.82,6.354877116864178E-4
12.824,6.3750711729214E-4
12.828,6.361848874312505E-4
12.832,6.36689738832681E-4
12.836,6.377475227213926E-4
12.84,6.362329685171011E-4
12.844,6.361127658024747E-4
12.848,6.3887742823888E-4
12.852,6.385408606379263E-4
12.856,6.372186307770368E-4
12.86,6.377715632643179E-4
12.864,6.385649011808515E-4
12.868,6.419065366474632E-4
12.872,6.410170365592284E-4
12.876,6.390697525822821E-4
12.88,6.377475227213926E-4
12.884,6.386370228096274E-4
12.888,6.384446984662252E-4
12.892,6.346462926840337E-4
12.896,6.36329130688802E-4
12.9,6.352713468000905E-4
12.904,6.343578061689304E-4
12.908,6.340452791109021E-4
12.912,6.350549819137631E-4
12.916,6.345741710552579E-4
12.92,6.369782253477842E-4
12.924,6.371945902341116E-4
12.928,6.386610633525526E-4
12.932,6.407285500441253E-4
12.936,6.363050901458769E-4
12.94,6.197651966132954E-4
12.944,5.931282750521033E-4
12.948,5.731505838812094E-4
12.952,5.593753527850333E-4
12.956,5.496389329003016E-4
12.96,5.596157582142859E-4
12.964,5.788962736403473E-4
12.968,5.961573834606866E-4
12.972,6.19548831726968E-4
12.976,6.404400635290221E-4
12.98,6.470752533763948E-4
12.984,6.472194966339464E-4
12.988,6.443586720258402E-4
12.992,6.417863339328369E-4
12.996,6.399352121275915E-4
13.0,6.404881446148726E-4
13.004,6.408247122158263E-4
13.008000000000001,6.417142123040611E-4
13.012,6.441903882253633E-4
13.016,6.43709577366858E-4
13.02,6.427479556498474E-4
13.024000000000001,6.42435428591819E-4
13.028,6.413536041601821E-4
13.032,6.402958202714705E-4
13.036,6.4024773918562E-4
13.040000000000001,6.404641040719473E-4
13.044,6.412574419884811E-4
13.048,6.426758340210716E-4
13.052,6.405362257007231E-4
13.056000000000001,6.385408606379263E-4
13.06,6.392861174686095E-4
13.064,6.38781266067179E-4
13.068,6.403439013573211E-4
13.072000000000001,6.406323878724242E-4
13.076,6.399832932134421E-4
13.08,6.404400635290221E-4
13.084,6.383725768374494E-4
13.088000000000001,6.393822796403106E-4
13.092,6.395505634407873E-4
13.096,6.38324495751599E-4
13.1,6.381081308652716E-4
13.104000000000001,6.404160229860968E-4
13.108,6.402958202714705E-4
13.112,6.388293471530295E-4
13.116,6.419546177333136E-4
13.120000000000001,6.420988609908652E-4
13.124,6.419786582762389E-4
13.128,6.420267393620894E-4
13.132,6.436614962810075E-4
13.136000000000001,6.42435428591819E-4
13.14,6.422911853342674E-4
13.144,6.422671447913421E-4
13.148,6.414497663318831E-4
13.152000000000001,6.426998745639968E-4
13.156,6.45440496457477E-4
13.16,6.453202937428507E-4
13.164,6.431085637937263E-4
13.168000000000001,6.427719961927726E-4
13.172,6.458732262301317E-4
13.176,6.466425236037401E-4
13.18,6.464261587174128E-4
13.184000000000001,6.466665641466654E-4
13.188,6.440221044248864E-4
13.192,6.426037123922958E-4
13.196,6.398150094129653E-4
13.200000000000001,6.368580226331578E-4
13.204,6.377234821784674E-4
13.208,6.38781266067179E-4
13.212,6.367618604614568E-4
13.216000000000001,6.336125493382473E-4
13.22,6.338529547674999E-4
13.224,6.330596168509663E-4
13.228,6.315931437325252E-4
13.232000000000001,6.324105221919841E-4
13.236,6.339010358533505E-4
13.24,6.3522326571424E-4
13.244,6.346703332269589E-4
13.248000000000001,6.326268870783116E-4
13.252,6.305113193008882E-4
13.256,6.331798195655926E-4
13.26,6.356319549439695E-4
13.264000000000001,6.329874952221905E-4
13.268,6.307998058159914E-4
13.272,6.322662789344326E-4
13.276,6.341414412826031E-4
13.280000000000001,6.335163871665463E-4
13.284,6.335644682523968E-4
13.288,6.35415590057642E-4
13.292,6.349828602849873E-4
13.296000000000001,6.324586032778347E-4
13.3,6.307276841872157E-4
13.304,6.319537518764041E-4
13.308,6.325307249066105E-4
13.312000000000001,6.33300022280219E-4
13.316,6.342856845401547E-4
13.32,6.333721439089947E-4
13.324,6.323384005632083E-4
13.328,6.340452791109021E-4
13.332,6.338529547674999E-4
13.336,6.338289142245748E-4
13.34,6.364252928605031E-4
13.344,6.366416577468305E-4
13.348,6.346462926840337E-4
13.352,6.353434684288662E-4
13.356,6.340693196538273E-4
13.36,6.347424548557347E-4
13.364,6.343818467118557E-4
13.368,6.346943737698842E-4
13.372,6.355357927722684E-4
13.376,6.341414412826031E-4
13.38,6.352953873430158E-4
13.384,6.342616439972295E-4
13.388,6.336125493382473E-4
13.392,6.317133464471516E-4
13.396,6.327711303358632E-4
13.4,6.320979951339558E-4
13.404,6.317133464471516E-4
13.408,6.298381840989808E-4
13.412,6.311363734169452E-4
13.416,6.317373869900768E-4
13.42,6.315931437325252E-4
13.424,6.325307249066105E-4
13.428,6.323384005632083E-4
13.432,6.309200085306178E-4
13.436,6.331798195655926E-4
13.44,6.338048736816495E-4
13.444,6.32578805992461E-4
13.448,6.333481033660694E-4
13.452,6.3111233287402E-4
13.456,6.311363734169452E-4
13.46,6.325307249066105E-4
13.464,6.325307249066105E-4
13.468,6.321701167627316E-4
13.472,6.32122035676881E-4
13.476,6.32122035676881E-4
13.48,6.318816302476283E-4
13.484,6.315691031896E-4
13.488,6.334202249948452E-4
13.492,6.339010358533505E-4
13.496,6.320739545910305E-4
13.5,6.326028465353863E-4
13.504,6.321701167627316E-4
13.508000000000001,6.32122035676881E-4
13.512,6.324826438207599E-4
13.516,6.3111233287402E-4
13.52,6.27842819036184E-4
13.524000000000001,6.260397783167893E-4
13.528,6.264965486323693E-4
13.532,6.290929272682977E-4
13.536,6.29766062470205E-4
13.540000000000001,6.280111028366609E-4
13.544,6.293333326975503E-4
13.548,6.322422383915074E-4
13.552,6.322181978485821E-4
13.556000000000001,6.315210221037494E-4
13.56,6.323624411061336E-4
13.564,6.322903194773579E-4
13.568,6.33492346623621E-4
13.572000000000001,6.293333326975503E-4
13.576,6.29213129982924E-4
13.58,6.295496975838777E-4
13.584,6.270494811196504E-4
13.588000000000001,6.270254405767251E-4
13.592,6.313767788461978E-4
13.596,6.309440490735431E-4
13.6,6.303670760433366E-4
13.604000000000001,6.311363734169452E-4
13.608,6.306315220155146E-4
13.612,6.321460762198063E-4
13.616,6.321460762198063E-4
13.620000000000001,6.320979951339558E-4
13.624,6.304391976721124E-4
13.628,6.324826438207599E-4
13.632,6.321701167627316E-4
13.636000000000001,6.318575897047031E-4
13.64,6.29766062470205E-4
13.644,6.293333326975503E-4
13.648,6.300785895282335E-4
13.652000000000001,6.300545489853083E-4
13.656,6.28756359667344E-4
13.66,6.301507111570093E-4
13.664,6.304391976721124E-4
13.668000000000001,6.311844545027958E-4
13.672,6.323864816490589E-4
13.676,6.335885087953221E-4
13.68,6.331798195655926E-4
13.684000000000001,6.317133464471516E-4
13.688,6.326990087070874E-4
13.692,6.31208495045721E-4
13.696,6.314489004749736E-4
13.700000000000001,6.364493334034284E-4
13.704,6.367859010043821E-4
13.708,6.363531712317273E-4
13.712,6.372186307770368E-4
13.716000000000001,6.381802524940474E-4
13.72,6.369301442619336E-4
13.724,6.355357927722684E-4
13.728,6.323864816490589E-4
13.732000000000001,6.338289142245748E-4
13.736,6.346703332269589E-4
13.74,6.3476649539866E-4
13.744,6.345020494264821E-4
13.748000000000001,6.328672925075641E-4
13.752,6.314969815608242E-4
13.756,6.280351433795861E-4
13.76,6.248137106276008E-4
13.764000000000001,6.275302919781556E-4
13.768,6.286842380385683E-4
13.772,6.294294948692514E-4
13.776,6.291650488970735E-4
13.780000000000001,6.31665265361301E-4
13.784,6.333961844519199E-4
13.788,6.317133464471516E-4
13.792,6.298862651848314E-4
13.796000000000001,6.307757652730661E-4
13.8,6.323384005632083E-4
13.804,6.32578805992461E-4
13.808,6.300785895282335E-4
13.812000000000001,6.308238463589168E-4
13.816,6.302468733287103E-4
13.82,6.303189949574861E-4
13.824,6.305594003867388E-4
13.828,6.301747516999346E-4
13.832,6.307036436442904E-4
13.836,6.303189949574861E-4
13.84,6.318575897047031E-4
13.844,6.327230492500126E-4
13.848,6.318095086188525E-4
13.852,6.303670760433366E-4
13.856,6.307998058159914E-4
13.86,6.314489004749736E-4
13.864,6.316893059042263E-4
13.868,6.361127658024747E-4
13.872,6.414738068748084E-4
13.876,6.388053066101042E-4
13.88,6.283957515234651E-4
13.884,6.070958304916816E-4
13.888,5.817090171626033E-4
13.892,5.647363938573671E-4
13.896,5.506005546173121E-4
13.9,5.492783247564225E-4
13.904,5.678135833518008E-4
13.908,5.852189364296917E-4
13.912,6.070237088629058E-4
13.916,6.314969815608242E-4
13.92,6.461376722023096E-4
13.924,6.475560642349001E-4
13.928,6.456328208008791E-4
13.932,6.409449149304526E-4
13.936,6.372667118628874E-4
13.94,6.357281171156705E-4
13.944,6.373388334916632E-4
13.948,6.372667118628874E-4
13.952,6.383485362945242E-4
13.956,6.391418742110579E-4
13.96,6.391418742110579E-4
13.964,6.406323878724242E-4
13.968,6.380840903223463E-4
13.972,6.386129822667021E-4
13.976,6.388533876959548E-4
13.98,6.408006716729011E-4
13.984,6.387331849813284E-4
13.988,6.378917659789441E-4
13.992,6.39238036382759E-4
13.996,6.38516820095001E-4
14.0,6.390216714964315E-4
14.004,6.396707661554137E-4
14.008000000000001,6.405362257007231E-4
14.012,6.395024823549368E-4
14.016,6.398630904988158E-4
14.02,6.388293471530295E-4
14.024000000000001,6.374109551204389E-4
14.028,6.392139958398337E-4
14.032,6.402236986426947E-4
14.036,6.417863339328369E-4
14.040000000000001,6.386610633525526E-4
14.044,6.387091444384032E-4
14.048,6.401034959280684E-4
14.052,6.402717797285453E-4
14.056000000000001,6.397188472412642E-4
14.06,6.393101580115348E-4
14.064,6.397188472412642E-4
14.068,6.405843067865737E-4
14.072000000000001,6.424594691347442E-4
14.076,6.440221044248864E-4
14.08,6.474599020631991E-4
14.084,6.473156588056475E-4
14.088000000000001,6.453202937428507E-4
14.092,6.452241315711496E-4
14.096,6.457530235155054E-4
14.1,6.466906046895907E-4
14.104000000000001,6.47003131747619E-4
14.108,6.49190821153818E-4
14.112,6.47003131747619E-4
14.116,6.457049424296549E-4
14.120000000000001,6.477724291212275E-4
14.124,6.464742398032633E-4
14.128,6.431806854225022E-4
14.132,6.422190637054916E-4
14.136000000000001,6.409449149304526E-4
14.14,6.420026988191642E-4
14.144,6.424594691347442E-4
14.148,6.414257257889578E-4
14.152000000000001,6.418584555616127E-4
14.156,6.412334014455558E-4
14.16,6.395024823549368E-4
14.164,6.386129822667021E-4
14.168000000000001,6.395024823549368E-4
14.172,6.391899552969084E-4
14.176,6.393101580115348E-4
14.18,6.384687390091505E-4
14.184000000000001,6.391178336681326E-4
14.188,6.415699690465094E-4
14.192,6.417622933899116E-4
14.196,6.406323878724242E-4
14.200000000000001,6.414016852460327E-4
14.204,6.402958202714705E-4
14.208,6.405121851577979E-4
14.212,6.375792389209158E-4
14.216000000000001,6.359444820019978E-4
14.22,6.390697525822821E-4
14.224,6.417382528469863E-4
14.228,6.401756175568442E-4
14.232000000000001,6.37603279463841E-4
14.236,6.372667118628874E-4
14.24,6.383004552086737E-4
14.244,6.400554148422179E-4
14.248000000000001,6.409929960163031E-4
14.252,6.393822796403106E-4
14.256,6.387091444384032E-4
14.26,6.373869145775136E-4
14.264000000000001,6.38324495751599E-4
14.268,6.380119686935705E-4
14.272,6.373869145775136E-4
14.276,6.367859010043821E-4
14.280000000000001,6.389976309535063E-4
14.284,6.409929960163031E-4
14.288,6.400554148422179E-4
14.292,6.393101580115348E-4
14.296000000000001,6.397428877841895E-4
14.3,6.401515770139189E-4
14.304,6.400073337563673E-4
14.308,6.38781266067179E-4
14.312000000000001,6.406564284153495E-4
14.316,6.419305771903884E-4
14.32,6.4116127981678E-4
14.324,6.438297800814844E-4
14.328000000000001,6.422671447913421E-4
14.332,6.408487527587516E-4
14.336,6.4207482044794E-4
14.34,6.417382528469863E-4
14.344,6.402236986426947E-4
14.348,6.412574419884811E-4
14.352,6.415940095894347E-4
14.356,6.376513605496916E-4
14.36,6.370263064336347E-4
14.364,6.397669283271147E-4
14.368,6.416661312182105E-4
14.372,6.384206579232999E-4
14.376,6.371945902341116E-4
14.38,6.386610633525526E-4
14.384,6.402958202714705E-4
14.388,6.396226850695631E-4
14.392,6.388293471530295E-4
14.396,6.393101580115348E-4
14.4,6.39430360726161E-4
14.404,6.376754010926168E-4
14.408,6.365454955751294E-4
14.412,6.356559954868947E-4
14.416,6.346943737698842E-4
14.42,6.341654818255284E-4
14.424,6.334202249948452E-4
14.428,6.33492346623621E-4
14.432,6.340693196538273E-4
14.436,6.344780088835568E-4
14.44,6.358242792873716E-4
14.444,6.384687390091505E-4
14.448,6.413536041601821E-4
14.452,6.4161805013236E-4
14.456,6.412334014455558E-4
14.46,6.402958202714705E-4
14.464,6.404641040719473E-4
14.468,6.402958202714705E-4
14.472,6.395265228978621E-4
14.476,6.357040765727453E-4
14.48,6.349828602849873E-4
14.484,6.355117522293431E-4
14.488,6.360166036307736E-4
14.492,6.353915495147168E-4
14.496,6.371705496911863E-4
14.5,6.378436848930937E-4
14.504,6.396226850695631E-4
14.508000000000001,6.392620769256842E-4
14.512,6.366416577468305E-4
14.516,6.38781266067179E-4
14.52,6.421950231625663E-4
14.524000000000001,6.377956038072432E-4
14.528,6.391899552969084E-4
14.532,6.395505634407873E-4
14.536,6.388293471530295E-4
14.540000000000001,6.361848874312505E-4
14.544,6.367618604614568E-4
14.548,6.395024823549368E-4
14.552,6.396226850695631E-4
14.556000000000001,6.407045095012E-4
14.56,6.411131987309295E-4
14.564,6.384206579232999E-4
14.568,6.375792389209158E-4
14.572000000000001,6.376513605496916E-4
14.576,6.370984280624105E-4
14.58,6.378917659789441E-4
14.584,6.407045095012E-4
14.588000000000001,6.413776447031074E-4
14.592,6.377715632643179E-4
14.596,6.366416577468305E-4
14.6,6.357281171156705E-4
14.604000000000001,6.387091444384032E-4
14.608,6.393101580115348E-4
14.612,6.374590362062894E-4
14.616,6.373147929487379E-4
14.620000000000001,6.377475227213926E-4
14.624,6.387572255242537E-4
14.628,6.39887131041741E-4
14.632,6.404881446148726E-4
14.636000000000001,6.38973590410581E-4
14.64,6.388533876959548E-4
14.644,6.36689738832681E-4
14.648,6.33949116939201E-4
14.652000000000001,6.336125493382473E-4
14.656,6.325547654495357E-4
14.66,6.318816302476283E-4
14.664,6.318575897047031E-4
14.668000000000001,6.31208495045721E-4
14.672,6.323624411061336E-4
14.676,6.364974144892789E-4
14.68,6.361848874312505E-4
14.684000000000001,6.341174007396779E-4
14.688,6.340693196538273E-4
14.692,6.327230492500126E-4
14.696,6.331317384797421E-4
14.700000000000001,6.321460762198063E-4
14.704,6.343337656260052E-4
14.708,6.382042930369726E-4
14.712,6.374830767492147E-4
14.716000000000001,6.364252928605031E-4
14.72,6.379158065218694E-4
14.724,6.379398470647947E-4
14.728,6.381802524940474E-4
14.732000000000001,6.381081308652716E-4
14.736,6.368099415473074E-4
14.74,6.370022658907094E-4
14.744,6.395746039837126E-4
14.748000000000001,6.378196443501684E-4
14.752,6.358483198302969E-4
14.756,6.353194278859411E-4
14.76,6.345020494264821E-4
14.764000000000001,6.350549819137631E-4
14.768,6.34958819742062E-4
14.772,6.331076979368168E-4
14.776,6.337087115099484E-4
14.780000000000001,6.364493334034284E-4
14.784,6.375551983779905E-4
14.788,6.381802524940474E-4
14.792,6.399352121275915E-4
14.796000000000001,6.435172530234559E-4
14.8,6.414257257889578E-4
14.804,6.325066843636852E-4
14.808,6.123126283064637E-4
14.812000000000001,5.896183557850149E-4
14.816,5.710590566467115E-4
14.82,5.546153252858311E-4
14.824,5.5086500058949E-4
14.828000000000001,5.64544069513965E-4
14.832,5.81324368475799E-4
14.836,5.984652755815119E-4
14.84,6.250541160568535E-4
14.844000000000001,6.407525905870505E-4
14.848,6.415940095894347E-4
14.852,6.458732262301317E-4
14.856,6.439019017102602E-4
14.86,6.405843067865737E-4
14.864,6.396226850695631E-4
14.868,6.423873475059685E-4
14.872,6.431085637937263E-4
14.876,6.440221044248864E-4
14.88,6.444067531116907E-4
14.884,6.423873475059685E-4
14.888,6.408006716729011E-4
14.892,6.396707661554137E-4
14.896,6.401034959280684E-4
14.9,6.430364421649505E-4
14.904,6.419786582762389E-4
14.908,6.422190637054916E-4
14.912,6.427719961927726E-4
14.916,6.418344150186874E-4
14.92,6.405362257007231E-4
14.924,6.425075502205947E-4
14.928,6.437576584527086E-4
14.932,6.44623117998018E-4
14.936,6.441423071395127E-4
14.94,6.443586720258402E-4
14.944,6.467146452325159E-4
14.948,6.459213073159823E-4
14.952,6.43252807051278E-4
14.956,6.442865503970644E-4
14.96,6.437576584527086E-4
14.964,6.445509963692422E-4
14.968,6.476762669495264E-4
14.972,6.446471585409433E-4
14.976,6.430364421649505E-4
14.98,6.439019017102602E-4
14.984,6.448635234272707E-4
14.988,6.439019017102602E-4
14.992,6.438778611673349E-4
14.996,6.442625098541391E-4
15.0,6.440461449678117E-4
15.004,6.451520099423738E-4
15.008000000000001,6.445269558263169E-4
15.012,6.445990774550927E-4
15.016,6.450558477706727E-4
15.02,6.451279693994485E-4
15.024000000000001,6.459213073159823E-4
15.028,6.452722126570001E-4
15.032,6.472916182627223E-4
15.036,6.483253616085086E-4
15.040000000000001,6.463059560027865E-4
15.044,6.462338343740107E-4
15.048,6.454164559145517E-4
15.052,6.477964696641528E-4
15.056000000000001,6.463299965457117E-4
15.06,6.430604827078758E-4
15.064,6.417142123040611E-4
15.068,6.422671447913421E-4
15.072000000000001,6.420988609908652E-4
15.076,6.414738068748084E-4
15.08,6.408006716729011E-4
15.084,6.398150094129653E-4
15.088000000000001,6.372186307770368E-4
15.092,6.375551983779905E-4
15.096,6.376273200067663E-4
15.1,6.382523741228232E-4
15.104000000000001,6.394063201832357E-4
15.108,6.38781266067179E-4
15.112,6.370743875194852E-4
15.116,6.361368063454E-4
15.120000000000001,6.372186307770368E-4
15.124,6.395265228978621E-4
15.128,6.379398470647947E-4
15.132,6.383004552086737E-4
15.136000000000001,6.393822796403106E-4
15.14,6.400554148422179E-4
15.144,6.396226850695631E-4
15.148,6.405602662436484E-4
15.152000000000001,6.399832932134421E-4
15.156,6.383004552086737E-4
15.16,6.383485362945242E-4
15.164,6.368099415473074E-4
15.168000000000001,6.356079144010442E-4
15.172,6.363772117746526E-4
15.176,6.362329685171011E-4
15.18,6.368820631760831E-4
15.184000000000001,6.388293471530295E-4
15.188,6.373869145775136E-4
15.192,6.381562119511221E-4
15.196,6.3705034697656E-4
15.200000000000001,6.327951708787883E-4
15.204,6.345501305123326E-4
15.208,6.388533876959548E-4
15.212,6.395986445266379E-4
15.216000000000001,6.38973590410581E-4
15.22,6.367378199185316E-4
15.224,6.356559954868947E-4
15.228,6.351751846283895E-4
15.232000000000001,6.385408606379263E-4
15.236,6.391899552969084E-4
15.24,6.364252928605031E-4
15.244,6.399111715846663E-4
15.248000000000001,6.418584555616127E-4
15.252,6.417863339328369E-4
15.256,6.398630904988158E-4
15.26,6.370984280624105E-4
15.264000000000001,6.386610633525526E-4
15.268,6.374590362062894E-4
15.272,6.392861174686095E-4
15.276,6.375792389209158E-4
15.280000000000001,6.359925630878484E-4
15.284,6.364493334034284E-4
15.288,6.374590362062894E-4
15.292,6.363531712317273E-4
15.296000000000001,6.345020494264821E-4
15.3,6.352473062571653E-4
15.304,6.351751846283895E-4
15.308,6.329874952221905E-4
15.312000000000001,6.353434684288662E-4
15.316,6.346222521411084E-4
15.32,6.347184143128095E-4
15.324,6.356319549439695E-4
15.328000000000001,6.341654818255284E-4
15.332,6.356079144010442E-4
15.336,6.329874952221905E-4
15.34,6.324586032778347E-4
15.344000000000001,6.342376034543042E-4
15.348,6.348386170274357E-4
15.352,6.356559954868947E-4
15.356,6.338289142245748E-4
15.36,6.324105221919841E-4
15.364,6.347184143128095E-4
15.368,6.33300022280219E-4
15.372,6.317133464471516E-4
15.376,6.328432519646389E-4
15.38,6.356319549439695E-4
15.384,6.342856845401547E-4
15.388,6.345020494264821E-4
15.392,6.336846709670231E-4
15.396,6.325307249066105E-4
15.4,6.348145764845104E-4
15.404,6.353434684288662E-4
15.408,6.333721439089947E-4
15.412,6.339731574821263E-4
15.416,6.31665265361301E-4
15.42,6.315691031896E-4
15.424,6.325307249066105E-4
15.428,6.326509276212368E-4
15.432,6.326028465353863E-4
15.436,6.306074814725893E-4
15.44,6.320979951339558E-4
15.444,6.333961844519199E-4
15.448,6.326268870783116E-4
15.452,6.323624411061336E-4
15.456,6.312806166744967E-4
15.46,6.303189949574861E-4
15.464,6.288525218390451E-4
15.468,6.290929272682977E-4
15.472,6.333961844519199E-4
15.476,6.312806166744967E-4
15.48,6.302949544145608E-4
15.484,6.320979951339558E-4
15.488,6.326509276212368E-4
15.492,6.312565761315716E-4
15.496,6.300064678994577E-4
15.5,6.29116967811223E-4
15.504,6.301026300711588E-4
15.508000000000001,6.314969815608242E-4
15.512,6.32122035676881E-4
15.516,6.351751846283895E-4
15.52,6.368820631760831E-4
15.524000000000001,6.380360092364958E-4
15.528,6.383725768374494E-4
15.532,6.4024773918562E-4
15.536,6.404400635290221E-4
15.540000000000001,6.393822796403106E-4
15.544,6.389255093247305E-4
15.548,6.384687390091505E-4
15.552,6.35872360373222E-4
15.556000000000001,6.363772117746526E-4
15.56,6.330836573938915E-4
15.564,6.313286977603473E-4
15.568,6.319297113334789E-4
15.572000000000001,6.312565761315716E-4
15.576,6.320739545910305E-4
15.58,6.343818467118557E-4
15.584,6.364252928605031E-4
15.588000000000001,6.347905359415853E-4
15.592,6.324826438207599E-4
15.596,6.320018329622547E-4
15.6,6.345741710552579E-4
15.604000000000001,6.37603279463841E-4
15.608,6.355117522293431E-4
15.612,6.386851038954779E-4
15.616,6.399111715846663E-4
15.620000000000001,6.384446984662252E-4
15.624,6.358964009161473E-4
15.628,6.373388334916632E-4
15.632,6.40896833844602E-4
15.636000000000001,6.399592526705168E-4
15.64,6.418103744757621E-4
15.644,6.400794553851431E-4
15.648,6.355838738581189E-4
15.652000000000001,6.338529547674999E-4
15.656,6.353675089717915E-4
15.66,6.373388334916632E-4
15.664,6.357761982015211E-4
15.668000000000001,6.349828602849873E-4
15.672,6.335163871665463E-4
15.676,6.350069008279126E-4
15.68,6.355598333151936E-4
15.684000000000001,6.370743875194852E-4
15.688,6.392139958398337E-4
15.692,6.377956038072432E-4
15.696,6.401996580997695E-4
15.700000000000001,6.432047259654275E-4
15.704,6.462338343740107E-4
15.708,6.4161805013236E-4
15.712,6.321941573056568E-4
15.716000000000001,6.116635336474816E-4
15.72,5.876470312651433E-4
15.724,5.680299482381282E-4
15.728,5.533892575966426E-4
15.732000000000001,5.547355280004574E-4
15.736,5.719966378207967E-4
15.74,5.913252343327086E-4
15.744,6.141397095687838E-4
15.748000000000001,6.372907524058126E-4
15.752,6.51546794360494E-4
15.756,6.573646057484077E-4
15.76,6.572203624908562E-4
15.764000000000001,6.537104432237676E-4
15.768,6.509938618732129E-4
15.772,6.485176859519107E-4
15.776,6.458732262301317E-4
15.780000000000001,6.454885775433276E-4
15.784,6.455126180862527E-4
15.788,6.456328208008791E-4
15.792,6.455606991721033E-4
15.796000000000001,6.470992939193201E-4
15.8,6.446711990838685E-4
15.804,6.438538206244096E-4
15.808,6.443586720258402E-4
15.812000000000001,6.449116045131212E-4
15.816,6.438778611673349E-4
15.82,6.440461449678117E-4
15.824,6.425075502205947E-4
15.828000000000001,6.438297800814844E-4
15.832,6.447433207126443E-4
15.836,6.439019017102602E-4
15.84,6.450077666848222E-4
15.844000000000001,6.458732262301317E-4
15.848,6.473637398914981E-4
15.852,6.464261587174128E-4
15.856,6.494071860401456E-4
15.860000000000001,6.519795241331487E-4
15.864,6.47724348035377E-4
15.868,6.485898075806864E-4
15.872,6.481330372651064E-4
15.876,6.497918347269497E-4
15.88,6.488302130099391E-4
15.884,6.475801047778254E-4
15.888,6.498399158128003E-4
15.892,6.511140645878393E-4
15.896,6.526045782492056E-4
15.9,6.520516457619245E-4
15.904,6.497918347269497E-4
15.908,6.493350644113698E-4
15.912,6.48998496810416E-4
15.916,6.48998496810416E-4
15.92,6.49190821153818E-4
15.924,6.499120374415761E-4
15.928,6.509698213302877E-4
15.932,6.506813348151845E-4
15.936,6.508496186156613E-4
15.94,6.49359104954295E-4
15.944,6.472194966339464E-4
15.948,6.476762669495264E-4
15.952,6.49094658982117E-4
15.956,6.495995103835477E-4
15.96,6.479647534646297E-4
15.964,6.47267577719797E-4
15.968,6.44166347682438E-4
15.972,6.427479556498474E-4
15.976,6.430364421649505E-4
15.98,6.455126180862527E-4
15.984,6.448394828843454E-4
15.988,6.44983726141897E-4
15.992,6.443105909399896E-4
15.996,6.424113880488936E-4
16.0,6.430124016220252E-4
16.004,6.425075502205947E-4
16.008,6.405362257007231E-4
16.012,6.413055230743316E-4
16.016000000000002,6.428200772786232E-4
16.02,6.417863339328369E-4
16.024,6.428200772786232E-4
16.028,6.435893746522317E-4
16.032,6.43974023339036E-4
16.036,6.417863339328369E-4
16.04,6.394063201832357E-4
16.044,6.379398470647947E-4
16.048000000000002,6.3933419855446E-4
16.052,6.398390499558906E-4
16.056,6.389495498676557E-4
16.06,6.391899552969084E-4
16.064,6.388533876959548E-4
16.068,6.396707661554137E-4
16.072,6.386851038954779E-4
16.076,6.415459285035842E-4
16.080000000000002,6.410891581880042E-4
16.084,6.39430360726161E-4
16.088,6.390937931252073E-4
16.092,6.420267393620894E-4
16.096,6.417622933899116E-4
16.1,6.429883610791E-4
16.104,6.427719961927726E-4
16.108,6.367378199185316E-4
16.112000000000002,6.350549819137631E-4
16.116,6.333240628231441E-4
16.12,6.315691031896E-4
16.124,6.315691031896E-4
16.128,6.317133464471516E-4
16.132,6.317373869900768E-4
16.136,6.299583868136072E-4
16.14,6.301747516999346E-4
16.144000000000002,6.299343462706819E-4
16.148,6.285159542380914E-4
16.152,6.313286977603473E-4
16.156,6.283957515234651E-4
16.16,6.294294948692514E-4
16.164,6.316893059042263E-4
16.168,6.304391976721124E-4
16.172,6.302949544145608E-4
16.176000000000002,6.299103057277566E-4
16.18,6.300785895282335E-4
16.184,6.313767788461978E-4
16.188,6.332038601085179E-4
16.192,6.331798195655926E-4
16.196,6.307998058159914E-4
16.2,6.311363734169452E-4
16.204,6.311363734169452E-4
16.208000000000002,6.29766062470205E-4
16.212,6.301507111570093E-4
16.216,6.30222832785785E-4
16.22,6.306555625584399E-4
16.224,6.304632382150377E-4
16.228,6.296218192126535E-4
16.232,6.304151571291872E-4
16.236,6.299343462706819E-4
16.240000000000002,6.293814137834009E-4
16.244,6.263282648318924E-4
16.248,6.264484675465188E-4
16.252,6.291890894399988E-4
16.256,6.288525218390451E-4
16.26,6.252945214861061E-4
16.264,6.247175484558998E-4
16.268,6.267609946045471E-4
16.272000000000002,6.248377511705261E-4
16.276,6.257272512587608E-4
16.28,6.272898865489029E-4
16.284,6.276745352357071E-4
16.288,6.278909001220345E-4
16.292,6.257993728875366E-4
16.296,6.266407918899209E-4
16.3,6.273379676347535E-4
16.304000000000002,6.248858322563766E-4
16.308,6.257993728875366E-4
16.312,6.285159542380914E-4
16.316,6.290448461824472E-4
16.32,6.246694673700492E-4
16.324,6.25919575602163E-4
16.328,6.269533189479493E-4
16.332,6.278187784932587E-4
16.336000000000002,6.285159542380914E-4
16.34,6.290688867253725E-4
16.344,6.311604139598705E-4
16.348,6.279630217508103E-4
16.352,6.25558967458284E-4
16.356,6.24116534882768E-4
16.36,6.225779401355512E-4
16.364,6.236838051101133E-4
16.368000000000002,6.258234134304619E-4
16.372,6.256310890870598E-4
16.376,6.226019806784765E-4
16.38,6.229625888223555E-4
16.384,6.232751158803839E-4
16.388,6.216163184185407E-4
16.392,6.210393453883343E-4
16.396,6.212316697317365E-4
16.4,6.190680208684628E-4
16.404,6.172168990632175E-4
16.408,6.170245747198154E-4
16.412,6.165437638613101E-4
16.416,6.197411560703702E-4
16.42,6.215922778756154E-4
16.424,6.203421696435018E-4
16.428,6.210393453883343E-4
16.432,6.233472375091597E-4
16.436,6.227462239360281E-4
16.44,6.213999535322134E-4
16.444,6.212076291888112E-4
16.448,6.230347104511313E-4
16.452,6.223615752492239E-4
16.456,6.211835886458859E-4
16.46,6.17625588292947E-4
16.464,6.179621558939007E-4
16.468,6.196449938986691E-4
16.472,6.209431832166334E-4
16.476,6.19909439870847E-4
16.48,6.203421696435018E-4
16.484,6.209431832166334E-4
16.488,6.207027777873807E-4
16.492,6.224817779638502E-4
16.496,6.218807643907186E-4
16.5,6.205104534439786E-4
16.504,6.244050213978713E-4
16.508,6.262321026601913E-4
16.512,6.288525218390451E-4
16.516000000000002,6.277226163215577E-4
16.52,6.273379676347535E-4
16.524,6.279149406649598E-4
16.528,6.29116967811223E-4
16.532,6.271216027484262E-4
16.536,6.26472508089444E-4
16.54,6.270975622055009E-4
16.544,6.282755488088387E-4
16.548000000000002,6.268090756903977E-4
16.552,6.261599810314155E-4
16.556,6.245252241124976E-4
16.56,6.249339133422272E-4
16.564,6.231549131657575E-4
16.568,6.23467440223786E-4
16.572,6.23924210539366E-4
16.576,6.253666431148819E-4
16.580000000000002,6.253185620290314E-4
16.584,6.251502782285546E-4
16.588,6.272898865489029E-4
16.592,6.287323191244187E-4
16.596,6.288765623819703E-4
16.6,6.307757652730661E-4
16.604,6.289006029248956E-4
16.608,6.257512918016861E-4
16.612000000000002,6.171447774344417E-4
16.616,5.979604241800814E-4
16.62,5.734150298533872E-4
16.624,5.5451916311413E-4
16.628,5.387485669551571E-4
16.632,5.391332156419613E-4
16.636,5.621880963072891E-4
16.64,5.77405759978981E-4
16.644000000000002,5.997394243565508E-4
16.648,6.257512918016861E-4
16.652,6.354396306005673E-4
16.656,6.342856845401547E-4
16.66,6.358964009161473E-4
