0.0,-0.011165846526525003
0.004,-0.011166447540098134
0.008,-0.011161519228798454
0.012,-0.011167409161815144
0.016,-0.011172650000172852
0.02,-0.011172073027142645
0.024,-0.011172674040715777
0.028,-0.011175126176094154
0.032,-0.011173755865147414
0.036000000000000004,-0.011172577878544076
0.04,-0.011170245945880326
0.044,-0.011170750797281756
0.048,-0.011172024946056795
0.052000000000000005,-0.011172938486687954
0.056,-0.011172169189314346
0.06,-0.011169548770135493
0.064,-0.011171063324339784
0.068,-0.011169741094478896
0.07200000000000001,-0.011170053621536924
0.076,-0.011174453040892247
0.08,-0.011175631027495584
0.084,-0.011175534865323883
0.088,-0.011176087797811164
0.092,-0.011176400324869195
0.096,-0.011174092432748368
0.1,-0.011176905176270626
0.10400000000000001,-0.011176833054641849
0.108,-0.01117570314912436
0.112,-0.011175390622066331
0.116,-0.011175030013922452
0.12,-0.011174477081435171
0.124,-0.011174188594920068
0.128,-0.011174909811207827
0.132,-0.011174981932836602
0.136,-0.011174068392205442
0.14,-0.01117510213555123
0.14400000000000002,-0.011174909811207827
0.148,-0.011180318933366013
0.152,-0.011177554270929608
0.156,-0.01117738598712913
0.16,-0.011180102568479686
0.164,-0.01117724174387158
0.168,-0.011175871432924837
0.17200000000000001,-0.011178035081788112
0.176,-0.011178756298075871
0.18,-0.01117779467635886
0.184,-0.011179261149477301
0.188,-0.011181929649742005
0.192,-0.011183636528289699
0.196,-0.011183348041774597
0.2,-0.011184405825663308
0.20400000000000001,-0.01118455006892086
0.20800000000000002,-0.011184766433807187
0.212,-0.011184766433807187
0.216,-0.01118368460937555
0.22,-0.011183348041774597
0.224,-0.011184574109463784
0.228,-0.011185752096067123
0.232,-0.011183203798517045
0.23600000000000002,-0.011186449271811954
0.24,-0.011186833920498759
0.244,-0.01118880524501863
0.248,-0.01119272385351545
0.252,-0.011190848691167278
0.256,-0.011189237974791285
0.26,-0.011187458974614817
0.264,-0.01118861292067523
0.268,-0.011187771501672845
0.272,-0.011187555136786518
0.276,-0.011184381785120382
0.28,-0.0111859203798676
0.28400000000000003,-0.011189887069450268
0.28800000000000003,-0.011190560204652176
0.292,-0.011190488083023399
0.296,-0.01118911777207666
0.3,-0.011186521393440731
0.304,-0.011185271285208617
0.308,-0.011186737758327058
0.312,-0.011189718785649791
0.316,-0.011190872731710204
0.32,-0.0111905842451951
0.324,-0.011191377583111634
0.328,-0.01119108909659653
0.332,-0.011192675772429599
0.336,-0.01119012747487952
0.34,-0.011190007272164893
0.34400000000000003,-0.011192291123742794
0.34800000000000003,-0.011194262448262665
0.352,-0.011195825083552808
0.356,-0.011197171353956623
0.36,-0.011204479679005902
0.364,-0.011205056652036109
0.368,-0.011205825949409717
0.372,-0.01120342189511719
0.376,-0.011204383516834202
0.38,-0.011205489381808764
0.384,-0.011207508787414486
0.388,-0.011207677071214962
0.392,-0.011208109800987617
0.396,-0.011209984963335787
0.4,-0.011210201328222116
0.404,-0.011209287787590954
0.40800000000000003,-0.011208181922616392
0.41200000000000003,-0.011209912841707012
0.41600000000000004,-0.011208951219990002
0.42,-0.011207869395558364
0.424,-0.011206883733298428
0.428,-0.011207052017098906
0.432,-0.011211763963512257
0.436,-0.011212653463600493
0.44,-0.011211259112110827
0.444,-0.011209359909219731
0.448,-0.01121068213908062
0.452,-0.011210465774194293
0.456,-0.011208638692931972
0.46,-0.011206643327869177
0.464,-0.011209648395734835
0.468,-0.011210970625595723
0.47200000000000003,-0.011210033044421638
0.47600000000000003,-0.011216427828839758
0.48,-0.011217173085670442
0.484,-0.011214985396264242
0.488,-0.011215418126036898
0.492,-0.0112156104503803
0.496,-0.011212485179800015
0.5,-0.011212076490570285
0.504,-0.011212052450027361
0.508,-0.011212148612199062
0.512,-0.01121145143645423
0.516,-0.011210201328222116
0.52,-0.01121565853146615
0.524,-0.011217966423586976
0.528,-0.01121753369381432
0.532,-0.011218182788473302
0.536,-0.011220466640051203
0.54,-0.011221259977967735
0.544,-0.011222341802399373
0.548,-0.011221572505025765
0.552,-0.011221067653624335
0.556,-0.011220346437336576
0.56,-0.011219625221048819
0.5640000000000001,-0.011218735720960583
0.5680000000000001,-0.011220779167109231
0.5720000000000001,-0.011221548464482839
0.5760000000000001,-0.01122109169416726
0.58,-0.011221067653624335
0.584,-0.011220707045480454
0.588,-0.011220586842765829
0.592,-0.011221740788826241
0.596,-0.011224433329633871
0.6,-0.011225659397323059
0.604,-0.011221259977967735
0.608,-0.01121844723444548
0.612,-0.011226308491982041
0.616,-0.011224817978320676
0.62,-0.011222654329457401
0.624,-0.011222630288914476
0.628,-0.011221115734710185
0.632,-0.011223087059230056
0.636,-0.011225995964924013
0.64,-0.011225539194608433
0.644,-0.011225058383749927
0.648,-0.0112248420188636
0.652,-0.011226068086552788
0.656,-0.011227919208358033
0.66,-0.011228472140845314
0.664,-0.011227342235327828
0.668,-0.011228159613787286
0.672,-0.01122840001921654
0.676,-0.011225995964924013
0.68,-0.011229794370706205
0.684,-0.011231477208710972
0.6880000000000001,-0.011229962654506681
0.6920000000000001,-0.011230203059935934
0.6960000000000001,-0.011230419424822261
0.7000000000000001,-0.01123037134373641
0.704,-0.011229962654506681
0.708,-0.011228616384102866
0.712,-0.01122895295170382
0.716,-0.011228303857044838
0.72,-0.01123022710047886
0.724,-0.011231573370882673
0.728,-0.011232991762915265
0.732,-0.011235131371235612
0.736,-0.011234770763091734
0.74,-0.011229626086905729
0.744,-0.011231381046539273
0.748,-0.01123885765538903
0.752,-0.011237775830957392
0.756,-0.011235323695579015
0.76,-0.011232871560200638
0.764,-0.011235612182094118
0.768,-0.011231501249253898
0.772,-0.011231717614140225
0.776,-0.011234313992776154
0.78,-0.01123255903314261
0.784,-0.011229433762562326
0.788,-0.011234915006349286
0.792,-0.011237102695755485
0.796,-0.011235852587523371
0.8,-0.011237006533583784
0.804,-0.011235419857750716
0.808,-0.011239049979732432
0.812,-0.011241405952939107
0.8160000000000001,-0.011239963520363591
0.8200000000000001,-0.011237559466071065
0.8240000000000001,-0.01123763158769984
0.8280000000000001,-0.01123438611440493
0.8320000000000001,-0.01123260711422846
0.836,-0.011235996830780923
0.84,-0.011239843317648966
0.844,-0.011242583939542444
0.848,-0.011240300087964545
0.852,-0.011239650993305563
0.856,-0.011240540493393797
0.86,-0.011239939479820665
0.864,-0.011241574236739584
0.868,-0.01124159827728251
0.872,-0.011239650993305563
0.876,-0.01123743926335644
0.88,-0.011241357871853257
0.884,-0.011241574236739584
0.888,-0.011242367574656117
0.892,-0.011245012034377897
0.896,-0.011246045777723682
0.9,-0.011245853453380281
0.904,-0.011244266777547213
0.908,-0.011241454034024958
0.912,-0.011243665763974082
0.916,-0.01124621406152416
0.92,-0.011244819710034494
0.924,-0.011243160912572651
0.928,-0.011242367574656117
0.932,-0.011243088790943875
0.936,-0.011243401318001904
0.9400000000000001,-0.011241718479997135
0.9440000000000001,-0.011242199290855641
0.9480000000000001,-0.011244050412660887
0.9520000000000001,-0.0112452043587213
0.9560000000000001,-0.01124580537229443
0.96,-0.011247343967041646
0.964,-0.011248041142786479
0.968,-0.011249844183505874
0.972,-0.011251935710740372
0.976,-0.01125270500811398
0.98,-0.011252825210828607
0.984,-0.011252945413543233
0.988,-0.011252368440513028
0.992,-0.011251022170109213
0.996,-0.011249435494276145
1.0,-0.011247993061700629
1.004,-0.0112498682240488
1.008,-0.011253306021687112
1.012,-0.011250132670020977
1.016,-0.01125087792685166
1.02,-0.011250613480879483
1.024,-0.011251623183682344
1.028,-0.01125311369734371
1.032,-0.01125357046765929
1.036,-0.011251959751283297
1.04,-0.011250998129566286
1.044,-0.011251358737710165
1.048,-0.011250805805222884
1.052,-0.011249387413190294
1.056,-0.011249171048303967
1.06,-0.011254003197431944
1.064,-0.011254171481232422
1.068,-0.011254772494805554
1.072,-0.011255565832722086
1.076,-0.011255998562494741
1.08,-0.01125595048140889
1.084,-0.0112568159409542
1.088,-0.011256238967923994
1.092,-0.011254628251548002
1.096,-0.011254532089376301
1.1,-0.011249940345677575
1.104,-0.011249940345677575
1.108,-0.011261816373882655
1.112,-0.011258763224931146
1.116,-0.01125667169769665
1.12,-0.011257537157241959
1.124,-0.011256984224754678
1.1280000000000001,-0.011256263008466919
1.1320000000000001,-0.011257729481585361
1.1360000000000001,-0.01125736887344148
1.1400000000000001,-0.01125955656284768
1.1440000000000001,-0.01126097495488027
1.1480000000000001,-0.011261768292796804
1.1520000000000001,-0.011260614346736392
1.156,-0.01126097495488027
1.16,-0.01126051818456469
1.164,-0.011260566265650541
1.168,-0.01125854686004482
1.172,-0.01125631108955277
1.176,-0.011257609278870734
1.18,-0.011260397981850065
1.184,-0.011262850117228442
1.188,-0.011260373941307139
1.192,-0.011260998995423196
1.196,-0.011262080819854834
1.2,-0.011259268076332577
1.204,-0.011261359603567075
1.208,-0.011263980022745928
1.212,-0.011264052144374705
1.216,-0.011265614779664847
1.22,-0.011265085887720492
1.224,-0.011262970319943067
1.228,-0.01126361941460205
1.232,-0.011262345265827011
1.236,-0.01125859494113067
1.24,-0.011266552360838933
1.244,-0.011269413185447039
1.248,-0.011269148739474861
1.252,-0.011268812171873907
1.256,-0.011266888928439887
1.26,-0.011265638820207773
1.264,-0.011266648523010634
1.268,-0.01126580710400825
1.272,-0.011262681833427966
1.276,-0.011262369306369936
1.28,-0.011263739617316677
1.284,-0.011265879225637024
1.288,-0.011265182049892191
1.292,-0.011267658225813494
1.296,-0.011270663293679152
1.3,-0.0112705190504216
1.304,-0.011268475604272953
1.308,-0.01126681680681111
1.312,-0.011267706306899345
1.316,-0.011269893996305545
1.32,-0.011270158442277722
1.324,-0.011266528320296006
1.328,-0.011268836212416831
1.332,-0.011273572199373109
1.336,-0.011272153807340519
1.34,-0.011269220861103636
1.344,-0.011270783496393778
1.348,-0.011270591172050376
1.352,-0.011269629550333365
1.356,-0.0112704228882499
1.36,-0.011271721077567864
1.364,-0.011271336428881059
1.368,-0.011272105726254669
1.372,-0.011272923104714127
1.3760000000000001,-0.011275399280635432
1.3800000000000001,-0.011276937875382647
1.3840000000000001,-0.011277009997011424
1.3880000000000001,-0.011276769591582171
1.3920000000000001,-0.011274678064347671
1.3960000000000001,-0.01127840434850109
1.4000000000000001,-0.011279077483702996
1.4040000000000001,-0.011276312821266591
1.408,-0.011273259672315081
1.412,-0.011272875023628276
1.416,-0.01127366836154481
1.42,-0.011275230996834954
1.424,-0.011277034037554349
1.428,-0.011278308186329388
1.432,-0.011277731213299181
1.436,-0.011278788997187893
1.44,-0.01127794757818551
1.444,-0.011276240699637815
1.448,-0.01127794757818551
1.452,-0.011280471835192662
1.456,-0.011280712240621915
1.46,-0.011278644753930341
1.464,-0.01128124113256627
1.468,-0.01128297205165689
1.472,-0.011284150038260226
1.476,-0.01128535206540649
1.48,-0.011284606808575806
1.484,-0.011281914267768178
1.488,-0.011281169010937495
1.492,-0.011279101524245922
1.496,-0.011280952646051168
1.5,-0.011285159741063089
1.504,-0.01128297205165689
1.508,-0.0112817459839677
1.512,-0.011282298916454981
1.516,-0.01128398175445975
1.52,-0.0112839336733739
1.524,-0.011282851848942262
1.528,-0.011282827808399338
1.532,-0.011282587402970085
1.536,-0.011282130632654505
1.54,-0.011284318322060704
1.544,-0.011285135700520163
1.548,-0.011283116294914441
1.552,-0.011284318322060704
1.556,-0.011287900362956568
1.56,-0.011287251268297585
1.564,-0.011287780160241942
1.568,-0.011287780160241942
1.572,-0.011286025200608398
1.576,-0.011285784795179145
1.58,-0.011284366403146555
1.584,-0.011282996092199814
1.588,-0.011284510646404107
1.592,-0.01128352498414417
1.596,-0.011283765389573423
1.6,-0.011292419985026517
1.604,-0.011291650687652909
1.608,-0.011289775525304739
1.612,-0.01128946299824671
1.616,-0.011287034903411259
1.62,-0.011287515714269765
1.624,-0.011291025633536853
1.6280000000000001,-0.011292107457968489
1.6320000000000001,-0.011292131498511415
1.6360000000000001,-0.011295040404205372
1.6400000000000001,-0.011291458363309506
1.6440000000000001,-0.011291506444395357
1.6480000000000001,-0.011291169876794405
1.6520000000000001,-0.011290689065935899
1.6560000000000001,-0.011289895728019365
1.6600000000000001,-0.011289775525304739
1.6640000000000001,-0.01129266039045577
1.668,-0.011293141201314276
1.672,-0.011290448660506646
1.676,-0.01129129007950903
1.68,-0.011289655322590112
1.684,-0.011285376105949416
1.688,-0.011288453295443849
1.692,-0.011291722809281686
1.696,-0.01129352585000108
1.7,-0.011295761620493129
1.704,-0.01129590586375068
1.708,-0.011295737579950204
1.712,-0.01129439130954639
1.716,-0.01129367009325863
1.72,-0.011294703836604417
1.724,-0.011294319187917613
1.728,-0.011294872120404894
1.732,-0.011296554958409663
1.736,-0.011296482836780888
1.74,-0.011293501809458154
1.744,-0.011293309485114752
1.748,-0.011295136566377073
1.752,-0.011295497174520951
1.756,-0.011293333525657678
1.76,-0.011293718174344481
1.764,-0.01129484807986197
1.768,-0.011297300215240346
1.772,-0.011296194350265784
1.776,-0.011297756985555926
1.78,-0.011299800431704574
1.784,-0.011296074147551157
1.788,-0.01129275655262747
1.792,-0.011293141201314276
1.796,-0.011295473133978025
1.8,-0.011297901228813478
1.804,-0.011298021431528103
1.808,-0.0112976367828413
1.812,-0.011296098188094083
1.816,-0.011295016363662445
1.82,-0.011292035336339714
1.824,-0.011299223458674366
1.828,-0.01130119478319424
1.832,-0.011299439823560695
1.836,-0.01130169963459567
1.84,-0.011299944674962125
1.844,-0.011298285877500282
1.848,-0.011299944674962125
1.852,-0.011299535985732396
1.856,-0.011299271539760217
1.86,-0.011300713972335733
1.864,-0.011300593769621108
1.868,-0.011300762053421584
1.872,-0.011302012161653698
1.8760000000000001,-0.011303887324001867
1.8800000000000001,-0.01130508935114813
1.8840000000000001,-0.01130311802662826
1.8880000000000001,-0.011304921067347654
1.8920000000000001,-0.011305065310605206
1.8960000000000001,-0.011302925702284857
1.9000000000000001,-0.011301988121110773
1.9040000000000001,-0.011302829540113156
1.9080000000000001,-0.011304031567259419
1.9120000000000001,-0.011306243297208543
1.9160000000000001,-0.011304680661918401
1.92,-0.011304103688888196
1.924,-0.011303887324001867
1.928,-0.01130407964834527
1.932,-0.011305930770150515
1.936,-0.011308118459556715
1.94,-0.011306483702637796
1.944,-0.011304608540289626
1.948,-0.011302517013055128
1.952,-0.011299271539760217
1.956,-0.011299728310075797
1.96,-0.011310089784076586
1.964,-0.01130946472996053
1.968,-0.011308479067700593
1.972,-0.011309657054303932
1.976,-0.0113113398923087
1.98,-0.011308022297385013
1.984,-0.011307637648698209
1.988,-0.011309128162359575
1.992,-0.011308166540642565
1.996,-0.01130874351367277
2.0,-0.011305738445807113
2.004,-0.011307974216299163
2.008,-0.011310089784076586
2.012,-0.011311580297737952
2.016,-0.011309440689417603
2.02,-0.011307757851412836
2.024,-0.011308214621728416
2.028,-0.011306075013408067
2.032,-0.011307180878382629
2.036,-0.011310498473306315
2.04,-0.011312493838369112
2.044,-0.011309825338104408
2.048,-0.01131088312199312
2.052,-0.011311099486879446
2.056,-0.01131458536560361
2.06,-0.011317951041613147
2.064,-0.011317350028040015
2.068,-0.011318167406499475
2.072,-0.01131722982532539
2.076,-0.01131285444651299
2.08,-0.01131042635167754
2.084,-0.01131220535185401
2.088,-0.011311460095023327
2.092,-0.011314393041260208
2.096,-0.011315306581891367
2.1,-0.011312253432939859
2.104,-0.011315282541348443
2.108,-0.011314417081803134
2.112,-0.011313287176285646
2.116,-0.011318311649757025
2.12,-0.01132011469047642
2.124,-0.011317301946954164
2.128,-0.011315186379176742
2.132,-0.011319177109302336
2.136,-0.011317301946954164
2.14,-0.01131650860903763
2.144,-0.011318816501158457
2.148,-0.011319994487761794
2.152,-0.01131910498767356
2.156,-0.011316340325237154
2.16,-0.011317710636183894
2.164,-0.011318672257900906
2.168,-0.011316532649580557
2.172,-0.011319561757989139
2.176,-0.011319249230931111
2.18,-0.011313335257371496
2.184,-0.011320643582420777
2.188,-0.011319297312016962
2.192,-0.011317085582067838
2.196,-0.011320547420249075
2.2,-0.011322614906940648
2.204,-0.011319585798532065
2.208,-0.011323071677256227
2.212,-0.011324826636889773
2.216,-0.01132458623146052
2.22,-0.011322638947483574
2.224,-0.011321485001423161
2.228,-0.011323408244857181
2.232,-0.01132184560956704
2.236,-0.011320763785135402
2.24,-0.011322783190741125
2.244,-0.01132098015002173
2.248,-0.011321460960880235
2.2520000000000002,-0.011322999555627452
2.2560000000000002,-0.011322903393455751
2.2600000000000002,-0.011322254298796769
2.2640000000000002,-0.011322879352912827
2.2680000000000002,-0.0113227591501982
2.2720000000000002,-0.011324754515260996
2.2760000000000002,-0.01132600462349311
2.2800000000000002,-0.011326894123581345
2.2840000000000003,-0.011324946839604399
2.2880000000000003,-0.011323239961056705
2.2920000000000003,-0.011323119758342078
2.2960000000000003,-0.01132376885300106
2.3000000000000003,-0.011325115123404875
2.3040000000000003,-0.011326533515437467
2.308,-0.011325668055892156
2.312,-0.011323336123228406
2.316,-0.011326269069465288
2.32,-0.01133112525913619
2.324,-0.011328096150727609
2.328,-0.011324730474718072
2.332,-0.011323792893543986
2.336,-0.011325764218063857
2.34,-0.01132691816412427
2.344,-0.01132864908321489
2.348,-0.011329490502217274
2.352,-0.011331101218593266
2.356,-0.011327999988555907
2.36,-0.011328048069641758
2.364,-0.011328072110184682
2.368,-0.011326797961409644
2.372,-0.01132691816412427
2.376,-0.011327711502040804
2.38,-0.011327975948012981
2.384,-0.011329394340045573
2.388,-0.011330380002305507
2.392,-0.01133112525913619
2.396,-0.011331317583479593
2.4,-0.011330452123934284
2.404,-0.011327206650639373
2.408,-0.011331245461850818
2.412,-0.011332086880853201
2.416,-0.011333601435057494
2.42,-0.011333048502570213
2.424,-0.011331053137507416
2.428,-0.011329851110361153
2.432,-0.011333986083744297
2.436,-0.011338145097670367
2.44,-0.011336894989438254
2.444,-0.011333409110714092
2.448,-0.011330908894249864
2.452,-0.011332784056598034
2.456,-0.011330644448277687
2.46,-0.011330692529363537
2.464,-0.011333120624198988
2.468,-0.011335428516319813
2.472,-0.011334875583832532
2.476,-0.01133473134057498
2.48,-0.011334851543289608
2.484,-0.011334442854059879
2.488,-0.01133651034075145
2.492,-0.011336125692064646
2.496,-0.01133518811089056
2.5,-0.011335741043377841
2.504,-0.011335356394691038
2.508,-0.011333697597229195
2.512,-0.011336029529892945
2.516,-0.011339491368074182
2.52,-0.011341366530422354
2.524,-0.011339587530245884
2.528,-0.011337015192152881
2.532,-0.011336582462380226
2.536,-0.011334755381117907
2.54,-0.011333505272885793
2.544,-0.011338097016584517
2.548,-0.011338722070700575
2.552,-0.011338313381470845
2.556,-0.01133569296229199
2.56,-0.011336558421837301
2.564,-0.011338048935498668
2.568,-0.011338024894955742
2.572,-0.011338169138213294
2.576,-0.011336943070524104
2.58,-0.011335981448807094
2.584,-0.011340140462733165
2.588,-0.011344107152315833
2.592,-0.01134290512516957
2.596,-0.011342231989967663
2.6,-0.011342977246798346
2.604,-0.011340837638477997
2.608,-0.011339851976218063
2.612,-0.01133961157078881
2.616,-0.01134249643593984
2.62,-0.011343361895485151
2.624,-0.011339731773503435
2.628,-0.011338529746357172
2.632,-0.011342712800826169
2.636,-0.011341775219652083
2.64,-0.011339275003187856
2.644,-0.011341174206078952
2.648,-0.0113410299628214
2.652,-0.011340549151962894
2.656,-0.01134052511141997
2.66,-0.011344059071229984
2.664,-0.011345573625434275
2.668,-0.011342544517025691
2.672,-0.011335813165006618
2.676,-0.011340477030334119
2.68,-0.011344419679373862
2.684,-0.011343986949601207
2.688,-0.011344251395573384
2.692,-0.011348097882441427
2.696,-0.011346078476835705
2.7,-0.011345717868691827
2.704,-0.011346391003893733
2.708,-0.011344035030687058
2.712,-0.01134372250362903
2.716,-0.0113433138143993
2.72,-0.011343097449512972
2.724,-0.011347064139095642
2.728,-0.01134879505818626
2.732,-0.011346198679550331
2.736,-0.011346775652580538
2.74,-0.011348530612214082
2.744,-0.011346487166065435
2.748,-0.011347064139095642
2.7520000000000002,-0.01134884313927211
2.7560000000000002,-0.011350189409675925
2.7600000000000002,-0.011347040098552716
2.7640000000000002,-0.011341174206078952
2.7680000000000002,-0.011348722936557485
2.7720000000000002,-0.011348915260900885
2.7760000000000002,-0.011347737274297548
2.7800000000000002,-0.011352713666683077
2.7840000000000003,-0.011354564788488323
2.7880000000000003,-0.011353891653286416
2.7920000000000003,-0.011354492666859548
2.7960000000000003,-0.011350862544877832
2.8000000000000003,-0.01134691989583809
2.8040000000000003,-0.011346631409322986
2.8080000000000003,-0.01134792959864095
2.8120000000000003,-0.011350790423249057
2.816,-0.011351006788135384
2.82,-0.011351102950307085
2.824,-0.011350694261077356
2.828,-0.011349660517731569
2.832,-0.011353314680256209
2.836,-0.011355045599346828
2.84,-0.011354156099258593
2.844,-0.011353507004599611
2.848,-0.01135148759899389
2.852,-0.011351631842251441
2.856,-0.011354011856001042
2.86,-0.011351271234107563
2.864,-0.011350189409675925
2.868,-0.01135107890976416
2.872,-0.0113524492207109
2.876,-0.011352689626140153
2.88,-0.011352160734195796
2.884,-0.01135199245039532
2.888,-0.011352545382882601
2.892,-0.011352569423425525
2.896,-0.01134884313927211
2.9,-0.011351631842251441
2.904,-0.01135925269435875
2.908,-0.011357666018525682
2.912,-0.011355742775091661
2.916,-0.011355117720975604
2.92,-0.011356800558980373
2.924,-0.011359589261959704
2.928,-0.011356439950836494
2.932,-0.011356415910293568
2.936,-0.011358603599699767
2.94,-0.01135788238341201
2.944,-0.01135797854558371
2.948,-0.01135564661291996
2.952,-0.011354492666859548
2.956,-0.01135605530214969
2.96,-0.01135925269435875
2.964,-0.011356367829207717
2.968,-0.011357617937439831
2.972,-0.011360334518790385
2.976,-0.011356848640066223
2.98,-0.0113546369101171
2.984,-0.011357137126581327
2.988,-0.011355358126404856
2.992,-0.01135660823463697
2.996,-0.011358194910470038
3.0,-0.01135853147807099
3.004,-0.011359589261959704
3.008,-0.011359877748474806
3.012,-0.01135756985635398
3.016,-0.011357233288753028
3.02,-0.011357714099611532
3.024,-0.01135797854558371
3.028,-0.01135934885653045
3.032,-0.011359661383588479
3.036,-0.011360574924219638
3.04,-0.011361296140507397
3.044,-0.011364445451630607
3.048,-0.011365671519319795
3.052,-0.01136528687063299
3.056,-0.011362209681138557
3.06,-0.0113638684786004
3.064,-0.011362930897426314
3.068,-0.011361512505393724
3.072,-0.011363027059598015
3.076,-0.011363988681315025
3.08,-0.011364084843486727
3.084,-0.011366224451807076
3.088,-0.011367426478953339
3.092,-0.011365815762577346
3.096,-0.011368315979041574
3.1,-0.011369229519672733
3.104,-0.0113684361817562
3.108,-0.011366753343751432
3.112,-0.011367450519496265
3.116,-0.011368147695241096
3.12,-0.011365214749004215
3.124,-0.011358627640242692
3.128,-0.011367546681667964
3.132,-0.011372282668624242
3.136,-0.011368772749357154
3.14,-0.011368099614155247
3.144,-0.011366969708637759
3.148,-0.011363940600229175
3.152,-0.01136122401887862
3.156,-0.01136117593779277
3.16,-0.011363772316428699
3.164,-0.011366392735607552
3.168,-0.011367378397867488
3.172,-0.011369349722387359
3.176,-0.011369590127816612
3.18,-0.011369013154786407
3.184,-0.011368772749357154
3.188,-0.011368556384470827
3.192,-0.011370455587361923
3.196,-0.011371801857765736
3.2,-0.011369277600758584
3.204,-0.011368388100670349
3.208,-0.011365310911175916
3.212,-0.011363531910999446
3.216,-0.011368508303384976
3.22,-0.011373989547171936
3.224,-0.011375359858118675
3.228,-0.011372018222652065
3.232,-0.011370311344104371
3.236,-0.011367955370897695
3.24,-0.011367378397867488
3.244,-0.011369998817046341
3.248,-0.011369349722387359
3.2520000000000002,-0.011370936398220427
3.2560000000000002,-0.011371561452336485
3.2600000000000002,-0.011372258628081318
3.2640000000000002,-0.011375167533775274
3.2680000000000002,-0.011377643709696576
3.2720000000000002,-0.011375912790605958
3.2760000000000002,-0.011373268330884178
3.2800000000000002,-0.011370503668447773
3.2840000000000003,-0.011370022857589267
3.2880000000000003,-0.011372811560568599
3.2920000000000003,-0.011375480060833302
3.2960000000000003,-0.011376441682550312
3.3000000000000003,-0.011375311777032826
3.3040000000000003,-0.011377283101552697
3.3080000000000003,-0.011375984912234733
3.3120000000000003,-0.01137665804743664
3.3160000000000003,-0.011376874412322968
3.3200000000000003,-0.011373797222828533
3.3240000000000003,-0.011374614601287993
3.3280000000000003,-0.011376393601464462
3.332,-0.011377451385353173
3.336,-0.01137620127712106
3.34,-0.011377355223181472
3.344,-0.011374446317487515
3.348,-0.011370119019760969
3.352,-0.011377715831325352
3.356,-0.011374927128346021
3.36,-0.01137487904726017
3.364,-0.0113752877364899
3.368,-0.01137624935820691
3.372,-0.01137721097992392
3.376,-0.01137711481775222
3.38,-0.011376970574494669
3.384,-0.011379326547701345
3.388,-0.011379158263900867
3.392,-0.011373172168712477
3.396,-0.011379422709873046
3.4,-0.011380288169418355
3.404,-0.011377619669153651
3.408,-0.011375648344633778
3.412,-0.011371489330707708
3.416,-0.011371753776679885
3.42,-0.011375167533775274
3.424,-0.011380961304620262
3.428,-0.011380576655933458
3.432,-0.011379687155845223
3.436,-0.011380119885617879
3.44,-0.011382692223710881
3.444,-0.011381297872221216
3.448,-0.0113752877364899
3.452,-0.011377235020466846
3.456,-0.011380913223534411
3.46,-0.011381658480365094
3.464,-0.01138117766950659
3.468,-0.011381538277650469
3.472,-0.01137944675041597
3.476,-0.011380937264077337
3.48,-0.011381418074935841
3.484,-0.01138310091294061
3.488,-0.011384254859001023
3.492,-0.011382451818281628
3.496,-0.011382884548054284
3.5,-0.01138209121013775
3.504,-0.01138478375094538
3.508,-0.011385408805061436
3.512,-0.011386586791664774
3.516,-0.011385456886147286
3.52,-0.011383365358912788
3.524,-0.011383269196741087
3.528,-0.011384447183344425
3.532,-0.01138675507546525
3.536,-0.011389375494644104
3.54,-0.011389567818987506
3.544,-0.01138807730532614
3.548,-0.011385096278003408
3.552,-0.01138136999384999
3.556,-0.011380288169418355
3.56,-0.01138209121013775
3.564,-0.011384927994202931
3.568,-0.011382740304796732
3.572,-0.011382283534481152
3.576,-0.011387836899896888
3.58,-0.01138853407564172
3.584,-0.011387259926866681
3.588,-0.011387884980982739
3.592,-0.011388269629669542
3.596,-0.01138766861609641
3.6,-0.011389183170300701
3.604,-0.01139036115690404
3.608,-0.011389615900073357
3.612,-0.01138843791347002
3.616,-0.011379975642360327
3.62,-0.011378965939557464
3.624,-0.011388317710755392
3.628,-0.011389231251386552
3.632,-0.011390048629846012
3.636,-0.011390962170477172
3.64,-0.011387692656639336
3.644,-0.011385961737548717
3.648,-0.011385096278003408
3.652,-0.011388245589126617
3.656,-0.011391106413734723
3.66,-0.011388918724328524
3.664,-0.011390096710931863
3.668,-0.011391923792194182
3.672,-0.011390120751474787
3.676,-0.011389808224416759
3.68,-0.011390793886676695
3.684,-0.011392861373368268
3.688,-0.011393029657168744
3.692,-0.011393173900426296
3.696,-0.011393822995085278
3.7,-0.01139300561662582
3.704,-0.011392260359795136
3.708,-0.011390697724504994
3.712,-0.011389303373015329
3.716,-0.01138944761627288
3.72,-0.011390096710931863
3.724,-0.011389111048671926
3.728,-0.011390553481247442
3.732,-0.011391875711108331
3.736,-0.011391947832737108
3.74,-0.011392380562509762
3.744,-0.011394231684315007
3.748,-0.011393798954542353
3.7520000000000002,-0.011394375927572559
3.7560000000000002,-0.011394111481600381
3.7600000000000002,-0.011394952900602766
3.7640000000000002,-0.011394736535716437
3.7680000000000002,-0.011392380562509762
3.7720000000000002,-0.011391899751651257
3.7760000000000002,-0.011396154927749029
3.7800000000000002,-0.011397813725210872
3.7840000000000003,-0.011395313508746644
3.7880000000000003,-0.011394664414087662
3.7920000000000003,-0.011397308873809442
3.7960000000000003,-0.01139644341426413
3.8000000000000003,-0.011403583455512935
3.8040000000000003,-0.011403583455512935
3.8080000000000003,-0.011399015752357135
3.8120000000000003,-0.011395265427660794
3.8160000000000003,-0.01139620300883488
3.8200000000000003,-0.01139406340051453
3.8240000000000003,-0.01139406340051453
3.8280000000000003,-0.01139629917100658
3.8320000000000003,-0.011396731900779234
3.8360000000000003,-0.011396154927749029
3.84,-0.011392260359795136
3.844,-0.011393606630198951
3.848,-0.011399809090273669
3.852,-0.011401900617508166
3.856,-0.011399472522672715
3.86,-0.011399448482129789
3.864,-0.011402092941851568
3.868,-0.011402958401396879
3.872,-0.011401443847192586
3.876,-0.01140004949570292
3.88,-0.011398510900955705
3.884,-0.01139665977915046
3.888,-0.011397813725210872
3.892,-0.011399400401043938
3.896,-0.011398943630728358
3.9,-0.011401708293164765
3.904,-0.011401395766106735
3.908,-0.011399640806473191
3.912,-0.011399833130816594
3.916,-0.011398871509099583
3.92,-0.011397861806296723
3.924,-0.011397693522496245
3.928,-0.011396900184579712
3.932,-0.011394279765400857
3.936,-0.011399328279415163
3.94,-0.011399833130816594
3.944,-0.011399712928101968
3.948,-0.01140004949570292
3.952,-0.011400938995791155
3.956,-0.011398871509099583
3.96,-0.011398414738784004
3.964,-0.011400602428190201
3.968,-0.011400938995791155
3.972,-0.011401804455336464
3.976,-0.01139807817118305
3.98,-0.011405170131346003
3.984,-0.011407453982923902
3.988,-0.011405458617861105
3.992,-0.011407502064009752
3.996,-0.011405795185462059
4.0,-0.01140355941497001
4.0040000000000004,-0.01140593942871961
4.008,-0.011406251955777639
4.0120000000000005,-0.011403727698770487
4.016,-0.011404689320487497
4.0200000000000005,-0.011402213144566195
4.024,-0.01140492972591675
4.0280000000000005,-0.011407045293694172
4.032,-0.011402477590538373
4.0360000000000005,-0.011403871942028038
4.04,-0.01140685296935077
4.0440000000000005,-0.011407453982923902
4.048,-0.011408367523555063
4.0520000000000005,-0.011408103077582884
4.056,-0.011405146090803077
4.0600000000000005,-0.01140452103668702
4.064,-0.011402573752710074
4.0680000000000005,-0.011407453982923902
4.072,-0.011409064699299894
4.0760000000000005,-0.011405194171888927
4.08,-0.01140401618528559
4.0840000000000005,-0.011405290334060628
4.088,-0.011405987509805461
4.0920000000000005,-0.01140593942871961
4.096,-0.011407381861295127
4.1,-0.011407045293694172
4.104,-0.011405699023290358
4.108,-0.011403439212255383
4.112,-0.011402862239225178
4.116,-0.011409978239931055
4.12,-0.011410074402102757
4.124,-0.011408680050613091
4.128,-0.011407502064009752
4.132,-0.011408944496585268
4.136,-0.011409930158845205
4.14,-0.011408800253327717
4.144,-0.011408776212784792
4.148,-0.011409785915587653
4.152,-0.011410074402102757
4.156,-0.011408824293870643
4.16,-0.011410531172418336
4.164,-0.011411757240107524
4.168,-0.011409906118302279
4.172,-0.011408103077582884
4.176,-0.011406324077406415
4.18,-0.011407862672153631
4.184,-0.011408896415499418
4.188,-0.011407982874868258
4.192,-0.01140817519921166
4.196,-0.011409449347986699
4.2,-0.011409665712873026
4.204,-0.011411396631963645
4.208,-0.011413632402455695
4.212,-0.0114142093754859
4.216,-0.01141466614580148
4.22,-0.011414041091685425
4.224,-0.011414233416028827
4.228,-0.01141178128065045
4.232,-0.0114117331995646
4.236,-0.011414257456571751
4.24,-0.011414305537657602
4.244,-0.011414089172771275
4.248,-0.011411060064362691
4.252,-0.0114118293617363
4.256,-0.011412430375309432
4.26,-0.011415579686432642
4.264,-0.01141507483503121
4.268,-0.011412670780738684
4.272,-0.01141360836191277
4.276,-0.011413223713225965
4.28,-0.011415603726975566
4.284,-0.0114187770786417
4.288,-0.01141584413240482
4.292,-0.011416469186520875
4.296,-0.011418825159727551
4.3,-0.011418849200270477
4.304,-0.011422527403338042
4.308,-0.011421084970762526
4.312,-0.011417983740725168
4.316,-0.011417599092038364
4.32,-0.011413512199741068
4.324,-0.011412310172594805
4.328,-0.011417526970409587
4.332,-0.011417983740725168
4.336,-0.011416661510864278
4.34,-0.011418176065068569
4.344,-0.011419618497644085
4.348,-0.011420796484247424
4.352,-0.011419906984159189
4.356,-0.01141690191629353
4.36,-0.01141731060552326
4.364,-0.011417238483894485
4.368,-0.011414137253857126
4.372,-0.011419906984159189
4.376,-0.011421397497820555
4.38,-0.011420339713931844
4.384,-0.011419690619272862
4.388,-0.011416517267606726
4.392,-0.01142055607881817
4.396,-0.01142264760605267
4.4,-0.011419714659815786
4.404,-0.011419281930043131
4.408,-0.01141954637601531
4.412,-0.011417551010952513
4.416,-0.011419714659815786
4.42,-0.01142370538994138
4.424,-0.011423921754827707
4.428,-0.01142005122741674
4.432,-0.011417863538010541
4.436,-0.011419378092214832
4.44,-0.01142238316008049
4.444,-0.011424041957542333
4.448,-0.011424450646772064
4.452,-0.011422407200623416
4.456,-0.011421830227593209
4.46,-0.011425364187403224
4.464,-0.011428393295811806
4.468,-0.011423849633198932
4.472,-0.011420435876103543
4.476,-0.01142137345727763
4.48,-0.011415916254033594
4.484,-0.011421157092391302
4.488,-0.011423489025055052
4.492,-0.011424210241342811
4.496,-0.011423032254739472
4.5,-0.011420195470674292
4.5040000000000004,-0.011423224579082875
4.508,-0.011425796917175879
4.5120000000000005,-0.011427215309208469
4.516,-0.011429451079700517
4.5200000000000005,-0.011427479755180646
4.524,-0.011425219944145672
4.5280000000000005,-0.011424330444057437
4.532,-0.011423993876456484
4.5360000000000005,-0.011422671646595594
4.54,-0.011418344348869047
4.5440000000000005,-0.011420315673388918
4.548,-0.01142219083573709
4.5520000000000005,-0.011423272660168725
4.556,-0.01142558055228955
4.5600000000000005,-0.011426614295635337
4.564,-0.011426686417264112
4.5680000000000005,-0.011425003579259345
4.572,-0.011420988808590826
4.5760000000000005,-0.011425460349574925
4.58,-0.011424835295458867
4.5840000000000005,-0.011424234281885735
4.588,-0.011424787214373016
4.5920000000000005,-0.011426758538892889
4.596,-0.011428657741783985
4.6000000000000005,-0.01142608540369098
4.604,-0.011423993876456484
4.6080000000000005,-0.011425893079347578
4.612,-0.011429499160786368
4.616,-0.011431614728563792
4.62,-0.01143101371499066
4.624,-0.011430244417617051
4.628,-0.011429306836442967
4.632,-0.01142644601183486
4.636,-0.011428441376897656
4.64,-0.011430244417617051
4.644,-0.011430316539245828
4.648,-0.011426974903779216
4.652,-0.011425676714461252
4.656,-0.011427888444410375
4.66,-0.011429018349927864
4.664,-0.011428128849839628
4.668,-0.011429907850016099
4.672,-0.011430484823046304
4.676,-0.011430725228475557
4.68,-0.011433946661227542
4.684,-0.01143329756656856
4.688,-0.01143192725562182
4.692,-0.011431662809649643
4.696,-0.011431061796076511
4.7,-0.01143101371499066
4.704,-0.01142832117418303
4.708,-0.011433105242225157
4.712,-0.011433778377427066
4.716,-0.01143065310684678
4.72,-0.01143243210702325
4.724,-0.01143192725562182
4.728,-0.011430797350104332
4.732,-0.011433009080053458
4.736,-0.011434090904485094
4.74,-0.01143502848565918
4.744,-0.011435653539775235
4.748,-0.011436422837148845
4.752,-0.01143502848565918
4.756,-0.011432167661051073
4.76,-0.011432552309737876
4.764,-0.011431254120419912
4.768,-0.011432744634081279
4.772,-0.011434379391000197
4.776,-0.011434980404573329
4.78,-0.011436927688550275
4.784,-0.01143385049905584
4.788,-0.011433465850369038
4.792,-0.0114345717153436
4.796,-0.011436687283121022
4.8,-0.011436783445292724
4.804,-0.011436422837148845
4.808,-0.011435629499232311
4.812,-0.011433225444939785
4.816,-0.011430629066303856
4.82,-0.011435653539775235
4.824,-0.011439403864471577
4.828,-0.01143750466158048
4.832,-0.011438177796782389
4.836,-0.01143553333706061
4.84,-0.011430076133816575
4.844,-0.011432408066480326
4.848,-0.011432600390823727
4.852,-0.011435437174888909
4.856,-0.011436110310090815
4.86,-0.011434715958601151
4.864,-0.011435942026290339
4.868,-0.011437168093979528
4.872,-0.011439259621214025
4.876,-0.011438586486012118
4.88,-0.011439307702299875
4.884,-0.011437793148095584
4.888,-0.011437528702123407
4.892,-0.01143558141814646
4.896,-0.0114369517290932
4.9,-0.011437095972350752
4.904,-0.011435172728916731
4.908,-0.011433009080053458
4.912,-0.011432936958424681
4.916,-0.011435869904661564
4.92,-0.011436711323663947
4.924,-0.011437576783209258
4.928,-0.011435773742489863
4.932,-0.011437216175065379
4.936,-0.011439500026643278
4.94,-0.011438105675153612
4.944,-0.011436855566921499
4.948,-0.011435316972174283
4.952,-0.011433922620684617
4.956,-0.011439716391529605
4.96,-0.011440798215961242
4.964,-0.011438490323840417
4.968,-0.01144014912130226
4.972,-0.011441471351163149
4.976,-0.011443370554054245
4.98,-0.011445197635316566
4.984,-0.011442577216137713
4.988,-0.011439788513158381
4.992,-0.011436975769636126
4.996,-0.011436182431719592
5.0,-0.011440221242931037
5.0040000000000004,-0.011442745499938189
5.008,-0.011443394594597171
5.0120000000000005,-0.011444740865000986
5.016,-0.011442553175594786
5.0200000000000005,-0.011442745499938189
5.024,-0.01144284166210989
5.0280000000000005,-0.011441639634963627
5.032,-0.011440581851074915
5.0360000000000005,-0.01144010104021641
5.04,-0.011440774175418318
5.0440000000000005,-0.011443923486541526
5.048,-0.011444572581200508
5.0520000000000005,-0.011442721459395263
5.056,-0.011445365919117042
5.0600000000000005,-0.011446471784091604
5.064,-0.0114392355806711
5.0680000000000005,-0.011443610959483498
5.072,-0.011448563311326102
5.0760000000000005,-0.011447649770694943
5.08,-0.011441711756592402
5.0840000000000005,-0.011440413567274437
5.088,-0.011445317838031191
5.0920000000000005,-0.011448467149154401
5.096,-0.011450414433131348
5.1000000000000005,-0.011448202703182224
5.104,-0.011448635432954879
5.1080000000000005,-0.011448082500467596
5.112,-0.011447553608523241
5.1160000000000005,-0.011447938257210046
5.12,-0.011448202703182224
5.124,-0.011449212405985084
5.128,-0.01144959705467189
5.132,-0.011447890176124196
5.136,-0.011447553608523241
5.14,-0.011447361284179839
5.144,-0.011446327540834052
5.148,-0.011444452378485882
5.152,-0.011442601256680637
5.156,-0.011444163891970779
5.16,-0.011444091770342004
5.164,-0.011444812986629761
5.168,-0.011444909148801462
5.172,-0.0114438032838269
5.176,-0.011440822256504168
5.18,-0.011444091770342004
5.184,-0.011447481486894465
5.188,-0.01144700067603596
5.192,-0.011446712189520857
5.196,-0.011445846729975548
5.2,-0.011446808351692558
5.204,-0.011449500892500188
5.208,-0.011448707554583654
5.212,-0.011446712189520857
5.216,-0.011445846729975548
5.22,-0.011445125513687789
5.224,-0.011450053824987469
5.228,-0.011451496257562985
5.232,-0.011452602122537547
5.236,-0.011454068595655988
5.24,-0.011448034419381747
5.244,-0.011446712189520857
5.248,-0.011451135649419105
5.252,-0.011449837460101142
5.256,-0.011445245716402416
5.26,-0.011447096838207662
5.264,-0.011450053824987469
5.268,-0.011454885974115446
5.272,-0.011454092636198912
5.276,-0.011453371419911155
5.28,-0.011450005743901618
5.284,-0.011450414433131348
5.288,-0.011447938257210046
5.292,-0.011453131014481902
5.296,-0.011454573447057418
5.3,-0.0114529386901385
5.304,-0.011451279892676657
5.308,-0.011450799081818152
5.312,-0.011451592419734686
5.316,-0.011453611825340408
5.32,-0.011455511028231504
5.324,-0.011455871636375382
5.328,-0.011456809217549468
5.332,-0.011455847595832458
5.336,-0.01145786700143818
5.34,-0.011457506393294301
5.344,-0.011454525365971567
5.348,-0.011455150420087625
5.352,-0.01145567931203198
5.356,-0.011452193433307818
5.36,-0.011453419500997005
5.364,-0.011456304366148038
5.368,-0.011455150420087625
5.372,-0.011455294663345175
5.376,-0.011455102339001775
5.38,-0.011452602122537547
5.384,-0.011454934055201297
5.388,-0.011453371419911155
5.392,-0.011451015446704479
5.396,-0.011451207771047881
5.4,-0.011451592419734686
5.404,-0.011454549406514494
5.408,-0.011453467582082856
5.412,-0.011453227176653603
5.416,-0.011451496257562985
5.42,-0.011450630798017674
5.424,-0.011453659906426258
5.428,-0.011460992272018463
5.432,-0.011460415298988258
5.436,-0.011456015879632934
5.44,-0.011459309434013696
5.444,-0.011458179528496207
5.448,-0.0114552225417164
5.452,-0.011458756501526415
5.456,-0.011458347812296684
5.46,-0.011456761136463618
5.464,-0.011455703352574906
5.468,-0.011457241947322122
5.472,-0.011460415298988258
5.476,-0.01145882862315519
5.48,-0.011458780542069339
5.484,-0.011459814285415126
5.488,-0.011457626596008927
5.492,-0.011454645568686195
5.496,-0.011455486987688578
5.5,-0.011457121744607496
5.5040000000000004,-0.011457891041981104
5.508,-0.011456977501349944
5.5120000000000005,-0.011458612258268863
5.516,-0.011458011244695731
5.5200000000000005,-0.01145882862315519
5.524,-0.011462891474909559
5.5280000000000005,-0.01146527148865916
5.532,-0.011460415298988258
5.5360000000000005,-0.011456881339178243
5.54,-0.011463468447939766
5.5440000000000005,-0.011461857731563774
5.548,-0.011456929420264094
5.5520000000000005,-0.01145690537972117
5.556,-0.011456232244519261
5.5600000000000005,-0.011458468015011311
5.564,-0.01146202601536425
5.5680000000000005,-0.011461737528849146
5.572,-0.011461641366677445
5.5760000000000005,-0.01146079994767506
5.58,-0.011460992272018463
5.5840000000000005,-0.011459549839442947
5.588,-0.011455967798547084
5.5920000000000005,-0.011453443541539932
5.596,-0.011456256285062187
5.6000000000000005,-0.011461665407220371
5.604,-0.011462795312737858
5.6080000000000005,-0.011460896109846762
5.612,-0.011461929853192549
5.6160000000000005,-0.011461881772106698
5.62,-0.011462867434366635
5.6240000000000006,-0.011463973299341196
5.628,-0.011466160988747394
5.632,-0.011465151285944533
5.636,-0.011464093502055822
5.64,-0.011464838758886505
5.644,-0.011463083799252961
5.648,-0.011457987204152805
5.652,-0.011463131880338812
5.656,-0.01146390117771242
5.66,-0.011460896109846762
5.664,-0.01146079994767506
5.668,-0.011462843393823708
5.672,-0.011465367650830862
5.676,-0.011467435137522434
5.68,-0.011467675542951687
5.684,-0.011466545637434199
5.688,-0.011465559975174263
5.692,-0.011468492921411146
5.696,-0.01147188263796361
5.7,-0.011469887272900811
5.704,-0.011467266853721958
5.708,-0.011464381988570926
5.712,-0.01146111247473309
5.716,-0.01146029509627363
5.72,-0.011462338542422278
5.724,-0.011463179961424663
5.728,-0.011466233110376171
5.732,-0.011466713921234675
5.736,-0.01146339632631099
5.74,-0.011464285826399224
5.744,-0.01146527148865916
5.748,-0.011466473515805424
5.752,-0.011467747664580462
5.756,-0.011468084232181416
5.76,-0.01146421370477045
5.764,-0.011463276123596364
5.768,-0.011467363015893657
5.772,-0.01146837271869652
5.776,-0.01146832463761067
5.78,-0.011467242813179032
5.784,-0.011465103204858683
5.788,-0.011472627894794293
5.792,-0.011470392124302242
5.796,-0.011466954326663928
5.8,-0.01146668988069175
5.804,-0.011467338975350733
5.808,-0.011469526664756933
5.812,-0.011470031516158363
5.816,-0.011471233543304626
5.82,-0.011470921016246596
5.824,-0.011470993137875373
5.828,-0.011468084232181416
5.832,-0.011469478583671082
5.836,-0.011469310299870604
5.84,-0.01147029596213054
5.844,-0.011470728691903196
5.848,-0.011470969097332447
5.852,-0.011470993137875373
5.856,-0.011471978800135311
5.86,-0.01146979111072911
5.864,-0.011470969097332447
5.868,-0.011470127678330064
5.872,-0.011467338975350733
5.876,-0.011470368083759315
5.88,-0.011472675975880144
5.884,-0.011469598786385708
5.888,-0.011466810083406376
5.892,-0.0114688294890121
5.896,-0.011465391691373786
5.9,-0.01147334911108205
5.904,-0.011473493354339602
5.908,-0.011471762435248984
5.912,-0.01147279617859477
5.916,-0.011472050921764086
5.92,-0.011473156786738648
5.924,-0.011474406894970762
5.928,-0.011472123043392863
5.932,-0.01147421457062736
5.936,-0.011473637597597154
5.94,-0.01147233940827919
5.944,-0.011472724056965995
5.948,-0.011474839624743417
5.952,-0.011475560841031174
5.956,-0.011475440638316549
5.96,-0.011474911746372192
5.964,-0.011474815584200491
5.968,-0.011475224273430222
5.972,-0.011473902043569332
5.976,-0.011474599219314164
5.98,-0.011475560841031174
5.984,-0.011473397192167901
5.988,-0.011472411529907965
5.992,-0.011474863665286342
5.996,-0.011476810949263288
6.0,-0.011475777205917503
6.0040000000000004,-0.011471522029819728
6.008,-0.011467459178065359
6.0120000000000005,-0.011473853962483481
6.016,-0.011477676408808599
6.0200000000000005,-0.011480224706358675
6.024,-0.011478589949439759
6.0280000000000005,-0.011474695381485866
6.032,-0.01147553680048825
6.0360000000000005,-0.011476834989806214
6.04,-0.011478493787268057
6.0440000000000005,-0.011478085098038328
6.048,-0.011476690746548663
6.0520000000000005,-0.01147508003017267
6.056,-0.011476979233063766
6.0600000000000005,-0.011478373584553432
6.064,-0.011474815584200491
6.0680000000000005,-0.01147604165188968
6.072,-0.011477556206093972
6.0760000000000005,-0.011476306097861858
6.08,-0.011478373584553432
6.0840000000000005,-0.011476594584376961
6.088,-0.011475200232887296
6.0920000000000005,-0.011476810949263288
6.096,-0.011478613989982683
6.1000000000000005,-0.011478397625096356
6.104,-0.01147690711143499
6.1080000000000005,-0.011478926517040713
6.112,-0.01148056127395963
6.1160000000000005,-0.01148137865241909
6.12,-0.01148065743613133
6.1240000000000006,-0.011480224706358675
6.128,-0.011477892773694926
6.132000000000001,-0.011475729124831652
6.136,-0.011479623692785544
6.140000000000001,-0.011478541868353908
6.144,-0.011476690746548663
6.148,-0.011481090165903986
6.152,-0.011478974598126563
6.156,-0.011476979233063766
6.16,-0.011474935786915118
6.164,-0.011474647300400015
6.168,-0.011479094800841189
6.172,-0.01148289320662338
6.176,-0.0114800564225582
6.18,-0.011477291760121794
6.184,-0.011479960260386498
6.188,-0.011480441071245004
6.192,-0.011481763301105893
6.196,-0.01148371058508284
6.2,-0.011484335639198897
6.204,-0.01148599443666074
6.208,-0.011482508557936576
6.212,-0.011484624125713999
6.216,-0.011485393423087608
6.22,-0.011483878868883315
6.224,-0.011481739260562968
6.228,-0.011483518260739437
6.232,-0.011483181693138484
6.236,-0.011481691179477118
6.24,-0.011479503490070918
6.244,-0.011482484517393652
6.248,-0.011481138246989837
6.252,-0.011479936219843574
6.256,-0.011475873368089204
6.26,-0.011482989368795082
6.264,-0.011484960693314953
6.268,-0.0114870041394636
6.272,-0.011486018477203664
6.276,-0.011485705950145636
6.28,-0.011484864531143252
6.284,-0.011481859463277594
6.288,-0.011481859463277594
6.292,-0.011483590382368214
6.296,-0.01148431159865597
6.3,-0.011483638463454064
6.304,-0.011484431801370596
6.308,-0.01148060935504548
6.312,-0.011481306530790313
6.316,-0.011480705517217181
6.32,-0.011481210368618612
6.324,-0.011484335639198897
6.328,-0.01148746090977918
6.332,-0.011486403125890469
6.336,-0.011484359679741821
6.34,-0.011483590382368214
6.344,-0.011484359679741821
6.348,-0.011487701315208433
6.352,-0.011488398490953266
6.356,-0.011486282923175842
6.36,-0.011485465544716383
6.364,-0.011482965328252156
6.368,-0.011483638463454064
6.372,-0.011489816882985856
6.376,-0.011486883936748973
6.38,-0.011487533031407956
6.384,-0.011486811815120198
6.388,-0.011485465544716383
6.392,-0.011489023545069322
6.396,-0.011488037882809386
6.4,-0.011487508990865031
6.404,-0.011487148382721152
6.408,-0.01148426351757012
6.412,-0.011483422098567736
6.416,-0.01148558574743101
6.42,-0.011487845558465985
6.424,-0.011488590815296669
6.428,-0.011488085963895237
6.432,-0.01148791768009476
6.436,-0.01148878313964007
6.44,-0.01148791768009476
6.444,-0.01149061022090239
6.448,-0.01149248538325056
6.452,-0.011492629626508112
6.456,-0.011490033247872183
6.46,-0.011489456274841978
6.464,-0.01148786959900891
6.468,-0.011489504355927828
6.472,-0.011488061923352312
6.476,-0.011488230207152788
6.48,-0.011491283356104297
6.484,-0.01149248538325056
6.488,-0.011493086396823692
6.492,-0.011493038315737841
6.496,-0.011492821950851514
6.5,-0.011487821517923059
6.5040000000000004,-0.011486739693491423
6.508,-0.011489071626155173
6.5120000000000005,-0.011487292625978704
6.516,-0.011490249612758512
6.5200000000000005,-0.011490898707417494
6.524,-0.011491042950675044
6.5280000000000005,-0.011491860329134504
6.532,-0.011489119707241023
6.5360000000000005,-0.011490994869589195
6.54,-0.011494552869942134
6.5440000000000005,-0.011492365180535934
6.548,-0.01149101891013212
6.5520000000000005,-0.011493326802252945
6.556,-0.011492052653477906
6.5600000000000005,-0.011492172856192532
6.564,-0.01149568277545962
6.5680000000000005,-0.01149654823500493
6.572,-0.011494192261798254
6.5760000000000005,-0.011491788207505727
6.58,-0.01149202861293498
6.5840000000000005,-0.011489672639728304
6.588,-0.011487701315208433
6.5920000000000005,-0.0114915718426194
6.596,-0.011493398923881721
6.6000000000000005,-0.011491163153389671
6.604,-0.011491331437190147
6.6080000000000005,-0.01149421630234118
6.612,-0.011490922747960418
6.6160000000000005,-0.011492629626508112
6.62,-0.011499769667756916
6.6240000000000006,-0.011496620356633706
6.628,-0.011495033680800638
6.632000000000001,-0.011494480748313357
6.636,-0.011493951856369002
6.640000000000001,-0.011493326802252945
6.644,-0.011490273653301436
6.648000000000001,-0.011494312464512881
6.652,-0.011494072059083628
6.656000000000001,-0.011493038315737841
6.66,-0.01149279791030859
6.664,-0.011496740559348332
6.668,-0.011499961992100318
6.672,-0.01149654823500493
6.676,-0.011496812680977108
6.68,-0.011496620356633706
6.684,-0.011498038748666296
6.688,-0.011501644830105085
6.692,-0.011496764599891258
6.696,-0.011497245410749762
6.7,-0.011497726221608268
6.704,-0.011495322167315742
6.708,-0.011495346207858666
6.712,-0.011499096532555007
6.716,-0.011499986032643243
6.72,-0.011495370248401592
6.724,-0.011493927815826076
6.728,-0.011494889437543086
6.732,-0.011499697546128139
6.736,-0.01149705308640636
6.74,-0.011496452072833228
6.744,-0.011497293491835613
6.748,-0.011496836721520033
6.752,-0.011498543600067726
6.756,-0.01149979370829984
6.76,-0.011501139978703655
6.764,-0.011499048451469157
6.768,-0.011496211667403977
6.772,-0.011497774302694119
6.776,-0.01150198139770604
6.78,-0.011499553302870587
6.784,-0.01149837531626725
6.788,-0.011499913911014467
6.792,-0.011502750695079647
6.796,-0.011503664235710807
6.8,-0.011503015141051827
6.804,-0.011503087262680602
6.808,-0.011502462208564544
6.812,-0.011500899573274402
6.816,-0.011498447437896025
6.82,-0.011500082194814944
6.824,-0.011503688276253733
6.828,-0.011505106668286323
6.832,-0.011503231505938153
6.836,-0.011500178356986645
6.84,-0.011499769667756916
6.844,-0.011500082194814944
6.848,-0.011499769667756916
6.852,-0.011503159384309377
6.856,-0.011504962425028771
6.86,-0.011499457140698886
6.864,-0.01150101977598903
6.868,-0.011502750695079647
6.872,-0.011503544032996181
6.876,-0.011502630492365022
6.88,-0.011499360978527186
6.884,-0.011498447437896025
6.888,-0.011501091897617804
6.892,-0.011498471478438951
6.896,-0.011497077126949286
6.9,-0.01149984178938569
6.904,-0.011502245843678217
6.908,-0.011504145046569313
6.912,-0.011503568073539108
6.916,-0.01150344787082448
6.92,-0.011503423830281556
6.924,-0.011504986465571698
6.928,-0.011504818181771221
6.932,-0.011507895371265654
6.936,-0.011507703046922252
6.94,-0.011505539398058979
6.944,-0.011504385451998566
6.948,-0.01150111593816073
6.952,-0.01150339978973863
6.956,-0.011505058587200473
6.96,-0.011504481614170267
6.964,-0.011501813113905563
6.968,-0.011499481181241812
6.972,-0.01150416908711224
6.976,-0.011506717384662316
6.98,-0.011504818181771221
6.984,-0.011505467276430202
6.988,-0.011505900006202857
6.992,-0.01150618849271796
6.996,-0.0115006110867593
7.0,-0.011503688276253733
7.0040000000000004,-0.011503832519511285
7.008,-0.011502654532907946
7.0120000000000005,-0.011502726654536723
7.016,-0.011502221803135293
7.0200000000000005,-0.011502726654536723
7.024,-0.011504577776341968
7.0280000000000005,-0.011504505654713192
7.032,-0.011504746060142445
7.0360000000000005,-0.011505467276430202
7.04,-0.011504697979056594
7.0440000000000005,-0.011504505654713192
7.048,-0.011504337370912715
7.0520000000000005,-0.011503664235710807
7.056,-0.011503736357339584
7.0600000000000005,-0.011505731722402381
7.064,-0.011506789506291092
7.0680000000000005,-0.011506741425205242
7.072,-0.011507174154977897
7.0760000000000005,-0.01150710203334912
7.08,-0.011504096965483462
7.0840000000000005,-0.011507630925293477
7.088,-0.011512919844737034
7.0920000000000005,-0.01151289580419411
7.096,-0.011509313763298244
7.1000000000000005,-0.01150614041163211
7.104,-0.01150513070882925
7.1080000000000005,-0.011502702613993797
7.112,-0.01150806365506613
7.1160000000000005,-0.011508664668639262
7.12,-0.011509698411985049
7.1240000000000006,-0.011509530128184573
7.128,-0.011506741425205242
7.132000000000001,-0.011503183424852303
7.136,-0.011510876398588386
7.140000000000001,-0.011508039614523206
7.144,-0.011505467276430202
7.148000000000001,-0.011506308695432586
7.152,-0.011506525060318915
7.156000000000001,-0.011505587479144829
7.16,-0.011507126073892046
7.164000000000001,-0.011510924479674237
7.168,-0.011514386317855476
7.172,-0.011515444101744187
7.176,-0.01151633360183242
7.18,-0.011513809344825269
7.184,-0.011511068722931788
7.188,-0.011511597614876145
7.192,-0.011510900439131312
7.196,-0.011511068722931788
7.2,-0.011510419628272806
7.204,-0.011510491749901583
7.208,-0.011510732155330836
7.212,-0.011511741858133697
7.216,-0.011511333168903968
7.22,-0.01151340065559554
7.224,-0.011515083493600307
7.228,-0.011514242074597924
7.232,-0.011513761263739418
7.236,-0.011512871763651183
7.24,-0.011511886101391249
7.244,-0.011507270317149597
7.248,-0.01151491520979983
7.252,-0.011514650763827653
7.256,-0.011513520858310165
7.26,-0.011514458439484251
7.264,-0.01151171781759077
7.268,-0.01150979457415675
7.272,-0.011513544898853091
7.276,-0.011515900872059767
7.28,-0.011513256412337988
7.284,-0.011511068722931788
7.288,-0.011513064087994586
7.292,-0.011518088561465965
7.296,-0.011516838453233853
7.3,-0.011515900872059767
7.304,-0.011516886534319702
7.308,-0.01151614127748902
7.312,-0.011512655398764856
7.316,-0.011510780236416687
7.32,-0.011509506087641647
7.324,-0.01150878487135389
7.328,-0.01151075619587376
7.332,-0.011513184290709213
7.336,-0.011513520858310165
7.34,-0.011512246709535127
7.344,-0.011516237439660721
7.348,-0.011518088561465965
7.352,-0.011516309561289496
7.356,-0.011509482047098722
7.36,-0.011514602682741803
7.364,-0.011516117236946094
7.368,-0.011515972993688542
7.372,-0.011516237439660721
7.376,-0.01151532389902956
7.38,-0.011514626723284727
7.384,-0.011514506520570102
7.388,-0.011514578642198877
7.392,-0.011514266115140849
7.396,-0.011515876831516841
7.4,-0.011514674804370578
7.404,-0.011515516223372962
7.408,-0.011515804709888066
7.412,-0.011518088561465965
7.416,-0.01151924250752638
7.42,-0.01151852129123862
7.424,-0.01151760775060746
7.428,-0.011518809777753724
7.432,-0.01151924250752638
7.436,-0.011517319264092357
7.44,-0.011517679872236236
7.444,-0.011518160683094742
7.448,-0.011517487547892833
7.452,-0.011517271183006507
7.456,-0.011521358075303802
7.46,-0.0115234496025383
7.464,-0.011522872629508093
7.468,-0.011523738089053402
7.472,-0.011521838886162306
7.476,-0.011519074223725901
7.48,-0.011517848156036714
7.484,-0.011518377047981069
7.488,-0.011514746925999355
7.492,-0.011516501885632899
7.496,-0.011521454237475503
7.5,-0.01151847321015277
7.5040000000000004,-0.011518809777753724
7.508,-0.011520973426616997
7.5120000000000005,-0.011517848156036714
7.516,-0.011519122304811752
7.5200000000000005,-0.01151755966952161
7.524,-0.011518184723637666
7.5280000000000005,-0.011518809777753724
7.532,-0.011517992399294266
7.5360000000000005,-0.011516237439660721
7.54,-0.011517150980291881
7.5440000000000005,-0.011517247142463582
7.548,-0.011517776034407937
7.5520000000000005,-0.01151751158843576
7.556,-0.011520372413043866
7.5600000000000005,-0.011523209197109047
7.564,-0.011522728386250541
7.5680000000000005,-0.011520612818473119
7.572,-0.011519963723814136
7.5760000000000005,-0.01151852129123862
7.58,-0.011516477845089973
7.5840000000000005,-0.01151751158843576
7.588,-0.011522800507879318
7.5920000000000005,-0.011526719116376136
7.596,-0.011527873062436548
7.6000000000000005,-0.01152669507583321
7.604,-0.011524555467512862
7.6080000000000005,-0.011522848588965169
7.612,-0.011522415859192513
7.6160000000000005,-0.011521814845619382
7.62,-0.011520132007614613
7.6240000000000006,-0.011518088561465965
7.628,-0.011521550399647204
7.632000000000001,-0.011525252643257695
7.636,-0.011528281751666277
7.640000000000001,-0.011525060318914293
7.644,-0.011518377047981069
7.648000000000001,-0.011516309561289496
7.652,-0.011520684940101894
7.656000000000001,-0.011521334034760876
7.66,-0.011522487980821288
7.664000000000001,-0.01152481991348504
7.668,-0.011522824548422243
7.672000000000001,-0.011522536061907139
7.676,-0.011524579508055787
7.68,-0.011525709413573275
7.684,-0.01152313707548027
7.688,-0.011522031210505709
7.692,-0.011521189791503324
7.696,-0.01152441122425531
7.7,-0.011527993265151174
7.704,-0.011526262346060556
7.708,-0.011522343737563737
7.712,-0.011522247575392037
7.716,-0.011523425561995374
7.72,-0.011523425561995374
7.724,-0.011521646561818906
7.728,-0.011522007169962784
7.732,-0.011522560102450065
7.736,-0.011523016872765645
7.74,-0.011526983562348313
7.744,-0.011525613251401574
7.748,-0.01152481991348504
7.752,-0.011525084359457217
7.756,-0.011527079724520014
7.76,-0.011525853656830827
7.764,-0.011526550832575658
7.768,-0.011526526792032733
7.772,-0.011527344170492192
7.776,-0.011526094062260078
7.78,-0.011526310427146406
7.784,-0.011527849021893622
7.788,-0.01152847407600968
7.792,-0.011525541129772797
7.796,-0.011527488413749743
7.8,-0.011530253076186148
7.804,-0.011524483345884086
7.808,-0.01152674315691906
7.812,-0.011530108832928597
7.816,-0.01152897892741111
7.82,-0.011527849021893622
7.824,-0.011526839319090761
7.828,-0.011529123170668662
7.832,-0.011530974292473907
7.836,-0.011528786603067708
7.84,-0.011532032076362619
7.844,-0.011531407022246561
7.848,-0.01152705568397709
7.852,-0.01152943569772669
7.856,-0.011531190657360234
7.86,-0.011529772265327644
7.864,-0.011528570238181381
7.868,-0.011530108832928597
7.872,-0.011528185589494576
7.876,-0.011526887400176612
7.88,-0.011528281751666277
7.884,-0.011531238738446085
7.888,-0.011531599346589963
7.892,-0.011532753292650376
7.896,-0.011532849454822077
7.9,-0.01153034923835785
7.904,-0.011529147211211586
7.908,-0.011527536494835594
7.912,-0.011528233670580427
7.916,-0.011526767197461986
7.92,-0.011526767197461986
7.924,-0.011529171251754513
7.928,-0.011531070454645609
7.932,-0.011529555900441316
7.936,-0.011527897102979473
7.94,-0.011524892035113815
7.944,-0.011534267846854669
7.948,-0.011535926644316512
7.952,-0.011533426427852284
7.956,-0.011528786603067708
7.96,-0.011526574873118584
7.964,-0.011528450035466754
7.968,-0.01152897892741111
7.972,-0.011529339535554989
7.976,-0.011530541562701252
7.98,-0.011531911873647991
7.984,-0.011529748224784718
7.988,-0.011529820346413495
7.992,-0.011533210062965956
7.996,-0.011535181387485828
8.0,-0.0115348688604278
8.004,-0.011532152279077244
8.008000000000001,-0.011531815711476292
8.012,-0.011531935914190918
8.016,-0.011532512887221123
8.02,-0.011533450468395209
8.024000000000001,-0.011532512887221123
8.028,-0.011530253076186148
8.032,-0.011531767630390441
8.036,-0.011530156914014447
8.040000000000001,-0.011530830049216356
8.044,-0.011530180954557373
8.048,-0.011533282184594732
8.052,-0.011530421359986626
8.056000000000001,-0.011533378346766434
8.06,-0.01153313794133718
8.064,-0.011535133306399978
8.068,-0.011535085225314127
8.072000000000001,-0.011536311293003315
8.076,-0.01153527754965753
8.08,-0.011535566036172631
8.084,-0.011535590076715558
8.088000000000001,-0.01153674402277597
8.092,-0.011535445833458006
8.096,-0.01153409956305419
8.1,-0.011538234536437337
8.104000000000001,-0.011537345036349102
8.108,-0.011534628454998547
8.112,-0.011535109265857052
8.116,-0.01153551795508678
8.120000000000001,-0.011535421792915081
8.124,-0.011539292320326048
8.128,-0.011540277982585985
8.132,-0.011537994131008084
8.136000000000001,-0.01153821049589441
8.14,-0.011534195725225892
8.144,-0.011536022806488213
8.148,-0.01153532563074338
8.152000000000001,-0.01153482077934195
8.156,-0.011536407455175016
8.16,-0.01153455633336977
8.164,-0.011531094495188533
8.168000000000001,-0.011535541995629707
8.172,-0.01153847494186659
8.176,-0.011537994131008084
8.18,-0.011538763428381692
8.184000000000001,-0.011539652928469927
8.188,-0.011536143009202839
8.192,-0.01153551795508678
8.196,-0.01153349854948106
8.2,-0.011533378346766434
8.204,-0.011534195725225892
8.208,-0.011536407455175016
8.212,-0.01153938848249775
8.216,-0.011540037577156732
8.22,-0.011539340401411899
8.224,-0.011538450901323664
8.228,-0.011536960387662297
8.232,-0.011536864225490596
8.236,-0.011538787468924618
8.24,-0.011538883631096319
8.244,-0.011540999198873742
8.248,-0.011539364441954823
8.252,-0.011537922009379307
8.256,-0.011540590509644013
8.26,-0.011543908104567699
8.264,-0.011545446699314916
8.268,-0.011545831348001719
8.272,-0.011540109698785507
8.276,-0.011539003833810945
8.28,-0.01154085495561619
8.284,-0.011541648293532724
8.288,-0.011540422225843535
8.292,-0.011538186455351486
8.296,-0.011536143009202839
8.3,-0.01153770564449298
8.304,-0.011545518820943691
8.308,-0.011545038010085187
8.312,-0.011542874361221912
8.316,-0.011539965455527955
8.32,-0.011537296955263251
8.324,-0.011540614550186937
8.328,-0.011542561834163884
8.332,-0.01153948464466945
8.336,-0.011540975158330816
8.34,-0.011540999198873742
8.344,-0.011539268279783122
8.348,-0.011539532725755301
8.352,-0.011539869293356254
8.356,-0.011540542428558162
8.36,-0.011540374144757684
8.364,-0.011541960820590752
8.368,-0.011543475374795043
8.372,-0.011543018604479463
8.376,-0.011543114766651165
8.38,-0.011543884064024774
8.384,-0.011542826280136061
8.388,-0.011541648293532724
8.392,-0.011545518820943691
8.396,-0.011542682036878511
8.4,-0.011541744455704425
8.404,-0.01154496588845641
8.408,-0.011545374577686139
8.412,-0.011538547063495365
8.416,-0.01154044626638646
8.42,-0.01154126364484592
8.424,-0.011542489712535109
8.428,-0.011544773564113008
8.432,-0.011544653361398382
8.436,-0.01154597559125927
8.44,-0.011544244672168653
8.444,-0.011543162847737015
8.448,-0.011544292753254503
8.452,-0.011543643658595521
8.456,-0.011541960820590752
8.46,-0.011544797604655934
8.464,-0.011543835982938924
8.468,-0.01154232142873463
8.472,-0.011541167482674218
8.476,-0.01154304264502239
8.48,-0.01154669680754703
8.484,-0.011547442064377713
8.488,-0.011545254374971513
8.492,-0.011545999631802197
8.496,-0.011549004699667855
8.5,-0.011547874794150367
8.504,-0.011545855388544645
8.508000000000001,-0.011544605280312531
8.512,-0.01154496588845641
8.516,-0.011543307090994567
8.52,-0.011542441631449258
8.524000000000001,-0.01153984525281333
8.528,-0.011547393983291862
8.532,-0.011545759226372944
8.536,-0.011543884064024774
8.540000000000001,-0.011542369509820481
8.544,-0.011542177185477079
8.548,-0.011544797604655934
8.552,-0.011545398618229065
8.556000000000001,-0.011545494780400766
8.56,-0.011547225699491384
8.564,-0.01154770651034989
8.568,-0.011546961253519207
8.572000000000001,-0.011544749523570083
8.576,-0.011543835982938924
8.58,-0.011546215996688524
8.584,-0.011547057415690908
8.588000000000001,-0.011547850753607442
8.592,-0.011548187321208395
8.596,-0.011548451767180574
8.6,-0.011546600645375328
8.604000000000001,-0.011545350537143215
8.608,-0.011544581239769605
8.612,-0.011543307090994567
8.616,-0.01154592751017342
8.620000000000001,-0.011546865091347506
8.624,-0.011546889131890432
8.628,-0.011548259442837171
8.632,-0.01154765842926404
8.636000000000001,-0.011546937212976281
8.64,-0.011548788334781526
8.644,-0.011549942280841939
8.648,-0.011552538659477867
8.652000000000001,-0.011550639456586772
8.656,-0.011548043077950845
8.66,-0.011545639023658318
8.664,-0.011553163713593925
8.668000000000001,-0.011554077254225085
8.672,-0.011552947348707597
8.676,-0.011552346335134465
8.68,-0.011550278848442893
8.684000000000001,-0.011550254807899969
8.688,-0.011548259442837171
8.692,-0.011546961253519207
8.696,-0.011547802672521592
8.700000000000001,-0.011547922875236217
8.704,-0.011546624685918253
8.708,-0.011546817010261655
8.712,-0.011549725915955612
8.716,-0.011550519253872146
8.72,-0.01154912490238248
8.724,-0.011547490145463564
8.728,-0.011548451767180574
8.732,-0.01154999036192779
8.736,-0.01155414937585386
8.74,-0.011555952416573255
8.744,-0.011554485943454814
8.748,-0.011548475807723498
8.752,-0.011546384280489
8.756,-0.01154715357786261
8.76,-0.011549725915955612
8.764,-0.011552105929705214
8.768,-0.011550687537672622
8.772,-0.011546720848089954
8.776,-0.011554245538025561
8.78,-0.01155450998399774
8.784,-0.011553860889338758
8.788,-0.011552298254048616
8.792,-0.011549317226725883
8.796,-0.011551577037760857
8.8,-0.01154912490238248
8.804,-0.011549341267268807
8.808,-0.011553596443366579
8.812,-0.011553091591965148
8.816,-0.011553331997394401
8.82,-0.011558957484438913
8.824,-0.011559149808782315
8.828,-0.011557587173492173
8.832,-0.011556865957204416
8.836,-0.011554630186712366
8.84,-0.011554245538025561
8.844,-0.011553572402823654
8.848,-0.011553259875765626
8.852,-0.011551649159389634
8.856,-0.011553884929881682
8.86,-0.011554774429969918
8.864,-0.011554173416396786
8.868,-0.011554317659654338
8.872,-0.01155643322743176
8.876,-0.011556168781459583
8.88,-0.011554173416396786
8.884,-0.011550206726814118
8.888,-0.011553620483909505
8.892,-0.011551721281018409
8.896,-0.011552514618934943
8.9,-0.011554365740740188
8.904,-0.01155369260553828
8.908,-0.01155232229459154
8.912,-0.011553836848795832
8.916,-0.011555760092229854
8.92,-0.01155688999774734
8.924,-0.011556000497659105
8.928,-0.011552947348707597
8.932,-0.011552442497306166
8.936,-0.011553668564995356
8.94,-0.011556577470689312
8.944,-0.011555591808429376
8.948,-0.01155597645711618
8.952,-0.011558428592494558
8.956,-0.011561433660360216
8.96,-0.01155902960606769
8.964,-0.011554173416396786
8.968,-0.011556409186888836
8.972,-0.01155816414652238
8.976,-0.01155902960606769
8.98,-0.011557995862721902
8.984,-0.011557827578921426
8.988,-0.011559822943984223
8.992,-0.01155902960606769
8.996,-0.01155734676806292
9.0,-0.011557154443719518
9.004,-0.0115554235246289
9.008000000000001,-0.011556745754489789
9.012,-0.011558909403353064
9.016,-0.011557154443719518
9.02,-0.011560279714299803
9.024000000000001,-0.011564005998453218
9.028,-0.011559702741269596
9.032,-0.011558909403353064
9.036,-0.011558380511408707
9.040000000000001,-0.011556144740916657
9.044,-0.0115577073762068
9.048,-0.011557106362633669
9.052,-0.011556769795032715
9.056000000000001,-0.011555567767886452
9.06,-0.011554365740740188
9.064,-0.011554702308341143
9.068,-0.01155734676806292
9.072000000000001,-0.011557322727519996
9.076,-0.011555904335487406
9.08,-0.011555615848972302
9.084,-0.011552514618934943
9.088000000000001,-0.011554582105626515
9.092,-0.011556914038290267
9.096,-0.011557466970777548
9.1,-0.011558356470865781
9.104000000000001,-0.011560303754842727
9.108,-0.01156232316044845
9.112,-0.01156415024171077
9.116,-0.011561241336016813
9.120000000000001,-0.011562178917190899
9.124,-0.011561481741446066
9.128,-0.011559101727696464
9.132,-0.011558789200638436
9.136000000000001,-0.01156460701202635
9.14,-0.011564318525511248
9.144,-0.011564054079539069
9.148,-0.011560904768415859
9.152000000000001,-0.0115576112140351
9.156,-0.011559221930411092
9.16,-0.011557899700550201
9.164,-0.011556625551775163
9.168000000000001,-0.011558428592494558
9.172,-0.011559774862898373
9.176,-0.011559846984527148
9.18,-0.011566073485144792
9.184000000000001,-0.011566987025775952
9.188,-0.011564991660713154
9.192,-0.011563020336193284
9.196,-0.01156126537655974
9.200000000000001,-0.011563549228137638
9.204,-0.011561986592847497
9.208,-0.011560712444072458
9.212,-0.011562659728049403
9.216000000000001,-0.01156556863374336
9.22,-0.011566602377089147
9.224,-0.011568525620523169
9.228,-0.011563356903794236
9.232,-0.01156126537655974
9.236,-0.011563909836281517
9.24,-0.011564462768768798
9.244,-0.011561481741446066
9.248,-0.011566289850031119
9.252,-0.011565833079715539
9.256,-0.011564030038996144
9.26,-0.011562563565877702
9.264,-0.011559438295297418
9.268,-0.011564126201167845
9.272,-0.011565087822884856
9.276,-0.011564246403882471
9.28,-0.01156419832279662
9.284,-0.011563429025423013
9.288,-0.011564294484968322
9.292,-0.011564534890397575
9.296,-0.011562972255107433
9.3,-0.011561842349589945
9.304,-0.011561433660360216
9.308,-0.011560712444072458
9.312,-0.011561914471218722
9.316,-0.01156318861999376
9.32,-0.011562900133478656
9.324,-0.011561794268504094
9.328,-0.011562082755019198
9.332,-0.011560399917014429
9.336,-0.011562347200991375
9.34,-0.011562803971306955
9.344,-0.011562299119905525
9.348,-0.011565039741799005
9.352,-0.011566001363516015
9.356,-0.011566770660889623
9.36,-0.011567539958263233
9.364,-0.011565352268857033
9.368,-0.011563212660536684
9.372,-0.01156419832279662
9.376,-0.011560712444072458
9.38,-0.01156460701202635
9.384,-0.011566097525687716
9.388,-0.011563981957910294
9.392,-0.011563477106508863
9.396,-0.01156126537655974
9.4,-0.011561097092759261
9.404,-0.011563837714652742
9.408,-0.011564078120081995
9.412,-0.011564847417455603
9.416,-0.011567612079892008
9.42,-0.011564967620170228
9.424,-0.01156511186342778
9.428,-0.011565640755372137
9.432,-0.01156460701202635
9.436,-0.011564078120081995
9.44,-0.01156460701202635
9.444,-0.011563669430852266
9.448,-0.011567876525864187
9.452,-0.011567275512291055
9.456,-0.01156881410703827
9.46,-0.011568669863780719
9.464,-0.011564294484968322
9.468,-0.011563525187594714
9.472,-0.011566530255460372
9.476,-0.01156826117455099
9.48,-0.011569511282783104
9.484,-0.011570280580156715
9.488,-0.011567371674462755
9.492,-0.011567924606950037
9.496,-0.011572732715535092
9.5,-0.01157090563427277
9.504,-0.011569679566583582
9.508000000000001,-0.011568237134008065
9.512,-0.011564126201167845
9.516,-0.011564438728225874
9.52,-0.01156775632314956
9.524000000000001,-0.011570208458527936
9.528,-0.011569294917896777
9.532,-0.011568958350295823
9.536,-0.011567972688035886
9.540000000000001,-0.011567563998806157
9.544,-0.011569318958439701
9.548,-0.011570256539613789
9.552,-0.011570929674815697
9.556000000000001,-0.011571386445131277
9.56,-0.011572492310105839
9.564,-0.011570184417985012
9.568,-0.011570256539613789
9.572000000000001,-0.01156821309346514
9.576,-0.011569006431381673
9.58,-0.011570617147757667
9.584,-0.011570160377442086
9.588000000000001,-0.011568068850207587
9.592,-0.01156821309346514
9.596,-0.011567443796091531
9.6,-0.011564510849854649
9.604000000000001,-0.011565328228314109
9.608,-0.01156556863374336
9.612,-0.011568453498894392
9.616,-0.011571338364045426
9.620000000000001,-0.011574175148110608
9.624,-0.011567972688035886
9.628,-0.011571049877530323
9.632,-0.011572900999335568
9.636000000000001,-0.011571025836987398
9.64,-0.011570016134184534
9.644,-0.01157157876947468
9.648,-0.011569775728755281
9.652000000000001,-0.011570208458527936
9.656,-0.011569391080068478
9.66,-0.011570881593729846
9.664,-0.011573261607479447
9.668000000000001,-0.011573165445307745
9.672,-0.011573766458880877
9.676,-0.011573477972365775
9.68,-0.011573934742681355
9.684000000000001,-0.011573309688565297
9.688,-0.011573886661595504
9.692,-0.011574944445484216
9.696,-0.011573309688565297
9.700000000000001,-0.01157035270178549
9.704,-0.01157040078287134
9.708,-0.011570424823414267
9.712,-0.011570496945043042
9.716000000000001,-0.0115735981750804
9.72,-0.011570280580156715
9.724,-0.01156785248532126
9.728,-0.011568838147581197
9.732,-0.011567251471748129
9.736,-0.01156410216062492
9.74,-0.011570160377442086
9.744,-0.011576098391544628
9.748,-0.011575184850913469
9.752,-0.011575256972542244
9.756,-0.011573165445307745
9.76,-0.011571097958616173
9.764,-0.011570617147757667
9.768,-0.011568092890750514
9.772,-0.011565953282430165
9.776,-0.01157030462069964
9.78,-0.01157136240458835
9.784,-0.011569968053098683
9.788,-0.011571146039702024
9.792,-0.01157217978304781
9.796,-0.011574151107567682
9.8,-0.011572468269562913
9.804,-0.011572011499247333
9.808,-0.011574704040054963
9.812,-0.011574535756254486
9.816,-0.01157400686431013
9.82,-0.011572396147934138
9.824,-0.011571963418161482
9.828,-0.011572708674992166
9.832,-0.011572732715535092
9.836,-0.011574319391368158
9.84,-0.011572372107391213
9.844,-0.01157309332367897
9.848,-0.011568741985409496
9.852,-0.011570833512643996
9.856,-0.011575809905029525
9.86,-0.011573021202050194
9.864,-0.011572444229019988
9.868,-0.011575088688741767
9.872,-0.011574487675168636
9.876,-0.01157669940511776
9.88,-0.011575353134713945
9.884,-0.01157674748620361
9.888,-0.0115780697160645
9.892,-0.011577420621405517
9.896,-0.011575136769827618
9.9,-0.011574127067024757
9.904,-0.011574607877883262
9.908,-0.01157669940511776
9.912,-0.011578550526923005
9.916,-0.01157715617543334
9.92,-0.011579992959498521
9.924,-0.01157720425651919
9.928,-0.011575449296885646
9.932,-0.011575641621229048
9.936,-0.011576338796973881
9.94,-0.011578790932352258
9.944,-0.011576579202403134
9.948,-0.011575809905029525
9.952,-0.011573982823767206
9.956,-0.011573237566936522
9.96,-0.011572444229019988
9.964,-0.011575208891456393
9.968,-0.011576122432087553
9.972,-0.011576410918602656
9.976,-0.011575449296885646
9.98,-0.011575689702314899
9.984,-0.011572492310105839
9.988,-0.011577420621405517
9.992,-0.01157573778340075
9.996,-0.011573213526393596
10.0,-0.011575160810370543
10.004,-0.011577300418690891
10.008000000000001,-0.011578718810723481
10.012,-0.011579536189182942
10.016,-0.011576026269915851
10.02,-0.01157629071588803
10.024000000000001,-0.011577011932175788
10.028,-0.011576603242946059
10.032,-0.011578863053981033
10.036,-0.011579151540496137
10.040000000000001,-0.01157907941886736
10.044,-0.01158182004076084
10.048,-0.01158081033795798
10.052,-0.0115757858644866
10.056000000000001,-0.0115735020129087
10.06,-0.011575160810370543
10.064,-0.011577276378147965
10.068,-0.0115780697160645
10.072000000000001,-0.011576915770004087
10.076,-0.011577108094347489
10.08,-0.011578213959322051
10.084,-0.01157867072963763
10.088000000000001,-0.011579319824296613
10.092,-0.011581940243475468
10.096,-0.011577011932175788
10.1,-0.011579632351354641
10.104000000000001,-0.011582709540849076
10.108,-0.011582324892162271
10.112,-0.01157857456746593
10.116,-0.011576122432087553
10.120000000000001,-0.011575713742857823
10.124,-0.011579464067554165
10.128,-0.011581940243475468
10.132,-0.011579007297238585
10.136000000000001,-0.011576314756430955
10.14,-0.011576314756430955
10.144,-0.011576483040231433
10.148,-0.011575497377971497
10.152000000000001,-0.011576819607832385
10.156,-0.011579055378324436
10.16,-0.011578406283665453
10.164,-0.011578334162036678
10.168000000000001,-0.011578454364751304
10.172,-0.011580569932528727
10.176,-0.011579752554069268
10.18,-0.011577300418690891
10.184000000000001,-0.011577901432264023
10.188,-0.011579415986468314
10.192,-0.011581339229902336
10.196,-0.011581916202932542
10.200000000000001,-0.01157867072963763
10.204,-0.011577564864663069
10.208,-0.011576675364574834
10.212,-0.01158085841904383
10.216000000000001,-0.011582204689447645
10.22,-0.011582036405647167
10.224,-0.01158172387858914
10.228,-0.011580449729814101
10.232000000000001,-0.011579872756783894
10.236,-0.011584248135596293
10.24,-0.01158355095985146
10.244,-0.011580545891985802
10.248,-0.011580329527099474
10.252,-0.011579656391897567
10.256,-0.011582829743563701
10.26,-0.011585594406000108
10.264,-0.01158131518935941
10.268,-0.011577516783577218
10.272,-0.011577829310635246
10.276,-0.011577108094347489
10.28,-0.011576266675345104
10.284,-0.011579295783753689
10.288,-0.011584392378853845
10.292,-0.011586027135772762
10.296,-0.011584368338310919
10.3,-0.011582637419220299
10.304,-0.011584031770709964
10.308,-0.011586099257401538
10.312,-0.011586411784459566
10.316,-0.011585762689800584
10.32,-0.01158258933813445
10.324,-0.011586075216858612
10.328,-0.011587012798032698
10.332,-0.01158593097360106
10.336,-0.011586291581744939
10.34,-0.011583743284194863
10.344,-0.011583262473336357
10.348,-0.011588551392779915
10.352,-0.011586820473689296
10.356,-0.0115849212707982
10.36,-0.011583190351707582
10.364,-0.011581988324561318
10.368,-0.011584632784283096
10.372,-0.01158405581125289
10.376,-0.011583719243651936
10.38,-0.011585594406000108
10.384,-0.0115849212707982
10.388,-0.011581146905558934
10.392,-0.011583839446366562
10.396,-0.011585666527628883
10.4,-0.011585450162742556
10.404,-0.011584825108626498
10.408,-0.01158405581125289
10.412,-0.011583743284194863
10.416,-0.011585281878942078
10.42,-0.011587902298120933
10.424,-0.011590330392956384
10.428,-0.011589873622640804
10.432,-0.011583791365280713
10.436,-0.011585979054686911
10.44,-0.011587469568348278
10.444,-0.011585666527628883
10.448,-0.011586003095229837
10.452,-0.011586363703373716
10.456,-0.011581988324561318
10.46,-0.011588094622464334
10.464,-0.011589272609067672
10.468,-0.011589320690153523
10.472,-0.011587830176492156
10.476,-0.011587373406176577
10.48,-0.01158715704129025
10.484,-0.011587108960204399
10.488,-0.011585281878942078
10.492,-0.011587469568348278
10.496,-0.011588455230608214
10.5,-0.011586796433146371
10.504,-0.011588431190065288
10.508000000000001,-0.011587397446719503
10.512,-0.011589440892868149
10.516,-0.011588599473865766
10.52,-0.011588238865721886
10.524000000000001,-0.011589849582097878
10.528,-0.011588671595494541
10.532,-0.01158674835206052
10.536,-0.011582733581392
10.540000000000001,-0.011582132567818869
10.544,-0.011585209757313303
10.548,-0.011585089554598676
10.552,-0.011583791365280713
10.556000000000001,-0.01158689259531807
10.56,-0.011590691001100262
10.564,-0.011593119095935715
10.568,-0.011588359068436513
10.572000000000001,-0.011596220325973074
10.576,-0.011594753852854632
10.58,-0.011590330392956384
10.584,-0.01159182090661775
10.588000000000001,-0.011590883325443665
10.592,-0.011590162109155908
10.596,-0.011590017865898356
10.6,-0.01159035443349931
10.604000000000001,-0.011589368771239374
10.608,-0.01159008998752713
10.612,-0.011592085352589928
10.616,-0.011594128798738576
10.620000000000001,-0.011592373839105032
10.624,-0.011589392811782298
10.628,-0.01158547420328548
10.632,-0.011584248135596293
10.636000000000001,-0.01158542612219963
10.64,-0.011587685933234605
10.644,-0.011590114028070057
10.648,-0.011591099690329992
10.652000000000001,-0.011591460298473872
10.656,-0.011589945744269579
10.66,-0.011590138068612981
10.664,-0.011591844947160675
10.668000000000001,-0.011589729379383252
10.672,-0.011588743717123316
10.676,-0.011588335027893587
10.68,-0.011588551392779915
10.684000000000001,-0.011591219893044619
10.688,-0.011592494041819657
10.692,-0.011596220325973074
10.696,-0.01159684538008913
10.700000000000001,-0.011593888393309323
10.704,-0.011588238865721886
10.708,-0.011594273041996127
10.712,-0.011596124163801373
10.716000000000001,-0.011591676663360199
10.72,-0.011586267541202015
10.724,-0.011585089554598676
10.728,-0.011588912000923794
10.732000000000001,-0.01159054675784271
10.736,-0.011592253636390404
10.74,-0.01159364798788007
10.744,-0.011593407582450818
10.748000000000001,-0.011591796866074824
10.752,-0.011591532420102647
10.756,-0.01159182090661775
10.76,-0.011591989190418227
10.764,-0.011592878690506462
10.768,-0.011596460731402325
10.772,-0.011598600339722674
10.776,-0.01159730215040471
10.78,-0.011595210623170213
10.784,-0.011595090420455586
10.788,-0.011596532853031102
10.792,-0.011596100123258447
10.796,-0.011592566163448434
10.8,-0.011593575866251295
10.804,-0.011595979920543821
10.808,-0.011594585569054155
10.812,-0.01158761381160583
10.816,-0.011586075216858612
10.82,-0.011596364569230626
10.824,-0.011596028001629672
10.828,-0.011594249001453201
10.832,-0.011594825974483408
10.836,-0.011593119095935715
10.84,-0.01159593183945797
10.844,-0.011597085785518383
10.848,-0.01159359990679422
10.852,-0.011591844947160675
10.856,-0.011591917068789452
10.86,-0.011593311420279117
10.864,-0.011595162542084363
10.868,-0.011592878690506462
10.872,-0.011592614244534285
10.876,-0.011593888393309323
10.88,-0.011593095055392789
10.884,-0.011592061312047004
10.888,-0.011593335460822042
10.892,-0.01159268636616306
10.896,-0.011592494041819657
10.9,-0.011590474636213936
10.904,-0.011588960082009644
10.908,-0.011592397879647956
10.912,-0.011593335460822042
10.916,-0.011592445960733807
10.92,-0.011595210623170213
10.924,-0.011595162542084363
10.928,-0.011597446393662262
10.932,-0.011603552691565279
10.936,-0.011600162975012816
10.94,-0.011599249434381656
10.944,-0.011599465799267983
10.948,-0.011599297515467507
10.952,-0.011600812069671798
10.956,-0.011600667826414246
10.96,-0.01160218238061854
10.964,-0.011604850880883243
10.968,-0.011601124596729828
10.972,-0.011595571231314092
10.976,-0.011595162542084363
10.98,-0.011594946177198034
10.984,-0.011596052042172596
10.988,-0.011598287812664646
10.992,-0.011597494474748112
10.996,-0.011596701136831578
11.0,-0.011598408015379272
11.004,-0.011598936907323628
11.008000000000001,-0.011599417718182134
11.012,-0.01159857629917975
11.016,-0.011598335893750497
11.02,-0.01160054762369962
11.024000000000001,-0.011599850447954788
11.028,-0.011597903163977841
11.032,-0.011593888393309323
11.036,-0.011593744150051771
11.040000000000001,-0.011594994258283885
11.044,-0.011598047407235393
11.048,-0.011599177312752881
11.052,-0.011598335893750497
11.056000000000001,-0.011597422353119337
11.06,-0.011593022933764014
11.064,-0.01159319121756449
11.068,-0.011600187015555742
11.072000000000001,-0.011596989623346682
11.076,-0.011599345596553358
11.08,-0.0116010043940152
11.084,-0.011600788029128874
11.088000000000001,-0.011601485204873706
11.092,-0.011602110258989762
11.096,-0.01160186985356051
11.1,-0.011601052475101051
11.104000000000001,-0.011600235096641593
11.108,-0.011600307218270368
11.112,-0.011599778326326013
11.116,-0.01159780700180614
11.120000000000001,-0.011597686799091515
11.124,-0.011599850447954788
11.128,-0.011598888826237778
11.132,-0.011597927204520768
11.136000000000001,-0.011598648420808525
11.14,-0.011599778326326013
11.144,-0.011599802366868937
11.148,-0.011598456096465122
11.152000000000001,-0.011595979920543821
11.156,-0.011598383974836347
11.16,-0.01160177369138881
11.164,-0.01160314400233555
11.168000000000001,-0.011602134299532689
11.172,-0.011599393677639208
11.176,-0.011598480137008049
11.18,-0.011601052475101051
11.184000000000001,-0.01160223046170439
11.188,-0.011603336326678952
11.192,-0.011599778326326013
11.196,-0.011600619745328397
11.200000000000001,-0.011604778759254468
11.204,-0.011603023799620924
11.208,-0.011600114893926965
11.212,-0.011600667826414246
11.216000000000001,-0.011601220758901529
11.22,-0.011604706637625691
11.224,-0.011604730678168617
11.228,-0.01160314400233555
11.232000000000001,-0.011602807434734595
11.236,-0.011597398312576411
11.24,-0.0115939605149381
11.244,-0.011597734880177365
11.248000000000001,-0.011600812069671798
11.252,-0.011602975718535073
11.256,-0.011602855515820446
11.26,-0.011603576732108205
11.264,-0.011603168042878474
11.268,-0.011604081583509635
11.272,-0.011603504610479428
11.276,-0.011602831475277521
11.28,-0.011600667826414246
11.284,-0.011599513880353834
11.288,-0.01160141308324493
11.292,-0.01160461047545399
11.296,-0.01160273531310582
11.3,-0.011603384407764802
11.304,-0.011604033502423785
11.308,-0.011600307218270368
11.312,-0.011604538353825215
11.316,-0.011607495340605022
11.32,-0.011606269272915833
11.324,-0.011604394110567663
11.328,-0.011602206421161464
11.332,-0.011603264205050175
11.336,-0.011606317354001684
11.34,-0.01160638947563046
11.344,-0.011606677962145562
11.348,-0.01160689432703189
11.352,-0.011605596137713926
11.356,-0.011606149070201207
11.36,-0.011608505043407883
11.364,-0.011607206854089919
11.368,-0.011602711272562894
11.372,-0.011602759353648745
11.376,-0.011602999759077998
11.38,-0.011602879556363372
11.384,-0.011605788462057329
11.388,-0.0116053797728276
11.392,-0.011605740380971478
11.396,-0.011605596137713926
11.4,-0.01160511532685542
11.404,-0.01160634139454461
11.408,-0.011605331691741749
11.412,-0.011604466232196438
11.416,-0.011604297948395962
11.42,-0.011604874921426167
11.424,-0.011609082016438088
11.428,-0.01161054848955653
11.432,-0.011608745448837136
11.436,-0.011605187448484197
11.44,-0.011604826840340319
11.444,-0.011600739948043023
11.448,-0.011605355732284673
11.452,-0.01160735109734747
11.456,-0.011607831908205976
11.46,-0.011609394543496118
11.464,-0.011607230894632845
11.468,-0.011605668259342701
11.472,-0.011605908664771954
11.476,-0.011607952110920602
11.48,-0.011608408881236182
11.484,-0.011608913732637612
11.488,-0.011606028867486582
11.492,-0.01160273531310582
11.496,-0.011603817137537456
11.5,-0.011606293313458759
11.504,-0.01160607694857243
11.508000000000001,-0.011604826840340319
11.512,-0.01160369693482283
11.516,-0.011604898961969094
11.52,-0.011604538353825215
11.524000000000001,-0.011605860583686104
11.528,-0.011605572097171
11.532,-0.011603889259166233
11.536,-0.011608336759607407
11.540000000000001,-0.01160927434078149
11.544,-0.011604995124140795
11.548,-0.011604754718711542
11.552,-0.011609322421867341
11.556000000000001,-0.011611750516702794
11.56,-0.01161369780067974
11.564,-0.01161328911145001
11.568,-0.011611822638331569
11.572000000000001,-0.011610885057157483
11.576,-0.011607879989291825
11.58,-0.011603745015908681
11.584,-0.011608865651551762
11.588000000000001,-0.011610428286841903
11.592,-0.011608024232549377
11.596,-0.011609082016438088
11.6,-0.011607952110920602
11.604000000000001,-0.01160730301626162
11.608,-0.011611558192359392
11.612,-0.011612688097876878
11.616,-0.011608024232549377
11.620000000000001,-0.011606990489203592
11.624,-0.01160634139454461
11.628,-0.011606509678345086
11.632,-0.011609971516526324
11.636000000000001,-0.011608384840693257
11.64,-0.011608144435264004
11.644,-0.01160684624594604
11.648,-0.011611029300415035
11.652000000000001,-0.01161502003054063
11.656,-0.011611341827473065
11.66,-0.011606942408117741
11.664,-0.011606605840516787
11.668000000000001,-0.011608432921779108
11.672,-0.011610716773357007
11.676,-0.011613481435793412
11.68,-0.01161319294927831
11.684000000000001,-0.011611077381500886
11.688,-0.01160872140829421
11.692,-0.011607038570289442
11.696,-0.011606461597259235
11.700000000000001,-0.011608168475806929
11.704,-0.011608625246122509
11.708,-0.01160999555706925
11.712,-0.011612928503306131
11.716000000000001,-0.011614322854795796
11.72,-0.01160867332720836
11.724,-0.011606437556716311
11.728,-0.011609106056981015
11.732000000000001,-0.01160872140829421
11.736,-0.011612399611361776
11.74,-0.01161324103036416
11.744,-0.011610836976071634
11.748000000000001,-0.011608985854266389
11.752,-0.01160903393535224
11.756,-0.011608456962322032
11.76,-0.011608793529922987
11.764000000000001,-0.011607086651375293
11.768,-0.011608144435264004
11.772,-0.011610885057157483
11.776,-0.011612952543849057
11.78,-0.011608529083950807
11.784,-0.011607663624405498
11.788,-0.011611221624758437
11.792,-0.011611197584215513
11.796,-0.011612111124846673
11.8,-0.011612760219505655
11.804,-0.011612567895162252
11.808,-0.011615188314341105
11.812,-0.011615813368457163
11.816,-0.011615212354884032
11.82,-0.011613265070907085
11.824,-0.011611029300415035
11.828,-0.011611317786930139
11.832,-0.011610356165213128
11.836,-0.011610476367927754
11.84,-0.01161283234113443
11.844,-0.011614635381853824
11.848,-0.01161324103036416
11.852,-0.011616462463116145
11.856,-0.01161771257134826
11.86,-0.011615452760313285
11.864,-0.01161780873351996
11.868,-0.011614443057510424
11.872,-0.01161364971959389
11.876,-0.011612615976248103
11.88,-0.011612640016791029
11.884,-0.011613986287194842
11.888,-0.011615092152169404
11.892,-0.011613361233078786
11.896,-0.011613986287194842
11.9,-0.011618842476865746
11.904,-0.011619323287724252
11.908,-0.011616558625287847
11.912,-0.011613793962851442
11.916,-0.01161288042222028
11.92,-0.011614683462939675
11.924,-0.011616919233431725
11.928,-0.011615837409000088
11.932,-0.011616125895515191
11.936,-0.011614370935881647
11.94,-0.011613505476336338
11.944,-0.011617135598318052
11.948,-0.01161872227415112
11.952,-0.011615717206285462
11.956,-0.011613433354707561
11.96,-0.011612712138419804
11.964,-0.011617448125376082
11.968,-0.011622184112332358
11.972,-0.011620284909441262
11.976,-0.011617207719946829
11.98,-0.011614947908911854
11.984,-0.011614803665654302
11.988,-0.011614803665654302
11.992,-0.01161821742274969
11.996,-0.0116191790444667
12.0,-0.011617015395603426
12.004,-0.011611798597788645
12.008000000000001,-0.011614803665654302
12.012,-0.011620765720299768
12.016,-0.011621030166271945
12.02,-0.011620381071612963
12.024000000000001,-0.011618121260577988
12.028,-0.011615933571171789
12.032,-0.011617640449719482
12.036,-0.011617087517232201
12.040000000000001,-0.011617928936234586
12.044,-0.011618001057863363
12.048,-0.011618169341663839
12.052,-0.01161831358492139
12.056000000000001,-0.011618602071436494
12.06,-0.011617640449719482
12.064,-0.01161725580103268
12.068,-0.0116191790444667
12.072000000000001,-0.011617087517232201
12.076,-0.011619299247181325
12.08,-0.011619106922837925
12.084,-0.011618457828178943
12.088000000000001,-0.011614010327737768
12.092,-0.011613000624934908
12.096,-0.011614034368280693
12.1,-0.01161749620646193
12.104000000000001,-0.011618457828178943
12.108,-0.011617327922661454
12.112,-0.011618818436322821
12.116,-0.011619972382383234
12.120000000000001,-0.011617832774062885
12.124,-0.011617568328090707
12.128,-0.011618145301120913
12.132,-0.011620501274327589
12.136000000000001,-0.011620549355413439
12.14,-0.011616005692800566
12.144,-0.011621486936587525
12.148,-0.01162278512590549
12.152000000000001,-0.011619900260754457
12.156,-0.011619082882294999
12.16,-0.011614875787283077
12.164,-0.011612495773533477
12.168000000000001,-0.011613433354707561
12.172,-0.011615476800856209
12.176,-0.011618337625464315
12.18,-0.011618025098406287
12.184000000000001,-0.01161506811162648
12.188,-0.0116167990307171
12.192,-0.011618842476865746
12.196,-0.011617183679403903
12.200000000000001,-0.011615044071083555
12.204,-0.011618049138949213
12.208,-0.011618241463292614
12.212,-0.011618818436322821
12.216000000000001,-0.011614947908911854
12.22,-0.011614298814252872
12.224,-0.011616895192888799
12.228,-0.0116167990307171
12.232000000000001,-0.01161735196320438
12.236,-0.011620525314870515
12.24,-0.011620020463469084
12.244,-0.011619058841752074
12.248000000000001,-0.011617977017320437
12.252,-0.011613433354707561
12.256,-0.011620501274327589
12.26,-0.011624179477395155
12.264000000000001,-0.011621775423102628
12.268,-0.011622472598847461
12.272,-0.011622448558304535
12.276,-0.011619780058039831
12.280000000000001,-0.011620381071612963
12.284,-0.011623578463822023
12.288,-0.01162405927468053
12.292,-0.011622208152875284
12.296,-0.011621751382559702
12.3,-0.011622160071789433
12.304,-0.011620332990527112
12.308,-0.01162278512590549
12.312,-0.01162338613947862
12.316,-0.011622136031246507
12.32,-0.011621583098759226
12.324,-0.01162379482870835
12.328,-0.011621991787988955
12.332,-0.01162110228790072
12.336,-0.011621270571701198
12.34,-0.011620765720299768
12.344,-0.011622015828531881
12.348,-0.011621727342016778
12.352,-0.011620044504012009
12.356,-0.011619563693153504
12.36,-0.011620308949984188
12.364,-0.011618121260577988
12.368,-0.01162196774744603
12.372,-0.011622713004276714
12.376,-0.011622136031246507
12.38,-0.011622544720476236
12.384,-0.011621655220388003
12.388,-0.011622280274504059
12.392,-0.01162425159902393
12.396,-0.011623410180021547
12.4,-0.011623049571877667
12.404,-0.011623939071965902
12.408,-0.011621486936587525
12.412,-0.011622544720476236
12.416,-0.011621847544731403
12.42,-0.011622087950160656
12.424,-0.011623097652963517
12.428,-0.011624419882824408
12.432,-0.011624900693682912
12.436,-0.011624492004453183
12.44,-0.011624443923367332
12.444,-0.011626751815488157
12.448,-0.011625934437028699
12.452,-0.011625862315399924
12.456,-0.011626006558657474
12.46,-0.011626295045172578
12.464,-0.011624948774768763
12.468,-0.011620381071612963
12.472,-0.01161973197695398
12.476,-0.01161780873351996
12.48,-0.011618001057863363
12.484,-0.011619804098582757
12.488,-0.011619443490438877
12.492,-0.011619299247181325
12.496,-0.01162100612572902
12.5,-0.011619948341840308
12.504,-0.011626751815488157
12.508000000000001,-0.011625333423455567
12.512,-0.011622640882647937
12.516,-0.011626655653316456
12.52,-0.011626631612773532
12.524000000000001,-0.011625718072142372
12.528,-0.011627016261460336
12.532,-0.011625381504541418
12.536,-0.011622688963733788
12.540000000000001,-0.011621342693329973
12.544,-0.011620693598670991
12.548,-0.011623241896221069
12.552,-0.011626343126258428
12.556000000000001,-0.011626054639743325
12.56,-0.011625405545084342
12.564,-0.011624467963910258
12.568,-0.011624900693682912
12.572000000000001,-0.011627545153404691
12.576,-0.011625742112685297
12.58,-0.011624083315223454
12.584,-0.011621486936587525
12.588000000000001,-0.01161922712555255
12.592,-0.011623770788165426
12.596,-0.011627304747975438
12.6,-0.011628170207520749
12.604000000000001,-0.011628146166977823
12.608,-0.011627232626346663
12.612,-0.011622184112332358
12.616,-0.011629035667066058
12.620000000000001,-0.01162845869403585
12.624,-0.011626174842457952
12.628,-0.011627424950690066
12.632,-0.011627376869604215
12.636000000000001,-0.011624972815311689
12.64,-0.011625501707256044
12.644,-0.011628194248063673
12.648,-0.011629516477924562
12.652000000000001,-0.011626271004629653
12.656,-0.011625429585627269
12.66,-0.011630069410411845
12.664,-0.011629300113038235
12.668000000000001,-0.011626727774945233
12.672,-0.011626847977659859
12.676,-0.011628025964263197
12.68,-0.011628747180550954
12.684000000000001,-0.011631367599729808
12.688,-0.011629877086068443
12.692,-0.011627977883177347
12.696,-0.011626367166801354
12.700000000000001,-0.011624419882824408
12.704,-0.011624852612597061
12.708,-0.01162836253186415
12.712,-0.011628867383265582
12.716000000000001,-0.01162867505892218
12.72,-0.011628819302179731
12.724,-0.011623770788165426
12.728,-0.011625549788341894
12.732000000000001,-0.011626703734402307
12.736,-0.011630910829414228
12.74,-0.01162917991032361
12.744,-0.011629997288783068
12.748000000000001,-0.011631824370045389
12.752,-0.011631776288959539
12.756,-0.011630430018555724
12.76,-0.011628386572407076
12.764000000000001,-0.011627088383089111
12.768,-0.011627545153404691
12.772,-0.01163018961312647
12.776,-0.01163110315375763
12.780000000000001,-0.011631271437558108
12.784,-0.011629612640096263
12.788,-0.011628939504894357
12.792,-0.011629492437381638
12.796000000000001,-0.01163160800515906
12.8,-0.011630838707785453
12.804,-0.01162891546435143
12.808,-0.011625669991056522
12.812,-0.011623193815135218
12.816,-0.011621294612244122
12.82,-0.011627016261460336
12.824,-0.011629107788694833
12.828,-0.011629155869780684
12.832,-0.011628699099465104
12.836,-0.011630622342899126
12.84,-0.011631728207873688
12.844,-0.011627521112861767
12.848,-0.011627689396662243
12.852,-0.01162841061295
12.856,-0.011630982951043005
12.86,-0.011628795261636805
12.864,-0.01163374761347941
12.868,-0.011634276505423766
12.872,-0.011636368032658263
12.876,-0.011635069843340298
12.88,-0.011628651018379253
12.884,-0.011626511410058904
12.888,-0.011630430018555724
12.892,-0.01163374761347941
12.896,-0.011633242762077979
12.9,-0.011632713870133623
12.904,-0.011631776288959539
12.908,-0.01163110315375763
12.912,-0.011629877086068443
12.916,-0.011630670423984977
12.92,-0.011632497505247296
12.924,-0.011629276072495311
12.928,-0.011626655653316456
12.932,-0.011628001923720271
12.936,-0.011630670423984977
12.94,-0.011632088816017567
12.944,-0.011632112856560491
12.948,-0.011632689829590698
12.952,-0.01163256962687607
12.956,-0.011633314883706754
12.96,-0.011634108221623288
12.964,-0.011633194680992128
12.968,-0.011633651451307708
12.972,-0.011633122559363352
12.976,-0.011632978316105802
12.98,-0.011633387005335531
12.984,-0.011632761951219473
12.988,-0.011633867816194035
12.992,-0.011630790626699602
12.996,-0.01162891546435143
13.0,-0.011634589032481794
13.004,-0.011633531248593083
13.008000000000001,-0.011631439721358584
13.012,-0.011631175275386407
13.016,-0.011630261734755246
13.02,-0.011631583964616136
13.024000000000001,-0.011631415680815658
13.028,-0.011630213653669395
13.032,-0.011631632045701987
13.036,-0.01163252154579022
13.040000000000001,-0.011633483167507232
13.044,-0.011635767019085131
13.048,-0.011633194680992128
13.052,-0.011631439721358584
13.056000000000001,-0.011631247397015182
13.06,-0.011632401343075595
13.064,-0.011634637113567645
13.068,-0.011632257099818043
13.072000000000001,-0.011632233059275118
13.076,-0.011633723572936483
13.08,-0.011632906194477025
13.084,-0.011630862748328377
13.088000000000001,-0.011637305613832348
13.092,-0.011636608438087516
13.096,-0.011634324586509615
13.1,-0.011634829437911047
13.104000000000001,-0.011634877518996898
13.108,-0.011636271870486561
13.112,-0.011636368032658263
13.116,-0.011633723572936483
13.120000000000001,-0.011637594100347452
13.124,-0.011638651884236163
13.128,-0.011637521978718675
13.132,-0.011635815100170982
13.136000000000001,-0.011633146599906278
13.14,-0.011633915897279886
13.144,-0.011633651451307708
13.148,-0.011635093883883224
13.152000000000001,-0.011636608438087516
13.156,-0.01163648823537289
13.16,-0.011635550654198804
13.164,-0.01163841147880691
13.168000000000001,-0.011637521978718675
13.172,-0.011634613073024718
13.176,-0.01163547853257003
13.18,-0.011638796127493715
13.184000000000001,-0.011638844208579566
13.188,-0.011635166005512
13.192,-0.011634829437911047
13.196,-0.011637233492203573
13.200000000000001,-0.011639661587039024
13.204,-0.011637762384147928
13.208,-0.011634589032481794
13.212,-0.01163547853257003
13.216000000000001,-0.011633675491850634
13.22,-0.011632473464704371
13.224,-0.011639517343781472
13.228,-0.011638483600435687
13.232000000000001,-0.011637233492203573
13.236,-0.011636392073201189
13.24,-0.011637089248946022
13.244,-0.011638339357178135
13.248000000000001,-0.011636920965145544
13.252,-0.011637113289488946
13.256,-0.011634324586509615
13.26,-0.011633483167507232
13.264000000000001,-0.011630814667242527
13.268,-0.011633098518820427
13.272,-0.011637113289488946
13.276,-0.011637930667948404
13.280000000000001,-0.011635190046054926
13.284,-0.011633603370221858
13.288,-0.011632761951219473
13.292,-0.011634829437911047
13.296000000000001,-0.011639397141066847
13.3,-0.011638724005864938
13.304,-0.011638483600435687
13.308,-0.011636295911029488
13.312000000000001,-0.01163740177600405
13.316,-0.01164009431681168
13.32,-0.011642762817076383
13.324,-0.011640310681698006
13.328,-0.01163836339772106
13.332,-0.01163603146505731
13.336,-0.011637690262519153
13.34,-0.011635574694741729
13.344,-0.011636824802973842
13.348,-0.011638171073377657
13.352,-0.011637473897632825
13.356,-0.011638579762607387
13.36,-0.01164151270884427
13.364,-0.011642714735990533
13.368,-0.011641897357531074
13.372,-0.011643219587391963
13.376,-0.011641440587215494
13.38,-0.011642426249475429
13.384,-0.011640887654728213
13.388,-0.011642113722417401
13.392,-0.011640454924955558
13.396,-0.011637473897632825
13.4,-0.01163699308677432
13.404,-0.011636608438087516
13.408,-0.011634997721711523
13.412,-0.011635839140713908
13.416,-0.011637714303062078
13.42,-0.011638796127493715
13.424,-0.011639974114097052
13.428,-0.011642257965674953
13.432,-0.01164348403336414
13.436,-0.011642762817076383
13.44,-0.011641368465586718
13.444,-0.011638964411294191
13.448,-0.011640767452013586
13.452,-0.011637209451660647
13.456,-0.011638459559892761
13.46,-0.011640839573642363
13.464,-0.011640623208756034
13.468,-0.011640959776356988
13.472,-0.011642209884589102
13.476,-0.011639926033011202
13.48,-0.011639156735637594
13.484,-0.011639613505953173
13.488,-0.011639180776180518
13.492,-0.0116398298708395
13.496,-0.011640719370927735
13.5,-0.011641680992644746
13.504,-0.01164247433056128
13.508000000000001,-0.011642041600788626
13.512,-0.011641272303415016
13.516,-0.011641897357531074
13.52,-0.011641007857442839
13.524000000000001,-0.011641849276445224
13.528,-0.0116398298708395
13.532,-0.011637281573289424
13.536,-0.011640238560069231
13.540000000000001,-0.011638074911205956
13.544,-0.011637834505776705
13.548,-0.011641176141243315
13.552,-0.011645311114626461
13.556000000000001,-0.011642618573818831
13.56,-0.011640478965498482
13.564,-0.011639709668124875
13.568,-0.011643051303591487
13.572000000000001,-0.01164206564133155
13.576,-0.011639204816723444
13.58,-0.01164009431681168
13.584,-0.011645840006570816
13.588000000000001,-0.011645791925484966
13.592,-0.011644181209108973
13.596,-0.011643171506306112
13.6,-0.011642089681874477
13.604000000000001,-0.011644998587568433
13.608,-0.011645455357884013
13.612,-0.011646729506659051
13.616,-0.011645094749740134
13.620000000000001,-0.011644926465939657
13.624,-0.01164394080367972
13.628,-0.011642282006217877
13.632,-0.011639036532922968
13.636000000000001,-0.011639998154639978
13.64,-0.011641200181786241
13.644,-0.011639397141066847
13.648,-0.011642137762960325
13.652000000000001,-0.011643411911735365
13.656,-0.011642041600788626
13.66,-0.011642450290018355
13.664,-0.01164160887101597
13.668000000000001,-0.011638772086950789
13.672,-0.011640839573642363
13.676,-0.011641392506129644
13.68,-0.011641656952101821
13.684000000000001,-0.011639709668124875
13.688,-0.011637714303062078
13.692,-0.011639252897809295
13.696,-0.011645046668654284
13.700000000000001,-0.011646104452542995
13.704,-0.011646537182315649
13.708,-0.011645479398426938
13.712,-0.011644325452366525
13.716000000000001,-0.011643411911735365
13.72,-0.011643628276621692
13.724,-0.011645575560598639
13.728,-0.011647162236431707
13.732000000000001,-0.011646801628287828
13.736,-0.011646296776886398
13.74,-0.011648845074436474
13.744,-0.01164754688511851
13.748000000000001,-0.011644493736167003
13.752,-0.011643219587391963
13.756,-0.01164398888476557
13.76,-0.011647979614891165
13.764000000000001,-0.011648965277151101
13.768,-0.01164790749326239
13.772,-0.011645407276798162
13.776,-0.011643724438793393
13.780000000000001,-0.011641416546672568
13.784,-0.011643700398250469
13.788,-0.011643315749563664
13.792,-0.01164110401961454
13.796000000000001,-0.01164156078993012
13.8,-0.011642738776533457
13.804,-0.011645022628111358
13.808,-0.011648532547378446
13.812000000000001,-0.011647739209461912
13.816,-0.011647739209461912
13.82,-0.011645888087656667
13.824,-0.0116420175602457
13.828,-0.011647979614891165
13.832,-0.011648676790635998
13.836,-0.011647330520232183
13.84,-0.011647811331090689
13.844,-0.011647066074260005
13.848,-0.011645743844399115
13.852,-0.01165023942592614
13.856,-0.011649614371810084
13.86,-0.011649494169095456
13.864,-0.011649926898868112
13.868,-0.011651369331443628
13.872,-0.011652282872074787
13.876,-0.011649133560951578
13.88,-0.011649253763666205
13.884,-0.011650720236784646
13.888,-0.011648845074436474
13.892,-0.011644878384853806
13.896,-0.011643051303591487
13.9,-0.011642955141419786
13.904,-0.011646465060686874
13.908,-0.011645287074083535
13.912,-0.011645864047113742
13.916,-0.011648508506835522
13.92,-0.011651585696329955
13.924,-0.01165247519641819
13.928,-0.011649229723123279
13.932,-0.011649301844752056
13.936,-0.011642233925132027
13.94,-0.011644133128023123
13.944,-0.011647619006747286
13.948,-0.011648989317694026
13.952,-0.011650263466469066
13.956,-0.01164831618249212
13.96,-0.011644830303767955
13.964,-0.011648796993350623
13.968,-0.01165151357470118
13.972,-0.011653340655963499
13.976,-0.011649926898868112
13.98,-0.011649013358236952
13.984,-0.011649301844752056
13.988,-0.01164882103389355
13.992,-0.011646945871545378
13.996,-0.011647835371633613
14.0,-0.011649109520408653
14.004,-0.011650864480042197
14.008000000000001,-0.01165338873704935
14.012,-0.011650431750269542
14.016,-0.011647691128376061
14.02,-0.011644806263225031
14.024000000000001,-0.011644373533452376
14.028,-0.011643315749563664
14.032,-0.011645359195712312
14.036,-0.011645046668654284
14.040000000000001,-0.011647066074260005
14.044,-0.011648027695977016
14.048,-0.011644854344310882
14.052,-0.011649950939411036
14.056000000000001,-0.011657307345546167
14.06,-0.011654783088539015
14.064,-0.011651898223387983
14.068,-0.011650888520585122
14.072000000000001,-0.011650023061039813
14.076,-0.01165302812890547
14.08,-0.011654302277680509
14.084,-0.011652186709903086
14.088000000000001,-0.011649686493438859
14.092,-0.011649854777239337
14.096,-0.011651537615244104
14.1,-0.01165079235841342
14.104000000000001,-0.01165033558809784
14.108,-0.011650455790812468
14.112,-0.011652427115332339
14.116,-0.01165175398013043
14.120000000000001,-0.011652330953160638
14.124,-0.011652956007276694
14.128,-0.01165197034501676
14.132,-0.011650575993527094
14.136000000000001,-0.011648893155522325
14.14,-0.011647474763489735
14.144,-0.011648532547378446
14.148,-0.011648460425749671
14.152000000000001,-0.011646368898515173
14.156,-0.01165074427732757
14.16,-0.011652571358589891
14.164,-0.011653148331620096
14.168000000000001,-0.011654061872251258
14.172,-0.011653220453248873
14.176,-0.011654759047996089
14.18,-0.011652379034246488
14.184000000000001,-0.01164689779045953
14.188,-0.01165151357470118
14.192,-0.011655119656139969
14.196,-0.011652811764019144
14.200000000000001,-0.011650624074612944
14.204,-0.011652042466645534
14.208,-0.011650023061039813
14.212,-0.01164745072294681
14.216000000000001,-0.01164978265561056
14.22,-0.01165151357470118
14.224,-0.01164978265561056
14.228,-0.011651177007100225
14.232000000000001,-0.01165658612925841
14.236,-0.011658797859207534
14.24,-0.011656994818488139
14.244,-0.01165338873704935
14.248000000000001,-0.011650527912441243
14.252,-0.011649301844752056
14.256,-0.011648700831178924
14.26,-0.01164882103389355
14.264000000000001,-0.011650263466469066
14.268,-0.011651705899044582
14.272,-0.01165197034501676
14.276,-0.011654518642566837
14.280000000000001,-0.011653316615420574
14.284,-0.011652643480218666
14.288,-0.011651946304473833
14.292,-0.011650071142125663
14.296000000000001,-0.011646945871545378
14.3,-0.011651633777415805
14.304,-0.011655191777768744
14.308,-0.011656994818488139
14.312000000000001,-0.01165617744002868
14.316,-0.01165175398013043
14.32,-0.011651922263930909
14.324,-0.011653004088362545
14.328000000000001,-0.011651898223387983
14.332,-0.011652186709903086
14.336,-0.011652547318046965
14.34,-0.011652282872074787
14.344,-0.011656105318399904
14.348,-0.011656802494144736
14.352,-0.011652451155875264
14.356,-0.011650383669183691
14.36,-0.011652379034246488
14.364,-0.011654013791165407
14.368,-0.011655600466998473
14.372,-0.011657764115861747
14.376,-0.011657956440205149
14.38,-0.011655047534511192
14.384,-0.01165435035876636
14.388,-0.011655504304826772
14.392,-0.011656898656316438
14.396,-0.011657812196947597
14.4,-0.011657836237490523
14.404,-0.011655504304826772
14.408,-0.011652715601847443
14.412,-0.011654061872251258
14.416,-0.011656514007629635
14.42,-0.0116556245075414
14.424,-0.011654614804738539
14.428,-0.011653460858678126
14.432,-0.011651465493615329
14.436,-0.011653460858678126
14.44,-0.011654783088539015
14.444,-0.011657115021202766
14.448,-0.011659975845810872
14.452,-0.011656201480571605
14.456,-0.011651489534158253
14.46,-0.011651778020673357
14.464,-0.011656514007629635
14.468,-0.011657884318576374
14.472,-0.011654951372339491
14.476,-0.011655888953513577
14.48,-0.011655912994056503
14.484,-0.011656465926543784
14.488,-0.011655912994056503
14.492,-0.011657523710432495
14.496,-0.0116557206697131
14.5,-0.011654975412882417
14.504,-0.011658028561833926
14.508000000000001,-0.01165850937269243
14.512,-0.011656033196771129
14.516,-0.011656393804915007
14.52,-0.011654494602023911
14.524000000000001,-0.011655600466998473
14.528,-0.011657716034775898
14.532,-0.011657283305003242
14.536,-0.011656105318399904
14.540000000000001,-0.011654638845281463
14.544,-0.011650407709726618
14.548,-0.011657764115861747
14.552,-0.011657187142831541
14.556000000000001,-0.011653797426279078
14.56,-0.011652715601847443
14.564,-0.011654542683109762
14.568,-0.011656033196771129
14.572000000000001,-0.0116581006834627
14.576,-0.011656946737402288
14.58,-0.011652787723476218
14.584,-0.01165175398013043
14.588000000000001,-0.011654061872251258
14.592,-0.01165749966988957
14.596,-0.011660600899926928
14.6,-0.01166124999458591
14.604000000000001,-0.01166124999458591
14.608,-0.011657884318576374
14.612,-0.011657211183374466
14.616,-0.011661009589156657
14.620000000000001,-0.01166165868381564
14.624,-0.01166115383241421
14.628,-0.011656802494144736
14.632,-0.011655432183197997
14.636000000000001,-0.011656273602200382
14.64,-0.011653629142478602
14.644,-0.011652739642390367
14.648,-0.01165471096691024
14.652000000000001,-0.011657667953690047
14.656,-0.011655648548084324
14.66,-0.01166024029178305
14.664,-0.011663605967792586
14.668000000000001,-0.011662307778474622
14.672,-0.011658581494321207
14.676,-0.011656009156228202
14.68,-0.01165389358845078
14.684000000000001,-0.011657523710432495
14.688,-0.011658677656492908
14.692,-0.01165485521016779
14.696,-0.01165389358845078
14.700000000000001,-0.011655432183197997
14.704,-0.011658268967263179
14.708,-0.011659807562010394
14.712,-0.011663365562363333
14.716000000000001,-0.011663630008335512
14.72,-0.011663533846163811
14.724,-0.011658749778121683
14.728,-0.011657163102288615
14.732000000000001,-0.011658389169977804
14.736,-0.011659807562010394
14.74,-0.01166221161630292
14.744,-0.011661682724358566
14.748000000000001,-0.011663678089421363
14.752,-0.011663004954219455
14.756,-0.011659134426808488
14.76,-0.011656489967086708
14.764000000000001,-0.011658076642919776
14.768,-0.011655600466998473
14.772,-0.011658004521291
14.776,-0.011657884318576374
14.780000000000001,-0.011655768750798951
14.784,-0.011656706331973035
14.788,-0.011659206548437263
14.792,-0.011659999886353797
14.796000000000001,-0.011661394237843462
14.8,-0.011663125156934082
14.804,-0.011663197278562857
14.808,-0.011662884751504829
14.812000000000001,-0.011659975845810872
14.816,-0.011661009589156657
14.82,-0.01166221161630292
14.824,-0.011658244926720253
14.828000000000001,-0.011657667953690047
14.832,-0.011658437251063655
14.836,-0.011658845940293384
14.84,-0.011659807562010394
14.844000000000001,-0.011660096048525498
14.848,-0.011659687359295769
14.852,-0.01166175484598734
14.856,-0.011662235656845847
14.86,-0.011663293440734558
14.864,-0.011662067373045369
14.868,-0.011659470994409442
14.872,-0.011661538481101014
14.876,-0.01166444738679497
14.88,-0.011663678089421363
14.884,-0.011664687792224224
14.888,-0.01166293283259068
14.892,-0.011661995251416594
14.896,-0.011660120089068424
14.9,-0.011660648981012779
14.904,-0.011657836237490523
14.908,-0.011664567589509596
14.912,-0.011664086778651092
14.916,-0.011662692427161427
14.92,-0.0116648560760247
14.924,-0.011663245359648708
14.928,-0.01166317323801993
14.932,-0.01166343768399211
14.936,-0.011662307778474622
14.94,-0.01166216353521707
14.944,-0.011659615237666992
14.948,-0.011659879683639171
14.952,-0.011664880116567626
14.956,-0.011663125156934082
14.96,-0.011662259697388771
14.964,-0.011660360494497675
14.968,-0.011659038264636786
14.972,-0.011660865345899106
14.976,-0.011664206981365718
14.98,-0.011665096481453953
14.984,-0.011663221319105781
14.988,-0.01166024029178305
14.992,-0.011661129791871285
14.996,-0.011661899089244893
15.0,-0.0116625722244468
15.004,-0.011662187575759996
15.008000000000001,-0.011665048400368102
15.012,-0.011667308211403077
15.016,-0.01166115383241421
15.02,-0.011665985981542188
15.024000000000001,-0.011667019724887973
15.028,-0.011663702129964287
15.032,-0.011663149197477006
15.036,-0.011664255062451568
15.040000000000001,-0.01166627446805729
15.044,-0.011666490832943618
15.048,-0.01166480799493885
15.052,-0.011668654481806892
15.056000000000001,-0.011670217117097034
15.06,-0.011663750211050138
15.064,-0.011664110819194017
15.068,-0.011665120521996877
15.072000000000001,-0.011662764548790202
15.076,-0.011663581927249662
15.08,-0.011662644346075576
15.084,-0.011661851008159042
15.088000000000001,-0.01166165868381564
15.092,-0.011662740508247277
15.096,-0.011662836670418978
15.1,-0.011662740508247277
15.104000000000001,-0.011661730805444416
15.108,-0.011664639711138373
15.112,-0.011664110819194017
15.116,-0.0116625722244468
15.120000000000001,-0.011661370197300536
15.124,-0.011662283737931697
15.128,-0.01165896614300801
15.132,-0.011664495467880821
15.136000000000001,-0.01166317323801993
15.14,-0.011664423346252045
15.144,-0.01166343768399211
15.148,-0.01166211545413122
15.152000000000001,-0.011666370630228991
15.156,-0.011668269833120087
15.16,-0.011666755278915796
15.164,-0.011667789022261583
15.168000000000001,-0.011666923562716272
15.172,-0.011665096481453953
15.176,-0.011665721535570009
15.18,-0.011666923562716272
15.184000000000001,-0.011666298508600216
15.188,-0.011666971643802123
15.192,-0.011664759913852999
15.196,-0.011663678089421363
15.200000000000001,-0.011666250427514365
15.204,-0.011666659116744095
15.208,-0.01166613022479974
15.212,-0.011665457089597831
15.216000000000001,-0.011663918494850614
15.22,-0.01166668315728702
15.224,-0.011666731238372871
15.228,-0.011666034062628039
15.232000000000001,-0.011667933265519135
15.236,-0.01166536092742613
15.24,-0.011663413643449184
15.244,-0.01166750053574648
15.248000000000001,-0.011670337319811661
15.252,-0.011667308211403077
15.256,-0.011668245792577163
15.26,-0.011664928197653477
15.264000000000001,-0.011661225954042986
15.268,-0.011665961940999262
15.272,-0.011665697495027084
15.276,-0.011666659116744095
15.280000000000001,-0.01166709184651675
15.284,-0.011664158900279867
15.288,-0.011665216684168579
15.292,-0.011666490832943618
15.296000000000001,-0.011663750211050138
15.3,-0.01166490415711055
15.304,-0.011666442751857768
15.308,-0.01166901508995077
15.312000000000001,-0.011671226819899894
15.316,-0.011668221752034236
15.32,-0.011668173670948386
15.324,-0.01166896700886492
15.328000000000001,-0.011665048400368102
15.332,-0.011665889819370487
15.336,-0.011668774684521517
15.34,-0.011669592062980978
15.344000000000001,-0.011668942968321995
15.348,-0.011667308211403077
15.352,-0.011665120521996877
15.356,-0.011667861143890358
15.36,-0.01166891892777907
15.364,-0.011666202346428515
15.368,-0.011664182940822793
15.372,-0.01166627446805729
15.376,-0.011664952238196401
15.38,-0.01166947186026635
15.384,-0.011668173670948386
15.388,-0.01166901508995077
15.392,-0.011666731238372871
15.396,-0.011665673454484158
15.4,-0.011670337319811661
15.404,-0.011672885617361737
15.408,-0.011673246225505618
15.412,-0.011673510671477795
15.416,-0.011670024792753631
15.42,-0.011667861143890358
15.424,-0.01166663507620117
15.428,-0.011664495467880821
15.432,-0.011667452454660629
15.436,-0.011671755711844251
15.44,-0.01167028923872581
15.444,-0.01166992863058193
15.448,-0.011670770049584315
15.452,-0.01166992863058193
15.456,-0.011669543981895127
15.46,-0.011671226819899894
15.464,-0.011667163968145525
15.468,-0.011664687792224224
15.472,-0.011665721535570009
15.476,-0.011668341954748864
15.48,-0.011667332251946003
15.484,-0.011664928197653477
15.488,-0.011661634643272715
15.492,-0.011669904590039006
15.496,-0.011671371063157446
15.5,-0.01166997671166778
15.504,-0.011670265198182884
15.508000000000001,-0.011668486198006416
15.512,-0.011670625806326763
15.516,-0.011673799157992899
15.52,-0.011675914725770321
15.524000000000001,-0.011675409874368891
15.528,-0.011672500968674934
15.532,-0.011668846806150294
15.536,-0.011670625806326763
15.540000000000001,-0.011671731671301325
15.544,-0.011670842171213091
15.548,-0.011671347022614522
15.552,-0.011670265198182884
15.556000000000001,-0.011666298508600216
15.56,-0.01166668315728702
15.564,-0.011669399738637575
15.568,-0.011671274900985745
15.572000000000001,-0.011671274900985745
15.576,-0.011671923995644727
15.58,-0.011671611468586699
15.584,-0.011669904590039006
15.588000000000001,-0.011670601765783838
15.592,-0.011670986414470641
15.596,-0.01166855831963519
15.6,-0.011666178305885589
15.604000000000001,-0.011666490832943618
15.608,-0.011669207414294173
15.612,-0.011671899955101803
15.616,-0.011670625806326763
15.620000000000001,-0.011671347022614522
15.624,-0.011672717333561261
15.628,-0.01167069792795554
15.632,-0.011667404373574778
15.636000000000001,-0.011668894887236145
15.64,-0.011669904590039006
15.644,-0.011668293873663013
15.648,-0.011669279535922948
15.652000000000001,-0.01166901508995077
15.656,-0.011670120954925332
15.66,-0.011671010455013568
15.664,-0.011668582360178115
15.668000000000001,-0.01166531284634028
15.672,-0.011672741374104187
15.676,-0.011672092279445205
15.68,-0.01167317410387684
15.684000000000001,-0.011675409874368891
15.688,-0.011672500968674934
15.692,-0.01167353471202072
15.696,-0.011675001185139162
15.700000000000001,-0.011668846806150294
15.704,-0.011669399738637575
15.708,-0.011673702995821197
15.712,-0.011675698360883995
15.716000000000001,-0.01167718887454536
15.72,-0.011677020590744883
15.724,-0.011672909657904663
15.728,-0.011672981779533438
15.732000000000001,-0.011673029860619289
15.736,-0.011672837536275887
15.74,-0.011679761212638364
15.744,-0.011677669685403866
15.748000000000001,-0.011674640576995281
15.752,-0.011673462590391944
15.756,-0.01167266925247541
15.76,-0.011673775117449972
15.764000000000001,-0.011672909657904663
15.768,-0.011670553684697988
15.772,-0.011671419144243297
15.776,-0.011670938333384792
15.780000000000001,-0.011672861576818813
15.784,-0.011675289671654264
15.788,-0.011676948469116108
15.792,-0.01167459249590943
15.796000000000001,-0.011672717333561261
15.8,-0.011672476928132008
15.804,-0.011674376131023104
15.808,-0.011675217550025489
15.812000000000001,-0.011674616536452357
15.816,-0.0116739914823363
15.82,-0.011672500968674934
15.824,-0.011673366428220243
15.828000000000001,-0.011675025225682086
15.832,-0.011672861576818813
15.836,-0.011672260563245681
15.84,-0.011672789455190036
15.844000000000001,-0.011670866211756016
15.848,-0.011670024792753631
15.852,-0.011676515739343453
15.856,-0.011675938766313246
15.860000000000001,-0.01167435209048018
15.864,-0.011673823198535823
15.868,-0.011671899955101803
15.872,-0.011674760779709909
15.876,-0.011678150496262371
15.88,-0.011679689091009587
15.884,-0.011678078374633595
15.888,-0.011675794523055694
15.892,-0.011671010455013568
15.896,-0.011672909657904663
15.9,-0.01167581856359862
15.904,-0.01167485694188161
15.908,-0.011675746441969845
15.912,-0.01167536179328304
15.916,-0.01167774180703264
15.92,-0.011678727469292577
15.924,-0.01167754948268924
15.928,-0.011675217550025489
15.932,-0.01167490502296746
15.936,-0.011676563820429304
15.94,-0.0116762753339142
15.944,-0.01167526563111134
15.948,-0.011676299374457126
15.952,-0.011678631307120876
15.956,-0.011674977144596236
15.96,-0.011672861576818813
15.964,-0.011677429279974613
15.968,-0.011676659982601005
15.972,-0.011673366428220243
15.976,-0.011674255928308478
15.98,-0.01167485694188161
15.984,-0.011675746441969845
15.988,-0.011675025225682086
15.992,-0.01167531371219719
15.996,-0.011674568455366506
16.0,-0.011674255928308478
16.004,-0.011672332684874456
16.008,-0.011674520374280656
16.012,-0.011675746441969845
16.016000000000002,-0.011675385833825965
16.02,-0.01167363087419242
16.024,-0.011670986414470641
16.028,-0.01167115469827112
16.032,-0.011676828266401481
16.036,-0.011676419577171752
16.04,-0.011676179171742499
16.044,-0.011674376131023104
16.048000000000002,-0.011672981779533438
16.052,-0.011676395536628826
16.056,-0.011677333117802911
16.06,-0.011676948469116108
16.064,-0.011676299374457126
16.068,-0.011676155131199574
16.072,-0.011675073306767937
16.076,-0.011678583226035025
16.080000000000002,-0.011679905455895916
16.084,-0.011680266064039794
16.088,-0.011680602631640747
16.092,-0.011674111685050927
16.096,-0.011672308644331532
16.1,-0.011679785253181288
16.104,-0.011678847672007203
16.108,-0.01167754948268924
16.112000000000002,-0.011675986847399096
16.116,-0.011674760779709909
16.12,-0.011676924428573182
16.124,-0.011676996550201957
16.128,-0.011676900388030258
16.132,-0.011675914725770321
