0.0,0.003564226853556655
0.004,0.0035617025965495024
0.008,0.0035617025965495024
0.012,0.003564948069844413
0.016,0.0035651163536448895
0.02,0.0035644672589859074
0.024,0.003564948069844413
0.028,0.0035638422048698505
0.032,0.0035630248264103916
0.036000000000000004,0.0035652846374453666
0.04,0.0035652846374453666
0.044,0.0035651163536448895
0.048,0.0035642028130137295
0.052000000000000005,0.0035677608133666684
0.056,0.0035692994081138853
0.06,0.0035700687054874944
0.064,0.0035697321378865407
0.068,0.0035672319214223127
0.07200000000000001,0.0035669193943642843
0.076,0.0035654529212458433
0.08,0.0035650923131019642
0.084,0.0035665587862204052
0.088,0.0035692513270280347
0.092,0.003568097380967622
0.096,0.0035681935431393233
0.1,0.0035702610298308964
0.10400000000000001,0.0035686262729119783
0.108,0.0035700687054874944
0.112,0.0035686262729119783
0.116,0.003567135759250612
0.12,0.0035750450978730237
0.124,0.0035767279358777924
0.128,0.0035770164223928955
0.132,0.003574516205928668
0.136,0.003572857408466825
0.14,0.0035744921653857427
0.14400000000000002,0.00357333821932533
0.148,0.003572953570638526
0.152,0.003572400638151245
0.156,0.003572328516522469
0.16,0.0035733863004111808
0.164,0.0035720159894644405
0.168,0.003573193976067779
0.17200000000000001,0.0035775453143372512
0.176,0.00357744915216555
0.18,0.003579901287543927
0.184,0.0035799493686297775
0.188,0.00357836269279671
0.192,0.003575694192532006
0.196,0.003573770949097985
0.2,0.003573482462582882
0.20400000000000001,0.003573891151812611
0.20800000000000002,0.0035759105574183336
0.212,0.0035793002739707954
0.216,0.0035790117874556922
0.22,0.0035791800712561693
0.224,0.003572761246295124
0.228,0.003570525475803074
0.232,0.0035719198272927397
0.23600000000000002,0.0035713668948054588
0.24,0.003572232354350768
0.244,0.0035713428542625335
0.248,0.003572136192179067
0.252,0.0035711745704620564
0.256,0.0035714390164342342
0.26,0.00357151113806301
0.264,0.0035736267058404333
0.268,0.0035729054895526757
0.272,0.003572617003037572
0.276,0.003574323881585266
0.28,0.0035752855033022767
0.28400000000000003,0.0035758865168754083
0.28800000000000003,0.0035749008546154724
0.292,0.0035735545842116574
0.296,0.0035700927460304197
0.3,0.0035703331514596722
0.304,0.003572857408466825
0.308,0.0035750210573300984
0.312,0.003576607733163166
0.316,0.003577256827822148
0.32,0.0035766558142490165
0.324,0.0035732180166107037
0.328,0.0035745402464715933
0.332,0.0035757422736178565
0.336,0.0035760067195900343
0.34,0.003578170368453308
0.34400000000000003,0.0035784107738825606
0.34800000000000003,0.003578603098225963
0.352,0.0035783386522537848
0.356,0.003576679854791942
0.36,0.0035777857197665038
0.364,0.0035776655170518777
0.368,0.0035778338008523544
0.372,0.003578891584741066
0.376,0.0035799493686297775
0.38,0.0035797330037434503
0.384,0.003580334017316582
0.388,0.0035775693548801765
0.392,0.0035806705849175356
0.396,0.0035822572607506027
0.4,0.0035785790576830377
0.404,0.0035756461114461553
0.40800000000000003,0.0035776655170518777
0.41200000000000003,0.0035797570442863756
0.41600000000000004,0.003579829165915151
0.42,0.0035820408958642754
0.424,0.0035849738421011574
0.428,0.0035868009233634775
0.432,0.0035891328560272284
0.436,0.0035894694236281817
0.44,0.00358704132879273
0.444,0.0035822332202076774
0.448,0.003581632206634546
0.452,0.0035799493686297775
0.456,0.00358110331469019
0.46,0.0035820649364072007
0.464,0.0035800455308014787
0.468,0.0035771366251075216
0.47200000000000003,0.0035770885440216714
0.47600000000000003,0.0035793723955995713
0.48,0.0036072594253928766
0.484,0.0036074036686504283
0.488,0.003608749939054243
0.492,0.00360891822285472
0.496,0.003606297803675866
0.5,0.0036080768038523354
0.504,0.003608629736339617
0.508,0.0036113463176901716
0.512,0.0036127406691798367
0.516,0.0036122598583213316
0.52,0.0036104327770590115
0.524,0.003609326912084449
0.528,0.0036103366148873104
0.532,0.0036108414662887407
0.536,0.0036114665204047976
0.54,0.0036124281421218082
0.544,0.0036125243042935094
0.548,0.003613582088182221
0.552,0.0036122838988642565
0.556,0.003614038858497801
0.56,0.0036143513855558295
0.5640000000000001,0.0036153610883586903
0.5680000000000001,0.0036142071422982777
0.5720000000000001,0.0036147600747855587
0.5760000000000001,0.0036139426963261
0.58,0.003613798453068548
0.584,0.003615000480214811
0.588,0.0036162265479039997
0.592,0.0036164669533332527
0.596,0.003617885345365843
0.6,0.0036182940345955723
0.604,0.0036206980888881
0.608,0.0036184623183960494
0.612,0.0036208423321456512
0.616,0.0036228617377513737
0.62,0.003624736900099544
0.624,0.0036245686162990672
0.628,0.003625530238016078
0.632,0.003627573684164725
0.636,0.0036274294409071738
0.64,0.0036234146702386547
0.644,0.003623919521640085
0.648,0.0036269726705915935
0.652,0.0036267563057052663
0.656,0.0036263476164755367
0.66,0.0036239435621830103
0.664,0.003623727197296683
0.668,0.0036231261837235515
0.672,0.003626083170503359
0.676,0.003626371657018462
0.68,0.0036267803462481916
0.684,0.003628751670768063
0.6880000000000001,0.003627213076020846
0.6920000000000001,0.003628198738280782
0.6960000000000001,0.003628198738280782
0.7000000000000001,0.0036289680356543902
0.704,0.0036309153196313368
0.708,0.0036294969275987464
0.712,0.003628751670768063
0.716,0.003629953697914326
0.72,0.0036296411708562977
0.724,0.0036303383466011305
0.728,0.003632958765779984
0.732,0.0036346416037847528
0.736,0.003635218576814959
0.74,0.0036326221981790303
0.744,0.003632838563065358
0.748,0.0036374783878499336
0.752,0.0036376707121933355
0.756,0.003637430306764083
0.76,0.003635963833645642
0.764,0.0036339925091257706
0.768,0.0036337040226106674
0.772,0.00363805536088014
0.776,0.003641445077432602
0.78,0.0036434164019524735
0.784,0.003642719226207641
0.788,0.003641637401776004
0.792,0.003643272158694922
0.796,0.0036420941720915843
0.8,0.0036418778072052566
0.804,0.0036445943885558114
0.808,0.003645556010272822
0.812,0.0036479119834794977
0.8160000000000001,0.003650051591799846
0.8200000000000001,0.0036502198756003233
0.8240000000000001,0.0036455079291869714
0.8280000000000001,0.003646205104931804
0.8320000000000001,0.003647094605020039
0.836,0.0036474311726209926
0.84,0.003647455213163918
0.844,0.0036481283483658254
0.848,0.003650195835057398
0.852,0.0036502439161432486
0.856,0.003648008145651199
0.86,0.0036484168348809285
0.864,0.003650316037772024
0.868,0.003650604524287127
0.872,0.0036509891729739315
0.876,0.0036540182813825147
0.88,0.003654306767897618
0.884,0.0036535374705240096
0.888,0.003656061727531162
0.892,0.0036569993087052473
0.896,0.0036567589032759948
0.9,0.00365586940318776
0.904,0.003655220308528778
0.908,0.003656061727531162
0.912,0.0036572877952203505
0.916,0.003659884173856279
0.92,0.0036586340656241654
0.924,0.003659162957568521
0.928,0.003658730227795866
0.932,0.0036594514440836242
0.936,0.003660557309058186
0.9400000000000001,0.003660990038830841
0.9440000000000001,0.0036606775117728127
0.9480000000000001,0.0036617112551185988
0.9520000000000001,0.0036623122686917304
0.9560000000000001,0.0036621920659771043
0.96,0.0036630334849794884
0.964,0.003663442174209218
0.968,0.00366454803918378
0.972,0.0036667597691329044
0.976,0.0036700292829707406
0.98,0.0036715678777179575
0.984,0.003671375553374555
0.988,0.00366952443156931
0.992,0.0036663270393602495
0.996,0.003667120377276783
1.0,0.0036679617962791676
1.004,0.003665726025787118
1.008,0.003665750066330043
1.012,0.0036664953231607266
1.016,0.0036659664312163704
1.02,0.00366728866107726
1.024,0.003667913715193317
1.028,0.0036690436207108047
1.032,0.003670822620887274
1.036,0.0036701254451424418
1.04,0.0036715678777179575
1.044,0.003670966864144826
1.048,0.003672793945407146
1.052,0.0036749335537274944
1.056,0.0036703898911146196
1.06,0.0036703658505716943
1.064,0.0036705581749150963
1.068,0.003669716755912712
1.072,0.0036718563642330606
1.076,0.0036722169723769397
1.08,0.003671327472288705
1.084,0.0036690195801678794
1.088,0.0036700292829707406
1.092,0.0036746450672123913
1.096,0.0036736113238666048
1.1,0.0036728901075788467
1.104,0.003673995972553409
1.108,0.003674068094182185
1.112,0.0036753903240430742
1.116,0.003675534567300626
1.12,0.0036776982161638994
1.124,0.0036800301488276502
1.1280000000000001,0.0036835160275518132
1.1320000000000001,0.0036821937976909236
1.1360000000000001,0.0036815206624890165
1.1400000000000001,0.003681328338145614
1.1440000000000001,0.0036799099461130237
1.1480000000000001,0.0036814245003173153
1.1520000000000001,0.003684477649268824
1.156,0.0036853671493570586
1.16,0.0036849103790414783
1.164,0.003684405527640048
1.168,0.003686857663018425
1.172,0.003686328771074069
1.176,0.0036844536087258985
1.18,0.0036852709871853574
1.184,0.003685487352071685
1.188,0.003686328771074069
1.192,0.0036867615008467237
1.196,0.0036870019062759762
1.2,0.003684838257412703
1.204,0.0036880356496217627
1.208,0.003690704149886467
1.212,0.0036921465824619826
1.216,0.003690343541742588
1.22,0.003691281122916673
1.224,0.003692795677120965
1.228,0.0036954401368427437
1.232,0.0036951276097847152
1.236,0.0036934928528657976
1.24,0.003695896907158324
1.244,0.0036976037857060174
1.248,0.003694983366527164
1.252,0.0036949352854413133
1.256,0.0036957767044436974
1.26,0.003695824785529548
1.264,0.003696377718016829
1.268,0.0036955843801002954
1.272,0.0036943342718681817
1.276,0.003694983366527164
1.28,0.0036946948800120607
1.284,0.003693516893408723
1.288,0.0036966181234460815
1.292,0.0036986615695947292
1.296,0.003698012474935747
1.3,0.00369967127239759
1.304,0.003701642596917462
1.308,0.003700729056286302
1.312,0.003699406826425412
1.316,0.0037004165292282734
1.32,0.0037008973400867785
1.324,0.0037003444075994975
1.328,0.003703662002523184
1.332,0.0037035177592656325
1.336,0.003702556137548622
1.34,0.003704864029669447
1.344,0.003707147881247347
1.348,0.0037067151514746923
1.352,0.003706955556903945
1.356,0.0037063785838737386
1.36,0.003709624057168649
1.364,0.0037110424492012395
1.368,0.0037080373813355816
1.372,0.003705681408128906
1.3760000000000001,0.003705416962156728
1.3800000000000001,0.0037061622189874114
1.3840000000000001,0.0037082056651360587
1.3880000000000001,0.003709792340969126
1.3920000000000001,0.003712893571006485
1.3960000000000001,0.0037112107330017166
1.4000000000000001,0.003711330935716343
1.4040000000000001,0.0037082537462219092
1.408,0.003708999003052592
1.412,0.003711354976259268
1.416,0.003712797408834784
1.42,0.0037139994359810472
1.424,0.003715297625299011
1.428,0.003715922679415068
1.432,0.003718158449907118
1.436,0.0037184469364222213
1.44,0.003715802476700442
1.444,0.0037176535985056877
1.448,0.003718615220222698
1.452,0.003718879666194876
1.456,0.0037202740176845413
1.46,0.0037186633013085485
1.464,0.003719889368997737
1.468,0.0037201297744269895
1.472,0.0037220530178610108
1.476,0.003721067355601075
1.48,0.0037226540314341423
1.484,0.0037218366529746835
1.488,0.003722437666547815
1.492,0.0037233031260931245
1.496,0.003724793639754491
1.5,0.003725298491155921
1.504,0.0037245051532393877
1.508,0.0037257793020144267
1.512,0.0037271496129611665
1.516,0.003726909207531914
1.52,0.003726740923731437
1.524,0.0037260437479866046
1.528,0.003726476477759259
1.532,0.003724817680297416
1.536,0.00372702941024654
1.54,0.003727462140019195
1.544,0.00372880841042301
1.548,0.0037305152889707035
1.552,0.0037296738699683194
1.556,0.0037304431673419276
1.56,0.0037315249917735647
1.564,0.003730274883541451
1.568,0.0037309960998292086
1.572,0.003733207829778333
1.576,0.0037356118840708593
1.58,0.0037356118840708593
1.584,0.0037380880599921615
1.588,0.003741549898173399
1.592,0.003741429695458773
1.596,0.0037419345468602035
1.6,0.0037421989928323814
1.604,0.003739794938539855
1.608,0.003738809276279919
1.612,0.003740419992655912
1.616,0.00374210283066068
1.62,0.0037441222362664026
1.624,0.003743977993008851
1.6280000000000001,0.003744146276809328
1.6320000000000001,0.0037462618445867507
1.6360000000000001,0.003747848520419818
1.6400000000000001,0.003747704277162267
1.6440000000000001,0.003749747723310914
1.6480000000000001,0.0037497958043967647
1.6520000000000001,0.0037482331691066225
1.6560000000000001,0.0037495073178816615
1.6600000000000001,0.0037515267234873835
1.6640000000000001,0.003750997831543028
1.668,0.003752584507376095
1.672,0.003754676034610593
1.676,0.003755132804926173
1.68,0.003753041277691675
1.684,0.0037539067372369846
1.688,0.0037542433048379383
1.692,0.0037539067372369846
1.696,0.003754700075153518
1.7,0.003756791602388016
1.704,0.003754676034610593
1.708,0.0037536422912648067
1.712,0.0037531614804063016
1.716,0.003752872993891198
1.72,0.0037532816831209277
1.724,0.0037544356291813403
1.728,0.003756046345557333
1.732,0.0037547241156964434
1.736,0.003755589575241753
1.74,0.003757248372703596
1.744,0.00375575785904223
1.748,0.0037561905888148844
1.752,0.0037578253457338025
1.756,0.0037584744403927847
1.76,0.0037576811024762507
1.764,0.0037581859538776815
1.768,0.0037623690083466773
1.772,0.003765638522184513
1.776,0.0037652298329547834
1.78,0.0037633065895207626
1.784,0.0037635710354929405
1.788,0.003762801738119332
1.792,0.0037604938459985067
1.796,0.0037603976838268055
1.8,0.00375941202156687
1.804,0.0037602053594834035
1.808,0.0037603736432838806
1.812,0.0037580897917059803
1.816,0.003759147575594692
1.82,0.003760614048713133
1.824,0.0037606861703419086
1.828,0.0037596524269961225
1.832,0.003758979291794215
1.836,0.003760445764912656
1.84,0.003759772629710749
1.844,0.0037607582919706845
1.848,0.003760037075682927
1.852,0.003759243737766393
1.856,0.003759532224281496
1.86,0.0037592918188522435
1.864,0.003757512818675774
1.868,0.0037581619133347562
1.872,0.0037615997109730686
1.8760000000000001,0.0037626574948617804
1.8800000000000001,0.0037632344678919867
1.8840000000000001,0.00376260941377593
1.8880000000000001,0.003762537292147154
1.8920000000000001,0.003763330630063688
1.8960000000000001,0.0037616477920589192
1.9000000000000001,0.0037623209272608267
1.9040000000000001,0.0037615997109730686
1.9080000000000001,0.0037596524269961225
1.9120000000000001,0.0037631383057202855
1.9160000000000001,0.0037641239679802214
1.92,0.0037647009410104277
1.924,0.0037674175223609834
1.928,0.0037684993467926205
1.932,0.0037666963060732257
1.936,0.003767898333219489
1.94,0.0037676098467043857
1.944,0.0037671290358458802
1.948,0.0037656866032703636
1.952,0.0037678742926765636
1.956,0.0037680666170199655
1.96,0.0037691484414516026
1.964,0.0037666963060732257
1.968,0.0037679704548482648
1.972,0.0037697734955676595
1.976,0.0037707831983705203
1.98,0.003770374509140791
1.984,0.0037715765362870543
1.988,0.003772321793117737
1.992,0.0037704466307695666
1.996,0.003769172481994528
2.0,0.003770302387512015
2.004,0.00376845126570677
2.008,0.0037684993467926205
2.012,0.003770302387512015
2.016,0.0037726102796328403
2.02,0.003770855319999296
2.024,0.0037691484414516026
2.028,0.0037710957254285487
2.032,0.0037717929011733815
2.036,0.00377393250949373
2.04,0.0037747258474102635
2.044,0.0037736921040644775
2.048,0.003774220996008833
2.052,0.0037724900769182143
2.056,0.0037708793605422215
2.06,0.0037730670499484206
2.064,0.0037731872526630466
2.068,0.0037714322930295025
2.072,0.003771552495744129
2.076,0.003774004631122506
2.08,0.0037724179552894384
2.084,0.003771816941716307
2.088,0.003770494711855417
2.092,0.0037746296852385623
2.096,0.0037735959418927763
2.1,0.003776120198899929
2.104,0.0037760721178140785
2.108,0.003775879793470676
2.112,0.0037790050640509605
2.116,0.0037815293210581133
2.12,0.0037802792128259995
2.124,0.0037790771856797364
2.128,0.003777153942245715
2.132,0.003777706874732996
2.136,0.003778259807220277
2.14,0.003778404050477829
2.144,0.003775879793470676
2.148,0.003773283414834748
2.152,0.003773211293205972
2.156,0.0037766250503013595
2.16,0.003773211293205972
2.164,0.0037739084689508047
2.168,0.0037762644421574804
2.172,0.0037778030369046973
2.176,0.0037785242531924554
2.18,0.003778884861336334
2.184,0.003776024036728228
2.188,0.0037787165775358574
2.192,0.003781264875085935
2.196,0.0037781636450485764
2.2,0.003779125266765587
2.204,0.003780519618255252
2.208,0.003781889929201992
2.212,0.0037828515509190025
2.216,0.0037815293210581133
2.22,0.003782803469833152
2.224,0.003784005496979415
2.228,0.003782442861689273
2.232,0.0037811687129142343
2.236,0.003779125266765587
2.24,0.003782130334631245
2.244,0.003783452564492134
2.248,0.003781264875085935
2.2520000000000002,0.0037809283074849817
2.2560000000000002,0.003779125266765587
2.2600000000000002,0.0037785723342783056
2.2640000000000002,0.0037812408345430097
2.2680000000000002,0.003783885294264789
2.2720000000000002,0.0037828515509190025
2.2760000000000002,0.0037814812399722627
2.2800000000000002,0.003782514983318049
2.2840000000000003,0.003785904699870511
2.2880000000000003,0.0037877798622186817
2.2920000000000003,0.003787443294617728
2.2960000000000003,0.0037857604566129592
2.3000000000000003,0.0037857604566129592
2.3040000000000003,0.0037862412674714648
2.308,0.003787082686473849
2.312,0.0037866739972441193
2.316,0.00378398145643649
2.32,0.00378398145643649
2.324,0.0037843901456662194
2.328,0.003784991159239351
2.332,0.0037857604566129592
2.336,0.0037865778350724185
2.34,0.0037869624837592224
2.344,0.0037857844971558845
2.348,0.0037869384432162975
2.352,0.003786818240501671
2.356,0.0037846065105525467
2.36,0.003787371172988952
2.364,0.0037883808757918132
2.368,0.0037881645109054856
2.372,0.0037872269297314007
2.376,0.0037861210647568383
2.38,0.0037864335918148667
2.384,0.0037877558216757564
2.388,0.0037889578488220195
2.392,0.003789630984023927
2.396,0.0037885251190493646
2.4,0.0037888136055644677
2.404,0.0037885251190493646
2.408,0.0037878760243903824
2.412,0.0037907128084555637
2.416,0.003791025335513592
2.42,0.0037912657409428447
2.424,0.003791650389629649
2.428,0.0037913378625716206
2.432,0.0037930928222051647
2.436,0.0037936457546924457
2.44,0.00379357363306367
2.444,0.0037946314169523816
2.448,0.0037951603088967373
2.452,0.003794751619667008
2.456,0.0037953766737830645
2.46,0.0037954728359547657
2.464,0.003795424754868915
2.468,0.0037950401061821112
2.472,0.0037934293898061184
2.476,0.003796410417128851
2.48,0.0037978288091614415
2.484,0.0037979009307902174
2.488,0.00379768456590389
2.492,0.003797949011876068
2.496,0.003799848214767164
2.5,0.003799679930966687
2.504,0.0037974441604746376
2.508,0.003796554660386403
2.512,0.0037967229441868795
2.516,0.00379951164716621
2.52,0.003796554660386403
2.524,0.0037974682010175624
2.528,0.0037995597282520607
2.532,0.0038011223635422025
2.536,0.003802516715031868
2.54,0.0038024686339460175
2.544,0.0038029254042615973
2.548,0.003803550458377654
2.552,0.003802083985259213
2.556,0.003801987823087512
2.56,0.003807541188503248
2.564,0.003811676161886393
2.568,0.0038134311215199373
2.572,0.003811099188856187
2.576,0.003809464431937269
2.58,0.003809488472480194
2.584,0.003805714107240928
2.588,0.003804439958465889
2.592,0.003804463999008814
2.596,0.003805377539639974
2.6,0.003804608242266366
2.604,0.0038040072286932344
2.608,0.0038042957152083375
2.612,0.0038043678368371134
2.616,0.003806916134387191
2.62,0.003805738147783853
2.624,0.003804896728781469
2.628,0.0038059785532131058
2.632,0.003804319755751263
2.636,0.003805161174753647
2.64,0.003804800566609768
2.644,0.003802805201546971
2.648,0.0038056900666980026
2.652,0.0038041995530366363
2.656,0.0038018195392870353
2.66,0.0037994395255374343
2.664,0.00380042518779737
2.668,0.003800761755398324
2.672,0.0038029494448045226
2.676,0.003806723810043789
2.68,0.0038054977423546007
2.684,0.0038046322828092912
2.688,0.003804968850410245
2.692,0.0038072046209022942
2.696,0.003807973918275903
2.7,0.003806844012758415
2.704,0.0038065074451574614
2.708,0.0038076854317607993
2.712,0.0038068920938442658
2.716,0.0038070363371018176
2.72,0.003808358566962707
2.724,0.003809825040081148
2.728,0.0038111472699420374
2.732,0.003810906864512785
2.736,0.003813479202605788
2.74,0.0038115319186288418
2.744,0.003811555959171767
2.748,0.003811267472656664
2.7520000000000002,0.003810738580712308
2.7560000000000002,0.003809656756280671
2.7600000000000002,0.0038091278643363155
2.7640000000000002,0.003809656756280671
2.7680000000000002,0.0038110030266844857
2.7720000000000002,0.003810978986141561
2.7760000000000002,0.003811555959171767
2.7800000000000002,0.0038104260536542794
2.7840000000000003,0.003811652121343468
2.7880000000000003,0.0038118684862297955
2.7920000000000003,0.003812733945775105
2.7960000000000003,0.0038113636348283647
2.8000000000000003,0.0038102337293108774
2.8040000000000003,0.003810738580712308
2.8080000000000003,0.0038106183779976818
2.8120000000000003,0.0038119886889444216
2.816,0.0038138878918355175
2.82,0.003814272540522322
2.824,0.00381321475663361
2.828,0.0038137196080350404
2.832,0.003813022432290208
2.836,0.003811676161886393
2.84,0.003811652121343468
2.844,0.003814200418893546
2.848,0.003814969716267154
2.852,0.003814032135093069
2.856,0.003812373337631226
2.86,0.003810978986141561
2.864,0.0038105222158259806
2.868,0.0038117242429722437
2.872,0.0038108587834269343
2.876,0.0038116040402576172
2.88,0.003812950310661432
2.884,0.0038126858646892543
2.888,0.003814609108123275
2.892,0.0038157630541836886
2.896,0.003814753351380827
2.9,0.0038132628377194606
2.904,0.0038128060674038804
2.908,0.003814825473009603
2.912,0.0038119646484014963
2.916,0.003812012729487347
2.92,0.0038152582027822573
2.924,0.003815402446039809
2.928,0.0038145369864944997
2.932,0.0038125416214317026
2.936,0.0038119165673156457
2.94,0.0038127820268609555
2.944,0.0038121569727448987
2.948,0.003812181013287824
2.952,0.0038130705133760587
2.956,0.0038133349593482365
2.96,0.003813767689120891
2.964,0.0038132628377194606
2.968,0.0038129743512043575
2.972,0.0038133349593482365
2.976,0.0038140080945501436
2.98,0.003814416783779873
2.984,0.003815330324411033
2.988,0.0038141042567218448
2.992,0.003814320621608172
2.996,0.0038134551620628626
3.0,0.0038122771754595247
3.004,0.0038130945539189835
3.008,0.003812565661974628
3.012,0.003815378405496884
3.016,0.0038135272836916385
3.02,0.0038119165673156457
3.024,0.0038149216351813036
3.028,0.0038143446621510973
3.032,0.0038165083110143715
3.036,0.003816917000244101
3.04,0.003815306283868108
3.044,0.0038159313379841652
3.048,0.0038149937568100795
3.052,0.0038140080945501436
3.056,0.0038152101216964067
3.06,0.0038156188109261364
3.064,0.00381636406775682
3.068,0.0038134311215199373
3.072,0.0038147293108379016
3.076,0.0038165083110143715
3.08,0.0038178545814181865
3.084,0.0038152822433251826
3.088,0.0038162919461280443
3.092,0.003815378405496884
3.096,0.003816628513728998
3.1,0.003817349730016756
3.104,0.003815402446039809
3.108,0.0038135272836916385
3.112,0.0038142244594364712
3.116,0.0038165083110143715
3.12,0.003817109324587503
3.124,0.003817469932731382
3.128,0.0038163881082997455
3.132,0.0038169650813299517
3.136,0.003818792162592272
3.14,0.003817469932731382
3.144,0.0038156188109261364
3.148,0.003817830540875261
3.152,0.0038185998382488694
3.156,0.0038195374194229547
3.16,0.0038184315544483927
3.164,0.0038183353922766916
3.168,0.0038173256894738308
3.172,0.003817614175988934
3.176,0.0038175180138172327
3.18,0.0038186719598776453
3.184,0.003818575797705944
3.188,0.0038173256894738308
3.192,0.0038164602299285214
3.196,0.0038166044731860727
3.2,0.003815979419070016
3.204,0.0038162919461280443
3.208,0.0038197537843092824
3.212,0.0038189844869356737
3.216,0.0038195133788800294
3.22,0.0038212442979706487
3.224,0.0038200182302814602
3.228,0.0038185517571630192
3.232,0.003817614175988934
3.236,0.0038152101216964067
3.24,0.0038147293108379016
3.244,0.0038161717434134178
3.248,0.00381819114901914
3.2520000000000002,0.0038214125817711254
3.2560000000000002,0.003821124095256022
3.2600000000000002,0.003821316419599424
3.2640000000000002,0.003819729743766357
3.2680000000000002,0.0038217010682862285
3.2720000000000002,0.00382458593343726
3.2760000000000002,0.0038215087439428265
3.2800000000000002,0.003821749149372079
3.2840000000000003,0.0038244176496367833
3.2880000000000003,0.0038236002711773244
3.2920000000000003,0.0038227107710890897
3.2960000000000003,0.003824393609093858
3.3000000000000003,0.003825667757868897
3.3040000000000003,0.0038281439337901992
3.3080000000000003,0.0038275429202170677
3.3120000000000003,0.0038260043254698508
3.3160000000000003,0.0038261966498132527
3.3200000000000003,0.003824201284750456
3.3240000000000003,0.003825307149725018
3.3280000000000003,0.003824946541581139
3.332,0.0038229511765183423
3.336,0.0038207875276550685
3.34,0.0038221578386018087
3.344,0.003824826338866513
3.348,0.0038256437173259717
3.352,0.003825403311896719
3.356,0.0038230473386900434
3.36,0.0038221818791447336
3.364,0.0038204509600541147
3.368,0.0038197778248522073
3.372,0.0038193450950795528
3.376,0.0038178786219611118
3.38,0.0038189844869356737
3.384,0.0038181430679332896
3.388,0.0038180469057615884
3.392,0.0038175660949030833
3.396,0.0038175180138172327
3.4,0.003818744081506421
3.404,0.00381819114901914
3.408,0.003816532351557297
3.412,0.0038148014324666775
3.416,0.00381636406775682
3.42,0.0038174218516455315
3.424,0.003816075581241717
3.428,0.003815666892011987
3.432,0.0038180469057615884
3.436,0.0038179507435898877
3.44,0.0038202345951677875
3.444,0.003820210554624862
3.448,0.003817902662504037
3.452,0.0038185517571630192
3.456,0.0038211481357989475
3.46,0.0038211481357989475
3.464,0.003821460662856976
3.468,0.003821941473715481
3.472,0.0038237204738919505
3.476,0.003820907730369695
3.48,0.0038174939732743074
3.484,0.003817806500332336
3.488,0.0038190325680215243
3.492,0.003818022865218663
3.496,0.0038171333651304284
3.5,0.0038160275001558664
3.504,0.00381549860821151
3.508,0.003817061243501653
3.512,0.003816989121872877
3.516,0.0038164121488426708
3.52,0.003817061243501653
3.524,0.003819657622137581
3.528,0.003818720040963496
3.532,0.0038163881082997455
3.536,0.0038163159866709696
3.54,0.0038145850675803503
3.544,0.0038152582027822573
3.548,0.003817085284044578
3.552,0.0038199461086526844
3.556,0.0038200422708243855
3.56,0.0038188402436781224
3.564,0.003820066311367311
3.568,0.0038205952033116665
3.572,0.0038205230816828906
3.576,0.0038203067167965634
3.58,0.0038197778248522073
3.584,0.0038167727569865494
3.588,0.003814969716267154
3.592,0.0038163881082997455
3.596,0.003816340027213895
3.6,0.0038160515406987917
3.604,0.0038157630541836886
3.608,0.0038157390136407633
3.612,0.0038165083110143715
3.616,0.0038180709463045137
3.62,0.0038215087439428265
3.624,0.0038194172167083287
3.628,0.0038172054867592043
3.632,0.003819080649107375
3.636,0.003822470365659837
3.64,0.0038221578386018087
3.644,0.0038209798519984704
3.648,0.0038213885412282
3.652,0.0038208596492838444
3.656,0.0038208836898267697
3.66,0.003820186514081937
3.664,0.003819657622137581
3.668,0.0038193210545366275
3.672,0.0038185036760771686
3.676,0.003817349730016756
3.68,0.0038175660949030833
3.684,0.003817614175988934
3.688,0.003814945675724229
3.692,0.003817445892188457
3.696,0.00381956145996588
3.7,0.0038191046896503002
3.704,0.0038206673249404424
3.708,0.0038208596492838444
3.712,0.003822229960230584
3.716,0.0038209798519984704
3.72,0.0038210519736272463
3.724,0.0038199461086526844
3.728,0.0038199701491956096
3.732,0.003819849946480983
3.736,0.003817902662504037
3.74,0.003819489338337104
3.744,0.003818744081506421
3.748,0.003815811135269539
3.7520000000000002,0.0038151380000676313
3.7560000000000002,0.0038145129459515744
3.7600000000000002,0.0038154505271256597
3.7640000000000002,0.0038168689191582506
3.7680000000000002,0.0038179747841328125
3.7720000000000002,0.0038213404601423495
3.7760000000000002,0.003821196216884798
3.7800000000000002,0.0038183113517337663
3.7840000000000003,0.00381727760838798
3.7880000000000003,0.0038202345951677875
3.7920000000000003,0.0038213885412282
3.7960000000000003,0.003823744514434876
3.8000000000000003,0.003821027933084321
3.8040000000000003,0.003820186514081937
3.8080000000000003,0.003821100054713097
3.8120000000000003,0.0038210760141701716
3.8160000000000003,0.0038213404601423495
3.8200000000000003,0.003820907730369695
3.8240000000000003,0.003821196216884798
3.8280000000000003,0.003821124095256022
3.8320000000000003,0.0038193931761654034
3.8360000000000003,0.0038181190273903643
3.84,0.0038184315544483927
3.844,0.0038219655142584063
3.848,0.003821941473715481
3.852,0.0038202345951677875
3.856,0.003821316419599424
3.86,0.0038211481357989475
3.864,0.0038221818791447336
3.868,0.0038222780413164348
3.872,0.0038191768112790757
3.876,0.0038155466892973605
3.88,0.003818094986847439
3.884,0.003819297013993702
3.888,0.0038209558114555456
3.892,0.0038195374194229547
3.896,0.0038165804326431474
3.9,0.003818744081506421
3.904,0.0038193210545366275
3.908,0.003818527716620094
3.912,0.0038166525542719233
3.916,0.0038180469057615884
3.92,0.003820210554624862
3.924,0.0038184315544483927
3.928,0.0038188642842210477
3.932,0.003819297013993702
3.936,0.0038189844869356737
3.94,0.003818022865218663
3.944,0.0038168689191582506
3.948,0.0038183353922766916
3.952,0.003818263270647916
3.956,0.0038174939732743074
3.96,0.003820186514081937
3.964,0.0038201624735390116
3.968,0.0038188883247639725
3.972,0.0038175660949030833
3.976,0.003818263270647916
3.98,0.0038182151895620655
3.984,0.0038190325680215243
3.988,0.0038179747841328125
3.992,0.003817614175988934
3.996,0.003816075581241717
4.0,0.0038160996217846423
4.0040000000000004,0.003814969716267154
4.008,0.0038160996217846423
4.0120000000000005,0.003816700635357774
4.016,0.0038175660949030833
4.0200000000000005,0.0038181190273903643
4.024,0.0038154505271256597
4.0280000000000005,0.0038152822433251826
4.032,0.0038179267030469624
4.0360000000000005,0.0038175180138172327
4.04,0.0038179747841328125
4.0440000000000005,0.0038182151895620655
4.048,0.0038177824597894106
4.0520000000000005,0.003818287311190841
4.056,0.003817902662504037
4.0600000000000005,0.0038166765948148486
4.064,0.0038160996217846423
4.0680000000000005,0.003818022865218663
4.072,0.0038173256894738308
4.0760000000000005,0.0038147773919237522
4.08,0.0038129743512043575
4.0840000000000005,0.003812229094373674
4.088,0.0038108828239698596
4.0920000000000005,0.0038108587834269343
4.096,0.0038110511077703363
4.1,0.0038124214187170765
4.104,0.0038091278643363155
4.108,0.0038080460399046783
4.112,0.003810570296911831
4.116,0.0038113636348283647
4.12,0.00381230121600245
4.124,0.0038130464728331334
4.128,0.003810834742884009
4.132,0.0038118925267727204
4.136,0.003814561027037425
4.14,0.0038159313379841652
4.144,0.003817998824675738
4.148,0.0038184796355342433
4.152,0.0038159313379841652
4.156,0.003814416783779873
4.16,0.0038150658784388554
4.164,0.0038137436485779657
4.168,0.003810281810396728
4.172,0.003810281810396728
4.176,0.003810402013111354
4.18,0.0038094163508514186
4.184,0.0038079979588188278
4.188,0.003809199985965091
4.192,0.0038087672561924364
4.196,0.0038083345264197815
4.2,0.0038106183779976818
4.204,0.0038106664590835324
4.208,0.0038105943374547565
4.212,0.0038093201886797174
4.216,0.003810978986141561
4.22,0.0038108107023410837
4.224,0.0038103298914825786
4.228,0.0038100414049674755
4.232,0.003809224026508016
4.236,0.003811483837542991
4.24,0.0038116280808005425
4.244,0.00380864705347781
4.248,0.003809728877909447
4.252,0.0038090317021646143
4.256,0.003807757553389575
4.26,0.0038086951345636605
4.264,0.003810570296911831
4.268,0.003809921202252849
4.272,0.003807829675018351
4.276,0.0038073729047027713
4.28,0.003807757553389575
4.284,0.003808358566962707
4.288,0.003811267472656664
4.292,0.003809224026508016
4.296,0.0038090557427075396
4.3,0.0038072286614452195
4.304,0.003806555526243312
4.308,0.0038069642154730417
4.312,0.00381001736442455
4.316,0.0038088874589070625
4.32,0.0038077094723037246
4.324,0.003805641985612152
4.328,0.00380407935032201
4.332,0.003804247634122487
4.336,0.0038079258371900523
4.34,0.0038095125130231194
4.344,0.0038070363371018176
4.348,0.003807252701988145
4.352,0.0038090317021646143
4.356,0.003809199985965091
4.36,0.003811099188856187
4.364,0.0038091278643363155
4.368,0.0038084066480485574
4.372,0.0038077815939325005
4.376,0.003805233296382423
4.38,0.0038047765260668426
4.384,0.0038039591476073838
4.388,0.00380499289095317
4.392,0.0038043678368371134
4.396,0.003806723810043789
4.4,0.003807252701988145
4.404,0.0038071324992735183
4.408,0.0038067718911296397
4.412,0.003806194918099433
4.416,0.0038055939045263014
4.42,0.0038070363371018176
4.424,0.00380773351284665
4.428,0.003807637350674949
4.432,0.0038057621883267785
4.436,0.003806194918099433
4.44,0.003807637350674949
4.444,0.0038045601611805153
4.448,0.003802228228516765
4.452,0.0038044880395517395
4.456,0.003806916134387191
4.46,0.0038034783367488782
4.464,0.0038020359041733625
4.468,0.003802636917746494
4.472,0.0038040072286932344
4.476,0.0038022041879738396
4.48,0.0038020359041733625
4.484,0.003802901363718672
4.488,0.0038058343099555544
4.492,0.003806988256015967
4.496,0.0038057621883267785
4.5,0.003808286445333931
4.5040000000000004,0.0038082383642480807
4.508,0.003804728444980992
4.5120000000000005,0.0038063151208140595
4.516,0.0038060506748418817
4.5200000000000005,0.003806194918099433
4.524,0.003804800566609768
4.5280000000000005,0.0038053294585541236
4.532,0.0038047044044380667
4.5360000000000005,0.0038041274314078604
4.54,0.003804608242266366
4.5440000000000005,0.0038041514719507857
4.548,0.0038042235935795616
4.5520000000000005,0.0038068920938442658
4.556,0.003803069647519149
4.5600000000000005,0.0038020359041733625
4.564,0.0038019157014587365
4.5680000000000005,0.003801242566256829
4.572,0.0037988865930501533
4.5760000000000005,0.003798718309249676
4.58,0.0037991991201081817
4.5840000000000005,0.0037984057821916477
4.588,0.00380362258000643
4.5920000000000005,0.0038027330799181953
4.596,0.003802420552860167
4.6000000000000005,0.0038025647961177187
4.604,0.003803887025978608
4.6080000000000005,0.003803334093491327
4.612,0.0038032138907767004
4.616,0.003801146404085128
4.62,0.003799607809337911
4.624,0.003799487606623285
4.628,0.003798958714678929
4.632,0.0037989106335930786
4.636,0.0037991029579364805
4.64,0.003797949011876068
4.644,0.0037972758766741605
4.648,0.0037984057821916477
4.652,0.003800232863453968
4.656,0.00379951164716621
4.66,0.003795929606270346
4.664,0.003794751619667008
4.668,0.0037951843494396626
4.672,0.0037972758766741605
4.676,0.003797780728075591
4.68,0.003796554660386403
4.684,0.0037994395255374343
4.688,0.0037964584982147016
4.692,0.003794294849351428
4.696,0.003794847781838709
4.7,0.0037966267820151783
4.704,0.0037973479983029364
4.708,0.0037962661738712993
4.712,0.003795785363012794
4.716,0.0037948958629245595
4.72,0.003795208389982588
4.724,0.003795232430525513
4.728,0.0037945592953236057
4.732,0.0037938140384929228
4.736,0.0037940063628363247
4.74,0.003795280511611364
4.744,0.0037929726194905382
4.748,0.003795641119755243
4.752,0.0037954728359547657
4.756,0.003796145971156673
4.76,0.0037971797145024593
4.764,0.003796867187444431
4.768,0.003796746984729805
4.772,0.0037960738495278973
4.776,0.003794727579124083
4.78,0.003796746984729805
4.784,0.003796194052242524
4.788,0.0037965787009293277
4.792,0.0037972758766741605
4.796,0.003796674863101029
4.8,0.003797588403732189
4.804,0.0037978288091614415
4.808,0.003796554660386403
4.812,0.0037953526332401397
4.816,0.0037936938357782963
4.82,0.003793044741119314
4.824,0.0037941986871797267
4.828,0.0037930928222051647
4.832,0.003792107159945229
4.836,0.0037951843494396626
4.84,0.0037964344576717764
4.844,0.0037936217141495204
4.848,0.003793862119578773
4.852,0.0037931409032910153
4.856,0.003795929606270346
4.86,0.0037985259849062742
4.864,0.003794847781838709
4.868,0.0037929485789476134
4.872,0.0037922273626598553
4.876,0.0037929726194905382
4.88,0.0037952564710684385
4.884,0.0037955449575835416
4.888,0.0037951122278108867
4.892,0.0037943429304372785
4.896,0.0037940063628363247
4.9,0.0037957372819269436
4.904,0.003796482538757627
4.908,0.003795977687356196
4.912,0.003795977687356196
4.916,0.0037986702281638256
4.92,0.0037981894173053205
4.924,0.0037973720388458617
4.928,0.003798862552507228
4.932,0.003798958714678929
4.936,0.0037990067957647793
4.94,0.0037963863765859258
4.944,0.0037924196870032572
4.948,0.0037902079570541333
4.952,0.00379128978148577
4.956,0.003789630984023927
4.96,0.0037902560381399835
4.964,0.0037921792815740047
4.968,0.003791914835601827
4.972,0.003789751186738553
4.976,0.0037892463353371227
4.98,0.003792059078859378
4.984,0.00379128978148577
4.988,0.003792010997773528
4.992,0.0037898473489102543
4.996,0.0037885251190493646
5.0,0.0037869384432162975
5.0040000000000004,0.00378626530801439
5.008,0.0037869624837592224
5.0120000000000005,0.0037872509702743255
5.016,0.003786818240501671
5.0200000000000005,0.00378717884864555
5.024,0.003785904699870511
5.0280000000000005,0.0037860489431280624
5.032,0.003787106727016774
5.0360000000000005,0.0037868663215875216
5.04,0.00378443822675207
5.0440000000000005,0.0037868663215875216
5.048,0.003788428956877664
5.0520000000000005,0.0037846065105525467
5.056,0.0037846545916383973
5.0600000000000005,0.0037859287404134363
5.064,0.003785832578241735
5.0680000000000005,0.0037870586459309236
5.072,0.0037843180240374435
5.0760000000000005,0.0037838372131789384
5.08,0.0037835006455779847
5.0840000000000005,0.003781962050830768
5.088,0.0037822745778887962
5.0920000000000005,0.0037834766050350594
5.096,0.0037835727672067606
5.1000000000000005,0.003783452564492134
5.104,0.0037872509702743255
5.1080000000000005,0.0037882606730771868
5.112,0.0037876837000469805
5.1160000000000005,0.0037852075241256783
5.12,0.003787299051360176
5.124,0.0037897271461956278
5.128,0.003786649956701194
5.132,0.003786337429643166
5.136,0.003788068348733785
5.14,0.0037880443081908595
5.144,0.003785616213355408
5.148,0.003787082686473849
5.152,0.0037876115784182046
5.156,0.003787803902761607
5.16,0.0037874192540748026
5.164,0.003786097024213913
5.168,0.003784173780779892
5.172,0.0037837410510072373
5.176,0.0037835727672067606
5.18,0.00378261114548975
5.184,0.003784366105123294
5.188,0.003784173780779892
5.192,0.003783091956348255
5.196,0.003782418821146348
5.2,0.0037823947806034227
5.204,0.0037842939834945182
5.208,0.0037835487266638353
5.212,0.0037819380102878425
5.216,0.0037823947806034227
5.22,0.003779245469480213
5.224,0.0037788127397075585
5.228,0.003780639820969878
5.232,0.0037813850778005615
5.236,0.003783452564492134
5.24,0.003784726713267173
5.244,0.0037847747943530238
5.248,0.0037829957941765543
5.252,0.0037849430781535004
5.256,0.003786601875615344
5.26,0.0037882366325342615
5.264,0.0037884049163347385
5.268,0.0037849430781535004
5.272,0.003783717010464312
5.276,0.003783596807749686
5.28,0.0037834044834062835
5.284,0.0037827553887473013
5.288,0.0037830679158053298
5.292,0.0037852315646686036
5.296,0.0037850392403252016
5.3,0.0037848228754388744
5.304,0.0037854960106407814
5.308,0.003785135402496903
5.312,0.0037854960106407814
5.316,0.0037852315646686036
5.32,0.0037866739972441193
5.324,0.003785712375527109
5.328,0.003786097024213913
5.332,0.0037857844971558845
5.336,0.003783091956348255
5.34,0.003783452564492134
5.344,0.0037844141862091447
5.348,0.0037835006455779847
5.352,0.003781409118343487
5.356,0.003781962050830768
5.36,0.0037842459024086676
5.364,0.003784149740236967
5.368,0.0037827313482043765
5.372,0.003783596807749686
5.376,0.0037828515509190025
5.38,0.0037828515509190025
5.384,0.003781913969744917
5.388,0.003782346699517572
5.392,0.003784919037610575
5.396,0.0037864816729007173
5.4,0.003787539456789429
5.404,0.0037874192540748026
5.408,0.00378489499706765
5.412,0.003782442861689273
5.416,0.00378078406422743
5.42,0.0037818418481161413
5.424,0.003783260240148732
5.428,0.003784173780779892
5.432,0.003785183483582753
5.436,0.0037834766050350594
5.44,0.0037841978213228175
5.444,0.0037853998484690806
5.448,0.003785544091726632
5.452,0.003784919037610575
5.456,0.003783452564492134
5.46,0.003783644888835536
5.464,0.0037834766050350594
5.468,0.0037830438752624045
5.472,0.003785279645754454
5.476,0.003787082686473849
5.48,0.0037838612537218637
5.484,0.003785616213355408
5.488,0.0037840535780652657
5.492,0.003782442861689273
5.496,0.0037821543751741698
5.5,0.0037816495237727394
5.5040000000000004,0.0037814571994293374
5.508,0.003779125266765587
5.5120000000000005,0.0037805676993411027
5.516,0.0037811687129142343
5.5200000000000005,0.0037811687129142343
5.524,0.0037811687129142343
5.5280000000000005,0.0037787886991646332
5.532,0.0037810485101996078
5.5360000000000005,0.0037831159968911804
5.54,0.0037840295375223404
5.5440000000000005,0.0037862172269285395
5.548,0.0037845824700096214
5.5520000000000005,0.0037844141862091447
5.556,0.0037860008620422122
5.5600000000000005,0.0037836929699213867
5.564,0.003781913969744917
5.5680000000000005,0.003781962050830768
5.572,0.0037828515509190025
5.5760000000000005,0.003780880226399131
5.58,0.0037780915234198005
5.5840000000000005,0.003779125266765587
5.588,0.0037761923205287045
5.5920000000000005,0.0037737401851503276
5.596,0.003776769293558911
5.6000000000000005,0.003778067482876875
5.604,0.003777226063874491
5.6080000000000005,0.0037809523480279066
5.612,0.003780495577712327
5.6160000000000005,0.0037814812399722627
5.62,0.0037821543751741698
5.6240000000000006,0.003780303253368925
5.628,0.003780880226399131
5.632,0.003780711942598654
5.636,0.003780880226399131
5.64,0.003778235766677352
5.644,0.0037769856584452385
5.648,0.003780086888482597
5.652,0.003781433158886412
5.656,0.003781962050830768
5.66,0.003780447496626476
5.664,0.003780231131740149
5.668,0.003780711942598654
5.672,0.0037807359831415793
5.676,0.0037796301181670174
5.68,0.00377895698296511
5.684,0.003778428091020754
5.688,0.0037781155639627258
5.692,0.0037794858749094656
5.696,0.0037801109290255225
5.7,0.003781793767030291
5.704,0.0037801830506542984
5.708,0.0037791973883943624
5.712,0.003779245469480213
5.716,0.0037781876855915017
5.72,0.0037767212124730607
5.724,0.0037757836312989753
5.728,0.00377667313138721
5.732,0.0037774424287608183
5.736,0.003780351334454775
5.74,0.003780351334454775
5.744,0.0037804715371694015
5.748,0.0037802551722830743
5.752,0.003779245469480213
5.756,0.0037809523480279066
5.76,0.0037819380102878425
5.764,0.0037821062940883196
5.768,0.0037801830506542984
5.772,0.0037805436587981774
5.776,0.003780639820969878
5.78,0.003779533955995316
5.784,0.0037804715371694015
5.788,0.003779389712737765
5.792,0.003781000429113757
5.796,0.003783260240148732
5.8,0.0037876837000469805
5.804,0.0037854960106407814
5.808,0.00378489499706765
5.812,0.0037822745778887962
5.816,0.0037834766050350594
5.82,0.003785255605211529
5.824,0.003783091956348255
5.828,0.0037820822535453943
5.832,0.0037819380102878425
5.836,0.0037853277268403047
5.84,0.0037846065105525467
5.844,0.0037841256996940416
5.848,0.0037826592265756006
5.852,0.0037843180240374435
5.856,0.003786193186385614
5.86,0.003786097024213913
5.864,0.003783164077977031
5.868,0.003782322658974647
5.872,0.0037857844971558845
5.876,0.003786097024213913
5.88,0.0037825630644038994
5.884,0.003778404050477829
5.888,0.0037818658886590666
5.892,0.0037822745778887962
5.896,0.0037816735643156647
5.9,0.003780976388570832
5.904,0.003782514983318049
5.908,0.00378443822675207
5.912,0.0037808081047703552
5.916,0.0037817456859444406
5.92,0.003783380442863358
5.924,0.0037844141862091447
5.928,0.003783789132093088
5.932,0.0037833083212345828
5.936,0.00378443822675207
5.94,0.003786601875615344
5.944,0.003785423889012006
5.948,0.0037855681322695573
5.952,0.0037860729836709877
5.956,0.0037857844971558845
5.96,0.0037829477130907037
5.964,0.003784726713267173
5.968,0.0037865778350724185
5.972,0.003782178415717095
5.976,0.0037829477130907037
5.98,0.003786746118872895
5.984,0.003786361470186091
5.988,0.0037850392403252016
5.992,0.0037864095512719414
5.996,0.003787082686473849
6.0,0.003787851983847457
6.0040000000000004,0.0037881404703625607
6.008,0.0037876837000469805
6.0120000000000005,0.003788765524478617
6.016,0.003787275010817251
6.0200000000000005,0.0037853998484690806
6.024,0.0037823707400604974
6.0280000000000005,0.003783091956348255
6.032,0.0037817456859444406
6.0360000000000005,0.003781433158886412
6.04,0.003782466902232198
6.0440000000000005,0.0037809283074849817
6.048,0.003781889929201992
6.0520000000000005,0.003782322658974647
6.056,0.0037814812399722627
6.0600000000000005,0.0037812408345430097
6.064,0.003779678199252868
6.0680000000000005,0.0037783078883061277
6.072,0.003781000429113757
6.0760000000000005,0.0037834044834062835
6.08,0.0037832121590628816
6.0840000000000005,0.003783644888835536
6.088,0.003781793767030291
6.0920000000000005,0.003781889929201992
6.096,0.0037847747943530238
6.1000000000000005,0.003785183483582753
6.104,0.0037846065105525467
6.1080000000000005,0.003784991159239351
6.112,0.003784269942951593
6.1160000000000005,0.0037860008620422122
6.12,0.0037886693623069164
6.1240000000000006,0.003786529753986568
6.128,0.003784798834895949
6.132000000000001,0.0037844622672949953
6.136,0.003782539023860974
6.140000000000001,0.0037835487266638353
6.144,0.00378809238927671
6.148,0.0037879000649333077
6.152,0.003785423889012006
6.156,0.0037850392403252016
6.16,0.0037848469159817992
6.164,0.003785183483582753
6.168,0.00378580853769881
6.172,0.0037844622672949953
6.176,0.003784558429466696
6.18,0.0037853036862973794
6.184,0.0037867941999587458
6.188,0.0037862172269285395
6.192,0.003786890362130447
6.196,0.003786457632357792
6.2,0.0037893665380517487
6.204,0.003787443294617728
6.208,0.0037862412674714648
6.212,0.0037864335918148667
6.216,0.0037859287404134363
6.22,0.003787082686473849
6.224,0.0037873952135318773
6.228,0.003785255605211529
6.232,0.0037841016591511163
6.236,0.0037857364160700344
6.24,0.003787010564845073
6.244,0.003784173780779892
6.248,0.0037845824700096214
6.252,0.003787275010817251
6.256,0.0037889338082790942
6.26,0.003791554227457948
6.264,0.0037897031056527025
6.268,0.0037872028891884754
6.272,0.0037883808757918132
6.276,0.0037897031056527025
6.28,0.0037864095512719414
6.284,0.0037846545916383973
6.288,0.0037857844971558845
6.292,0.003787299051360176
6.296,0.0037920831194023035
6.3,0.0037930928222051647
6.304,0.0037927322140612857
6.308,0.003795280511611364
6.312,0.0037951122278108867
6.316,0.0037973479983029364
6.32,0.0037972758766741605
6.324,0.0037981172956765446
6.328,0.003798958714678929
6.332,0.0037986702281638256
6.336,0.0037981894173053205
6.34,0.0037990789173935552
6.344,0.0038002088229110425
6.348,0.0037988865930501533
6.352,0.0037988385119643027
6.356,0.0037979009307902174
6.36,0.0037960738495278973
6.364,0.0037964584982147016
6.368,0.003797323957760011
6.372,0.003799415484994509
6.376,0.003801723377115334
6.38,0.0037998722553100888
6.384,0.0037982855794770217
6.388,0.0037983577011057976
6.392,0.003797588403732189
6.396,0.003797516282103413
6.4,0.0038016272149436333
6.404,0.0038004492283402955
6.408,0.0037977086064468154
6.412,0.003801146404085128
6.416,0.003800184782368117
6.42,0.0037995597282520607
6.424,0.003799703971509612
6.428,0.0037995837687949856
6.432,0.0037988144714213774
6.436,0.0037983817416487224
6.44,0.0037970114307019826
6.444,0.0038002809445398184
6.448,0.0038011944851709784
6.452,0.0037993914444515837
6.456,0.0038001607418251923
6.46,0.0038048486476956185
6.464,0.003804247634122487
6.468,0.0038041514719507857
6.472,0.0038041514719507857
6.476,0.0038031177286049996
6.48,0.0038014829716860815
6.484,0.003800617512140772
6.488,0.0037985500254491995
6.492,0.0037988144714213774
6.496,0.0038004732688832203
6.5,0.00380088195811295
6.5040000000000004,0.0038009059986558753
6.508,0.003800040539110566
6.5120000000000005,0.003797516282103413
6.516,0.003798021133504844
6.5200000000000005,0.003799343363365733
6.524,0.003799487606623285
6.5280000000000005,0.003798309620019947
6.532,0.0037993193228228078
6.5360000000000005,0.0037975403226463383
6.54,0.003797035471244908
6.5440000000000005,0.003798237498391171
6.548,0.003799679930966687
6.5520000000000005,0.003798501944363349
6.556,0.0037956170792123175
6.5600000000000005,0.0037950881872679614
6.564,0.00379677102527273
6.5680000000000005,0.00379585748464157
6.572,0.0037901598759682827
6.5760000000000005,0.0037927802951471363
6.58,0.003794727579124083
6.5840000000000005,0.003795929606270346
6.588,0.0037968191063585807
6.5920000000000005,0.003794294849351428
6.596,0.0037944150520660544
6.6000000000000005,0.0037974682010175624
6.604,0.0037964584982147016
6.6080000000000005,0.0037965065793005522
6.612,0.003800136701282267
6.6160000000000005,0.0037990789173935552
6.62,0.0037981172956765446
6.6240000000000006,0.003799679930966687
6.628,0.003799343363365733
6.632000000000001,0.003799151039022331
6.636,0.003797949011876068
6.640000000000001,0.003795785363012794
6.644,0.0037960257684420467
6.648000000000001,0.0037975403226463383
6.652,0.0037965065793005522
6.656000000000001,0.003798237498391171
6.66,0.0037966508225581036
6.664,0.003797660525360965
6.668,0.003797131633416609
6.672,0.0037969152685302814
6.676,0.0037989106335930786
6.68,0.003798862552507228
6.684,0.0037975643631892636
6.688,0.003794871822381634
6.692,0.0037963863765859258
6.696,0.0037959055657274207
6.7,0.003795496876497691
6.704,0.003795424754868915
6.708,0.003796218092785449
6.712,0.0037982615389340964
6.716,0.0037992472011940323
6.72,0.00380042518779737
6.724,0.0038014829716860815
6.728,0.0037998241742242386
6.732,0.0037999443769388646
6.736,0.0037995837687949856
6.74,0.003798790430878452
6.744,0.0038005453905119962
6.748,0.0038014829716860815
6.752,0.0037991029579364805
6.756,0.0037996558904237615
6.76,0.003799607809337911
6.764,0.003801963782544587
6.768,0.003803526417834729
6.772,0.0038013868095143804
6.776,0.0038019157014587365
6.78,0.0038003530661685943
6.784,0.00380088195811295
6.788,0.003800954079741726
6.792,0.003800593471597847
6.796,0.003798694268706751
6.8,0.0037981172956765446
6.804,0.0037976364848180395
6.808,0.0037966267820151783
6.812,0.003796867187444431
6.816,0.0037977326469897407
6.82,0.0037986221470779754
6.824,0.0037995356877091355
6.828,0.0038016272149436333
6.832,0.003800593471597847
6.836,0.0037998722553100888
6.84,0.003800761755398324
6.844,0.003800064579653491
6.848,0.0038013868095143804
6.852,0.0038011944851709784
6.856,0.0037998241742242386
6.86,0.0038002809445398184
6.864,0.0037999443769388646
6.868,0.003800401147254445
6.872,0.003801723377115334
6.876,0.003800809836484174
6.88,0.003802636917746494
6.884,0.00380179549874411
6.888,0.0038013868095143804
6.892,0.0038027571204611206
6.896,0.003804103390864935
6.9,0.0038051371342107216
6.904,0.0038067478505867144
6.908,0.0038034062151201028
6.912,0.003801434890600231
6.916,0.0038029494448045226
6.92,0.003802901363718672
6.924,0.0038043918773800383
6.928,0.0038075171479603227
6.932,0.003808382607505632
6.936,0.0038087672561924364
6.94,0.003808454729134408
6.944,0.003809728877909447
6.948,0.003808166242619305
6.952,0.003804872688238544
6.956,0.0038032379313196257
6.96,0.0038026849988323447
6.964,0.003803189850233775
6.968,0.0038056660261550773
6.972,0.003807060377644743
6.976,0.003807805634475426
6.98,0.0038082143237051554
6.984,0.0038084066480485574
6.988,0.0038083345264197815
6.992,0.00380727674253107
6.996,0.00380544966126875
7.0,0.003804319755751263
7.0040000000000004,0.0038057621883267785
7.008,0.003805233296382423
7.0120000000000005,0.003807469066874472
7.016,0.0038067959316725646
7.0200000000000005,0.0038058583504984797
7.024,0.0038075652290461733
7.0280000000000005,0.003809825040081148
7.032,0.003809079783250465
7.0360000000000005,0.0038097769589952976
7.04,0.0038100654455104008
7.0440000000000005,0.0038084306885914827
7.048,0.003810762621255233
7.0520000000000005,0.0038108107023410837
7.056,0.0038112193915708133
7.0600000000000005,0.0038096807968235964
7.064,0.00380773351284665
7.0680000000000005,0.0038083345264197815
7.072,0.0038078777561042017
7.0760000000000005,0.0038078537155612764
7.08,0.003809007661621689
7.0840000000000005,0.003809296148136792
7.088,0.00380956059410897
7.0920000000000005,0.003809199985965091
7.096,0.0038065314857003867
7.1000000000000005,0.003805353499097049
7.104,0.0038065314857003867
7.1080000000000005,0.0038033100529484016
7.112,0.0038022041879738396
7.1160000000000005,0.003803550458377654
7.12,0.0038051130936677963
7.1240000000000006,0.003808021999361753
7.128,0.0038033821745771775
7.132000000000001,0.003801987823087512
7.136,0.0038067959316725646
7.140000000000001,0.003807973918275903
7.144,0.003812373337631226
7.148000000000001,0.003811820405143945
7.152,0.003808815337278287
7.156000000000001,0.0038080460399046783
7.16,0.0038098009995382225
7.164000000000001,0.003809199985965091
7.168,0.003809079783250465
7.172,0.0038088874589070625
7.176,0.0038093201886797174
7.18,0.003809488472480194
7.184,0.003809079783250465
7.188,0.003808526850763184
7.192,0.003809921202252849
7.196,0.0038085028102202586
7.2,0.0038102337293108774
7.204,0.003809993323881625
7.208,0.0038098971617099237
7.212,0.0038119646484014963
7.216,0.0038124214187170765
7.22,0.003813863851292592
7.224,0.0038127579863180302
7.228,0.0038108107023410837
7.232,0.003811748283515169
7.236,0.003809849080624073
7.24,0.0038094163508514186
7.244,0.003807396945245696
7.248,0.003805714107240928
7.252,0.0038040072286932344
7.256,0.0038070122965588923
7.26,0.0038083345264197815
7.264,0.0038082383642480807
7.268,0.003807901796647127
7.272,0.003807757553389575
7.276,0.003808454729134408
7.28,0.0038055698639833766
7.284,0.0038051371342107216
7.288,0.0038074209857886215
7.292,0.003811459797000066
7.296,0.0038120848511161228
7.3,0.003810978986141561
7.304,0.0038112434321137386
7.308,0.0038140802161789195
7.312,0.003812661824146329
7.316,0.0038129743512043575
7.32,0.003812950310661432
7.324,0.003811459797000066
7.328,0.0038129743512043575
7.332,0.003810281810396728
7.336,0.0038073248236169207
7.34,0.0038093201886797174
7.344,0.003810209688767952
7.348,0.0038095365535660447
7.352,0.0038107145401693825
7.356,0.00380956059410897
7.36,0.0038084787696773333
7.364,0.003807901796647127
7.368,0.003811748283515169
7.372,0.0038117002024293184
7.376,0.003811748283515169
7.38,0.0038107145401693825
7.384,0.003810377972568429
7.388,0.0038107866617981584
7.392,0.0038119165673156457
7.396,0.0038127099052321796
7.4,0.0038101375671391762
7.404,0.003808526850763184
7.408,0.0038097048373665217
7.412,0.0038089595805358384
7.416,0.0038101375671391762
7.42,0.0038091278643363155
7.424,0.0038068920938442658
7.428,0.0038073248236169207
7.432,0.003809199985965091
7.436,0.003809175945422166
7.44,0.0038098971617099237
7.444,0.0038078777561042017
7.448,0.0038072046209022942
7.452,0.0038074931074173974
7.456,0.0038070363371018176
7.46,0.003809849080624073
7.464,0.0038100414049674755
7.468,0.0038086951345636605
7.472,0.0038104981752830553
7.476,0.003807829675018351
7.48,0.00380956059410897
7.484,0.0038098009995382225
7.488,0.0038098009995382225
7.492,0.003811652121343468
7.496,0.003813503243148713
7.5,0.003813407080977012
7.5040000000000004,0.0038137436485779657
7.508,0.0038098009995382225
7.5120000000000005,0.003809199985965091
7.516,0.0038084066480485574
7.5200000000000005,0.0038091278643363155
7.524,0.003809993323881625
7.5280000000000005,0.0038091519048792408
7.532,0.0038094163508514186
7.5360000000000005,0.0038070363371018176
7.54,0.003808815337278287
7.5440000000000005,0.0038119886889444216
7.548,0.0038130464728331334
7.5520000000000005,0.003811315553742514
7.556,0.00381230121600245
7.5600000000000005,0.003812108891659048
7.564,0.0038125416214317026
7.5680000000000005,0.003812373337631226
7.572,0.0038127099052321796
7.5760000000000005,0.0038132628377194606
7.58,0.003812445459260002
7.5840000000000005,0.0038131907160906847
7.588,0.0038134551620628626
7.5920000000000005,0.0038132387971765353
7.596,0.0038119886889444216
7.6000000000000005,0.003809368269765568
7.604,0.003812397378174151
7.6080000000000005,0.003813503243148713
7.612,0.0038095365535660447
7.6160000000000005,0.003809849080624073
7.62,0.0038099692833386996
7.6240000000000006,0.003811027067227411
7.628,0.003812108891659048
7.632000000000001,0.003811123229399112
7.636,0.003809825040081148
7.640000000000001,0.0038113395942854394
7.644,0.0038124214187170765
7.648000000000001,0.0038126858646892543
7.652,0.003813479202605788
7.656000000000001,0.0038147052702949763
7.66,0.0038150658784388554
7.664000000000001,0.00381412829726477
7.668,0.003814561027037425
7.672000000000001,0.0038130464728331334
7.676,0.003812926270118507
7.68,0.0038135272836916385
7.684,0.0038120848511161228
7.688,0.0038128781890326563
7.692,0.0038130945539189835
7.696,0.003815522648754435
7.7,0.0038161717434134178
7.704,0.003814945675724229
7.708,0.0038141763783506206
7.712,0.0038142965810652467
7.716,0.0038143446621510973
7.72,0.003814320621608172
7.724,0.0038139840540072187
7.728,0.003814609108123275
7.732,0.0038143446621510973
7.736,0.0038160515406987917
7.74,0.003817181446216279
7.744,0.0038168689191582506
7.748,0.003817253567845055
7.752,0.003817253567845055
7.756,0.0038181430679332896
7.76,0.0038173978111026062
7.764,0.003815522648754435
7.768,0.0038143687026940226
7.772,0.0038128060674038804
7.776,0.003811940607858571
7.78,0.0038128060674038804
7.784,0.003813767689120891
7.788,0.0038168689191582506
7.792,0.003817085284044578
7.796,0.0038176622570747845
7.8,0.00381773437870356
7.804,0.0038191046896503002
7.808,0.0038170372029587276
7.812,0.003815330324411033
7.816,0.003815330324411033
7.82,0.003817181446216279
7.824,0.0038173016489309055
7.828,0.003817469932731382
7.832,0.0038169410407870264
7.836,0.003816892959701176
7.84,0.003816195783956343
7.844,0.003817469932731382
7.848,0.00381549860821151
7.852,0.003816628513728998
7.856,0.003815306283868108
7.86,0.0038143446621510973
7.864,0.003817349730016756
7.868,0.0038170131624158023
7.872,0.0038179747841328125
7.876,0.0038175901354460086
7.88,0.0038166525542719233
7.884,0.0038158592163553898
7.888,0.0038196095410517306
7.892,0.0038191046896503002
7.896,0.003815306283868108
7.9,0.003814681229752051
7.904,0.003815666892011987
7.908,0.0038162438650421937
7.912,0.0038152101216964067
7.916,0.0038142244594364712
7.92,0.00381590729744124
7.924,0.0038162198244992684
7.928,0.0038141042567218448
7.932,0.003812012729487347
7.936,0.0038140080945501436
7.94,0.0038160996217846423
7.944,0.003817109324587503
7.948,0.003817902662504037
7.952,0.0038158351758124645
7.956,0.0038172054867592043
7.96,0.0038207154060262926
7.964,0.0038235041090056232
7.968,0.0038227588521749403
7.972,0.003823480068462698
7.976,0.003821749149372079
7.98,0.0038199461086526844
7.984,0.003818527716620094
7.988,0.0038164602299285214
7.992,0.003815402446039809
7.996,0.0038162919461280443
8.0,0.0038183113517337663
8.004,0.0038193931761654034
8.008000000000001,0.0038186960004205706
8.012,0.0038186960004205706
8.016,0.0038216289466574526
8.02,0.003821316419599424
8.024000000000001,0.003820835608740919
8.028,0.003821556825028677
8.032,0.0038225905683744632
8.036,0.003820186514081937
8.040000000000001,0.003818912365306898
8.044,0.003818720040963496
8.048,0.0038186719598776453
8.052,0.0038180709463045137
8.056000000000001,0.0038195855005088053
8.06,0.0038209798519984704
8.064,0.0038197537843092824
8.068,0.003819489338337104
8.072000000000001,0.0038214366223140507
8.076,0.0038193450950795528
8.08,0.0038183113517337663
8.084,0.003816267905585119
8.088000000000001,0.003815306283868108
8.092,0.00381590729744124
8.096,0.0038184796355342433
8.1,0.0038166765948148486
8.104000000000001,0.0038150899189817807
8.108,0.0038145369864944997
8.112,0.0038186960004205706
8.116,0.0038194652977941793
8.120000000000001,0.0038176622570747845
8.124,0.003817061243501653
8.128,0.0038175901354460086
8.132,0.0038183353922766916
8.136000000000001,0.0038198980275668338
8.14,0.0038199701491956096
8.144,0.003818455594991318
8.148,0.0038166765948148486
8.152000000000001,0.003819633581594656
8.156,0.0038193450950795528
8.16,0.0038198739870239085
8.164,0.0038228309738037158
8.168000000000001,0.0038227107710890897
8.172,0.00382230208185936
8.176,0.0038186960004205706
8.18,0.003817902662504037
8.184000000000001,0.0038177584192464853
8.188,0.0038171574056733537
8.192,0.003817469932731382
8.196,0.0038179507435898877
8.2,0.0038177584192464853
8.204,0.0038186960004205706
8.208,0.0038175901354460086
8.212,0.003817902662504037
8.216,0.0038184796355342433
8.22,0.0038185998382488694
8.224,0.003819489338337104
8.228,0.0038181430679332896
8.232,0.0038180709463045137
8.236,0.003818022865218663
8.24,0.003817830540875261
8.244,0.0038179747841328125
8.248,0.0038181190273903643
8.252,0.0038189844869356737
8.256,0.003818816203135197
8.26,0.003819705703223432
8.264,0.0038176382165318592
8.268,0.0038173016489309055
8.272,0.003819825905938058
8.276,0.0038189604463927484
8.28,0.0038179507435898877
8.284,0.003817614175988934
8.288,0.0038173016489309055
8.292,0.0038169410407870264
8.296,0.0038208596492838444
8.3,0.0038208115681979938
8.304,0.0038193210545366275
8.308,0.003821196216884798
8.312,0.003818455594991318
8.316,0.0038190325680215243
8.32,0.0038193450950795528
8.324,0.0038189604463927484
8.328,0.0038210760141701716
8.332,0.0038219895548013316
8.336,0.003819657622137581
8.34,0.003821821271000855
8.344,0.003820282676253638
8.348,0.0038174939732743074
8.352,0.0038166525542719233
8.356,0.0038161236623275676
8.36,0.0038186719598776453
8.364,0.0038181430679332896
8.368,0.0038184315544483927
8.372,0.0038219895548013316
8.376,0.00382230208185936
8.38,0.0038191768112790757
8.384,0.003818575797705944
8.388,0.0038192489329078516
8.392,0.003818383473362542
8.396,0.003820282676253638
8.4,0.003820643284397517
8.404,0.0038183353922766916
8.408,0.003817373770559681
8.412,0.0038190566085644496
8.416,0.003816892959701176
8.42,0.0038123252565453753
8.424,0.003811820405143945
8.428,0.0038133349593482365
8.432,0.0038130464728331334
8.436,0.00381321475663361
8.44,0.003813575364777489
8.444,0.0038114357564571406
8.448,0.0038129022295755816
8.452,0.003812229094373674
8.456,0.0038114117159142153
8.46,0.0038137917296638163
8.464,0.0038111472699420374
8.468,0.0038113395942854394
8.472,0.0038140080945501436
8.476,0.0038160515406987917
8.48,0.0038164121488426708
8.484,0.003815306283868108
8.488,0.0038154505271256597
8.492,0.0038145129459515744
8.496,0.0038133109188053112
8.5,0.0038147293108379016
8.504,0.0038173256894738308
8.508000000000001,0.0038147293108379016
8.512,0.003814609108123275
8.516,0.0038147293108379016
8.52,0.0038167967975294747
8.524000000000001,0.0038176622570747845
8.528,0.0038170131624158023
8.532,0.003816532351557297
8.536,0.003818287311190841
8.540000000000001,0.0038183113517337663
8.544,0.0038205230816828906
8.548,0.003821027933084321
8.552,0.0038213645006852748
8.556000000000001,0.003821460662856976
8.56,0.0038167727569865494
8.564,0.003820354797882414
8.568,0.0038226867305461644
8.572000000000001,0.0038213885412282
8.576,0.0038188642842210477
8.58,0.0038194652977941793
8.584,0.003818527716620094
8.588000000000001,0.003818527716620094
8.592,0.0038172295273021296
8.596,0.003819272973450777
8.6,0.003819008527478599
8.604000000000001,0.0038180709463045137
8.608,0.003817902662504037
8.612,0.0038180709463045137
8.616,0.003816267905585119
8.620000000000001,0.0038183113517337663
8.624,0.0038175180138172327
8.628,0.003815378405496884
8.632,0.0038163881082997455
8.636000000000001,0.003817253567845055
8.64,0.0038176382165318592
8.644,0.0038180709463045137
8.648,0.0038198739870239085
8.652000000000001,0.0038212442979706487
8.656,0.003818263270647916
8.66,0.003817830540875261
8.664,0.003818575797705944
8.668000000000001,0.0038179747841328125
8.672,0.0038179747841328125
8.676,0.0038177824597894106
8.68,0.0038190325680215243
8.684000000000001,0.003818720040963496
8.688,0.003818792162592272
8.692,0.003817253567845055
8.696,0.0038185036760771686
8.700000000000001,0.003820258635710713
8.704,0.003819080649107375
8.708,0.0038193931761654034
8.712,0.0038212202574277234
8.716,0.0038249705821240642
8.72,0.003826316852527879
8.724,0.003823359865748072
8.728,0.0038207154060262926
8.732,0.003818022865218663
8.736,0.0038167487164436245
8.74,0.0038171333651304284
8.744,0.003815234162239332
8.748,0.003818912365306898
8.752,0.0038190325680215243
8.756,0.0038159313379841652
8.76,0.003818383473362542
8.764,0.003818936405849823
8.768,0.003816892959701176
8.772,0.003817373770559681
8.776,0.0038198980275668338
8.78,0.0038200182302814602
8.784,0.003820210554624862
8.788,0.0038185036760771686
8.792,0.0038185998382488694
8.796,0.0038170131624158023
8.8,0.0038179507435898877
8.804,0.0038185036760771686
8.808,0.0038191768112790757
8.812,0.00381819114901914
8.816,0.003816628513728998
8.82,0.003817614175988934
8.824,0.003817373770559681
8.828,0.003813695567492115
8.832,0.003816147702870493
8.836,0.003819657622137581
8.84,0.003820643284397517
8.844,0.0038227588521749403
8.848,0.0038227107710890897
8.852,0.003821725108829154
8.856,0.0038200903519102357
8.86,0.0038190566085644496
8.864,0.0038196095410517306
8.868,0.003818912365306898
8.872,0.0038175660949030833
8.876,0.003815811135269539
8.88,0.003818263270647916
8.884,0.0038186719598776453
8.888,0.003818263270647916
8.892,0.003818792162592272
8.896,0.003819657622137581
8.9,0.003817830540875261
8.904,0.003815113959524706
8.908,0.003813695567492115
8.912,0.003811652121343468
8.916,0.003814681229752051
8.92,0.003818792162592272
8.924,0.0038157390136407633
8.928,0.0038167967975294747
8.932,0.003818263270647916
8.936,0.0038181190273903643
8.94,0.0038174218516455315
8.944,0.0038142244594364712
8.948,0.0038159313379841652
8.952,0.0038167487164436245
8.956,0.003815811135269539
8.96,0.0038155707298402858
8.964,0.003813767689120891
8.968,0.003814969716267154
8.972,0.0038188642842210477
8.976,0.003817902662504037
8.98,0.0038209558114555456
8.984,0.0038213404601423495
8.988,0.00381864791933472
8.992,0.003821821271000855
8.996,0.0038225424872886126
9.0,0.0038199461086526844
9.004,0.003819729743766357
9.008000000000001,0.003821292379056499
9.012,0.003819657622137581
9.016,0.0038194652977941793
9.02,0.0038167967975294747
9.024000000000001,0.0038160275001558664
9.028,0.0038181430679332896
9.032,0.0038191768112790757
9.036,0.0038155707298402858
9.040000000000001,0.003817614175988934
9.044,0.0038173978111026062
9.048,0.003814825473009603
9.052,0.00381230121600245
9.056000000000001,0.0038123252565453753
9.06,0.0038141763783506206
9.064,0.0038150899189817807
9.068,0.0038141042567218448
9.072000000000001,0.0038137436485779657
9.076,0.0038158592163553898
9.08,0.003816628513728998
9.084,0.0038171574056733537
9.088000000000001,0.0038171574056733537
9.092,0.003816989121872877
9.096,0.003814945675724229
9.1,0.0038138157702067416
9.104000000000001,0.003814320621608172
9.108,0.003812205053830749
9.112,0.0038145850675803503
9.116,0.0038148975946383783
9.120000000000001,0.0038148014324666775
9.124,0.0038166525542719233
9.128,0.0038177824597894106
9.132,0.003816892959701176
9.136000000000001,0.0038189844869356737
9.14,0.003819994189738535
9.144,0.003819297013993702
9.148,0.0038208115681979938
9.152000000000001,0.0038238887576924276
9.156,0.0038224222845739866
9.16,0.003818527716620094
9.164,0.003818287311190841
9.168000000000001,0.003817061243501653
9.172,0.0038176862976177094
9.176,0.0038158351758124645
9.18,0.0038169410407870264
9.184000000000001,0.00381773437870356
9.188,0.0038177824597894106
9.192,0.0038178786219611118
9.196,0.003817542054360158
9.200000000000001,0.003816195783956343
9.204,0.0038152582027822573
9.208,0.0038122531349165994
9.212,0.0038111713104849627
9.216000000000001,0.003811483837542991
9.22,0.003810642418540607
9.224,0.003809825040081148
9.228,0.003811123229399112
9.232,0.003810978986141561
9.236,0.003811459797000066
9.24,0.0038106904996264572
9.244,0.003810642418540607
9.248,0.0038130464728331334
9.252,0.0038140802161789195
9.256,0.0038130945539189835
9.26,0.0038135994053204144
9.264,0.0038152822433251826
9.268,0.0038160515406987917
9.272,0.003818792162592272
9.276,0.0038160996217846423
9.28,0.0038158832568983146
9.284,0.003817542054360158
9.288,0.003818575797705944
9.292,0.00381549860821151
9.296,0.0038176622570747845
9.3,0.003815378405496884
9.304,0.0038150177973530048
9.308,0.0038166044731860727
9.312,0.0038172295273021296
9.316,0.003817085284044578
9.32,0.0038152101216964067
9.324,0.003815330324411033
9.328,0.0038178786219611118
9.332,0.0038168208380724
9.336,0.003814416783779873
9.34,0.003817061243501653
9.344,0.0038164121488426708
9.348,0.0038156188109261364
9.352,0.003814416783779873
9.356,0.0038142244594364712
9.36,0.003814969716267154
9.364,0.0038175180138172327
9.368,0.003815306283868108
9.372,0.003812950310661432
9.376,0.0038119165673156457
9.38,0.0038106904996264572
9.384,0.0038133349593482365
9.388,0.0038157390136407633
9.392,0.0038149937568100795
9.396,0.003817109324587503
9.4,0.003816267905585119
9.404,0.003812469499802927
9.408,0.003814056175635994
9.412,0.003813695567492115
9.416,0.003812565661974628
9.42,0.0038140080945501436
9.424,0.003816628513728998
9.428,0.003818383473362542
9.432,0.003818167108476215
9.436,0.0038166044731860727
9.44,0.0038165804326431474
9.444,0.0038166525542719233
9.448,0.0038177824597894106
9.452,0.003818816203135197
9.456,0.003817998824675738
9.46,0.003816724675900699
9.464,0.003814609108123275
9.468,0.003815378405496884
9.472,0.0038174939732743074
9.476,0.0038175901354460086
9.48,0.0038186960004205706
9.484,0.0038208115681979938
9.488,0.003823480068462698
9.492,0.0038266053390429823
9.496,0.0038267255417576084
9.5,0.0038231675414046695
9.504,0.0038213645006852748
9.508000000000001,0.003821677027743303
9.512,0.003821580865571602
9.516,0.003819633581594656
9.52,0.0038183113517337663
9.524000000000001,0.0038161236623275676
9.528,0.003816532351557297
9.532,0.0038186719598776453
9.536,0.0038183113517337663
9.540000000000001,0.003819297013993702
9.544,0.003818575797705944
9.548,0.003819272973450777
9.552,0.0038213885412282
9.556000000000001,0.0038221818791447336
9.56,0.003822638649460314
9.564,0.003823552190091474
9.568,0.0038229511765183423
9.572000000000001,0.003822229960230584
9.576,0.003821941473715481
9.58,0.003822494406202762
9.584,0.0038228790548895664
9.588000000000001,0.0038217010682862285
9.592,0.003822109757515958
9.596,0.0038206673249404424
9.6,0.0038203067167965634
9.604000000000001,0.003819297013993702
9.608,0.003819657622137581
9.612,0.0038189844869356737
9.616,0.003821316419599424
9.620000000000001,0.003820907730369695
9.624,0.003819008527478599
9.628,0.0038206913654833673
9.632,0.003820835608740919
9.636000000000001,0.003820907730369695
9.64,0.003820402878968264
9.644,0.003821027933084321
9.648,0.0038184796355342433
9.652000000000001,0.0038191768112790757
9.656,0.0038199701491956096
9.66,0.0038181190273903643
9.664,0.003818263270647916
9.668000000000001,0.003820378838425339
9.672,0.0038180469057615884
9.676,0.0038180469057615884
9.68,0.003817998824675738
9.684000000000001,0.0038188642842210477
9.688,0.0038189844869356737
9.692,0.003817902662504037
9.696,0.003819272973450777
9.700000000000001,0.0038203067167965634
9.704,0.003818383473362542
9.708,0.003817109324587503
9.712,0.0038171333651304284
9.716000000000001,0.003816989121872877
9.72,0.003819297013993702
9.724,0.0038183113517337663
9.728,0.0038204990411399653
9.732,0.0038230473386900434
9.736,0.003822782892717865
9.74,0.0038198980275668338
9.744,0.0038191046896503002
9.748,0.0038186960004205706
9.752,0.003818094986847439
9.756,0.0038192489329078516
9.76,0.003818263270647916
9.764,0.003817469932731382
9.768,0.003817806500332336
9.772,0.0038187681220493465
9.776,0.0038198980275668338
9.78,0.0038196095410517306
9.784,0.003820066311367311
9.788,0.0038195133788800294
9.792,0.0038180709463045137
9.796,0.003815979419070016
9.8,0.0038160515406987917
9.804,0.0038163881082997455
9.808,0.0038157390136407633
9.812,0.003817109324587503
9.816,0.003817373770559681
9.82,0.0038172295273021296
9.824,0.0038184075139054675
9.828,0.003818383473362542
9.832,0.0038192248923649263
9.836,0.0038182151895620655
9.84,0.0038171333651304284
9.844,0.0038145850675803503
9.848,0.0038159313379841652
9.852,0.0038167727569865494
9.856,0.0038175901354460086
9.86,0.0038160996217846423
9.864,0.003814464864865724
9.868,0.003814849513552528
9.872,0.0038151380000676313
9.876,0.0038167727569865494
9.88,0.003818816203135197
9.884,0.003819705703223432
9.888,0.0038186719598776453
9.892,0.0038174939732743074
9.896,0.0038169650813299517
9.9,0.0038204269195111894
9.904,0.003822782892717865
9.908,0.003823359865748072
9.912,0.003822782892717865
9.916,0.003820643284397517
9.92,0.0038203067167965634
9.924,0.003824033000949979
9.928,0.0038248022983235876
9.932,0.0038203307573394887
9.936,0.0038195374194229547
9.94,0.0038181430679332896
9.944,0.003816628513728998
9.948,0.0038156909325549123
9.952,0.0038193931761654034
9.956,0.003820739446569218
9.96,0.003821821271000855
9.964,0.0038217010682862285
9.968,0.003820547122225816
9.972,0.003819297013993702
9.976,0.003820258635710713
9.98,0.00381819114901914
9.984,0.0038168689191582506
9.988,0.003819152770736151
9.992,0.003818094986847439
9.996,0.0038188642842210477
10.0,0.0038188642842210477
10.004,0.0038165804326431474
10.008000000000001,0.0038176622570747845
10.012,0.0038213404601423495
10.016,0.003821196216884798
10.02,0.003821196216884798
10.024000000000001,0.0038228790548895664
10.028,0.0038228069332607905
10.032,0.003823696433349025
10.036,0.003821100054713097
10.040000000000001,0.003819657622137581
10.044,0.003821580865571602
10.048,0.003821652987200378
10.052,0.0038213404601423495
10.056000000000001,0.003818527716620094
10.06,0.0038185036760771686
10.064,0.0038183113517337663
10.068,0.0038195374194229547
10.072000000000001,0.00381956145996588
10.076,0.003821941473715481
10.08,0.00382727847424489
10.084,0.003828672825734555
10.088000000000001,0.0038271101904444127
10.092,0.0038274467580453665
10.096,0.0038272303931590392
10.1,0.0038278794878180214
10.104000000000001,0.0038269178661010108
10.108,0.003827831406732171
10.112,0.0038269659471868614
10.116,0.003826124528184477
10.120000000000001,0.003824826338866513
10.124,0.0038266053390429823
10.128,0.0038263408930708045
10.132,0.003823407946833922
10.136000000000001,0.003825235028096242
10.14,0.0038269899877297862
10.144,0.0038274467580453665
10.148,0.0038300431366812947
10.152000000000001,0.0038306681907973516
10.156,0.003828119893247274
10.16,0.0038279996905326475
10.164,0.003826028366012776
10.168000000000001,0.003825114825381616
10.172,0.00382732655533074
10.176,0.0038297306096232663
10.18,0.0038284324203053024
10.184000000000001,0.00382727847424489
10.188,0.003827062109358562
10.192,0.0038266774606717582
10.196,0.0038264370552425053
10.200000000000001,0.0038255235146113452
10.204,0.0038257158389547476
10.208,0.0038279996905326475
10.212,0.003830139298852996
10.216000000000001,0.003829514244736939
10.22,0.003828119893247274
10.224,0.0038289132311638075
10.228,0.0038308124340549034
10.232000000000001,0.0038305960691685757
10.236,0.003829874852880818
10.24,0.003830692231340277
10.244,0.003831485569256811
10.248,0.0038308845556836793
10.252,0.003830620109711501
10.256,0.0038292017176789106
10.26,0.0038280718121614233
10.264,0.0038279275689038716
10.268,0.00382732655533074
10.272,0.0038289132311638075
10.276,0.0038271101904444127
10.28,0.0038255235146113452
10.284,0.0038276631229316937
10.288,0.0038277352445604696
10.292,0.003827831406732171
10.296,0.003826845744472235
10.3,0.003825403311896719
10.304,0.0038278073661892455
10.308,0.003830331623196398
10.312,0.003829225758221836
10.316,0.0038266774606717582
10.32,0.003827494839131217
10.324,0.0038277112040175443
10.328,0.0038281679743331245
10.332,0.0038274467580453665
10.336,0.003827038068815637
10.34,0.0038295623258227897
10.344,0.003832879920746476
10.348,0.003835981150783835
10.352,0.003836798529243294
10.356,0.003834490637122469
10.36,0.0038328558802035507
10.364,0.0038334088126908317
10.368,0.0038330241640040274
10.372,0.00382686978501516
10.376,0.0038266053390429823
10.38,0.0038291295960501347
10.384,0.003827975649989722
10.388,0.003827038068815637
10.392,0.0038284564608482277
10.396,0.003827831406732171
10.4,0.0038297546501661916
10.404,0.0038284564608482277
10.408,0.003827687163474619
10.412,0.0038269659471868614
10.416,0.0038281679743331245
10.42,0.0038268217039293096
10.424,0.0038277112040175443
10.428,0.003828528582477003
10.432,0.0038277112040175443
10.436,0.0038287209068204055
10.44,0.003828793028449181
10.444,0.0038285766635628537
10.448,0.0038287209068204055
10.452,0.0038278794878180214
10.456,0.003826485136328356
10.46,0.0038251869470103915
10.464,0.0038256437173259717
10.468,0.0038263889741566547
10.472,0.003826485136328356
10.476,0.003826028366012776
10.48,0.0038256437173259717
10.484,0.0038271582715302633
10.488,0.003828744947363331
10.492,0.003827398676959516
10.496,0.003826485136328356
10.5,0.003824850379409438
10.504,0.003823912798235353
10.508000000000001,0.0038248744199523635
10.512,0.003824946541581139
10.516,0.003825475433525495
10.52,0.003826509176871281
10.524000000000001,0.003828528582477003
10.528,0.0038274707985882918
10.532,0.0038280958527043486
10.536,0.003828600704105779
10.540000000000001,0.0038290815149642846
10.544,0.003828528582477003
10.548,0.0038276390823887684
10.552,0.0038269659471868614
10.556000000000001,0.0038289132311638075
10.56,0.0038307162718832022
10.564,0.0038307403124261275
10.568,0.00383372133974886
10.572000000000001,0.0038328318396606254
10.576,0.003832254866630419
10.58,0.0038335530559483835
10.584,0.003833144366718654
10.588000000000001,0.0038332886099762056
10.592,0.003832879920746476
10.596,0.0038301152583100706
10.6,0.003828889190620882
10.604000000000001,0.0038309326367695295
10.608,0.003833432853233757
10.612,0.0038326395153172235
10.616,0.0038326635558601488
10.620000000000001,0.003831269204370483
10.624,0.00382727847424489
10.628,0.003828504541934078
10.632,0.003831485569256811
10.636000000000001,0.0038326635558601488
10.64,0.0038293459609364624
10.644,0.003829249798764761
10.648,0.0038304758664539497
10.652000000000001,0.0038313894070851097
10.656,0.0038324952720596717
10.66,0.003833360731604981
10.664,0.0038301152583100706
10.668000000000001,0.003832976082918177
10.672,0.003831245163827558
10.676,0.0038290574744213593
10.68,0.0038277352445604696
10.684000000000001,0.0038293940420223126
10.688,0.0038314374881709603
10.692,0.003831870217943615
10.696,0.003829850812337893
10.700000000000001,0.0038312211232846326
10.704,0.003830235461024697
10.708,0.0038293940420223126
10.712,0.0038307162718832022
10.716000000000001,0.003831870217943615
10.72,0.0038292017176789106
10.724,0.0038275188796741424
10.728,0.0038309566773124548
10.732000000000001,0.003830764352969053
10.736,0.0038294902041940138
10.74,0.0038294902041940138
10.744,0.0038321827450016432
10.748000000000001,0.0038338175019205613
10.752,0.0038318461774006895
10.756,0.003831485569256811
10.76,0.003832591434231373
10.764,0.003831966380115316
10.768,0.0038297546501661916
10.772,0.003831413447628035
10.776,0.0038337694208347107
10.78,0.0038341300289785898
10.784,0.003832158704458718
10.788,0.003833240528890355
10.792,0.0038302835421105477
10.796,0.0038276390823887684
10.8,0.0038287209068204055
10.804,0.003830908596226604
10.808,0.003831245163827558
10.812,0.0038307403124261275
10.816,0.0038300912177671453
10.82,0.0038297306096232663
10.824,0.0038291295960501347
10.828,0.003828119893247274
10.832,0.003830235461024697
10.836,0.0038312932449134085
10.84,0.003829321920393537
10.844,0.0038308364745978287
10.848,0.003831966380115316
10.852,0.003830764352969053
10.856,0.003831822136857764
10.86,0.0038304758664539497
10.864,0.0038304758664539497
10.868,0.0038302835421105477
10.872,0.003828793028449181
10.876,0.003831269204370483
10.88,0.003834538718208319
10.884,0.0038316298125143622
10.888,0.0038305239475398003
10.892,0.0038302835421105477
10.896,0.0038297546501661916
10.9,0.003830211420481772
10.904,0.0038308364745978287
10.908,0.0038310768800270813
10.912,0.0038286487851916296
10.916,0.0038253552308108686
10.92,0.0038230713792329687
10.924,0.003821821271000855
10.928,0.003825956244384
10.932,0.0038261004876415515
10.936,0.0038285526230199284
10.94,0.0038303075826534726
10.944,0.003828408379762377
10.948,0.0038301152583100706
10.952,0.003828119893247274
10.956,0.0038302835421105477
10.96,0.003830572028625651
10.964,0.003830764352969053
10.968,0.0038291776771359853
10.972,0.0038281920148760494
10.976,0.003828336258133601
10.98,0.0038305960691685757
10.984,0.003832615474774298
10.988,0.0038320865828299425
10.992,0.0038304037448251738
10.996,0.0038295382852798644
11.0,0.0038328318396606254
11.004,0.0038332645694332803
11.008000000000001,0.0038323991098879705
11.012,0.0038303797042822485
11.016,0.003827855447275096
11.02,0.0038302835421105477
11.024000000000001,0.003833529015405458
11.028,0.003830331623196398
11.032,0.003829249798764761
11.036,0.003830427785368099
11.040000000000001,0.0038322789071733444
11.044,0.0038314615287138856
11.048,0.0038295623258227897
11.052,0.003828600704105779
11.056000000000001,0.003830235461024697
11.06,0.0038313653665421844
11.064,0.003831052839484156
11.068,0.003831052839484156
11.072000000000001,0.0038289372717067328
11.076,0.0038279275689038716
11.08,0.0038274707985882918
11.084,0.003829321920393537
11.088000000000001,0.0038275429202170677
11.092,0.0038285766635628537
11.096,0.003828047771618498
11.1,0.0038269659471868614
11.104000000000001,0.003828793028449181
11.108,0.0038306441502544263
11.112,0.003830499906996875
11.116,0.003830572028625651
11.120000000000001,0.003830499906996875
11.124,0.0038297306096232663
11.128,0.003832326988259195
11.132,0.003831798096314839
11.136000000000001,0.003831485569256811
11.14,0.0038300431366812947
11.144,0.0038285526230199284
11.148,0.0038282400959619
11.152000000000001,0.0038290815149642846
11.156,0.0038293940420223126
11.16,0.003829995055595444
11.164,0.003830572028625651
11.168000000000001,0.003829706569080341
11.172,0.003828889190620882
11.176,0.003827975649989722
11.18,0.0038301633393959212
11.184000000000001,0.0038310768800270813
11.188,0.003829297879850612
11.192,0.003829321920393537
11.196,0.0038292738393076865
11.200000000000001,0.003829995055595444
11.204,0.003830908596226604
11.208,0.0038313894070851097
11.212,0.0038309566773124548
11.216000000000001,0.0038293459609364624
11.22,0.003827062109358562
11.224,0.003826701501214683
11.228,0.0038260524065557014
11.232000000000001,0.003827206352616114
11.236,0.0038273505958736653
11.24,0.003828480501391153
11.244,0.0038310047583983054
11.248000000000001,0.0038328558802035507
11.252,0.0038343944749507676
11.256,0.003834610839837095
11.26,0.0038369427725008453
11.264,0.0038373995428164255
11.268,0.0038358369075262833
11.272,0.0038333126505191305
11.276,0.003831870217943615
11.28,0.003831245163827558
11.284,0.0038308845556836793
11.288,0.0038305239475398003
11.292,0.003829033433878434
11.296,0.003828865150077957
11.3,0.0038296104069086402
11.304,0.003830692231340277
11.308,0.003830331623196398
11.312,0.0038308364745978287
11.316,0.0038341781100644404
11.32,0.0038350916506956004
11.324,0.0038336492181200842
11.328,0.003832735677488924
11.332,0.0038296344474515655
11.336,0.0038312211232846326
11.34,0.0038298988934237434
11.344,0.003828504541934078
11.348,0.0038271582715302633
11.352,0.0038265572579571317
11.356,0.0038257158389547476
11.36,0.0038266774606717582
11.364,0.003826941906643936
11.368,0.003826941906643936
11.372,0.0038272303931590392
11.376,0.00382727847424489
11.38,0.003826701501214683
11.384,0.003828408379762377
11.388,0.0038289132311638075
11.392,0.0038279996905326475
11.396,0.003828312217590676
11.4,0.003829321920393537
11.404,0.003829850812337893
11.408,0.0038280718121614233
11.412,0.0038288411095350316
11.416,0.003829514244736939
11.42,0.003828119893247274
11.424,0.003829514244736939
11.428,0.0038304518259110244
11.432,0.003828744947363331
11.436,0.003828384339219452
11.44,0.003826485136328356
11.444,0.003823768554977801
11.448,0.0038258360416693737
11.452,0.0038295382852798644
11.456,0.0038320144612011666
11.46,0.0038293459609364624
11.464,0.0038290815149642846
11.468,0.0038293940420223126
11.472,0.003833360731604981
11.476,0.003833360731604981
11.48,0.0038300912177671453
11.484,0.0038299229339666687
11.488,0.003828119893247274
11.492,0.0038290815149642846
11.496,0.0038294902041940138
11.5,0.0038273505958736653
11.504,0.0038269899877297862
11.508000000000001,0.003828047771618498
11.512,0.003828480501391153
11.516,0.003828961312249658
11.52,0.003825956244384
11.524000000000001,0.003826148568727402
11.528,0.0038272303931590392
11.532,0.003825235028096242
11.536,0.0038251629064674666
11.540000000000001,0.0038246340145231105
11.544,0.0038258841227552243
11.548,0.00382504270375284
11.552,0.0038217010682862285
11.556000000000001,0.0038223261224022854
11.56,0.0038228790548895664
11.564,0.003821821271000855
11.568,0.0038213885412282
11.572000000000001,0.003822999257604193
11.576,0.0038226867305461644
11.58,0.003824393609093858
11.584,0.003823744514434876
11.588000000000001,0.0038245138118084845
11.592,0.0038260764470986267
11.596,0.00382778332564632
11.6,0.003825475433525495
11.604000000000001,0.0038260524065557014
11.608,0.0038263408930708045
11.612,0.003825475433525495
11.616,0.00382732655533074
11.620000000000001,0.003828889190620882
11.624,0.003827855447275096
11.628,0.003827206352616114
11.632,0.0038255475551542705
11.636000000000001,0.0038220376358871822
11.64,0.0038224222845739866
11.644,0.0038217731899150044
11.648,0.003822927135975417
11.652000000000001,0.0038228790548895664
11.656,0.003822927135975417
11.66,0.0038228309738037158
11.664,0.003823119460318819
11.668000000000001,0.003821725108829154
11.672,0.003821124095256022
11.676,0.0038205230816828906
11.68,0.003821677027743303
11.684000000000001,0.0038236002711773244
11.688,0.003825787960583523
11.692,0.0038283602986765265
11.696,0.0038294902041940138
11.700000000000001,0.00382686978501516
11.704,0.003824273406379232
11.708,0.0038252831091820927
11.712,0.003827975649989722
11.716000000000001,0.0038275429202170677
11.72,0.003826028366012776
11.724,0.003826701501214683
11.728,0.0038267976633863843
11.732000000000001,0.00382732655533074
11.736,0.0038300431366812947
11.74,0.0038282881770477506
11.744,0.0038264370552425053
11.748000000000001,0.0038272303931590392
11.752,0.0038286247446487043
11.756,0.0038279275689038716
11.76,0.0038280958527043486
11.764000000000001,0.003826316852527879
11.768,0.003826028366012776
11.772,0.0038273025147878147
11.776,0.00382504270375284
11.78,0.0038269659471868614
11.784,0.003827566960759993
11.788,0.003825739879497673
11.792,0.0038273505958736653
11.796,0.0038279275689038716
11.8,0.0038279035283609463
11.804,0.0038266774606717582
11.808,0.0038275188796741424
11.812,0.0038282641365048253
11.816,0.0038270861499014874
11.82,0.0038274467580453665
11.824,0.003829249798764761
11.828,0.003827566960759993
11.832,0.0038278794878180214
11.836,0.003829514244736939
11.84,0.003826124528184477
11.844,0.00382458593343726
11.848,0.003827422717502441
11.852,0.003828600704105779
11.856,0.003827855447275096
11.86,0.0038285526230199284
11.864,0.0038304037448251738
11.868,0.0038307162718832022
11.872,0.003830860515140754
11.876,0.0038311730421987824
11.88,0.0038324712315167464
11.884,0.003832735677488924
11.888,0.0038324952720596717
11.892,0.0038308364745978287
11.896,0.003829802731252042
11.9,0.0038310047583983054
11.904,0.003832038501744092
11.908,0.0038343223533219917
11.912,0.003832230826087494
11.916,0.0038318461774006895
11.92,0.0038338415424634866
11.924,0.0038314615287138856
11.928,0.0038283602986765265
11.932,0.0038305960691685757
11.936,0.0038323750693450456
11.94,0.003833168407261579
11.944,0.003836437921099415
11.948,0.003835981150783835
11.952,0.0038332645694332803
11.956,0.0038314615287138856
11.96,0.0038315576908855863
11.964,0.0038343704344078423
11.968,0.0038336011370342336
11.972,0.0038334088126908317
11.976,0.0038343944749507676
11.98,0.0038327597180318495
11.984,0.0038313653665421844
11.988,0.0038307162718832022
11.992,0.003830572028625651
11.996,0.0038335530559483835
12.0,0.0038357647858975074
12.004,0.003835332056124853
12.008000000000001,0.0038339377046351874
12.012,0.003832711636945999
12.016,0.003833985785721038
12.02,0.0038344665965795435
12.024000000000001,0.003836365799470639
12.028,0.003838817934849016
12.032,0.0038385775294197634
12.036,0.0038358609480692086
12.040000000000001,0.003833529015405458
12.044,0.0038330241640040274
12.048,0.003836101353498461
12.052,0.0038367504481574433
12.056000000000001,0.003836894691414995
12.06,0.0038363417589277137
12.064,0.00383463488038002
12.068,0.0038370389346725465
12.072000000000001,0.0038383852050763614
12.076,0.0038382169212758843
12.08,0.003838265002361735
12.084,0.0038374957049881267
12.088000000000001,0.003838457326705137
12.092,0.0038398757187377277
12.096,0.0038378563131320053
12.1,0.003840933502626439
12.104000000000001,0.0038406690566542613
12.108,0.0038405488539396348
12.112,0.003839899759280653
12.116,0.0038380967185612583
12.120000000000001,0.0038367744887003686
12.124,0.003837351461730575
12.128,0.0038382890429046602
12.132,0.003837087015758397
12.136000000000001,0.0038364860021852655
12.14,0.0038339377046351874
12.144,0.0038362696372989382
12.148,0.003837543786073977
12.152000000000001,0.00383595711024091
12.156,0.0038355724615541055
12.16,0.0038339617451781127
12.164,0.003835259934496077
12.168000000000001,0.0038356445831828814
12.172,0.00383372133974886
12.176,0.0038333847721479064
12.18,0.0038350435696097498
12.184000000000001,0.003833144366718654
12.188,0.003834779123637572
12.192,0.0038357888264404327
12.196,0.003836798529243294
12.200000000000001,0.003841654718914197
12.204,0.0038424240162878054
12.208,0.0038411739080556916
12.212,0.003841991286515151
12.216000000000001,0.003843097151489713
12.22,0.0038417749216288232
12.224,0.003837423583359351
12.228,0.0038349233668951233
12.232000000000001,0.0038336011370342336
12.236,0.0038330962856328032
12.24,0.003830860515140754
12.244,0.0038339617451781127
12.248000000000001,0.003833529015405458
12.252,0.003831677893600213
12.256,0.0038339377046351874
12.26,0.003836654285985742
12.264000000000001,0.0038350916506956004
12.268,0.003834346393864917
12.272,0.0038344665965795435
12.276,0.003835524380468255
12.280000000000001,0.0038345627587512443
12.284,0.0038341059884356645
12.288,0.0038350195290668245
12.292,0.003834418515493693
12.296,0.003835259934496077
12.3,0.0038373995428164255
12.304,0.0038388660159348665
12.308,0.0038398516781948024
12.312,0.0038378563131320053
12.316,0.0038371350968442477
12.32,0.0038384092456192863
12.324,0.0038363417589277137
12.328,0.0038345867992941696
12.332,0.0038339377046351874
12.336,0.003833336691062056
12.34,0.0038328077991177
12.344,0.003833360731604981
12.348,0.0038364138805564896
12.352,0.0038364860021852655
12.356,0.0038355724615541055
12.36,0.003836245596756013
12.364,0.003837207218473023
12.368,0.0038376639887886034
12.372,0.003835067610152675
12.376,0.0038350916506956004
12.38,0.003837567826616902
12.384,0.003836077312955536
12.388,0.0038385294483339128
12.392,0.0038385054077909875
12.396,0.0038371350968442477
12.4,0.003837014894129621
12.404,0.0038364860021852655
12.408,0.0038381447996471084
12.412,0.003840188245795756
12.416,0.0038406930971971866
12.42,0.003839899759280653
12.424,0.003839923799823578
12.428,0.003839010259192418
12.432,0.0038426163406312074
12.436,0.003842327854116104
12.44,0.0038417028000000473
12.444,0.003840380570139158
12.448,0.003841414313484944
12.452,0.0038406930971971866
12.456,0.003842183610858553
12.46,0.003841847043257599
12.464,0.003840380570139158
12.468,0.003840164205252831
12.472,0.0038404286512250087
12.476,0.0038373755022735
12.48,0.0038385294483339128
12.484,0.003839178542992895
12.488,0.0038392987457075214
12.492,0.003837543786073977
12.496,0.0038376880293315286
12.5,0.0038361253940413865
12.504,0.0038378803536749306
12.508000000000001,0.003840380570139158
12.512,0.0038378803536749306
12.516,0.003836077312955536
12.52,0.0038370629752154718
12.524000000000001,0.0038397074349372506
12.528,0.0038444674624364527
12.532,0.003844659786779855
12.536,0.0038456454490397906
12.540000000000001,0.0038448280705803317
12.544,0.003845212719267136
12.548,0.00384696767890068
12.552,0.0038432654352901895
12.556000000000001,0.0038403324890533075
12.56,0.0038384092456192863
12.564,0.003839106421364119
12.568,0.003839827637651877
12.572000000000001,0.0038386496510485393
12.576,0.0038382169212758843
12.58,0.0038385294483339128
12.584,0.0038392987457075214
12.588000000000001,0.0038393468267933716
12.592,0.0038395631916796993
12.596,0.0038406690566542613
12.6,0.003839467029507998
12.604000000000001,0.0038403084485103822
12.608,0.0038383852050763614
12.612,0.0038362696372989382
12.616,0.003837976515846632
12.620000000000001,0.003838457326705137
12.624,0.0038383130834475855
12.628,0.003839539151136774
12.632,0.0038416066378283466
12.636000000000001,0.0038417028000000473
12.64,0.0038411739080556916
12.644,0.0038415104756566454
12.648,0.003839947840366503
12.652000000000001,0.0038401401647099056
12.656,0.003839106421364119
12.66,0.003840356529596233
12.664,0.003841750881085898
12.668000000000001,0.00383869773213439
12.672,0.0038382890429046602
12.676,0.0038385775294197634
12.68,0.003842544219002432
12.684000000000001,0.003844779989494481
12.688,0.0038430009893180117
12.692,0.0038418710838005244
12.696,0.0038428567460604603
12.700000000000001,0.003841991286515151
12.704,0.003839178542992895
12.708,0.003837976515846632
12.712,0.0038380245969324824
12.716000000000001,0.003838817934849016
12.72,0.003839442988965073
12.724,0.003838457326705137
12.728,0.00384057289448256
12.732000000000001,0.003839731475480176
12.736,0.0038390583402782685
12.74,0.003834779123637572
12.744,0.003834250231693216
12.748000000000001,0.003838265002361735
12.752,0.0038420153270580758
12.756,0.003841125826969841
12.76,0.0038398757187377277
12.764000000000001,0.0038413902729420193
12.768,0.0038393468267933716
12.772,0.0038397074349372506
12.776,0.0038392025835358203
12.780000000000001,0.0038396593538514
12.784,0.0038417749216288232
12.788,0.003843193313661414
12.792,0.0038415345161995707
12.796000000000001,0.0038426403811741327
12.8,0.0038406690566542613
12.804,0.003838625610505614
12.808,0.003838120759104183
12.812,0.0038394910700509234
12.816,0.003840909462083514
12.82,0.0038415104756566454
12.824,0.0038396112727655494
12.828,0.0038394910700509234
12.832,0.00384148643511372
12.836,0.003841630678371272
12.84,0.00384057289448256
12.844,0.0038405488539396348
12.848,0.003840741178283037
12.852,0.003840212286338681
12.856,0.0038415104756566454
12.86,0.0038431452325755635
12.864,0.0038424240162878054
12.868,0.003839178542992895
12.872,0.003843097151489713
12.876,0.0038432413947472642
12.88,0.003840356529596233
12.884,0.003839034299735343
12.888,0.003840019961995279
12.892,0.0038435539218052927
12.896,0.0038412219891415422
12.9,0.0038406690566542613
12.904,0.003844371300264752
12.908,0.0038433615974618907
12.912,0.0038418710838005244
12.916,0.003842375935201955
12.92,0.0038435539218052927
12.924,0.003842472097373656
12.928,0.003843193313661414
12.932,0.0038415104756566454
12.936,0.0038392266240787455
12.94,0.0038368225697862192
12.944,0.003840212286338681
12.948,0.0038410296647981403
12.952,0.0038411498675127663
12.956,0.0038415825972854213
12.96,0.003841823002714674
12.964,0.003838337123990511
12.968,0.003834081947892739
12.972,0.0038363417589277137
12.976,0.0038391304619070444
12.98,0.003838553488876838
12.984,0.003840284407967457
12.988,0.003841630678371272
12.992,0.0038393468267933716
12.996,0.0038409815837122897
13.0,0.0038408132999118126
13.004,0.0038404767323108593
13.008000000000001,0.003839467029507998
13.012,0.0038407652188259624
13.016,0.0038427846244316844
13.02,0.003842183610858553
13.024000000000001,0.0038425201784595066
13.028,0.0038452367598100614
13.032,0.0038451886787242108
13.036,0.0038466311112997265
13.040000000000001,0.0038448280705803317
13.044,0.003841654718914197
13.048,0.003842952908232161
13.052,0.003844587665151079
13.056000000000001,0.0038441549353784243
13.06,0.003843866448863321
13.064,0.0038441068542925737
13.068,0.0038423518946590295
13.072000000000001,0.0038424240162878054
13.076,0.0038444674624364527
13.08,0.003845693530125641
13.084,0.003846126259898296
13.088000000000001,0.003845116557095435
13.092,0.0038449482732949582
13.096,0.003845044435466659
13.1,0.0038417749216288232
13.104000000000001,0.0038395151105938487
13.108,0.0038419672459722256
13.112,0.0038438904894062464
13.116,0.003844299178635976
13.120000000000001,0.0038441549353784243
13.124,0.0038429048271463105
13.128,0.0038429048271463105
13.132,0.003845116557095435
13.136000000000001,0.003846871516728979
13.14,0.003846318584241698
13.144,0.003845405043610538
13.148,0.0038470878816153067
13.152000000000001,0.003848410111476196
13.156,0.0038472802059587087
13.16,0.0038481216249610928
13.164,0.003849612138622459
13.168000000000001,0.0038522806388871633
13.172,0.0038530018551749213
13.176,0.0038508382063116475
13.18,0.0038492755710215053
13.184000000000001,0.003846943638357755
13.188,0.0038458137328402676
13.192,0.0038470878816153067
13.196,0.0038471119221582316
13.200000000000001,0.003847592733016737
13.204,0.0038480254627893916
13.208,0.0038498525440517116
13.212,0.003849684260251235
13.216000000000001,0.003848506273647897
13.22,0.003850044868395114
13.224,0.0038514873009706297
13.228,0.003849035165592253
13.232000000000001,0.0038498044629658615
13.236,0.0038489149628776263
13.24,0.003847232124872858
13.244,0.00384742444921626
13.248000000000001,0.0038480254627893916
13.252,0.0038478331384459896
13.256,0.0038498044629658615
13.26,0.0038509103279404234
13.264000000000001,0.003852160436172537
13.268,0.003850669922511171
13.272,0.0038522325578013127
13.276,0.003850237192738516
13.280000000000001,0.0038480014222464667
13.284,0.0038474725303021106
13.288,0.0038458618139261182
13.292,0.0038459098950119684
13.296000000000001,0.0038465349491280253
13.3,0.003849059206135178
13.304,0.0038493476926502812
13.308,0.0038497083007941603
13.312000000000001,0.003851150733369676
13.316,0.0038516796253140317
13.32,0.0038521844767154625
13.324,0.0038508141657687222
13.328,0.0038489149628776263
13.332,0.003847857178988915
13.336,0.0038501410305668148
13.34,0.0038511266928267507
13.344,0.003849948706223413
13.348,0.003850405476538993
13.352,0.0038507660846828717
13.356,0.0038499967873092634
13.36,0.0038479052600747655
13.364,0.003849131327763954
13.368,0.0038509343684833487
13.372,0.003853434584947576
13.376,0.003853434584947576
13.38,0.0038525931659451917
13.384,0.0038542760039499604
13.388,0.0038545644904650635
13.392,0.003853049936260772
13.396,0.003850718003597021
13.4,0.003849684260251235
13.404,0.0038492274899356548
13.408,0.0038482658682186446
13.412,0.0038510064901121246
13.416,0.0038505737603394697
13.42,0.0038504775981677685
13.424,0.0038493476926502812
13.428,0.0038511988144555266
13.432,0.0038501891116526654
13.436,0.0038499246656804875
13.44,0.0038498044629658615
13.444,0.0038496602197083097
13.448,0.003850429517081918
13.452,0.003853795193091455
13.456,0.003853602868748053
13.46,0.003850886287397498
13.464,0.0038518959902003594
13.468,0.00385422792286411
13.472,0.003854636612093839
13.476,0.0038514873009706297
13.48,0.0038497323413370856
13.484,0.003852136395629612
13.488,0.003850718003597021
13.492,0.0038508382063116475
13.496,0.0038502852738243666
13.5,0.0038505497197965444
13.504,0.003849323652107356
13.508000000000001,0.0038465589896709506
13.512,0.0038434337190906666
13.516,0.0038474725303021106
13.52,0.003851246895541377
13.524000000000001,0.0038498285035087863
13.528,0.003850453557624843
13.532,0.003848626476362523
13.536,0.003848073543875242
13.540000000000001,0.003850525679253619
13.544,0.003851222854998452
13.548,0.0038486745574483738
13.552,0.003848049503332317
13.556000000000001,0.0038500929494809646
13.56,0.0038507660846828717
13.564,0.0038504775981677685
13.568,0.0038520402334579107
13.572000000000001,0.003852424882144715
13.576,0.003853530747119277
13.58,0.0038560069230405792
13.584,0.0038561271257552053
13.588000000000001,0.003857521477244871
13.592,0.0038578580448458246
13.596,0.0038560069230405792
13.6,0.003854636612093839
13.604000000000001,0.003852713368659818
13.608,0.003852689328116893
13.612,0.0038543240850358105
13.616,0.0038501891116526654
13.620000000000001,0.003844924232752033
13.624,0.003844852111123257
13.628,0.003845669489582716
13.632,0.003845501205782239
13.636000000000001,0.0038455973679539404
13.64,0.003846751314014353
13.644,0.0038483620303903453
13.648,0.0038476167735596624
13.652000000000001,0.003847039800529456
13.656,0.0038495640575366085
13.66,0.0038493476926502812
13.664,0.003849876584594637
13.668000000000001,0.003850309314367292
13.672,0.00384833798984742
13.676,0.003848842841248851
13.68,0.0038505737603394697
13.684000000000001,0.0038530258957178466
13.688,0.003851246895541377
13.692,0.003848963043963477
13.696,0.003850886287397498
13.700000000000001,0.0038505737603394697
13.704,0.003849684260251235
13.708,0.0038521123550866866
13.712,0.0038530739768036972
13.716000000000001,0.003850501638710694
13.72,0.0038503814359960678
13.724,0.0038531220578895474
13.728,0.0038526412470310423
13.732000000000001,0.003848217787132794
13.736,0.0038449723138378835
13.74,0.0038442270570072
13.744,0.0038447078678657052
13.748000000000001,0.0038455973679539404
13.752,0.0038474725303021106
13.756,0.0038486024358195983
13.76,0.003849588098079534
13.764000000000001,0.003849684260251235
13.768,0.003850237192738516
13.772,0.0038478812195318402
13.776,0.0038448280705803317
13.780000000000001,0.0038464387869563245
13.784,0.0038487226385342244
13.788,0.0038507420441399464
13.792,0.0038525691254022664
13.796000000000001,0.0038509103279404234
13.8,0.003849756381880011
13.804,0.003849684260251235
13.808,0.0038489390034205516
13.812000000000001,0.0038491072872210287
13.816,0.0038503573954531425
13.82,0.003850309314367292
13.824,0.003848987084506402
13.828,0.003850597800882395
13.832,0.0038486745574483738
13.836,0.003846102219355371
13.84,0.0038462705031558474
13.844,0.003847304246501634
13.848,0.00384742444921626
13.852,0.003845573327411015
13.856,0.0038449001922091076
13.86,0.0038479052600747655
13.864,0.0038483139493044947
13.868,0.003848145665504018
13.872,0.0038483860709332706
13.876,0.003848698597991299
13.88,0.003848698597991299
13.884,0.00384605413826952
13.888,0.003844130894835499
13.892,0.0038465349491280253
13.896,0.0038486024358195983
13.9,0.003849395773736132
13.904,0.003845765651754417
13.908,0.0038453569625246874
13.912,0.003846222422069997
13.916,0.00384696767890068
13.92,0.0038457175706685665
13.924,0.00384554928686809
13.928,0.003847135962701157
13.932,0.0038467272734714277
13.936,0.0038481937465898687
13.94,0.003849612138622459
13.944,0.003847953341160616
13.948,0.0038440587732067235
13.952,0.0038468955572719043
13.956,0.0038485543547337477
13.96,0.00384554928686809
13.964,0.0038457416112114918
13.968,0.0038458618139261182
13.972,0.0038455973679539404
13.976,0.0038468955572719043
13.98,0.003847039800529456
13.984,0.0038502612332814413
13.988,0.0038524008416017897
13.992,0.0038526412470310423
13.996,0.0038476408141025877
14.0,0.0038449723138378835
14.004,0.003846943638357755
14.008000000000001,0.0038480014222464667
14.012,0.003846318584241698
14.016,0.0038478812195318402
14.02,0.0038492755710215053
14.024000000000001,0.003846198381527072
14.028,0.0038456454490397906
14.032,0.003846126259898296
14.036,0.003848987084506402
14.040000000000001,0.0038470878816153067
14.044,0.0038471840437870075
14.048,0.0038486745574483738
14.052,0.003848866881791776
14.056000000000001,0.0038474725303021106
14.06,0.0038490111250493275
14.064,0.003847929300617691
14.068,0.0038500689089380393
14.072000000000001,0.0038497083007941603
14.076,0.0038480254627893916
14.08,0.003846943638357755
14.084,0.003847232124872858
14.088000000000001,0.003848963043963477
14.092,0.0038480014222464667
14.096,0.003849323652107356
14.1,0.003850453557624843
14.104000000000001,0.003850693963054096
14.108,0.0038529297335461454
14.112,0.00385473277426554
14.116,0.0038547568148084655
14.120000000000001,0.0038543962066645864
14.124,0.0038522325578013127
14.128,0.0038510305306550495
14.132,0.0038506218414253203
14.136000000000001,0.003849684260251235
14.14,0.0038489149628776263
14.144,0.0038508382063116475
14.148,0.003850405476538993
14.152000000000001,0.0038498285035087863
14.156,0.0038493476926502812
14.16,0.0038469195978148296
14.164,0.0038470878816153067
14.168000000000001,0.0038479052600747655
14.172,0.0038465349491280253
14.176,0.0038471840437870075
14.18,0.0038480014222464667
14.184000000000001,0.003848049503332317
14.188,0.0038493476926502812
14.192,0.003848987084506402
14.196,0.003849876584594637
14.200000000000001,0.003848506273647897
14.204,0.0038479052600747655
14.208,0.003848073543875242
14.212,0.0038496602197083097
14.216000000000001,0.0038490832466781034
14.22,0.003849588098079534
14.224,0.003850333354910217
14.228,0.0038492996115644306
14.232000000000001,0.003849756381880011
14.236,0.003850669922511171
14.24,0.0038497083007941603
14.244,0.0038486745574483738
14.248000000000001,0.0038510064901121246
14.252,0.0038499246656804875
14.256,0.0038486745574483738
14.26,0.0038502852738243666
14.264000000000001,0.003852617206488117
14.268,0.003852881652460295
14.272,0.003853434584947576
14.276,0.0038546846931796896
14.280000000000001,0.0038555741932679243
14.284,0.0038537471120056043
14.288,0.003851799828028658
14.292,0.0038512949766272278
14.296000000000001,0.003852977814631996
14.3,0.003854636612093839
14.304,0.003852545084859341
14.308,0.003853795193091455
14.312000000000001,0.003856535814984935
14.316,0.0038558867203259527
14.32,0.003856271369012757
14.324,0.003856752179871262
14.328000000000001,0.0038578580448458246
14.332,0.0038564396528132337
14.336,0.0038558145986971773
14.34,0.003856199247383981
14.344,0.0038558145986971773
14.348,0.003856824301500038
14.352,0.003856631977156636
14.356,0.0038557424770684014
14.36,0.0038526652875739676
14.364,0.003854708733722615
14.368,0.003854997220237718
14.372,0.0038555261121820737
14.376,0.003855790558154252
14.38,0.003853049936260772
14.384,0.0038540115579777825
14.388,0.0038543962066645864
14.392,0.0038526652875739676
14.396,0.0038535067065763517
14.4,0.003853434584947576
14.404,0.003852328719973014
14.408,0.0038517277063998823
14.412,0.0038531460984324727
14.416,0.0038518238685715835
14.42,0.0038531941795183233
14.424,0.003853049936260772
14.428,0.0038539153958060813
14.432,0.003856992585300515
14.436,0.0038561271257552053
14.44,0.003858098450275077
14.444,0.0038574974367019455
14.448,0.003856728139328337
14.452,0.0038572810718156183
14.456,0.0038568483420429634
14.46,0.0038571368285580665
14.464,0.003854925098608942
14.468,0.0038543240850358105
14.472,0.00385696854475759
14.476,0.0038600697747949485
14.48,0.0038582426935326285
14.484,0.003856728139328337
14.488,0.003854444287750437
14.492,0.0038543240850358105
14.496,0.0038546846931796896
14.5,0.003851222854998452
14.504,0.003852977814631996
14.508000000000001,0.0038549010580660173
14.512,0.003853434584947576
14.516,0.003850237192738516
14.52,0.0038528095308315194
14.524000000000001,0.0038574012745302443
14.528,0.0038566560176995614
14.532,0.0038530258957178466
14.536,0.003850790125225797
14.540000000000001,0.0038510064901121246
14.544,0.0038540355985207074
14.548,0.0038555261121820737
14.552,0.0038580503691892265
14.556000000000001,0.0038568483420429634
14.56,0.0038553818689245224
14.564,0.0038560069230405792
14.568,0.0038588917881916106
14.572000000000001,0.003857906125931675
14.576,0.003858098450275077
14.58,0.003857809963759974
14.584,0.0038593245179642656
14.588000000000001,0.0038577618826741234
14.592,0.003857449355616095
14.596,0.0038568002609571128
14.6,0.003858098450275077
14.604000000000001,0.00385788208538875
14.608,0.0038594447206788916
14.612,0.0038577859232170487
14.616,0.003854372166121661
14.620000000000001,0.003851968111829135
14.624,0.0038556703554396255
14.628,0.0038548529769801667
14.632,0.0038559588419547286
14.636000000000001,0.0038566560176995614
14.64,0.003855357828381597
14.644,0.0038552135851240457
14.648,0.0038549491391518674
14.652000000000001,0.0038541317606924086
14.656,0.003856728139328337
14.66,0.0038567762204141875
14.664,0.0038565117744420096
14.668000000000001,0.0038562473284698318
14.672,0.003856607936613711
14.676,0.003855550152724999
14.68,0.0038557665176113267
14.684000000000001,0.0038569445042146645
14.688,0.003858098450275077
14.692,0.0038555261121820737
14.696,0.003856896423128814
14.700000000000001,0.003858002288103376
14.704,0.003856079044669355
14.708,0.003856704098785412
14.712,0.003857665720502422
14.716000000000001,0.0038567762204141875
14.72,0.003855165504038195
14.724,0.0038548289364372414
14.728,0.0038571368285580665
14.732000000000001,0.003857088747472216
14.736,0.003856728139328337
14.74,0.0038558145986971773
14.744,0.0038554059094674476
14.748000000000001,0.0038573531934443937
14.752,0.0038537471120056043
14.756,0.0038538432741773055
14.76,0.003853602868748053
14.764000000000001,0.003853963476891932
14.768,0.00385290569300322
14.772,0.003853795193091455
14.776,0.003852328719973014
14.780000000000001,0.0038526412470310423
14.784,0.003850718003597021
14.788,0.003848842841248851
14.792,0.0038514873009706297
14.796000000000001,0.003855429950010373
14.8,0.0038522325578013127
14.804,0.003850718003597021
14.808,0.0038514873009706297
14.812000000000001,0.003852977814631996
14.816,0.00385422792286411
14.82,0.003852136395629612
14.824,0.003851799828028658
14.828000000000001,0.0038501169900238895
14.832,0.003851511341513555
14.836,0.003851439219884779
14.84,0.0038510305306550495
14.844000000000001,0.0038504775981677685
14.848,0.0038527614497456688
14.852,0.00385290569300322
14.856,0.0038546846931796896
14.86,0.0038564877338990843
14.864,0.0038569445042146645
14.868,0.0038568002609571128
14.872,0.003856631977156636
14.876,0.0038571368285580665
14.88,0.0038538432741773055
14.884,0.0038530018551749213
14.888,0.003850862246854573
14.892,0.0038520402334579107
14.896,0.0038530739768036972
14.9,0.0038522806388871633
14.904,0.0038540355985207074
14.908,0.0038544923688362876
14.912,0.0038562232879269065
14.916,0.0038549731796947927
14.92,0.0038544923688362876
14.924,0.0038555741932679243
14.928,0.00385422792286411
14.932,0.003853723071462679
14.936,0.003854925098608942
14.94,0.0038553337878386718
14.944,0.003854997220237718
14.948,0.0038563675311844583
14.952,0.003855285706752821
14.956,0.0038555741932679243
14.96,0.003854516409379213
14.964,0.0038531460984324727
14.968,0.003852785490288594
14.972,0.0038530018551749213
14.976,0.003854925098608942
14.98,0.0038530739768036972
14.984,0.0038525691254022664
14.988,0.003853674990376829
14.992,0.0038540596390636327
14.996,0.0038574974367019455
15.0,0.0038607909910827066
15.004,0.003861728572256792
15.008000000000001,0.0038608871532544078
15.012,0.0038621853425723717
15.016,0.003860286139681276
15.02,0.0038586754233052834
15.024000000000001,0.0038592283557925644
15.028,0.0038607669505397813
15.032,0.0038626901939738025
15.036,0.003863772018405439
15.040000000000001,0.003864853842837076
15.044,0.0038658635456399375
15.048,0.0038659356672687134
15.052,0.003864589396864898
15.056000000000001,0.0038624257480016247
15.06,0.0038578580448458246
15.064,0.0038593245179642656
15.068,0.0038605025045676034
15.072000000000001,0.003860286139681276
15.076,0.0038598534099086213
15.08,0.003860935234340258
15.084,0.0038590360314491624
15.088000000000001,0.003860478464024678
15.092,0.0038593245179642656
15.096,0.0038580503691892265
15.1,0.003858362896247255
15.104000000000001,0.003860262099138351
15.108,0.0038597812882798454
15.112,0.0038573291529014684
15.116,0.0038577138015882728
15.120000000000001,0.003860045734252023
15.124,0.0038563675311844583
15.128,0.003854636612093839
15.132,0.0038549731796947927
15.136000000000001,0.0038543240850358105
15.14,0.0038518479091145088
15.144,0.0038530739768036972
15.148,0.003857257031272693
15.152000000000001,0.003858098450275077
15.156,0.0038561511662981306
15.16,0.0038565117744420096
15.164,0.0038546846931796896
15.168000000000001,0.0038556463148967
15.172,0.0038547808553513908
15.176,0.0038531220578895474
15.18,0.003854997220237718
15.184000000000001,0.0038543240850358105
15.188,0.0038530018551749213
15.192,0.00385514146349527
15.196,0.003855718436525476
15.200000000000001,0.0038549491391518674
15.204,0.003854997220237718
15.208,0.003853170138975398
15.212,0.003853266301147099
15.216000000000001,0.00385473277426554
15.22,0.0038553337878386718
15.224,0.003854251963407035
15.228,0.0038513670982560032
15.232000000000001,0.0038478812195318402
15.236,0.0038486024358195983
15.24,0.003849876584594637
15.244,0.003849419814279057
15.248000000000001,0.00385199215237206
15.252,0.003851703665856957
15.256,0.0038505497197965444
15.26,0.003850718003597021
15.264000000000001,0.003848842841248851
15.268,0.0038467272734714277
15.272,0.00385016507110974
15.276,0.003850790125225797
15.280000000000001,0.0038485543547337477
15.284,0.0038461743409841467
15.288,0.0038497083007941603
15.292,0.0038502131521955907
15.296000000000001,0.00384925153047858
15.3,0.003850405476538993
15.304,0.0038520402334579107
15.308,0.0038525691254022664
15.312000000000001,0.0038534826660334264
15.316,0.003854516409379213
15.32,0.003855910760868878
15.324,0.003854636612093839
15.328000000000001,0.003854516409379213
15.332,0.0038579542070175253
15.336,0.003856175206841056
15.34,0.0038533143822329498
15.344000000000001,0.003852256598344238
15.348,0.0038522325578013127
15.352,0.003851607503685256
15.356,0.0038499006251375622
15.36,0.0038511988144555266
15.364,0.0038524489226876403
15.368,0.003852208517258388
15.372,0.0038512709360843025
15.376,0.003851439219884779
15.38,0.0038520883145437613
15.384,0.0038524729632305656
15.388,0.0038520402334579107
15.392,0.0038527614497456688
15.396,0.0038533624633188004
15.4,0.0038524008416017897
15.404,0.003852689328116893
15.408,0.0038539875174348572
15.412,0.0038517277063998823
15.416,0.003850693963054096
15.42,0.0038524008416017897
15.424,0.003851439219884779
15.428,0.0038510786117409
15.432,0.0038532903416900245
15.436,0.003851968111829135
15.44,0.0038533624633188004
15.444,0.003854636612093839
15.448,0.0038533624633188004
15.452,0.00385422792286411
15.456,0.003855910760868878
15.46,0.0038543000444928857
15.464,0.003855429950010373
15.468,0.003858098450275077
15.472,0.0038563675311844583
15.476,0.003853530747119277
15.48,0.0038537711525485296
15.484,0.0038521123550866866
15.488,0.0038525691254022664
15.492,0.0038574974367019455
15.496,0.0038568723825858887
15.5,0.003854179841778259
15.504,0.0038549731796947927
15.508000000000001,0.0038564396528132337
15.512,0.0038578580448458246
15.516,0.00385655985552786
15.52,0.0038571368285580665
15.524000000000001,0.003856631977156636
15.528,0.003856824301500038
15.532,0.0038552376256669706
15.536,0.003856175206841056
15.540000000000001,0.0038569445042146645
15.544,0.003855910760868878
15.548,0.0038548529769801667
15.552,0.0038549731796947927
15.556000000000001,0.003856415612270309
15.56,0.003857449355616095
15.564,0.003856728139328337
15.568,0.0038552135851240457
15.572000000000001,0.0038552376256669706
15.576,0.003855694395982551
15.58,0.0038533865038617257
15.584,0.0038541077201494833
15.588000000000001,0.0038528576119173695
15.592,0.003852785490288594
15.596,0.0038511747739126013
15.6,0.0038516796253140317
15.604000000000001,0.003851799828028658
15.608,0.00384920344939273
15.612,0.003848482233104972
15.616,0.0038510305306550495
15.620000000000001,0.003852521044316416
15.624,0.0038507420441399464
15.628,0.0038483620303903453
15.632,0.003849876584594637
15.636000000000001,0.0038509343684833487
15.64,0.003850044868395114
15.644,0.003849756381880011
15.648,0.0038494678953649077
15.652000000000001,0.0038512709360843025
15.656,0.0038490832466781034
15.66,0.0038454531246963886
15.664,0.0038451646381812855
15.668000000000001,0.0038483860709332706
15.672,0.0038520402334579107
15.676,0.0038510305306550495
15.68,0.003850886287397498
15.684000000000001,0.003853795193091455
15.688,0.0038535547876622023
15.692,0.003852424882144715
15.696,0.003851343057713078
15.700000000000001,0.0038521844767154625
15.704,0.0038550212607806433
15.708,0.003854925098608942
15.712,0.003852352760515939
15.716000000000001,0.0038491794088498046
15.72,0.003851775787485733
15.724,0.003852617206488117
15.728,0.003850333354910217
15.732000000000001,0.003850405476538993
15.736,0.0038513911387989285
15.74,0.0038529537740890707
15.744,0.00384925153047858
15.748000000000001,0.0038472561654157834
15.752,0.0038491794088498046
15.756,0.0038479773817035414
15.76,0.0038457896922973423
15.764000000000001,0.0038465349491280253
15.768,0.003847953341160616
15.772,0.003847953341160616
15.776,0.003847520611387961
15.780000000000001,0.003846943638357755
15.784,0.003846102219355371
15.788,0.0038494438548219824
15.792,0.003851511341513555
15.796000000000001,0.0038509343684833487
15.8,0.0038503573954531425
15.804,0.0038515594225994056
15.808,0.003848866881791776
15.812000000000001,0.0038501169900238895
15.816,0.0038528095308315194
15.82,0.0038542760039499604
15.824,0.003854444287750437
15.828000000000001,0.0038523768010588644
15.832,0.0038510064901121246
15.836,0.003849780422422936
15.84,0.0038487466790771497
15.844000000000001,0.003849948706223413
15.848,0.0038500689089380393
15.852,0.0038488188007059256
15.856,0.0038497083007941603
15.860000000000001,0.003848770719620075
15.864,0.003848578395276673
15.868,0.0038473523275874845
15.872,0.0038486024358195983
15.876,0.003846583030213876
15.88,0.0038483139493044947
15.884,0.0038483620303903453
15.888,0.0038465589896709506
15.892,0.0038464387869563245
15.896,0.003846318584241698
15.9,0.003845116557095435
15.904,0.003842832705517535
15.908,0.003844659786779855
15.912,0.003848626476362523
15.916,0.00384925153047858
15.92,0.0038488188007059256
15.924,0.0038467272734714277
15.928,0.003847160003244082
15.932,0.0038479052600747655
15.936,0.003848049503332317
15.94,0.0038480254627893916
15.944,0.003850693963054096
15.948,0.003853170138975398
15.952,0.003853266301147099
15.956,0.003852208517258388
15.96,0.0038514632604277044
15.964,0.0038492755710215053
15.968,0.0038464387869563245
15.972,0.0038449482732949582
15.976,0.0038462705031558474
15.98,0.0038480014222464667
15.984,0.0038483860709332706
15.988,0.003844659786779855
15.992,0.0038417749216288232
15.996,0.0038431452325755635
16.0,0.0038451646381812855
16.004,0.003846943638357755
16.008,0.0038471840437870075
16.012,0.0038476167735596624
16.016000000000002,0.003844659786779855
16.02,0.003844659786779855
16.024,0.0038448280705803317
16.028,0.003845212719267136
16.032,0.003842111489229777
16.036,0.00384148643511372
16.04,0.003841991286515151
16.044,0.0038410296647981403
16.048000000000002,0.003841823002714674
16.052,0.0038423518946590295
16.056,0.0038408132999118126
16.06,0.003842303813573179
16.064,0.003843577962348218
16.068,0.003845212719267136
16.072,0.0038432654352901895
16.076,0.0038405488539396348
16.080000000000002,0.003842207651401478
16.084,0.0038420634081439264
16.088,0.0038409815837122897
16.092,0.003840741178283037
16.096,0.0038407652188259624
16.1,0.003840452691767934
16.104,0.0038391304619070444
16.108,0.003837712069874454
16.112000000000002,0.0038376639887886034
16.116,0.0038371831779300983
16.12,0.0038380967185612583
16.124,0.0038373755022735
16.128,0.0038371110563013224
16.132,0.003839467029507998
16.136,0.0038401401647099056
16.14,0.003839827637651877
16.144000000000002,0.0038404767323108593
16.148,0.0038415345161995707
16.152,0.0038410537053410656
16.156,0.003840284407967457
16.16,0.003844130894835499
16.164,0.003847664854645513
16.168,0.003845957976097819
16.172,0.003842664421717058
16.176000000000002,0.0038429048271463105
16.18,0.0038427125028029085
16.184,0.003842832705517535
16.188,0.0038419672459722256
16.192,0.003843577962348218
16.196,0.0038443472597218266
16.2,0.0038444674624364527
16.204,0.003843746246148695
16.208000000000002,0.0038443472597218266
16.212,0.003844779989494481
16.216,0.003843505840719442
16.22,0.003839923799823578
16.224,0.0038394910700509234
16.228,0.003840741178283037
16.232,0.0038395872322226246
16.236,0.003840452691767934
16.240000000000002,0.0038408132999118126
16.244,0.0038399718809094285
16.248,0.0038372552995588737
16.252,0.0038376880293315286
16.256,0.0038372552995588737
16.26,0.003836101353498461
16.264,0.0038355003399253296
16.268,0.0038349233668951233
16.272000000000002,0.0038332886099762056
16.276,0.003835163772324376
16.28,0.003836630245442817
16.284,0.0038349233668951233
16.288,0.003836654285985742
