0.0,-0.020626232897388883
0.004,-0.020626593505532764
0.008,-0.020626569464989836
0.012,-0.020627290681277596
0.016,-0.020629021600368214
0.02,-0.020627651289421473
0.024,-0.020625920370330855
0.028,-0.020624838545899218
0.032,-0.020623997126896835
0.036000000000000004,-0.020622987424093974
0.04,-0.02062192964020526
0.044,-0.020622314288892066
0.048,-0.020623804802553432
0.052000000000000005,-0.02062452601884119
0.056,-0.020623636518752955
0.06,-0.020622218126720365
0.064,-0.020622386410520843
0.068,-0.020621520950975532
0.07200000000000001,-0.020620367004915117
0.076,-0.020622554694321317
0.08,-0.020623444194409552
0.084,-0.020621665194233082
0.088,-0.020619814072427838
0.092,-0.020620222761657567
0.096,-0.020621665194233082
0.1,-0.020623540356581253
0.10400000000000001,-0.02062527127567187
0.108,-0.020625559762186975
0.112,-0.020623564397124178
0.116,-0.020620342964372193
0.12,-0.020618612045281575
0.124,-0.020619381342655185
0.128,-0.02061762638302164
0.132,-0.020616929207276806
0.136,-0.020618419720938173
0.14,-0.020620583369801448
0.14400000000000002,-0.02062284318083642
0.148,-0.02062442985666949
0.152,-0.020625463600015274
0.156,-0.02062680987041909
0.16,-0.02062736280290637
0.164,-0.020626569464989836
0.168,-0.0206256799649016
0.17200000000000001,-0.02062594441087378
0.176,-0.020627434924535146
0.18,-0.020629334127426242
0.184,-0.020632002627690948
0.188,-0.020634887492841977
0.192,-0.020636426087589196
0.196,-0.020636642452475523
0.2,-0.02063772427690716
0.20400000000000001,-0.020639936006856284
0.20800000000000002,-0.020641089952916695
0.212,-0.02064183520974738
0.216,-0.02064197945300493
0.22,-0.02064056106097234
0.224,-0.02064015237174261
0.228,-0.020639623479798256
0.232,-0.020638830141881722
0.23600000000000002,-0.020639527317626555
0.24,-0.020640128331199686
0.244,-0.020639094587853898
0.248,-0.020637604074192534
0.252,-0.02063645012813212
0.256,-0.02063705114170525
0.26,-0.020638758020252945
0.264,-0.02063863781753832
0.268,-0.020638012763422264
0.272,-0.020639094587853898
0.276,-0.020639719641969957
0.28,-0.020638421452651993
0.28400000000000003,-0.020637604074192534
0.28800000000000003,-0.020637339628220355
0.292,-0.020639262871654376
0.296,-0.020643037236893643
0.3,-0.02064712412919094
0.304,-0.020650225359228298
0.308,-0.020652821737864223
0.312,-0.020653278508179804
0.316,-0.02065407184609634
0.32,-0.020655394075957227
0.324,-0.02065633165713131
0.328,-0.02065609125170206
0.332,-0.020654793062384096
0.336,-0.020653879521752936
0.34,-0.0206551777110709
0.34400000000000003,-0.020656163373330837
0.34800000000000003,-0.02065609125170206
0.352,-0.02065649994093179
0.356,-0.02065760580590635
0.36,-0.020658062576221933
0.364,-0.020660178143999355
0.368,-0.0206620292658046
0.372,-0.02066303896860746
0.376,-0.020662606238834806
0.38,-0.020660851279201264
0.384,-0.02066162057657487
0.388,-0.020665923833758492
0.392,-0.020669553955740206
0.396,-0.020670515577457218
0.4,-0.02067080406397232
0.404,-0.02067010688822749
0.40800000000000003,-0.02067056365854307
0.41200000000000003,-0.02067263114523464
0.41600000000000004,-0.020674193780524784
0.42,-0.020675443888756896
0.424,-0.02067765561870602
0.428,-0.020678809564766434
0.432,-0.02067828067282208
0.436,-0.02067727097001922
0.44,-0.02067741521327677
0.444,-0.020677847943049422
0.448,-0.020678040267392825
0.452,-0.020678352794450853
0.456,-0.020677319051105068
0.46,-0.020676117023958804
0.464,-0.020675756415814924
0.468,-0.020676044902330028
0.47200000000000003,-0.020676381469930984
0.47600000000000003,-0.020677198848390442
0.48,-0.02067614106450173
0.484,-0.020672871550663895
0.488,-0.020672871550663895
0.492,-0.020675564091471522
0.496,-0.020676934402418263
0.5,-0.02067650167264561
0.504,-0.020677367132190917
0.508,-0.020678761483680582
0.512,-0.020680396240599502
0.516,-0.0206823916056623
0.52,-0.020683569592265635
0.524,-0.02068405040312414
0.528,-0.02068313686249298
0.532,-0.02068198291643257
0.536,-0.020681285740687737
0.54,-0.020681454024488212
0.544,-0.020682295443490598
0.548,-0.020684002322038292
0.552,-0.020684170605838766
0.556,-0.020684579295068495
0.56,-0.020685108187012854
0.5640000000000001,-0.020686069808729862
0.5680000000000001,-0.020687993052163886
0.5720000000000001,-0.02068902679550967
0.5760000000000001,-0.020690373065913484
0.58,-0.020691839539031927
0.584,-0.02069294540400649
0.588,-0.020692608836405536
0.592,-0.020690829836229066
0.596,-0.020690661552428588
0.6,-0.020690060538855456
0.604,-0.02068979609288328
0.608,-0.02069010861994131
0.612,-0.02069102216057247
0.616,-0.020691911660660704
0.62,-0.020691310647087572
0.624,-0.020690421146999337
0.628,-0.02069020478211301
0.632,-0.020688257498136062
0.636,-0.020684891822126527
0.64,-0.020683425349008085
0.644,-0.02068390615986659
0.648,-0.020684747578868973
0.652,-0.02068522838972748
0.656,-0.020687199714247352
0.66,-0.02068801709270681
0.664,-0.020687993052163886
0.668,-0.02068751224130538
0.672,-0.020687944971078034
0.676,-0.020688257498136062
0.68,-0.02068816133596436
0.684,-0.02068994033614083
0.6880000000000001,-0.020691502971430974
0.6920000000000001,-0.020690877917314915
0.6960000000000001,-0.020689267200938923
0.7000000000000001,-0.02068847386302239
0.704,-0.020688594065737018
0.708,-0.020689555687454026
0.712,-0.02069030094428471
0.716,-0.020689820133426205
0.72,-0.020688954673880895
0.724,-0.020688858511709193
0.728,-0.02068811325487851
0.732,-0.020688377700850687
0.736,-0.020689267200938923
0.74,-0.02068974801179743
0.744,-0.02068974801179743
0.748,-0.020688714268451643
0.752,-0.020687584362934153
0.756,-0.020687295876419053
0.76,-0.02068650253850252
0.764,-0.02068573324112891
0.768,-0.020687392038590754
0.772,-0.020689723971254504
0.776,-0.020691310647087572
0.78,-0.020692753079663086
0.784,-0.020692608836405536
0.788,-0.020692344390433357
0.792,-0.020692464593147983
0.796,-0.02069244055260506
0.8,-0.02069263287694846
0.804,-0.020692656917491385
0.808,-0.020692464593147983
0.812,-0.02069167125523145
0.8160000000000001,-0.020690469228085186
0.8200000000000001,-0.020690661552428588
0.8240000000000001,-0.020691502971430974
0.8280000000000001,-0.020692320349890433
0.8320000000000001,-0.02069229630934751
0.836,-0.020691935701203628
0.84,-0.020692392471519206
0.844,-0.02069263287694846
0.848,-0.020692248228261656
0.852,-0.020691142363287094
0.856,-0.020690877917314915
0.86,-0.020690829836229066
0.864,-0.020690228822655934
0.868,-0.020689098917138448
0.872,-0.02068948356582525
0.876,-0.020690661552428588
0.88,-0.020690228822655934
0.884,-0.020689507606368177
0.888,-0.02068897871442382
0.892,-0.020688305579221914
0.896,-0.02068609384927279
0.9,-0.02068354555172271
0.904,-0.02068313686249298
0.908,-0.020684194646381694
0.912,-0.020684747578868973
0.916,-0.020685540916785507
0.92,-0.020686069808729862
0.924,-0.020686021727644013
0.928,-0.020686839106103472
0.932,-0.02068741607913368
0.936,-0.020686887187189324
0.9400000000000001,-0.020685444754613806
0.9440000000000001,-0.020685564957328432
0.9480000000000001,-0.020686863146646396
0.9520000000000001,-0.020687993052163886
0.9560000000000001,-0.020689315282024775
0.96,-0.020690276903741783
0.964,-0.020691911660660704
0.968,-0.020693161768892816
0.972,-0.02069395510680935
0.976,-0.02069506097178391
0.98,-0.02069522925558439
0.984,-0.020695493701556565
0.988,-0.020696671688159904
0.992,-0.020699051701909506
0.996,-0.02069998928308359
1.0,-0.020700205647969917
1.004,-0.020701287472401554
1.008,-0.020702249094118566
1.012,-0.02070328283746435
1.016,-0.02070400405375211
1.02,-0.02070496567546912
1.024,-0.020705566689042252
1.028,-0.02070460506732524
1.032,-0.020702898188777547
1.036,-0.02070470122949694
1.04,-0.020708451554193284
1.044,-0.02071059116251363
1.048,-0.020709004486680564
1.052,-0.02070792266224893
1.056,-0.020708042864963555
1.06,-0.020708018824420627
1.064,-0.020707105283789468
1.068,-0.020706023459357834
1.072,-0.02070491759438327
1.076,-0.02070371556723701
1.08,-0.02070369152669408
1.084,-0.02070405213483796
1.088,-0.020706624472930965
1.092,-0.020710663284142408
1.096,-0.020714798257525553
1.1,-0.020717370595618557
1.104,-0.02071669746041665
1.108,-0.020715543514356238
1.112,-0.020714750176439704
1.116,-0.020714750176439704
1.12,-0.020714581892639226
1.124,-0.020713668352008066
1.1280000000000001,-0.02071181723020282
1.1320000000000001,-0.020710711365228257
1.1360000000000001,-0.020710014189483424
1.1400000000000001,-0.020708740040708388
1.1440000000000001,-0.020708643878536687
1.1480000000000001,-0.02070958145971077
1.1520000000000001,-0.020710374797627305
1.156,-0.02071035075708438
1.16,-0.020709268932652743
1.164,-0.02070866791907961
1.168,-0.020707489932476272
1.172,-0.020705927297186132
1.176,-0.020705759013385654
1.18,-0.020705999418814906
1.184,-0.02070583113501443
1.188,-0.0207056147701281
1.192,-0.020704484864610614
1.196,-0.02070253758063367
1.2,-0.020702201013032714
1.204,-0.020702201013032714
1.208,-0.020701575958916658
1.212,-0.02070044605339917
1.216,-0.0207007585804572
1.22,-0.02070236929683319
1.224,-0.02070328283746435
1.228,-0.020703763648322857
1.232,-0.020703330918550204
1.236,-0.020702201013032714
1.24,-0.02070126343185863
1.244,-0.020700974945343526
1.248,-0.020699604634396785
1.252,-0.020696527444902354
1.256,-0.020693233890521592
1.26,-0.020694700363640035
1.264,-0.020697993918020793
1.268,-0.02070039797231332
1.272,-0.020701191310229853
1.276,-0.020701599999459582
1.28,-0.02070135959403033
1.284,-0.020700974945343526
1.288,-0.0207007585804572
1.292,-0.020700878783171825
1.296,-0.020700878783171825
1.3,-0.020701287472401554
1.304,-0.02070116726968693
1.308,-0.020700373931770395
1.312,-0.020700806661543048
1.316,-0.020701455756202032
1.32,-0.020702321215747343
1.324,-0.020703883851037483
1.328,-0.02070520608089837
1.332,-0.02070563881067103
1.336,-0.020703883851037483
1.34,-0.020704653148411092
1.344,-0.020707441851390423
1.348,-0.020708860243423013
1.352,-0.020708860243423013
1.356,-0.020709533378624922
1.36,-0.02070948529753907
1.364,-0.020708499635279133
1.368,-0.020710615203056556
1.372,-0.02071395683852317
1.3760000000000001,-0.020717106149646378
1.3800000000000001,-0.02071871686602237
1.3840000000000001,-0.020719269798509653
1.3880000000000001,-0.02072023142022666
1.3920000000000001,-0.020721120920314896
1.3960000000000001,-0.02072292396103429
1.4000000000000001,-0.02072460679903906
1.4040000000000001,-0.02072400578546593
1.408,-0.020722034460946056
1.412,-0.02072073627162809
1.416,-0.020721433447372924
1.42,-0.02072232294746116
1.424,-0.020722515271804562
1.428,-0.020723140325920618
1.432,-0.02072364517732205
1.436,-0.020723933663837152
1.44,-0.0207259771099858
1.444,-0.020726241555957977
1.448,-0.02072628963704383
1.452,-0.02072628963704383
1.456,-0.020726217515415053
1.46,-0.020724727001753686
1.464,-0.02072374133949375
1.468,-0.020724150028723482
1.472,-0.02072451063686736
1.476,-0.02072333265026402
1.48,-0.02072318840700647
1.484,-0.020722611433976263
1.488,-0.020721120920314896
1.492,-0.02071972656882523
1.496,-0.020717923528105836
1.5,-0.020716312811729844
1.504,-0.0207165532171591
1.508,-0.020716673419873724
1.512,-0.020717635041590732
1.516,-0.02071847646059312
1.52,-0.020720327582398362
1.524,-0.02072059202837054
1.528,-0.02071975060936816
1.532,-0.020718548582221896
1.536,-0.02071705806856053
1.54,-0.020716096446843517
1.544,-0.020716096446843517
1.548,-0.020716577257702023
1.552,-0.020715952203585967
1.556,-0.020714413608838748
1.56,-0.020714990581868955
1.564,-0.020715711798156712
1.568,-0.020715591595442086
1.572,-0.02071551947381331
1.576,-0.020714750176439704
1.58,-0.02071470209535385
1.584,-0.020714942500783106
1.588,-0.020713716433093915
1.592,-0.020713163500606636
1.596,-0.020713476027664664
1.6,-0.020713235622235412
1.604,-0.02071460593318215
1.608,-0.020717514838876107
1.612,-0.020719293839052577
1.616,-0.02072008717696911
1.62,-0.020720303541855438
1.624,-0.02072044778511299
1.6280000000000001,-0.020721481528458777
1.6320000000000001,-0.020723356690806948
1.6360000000000001,-0.020724727001753686
1.6400000000000001,-0.020726337718129678
1.6440000000000001,-0.02072744358310424
1.6480000000000001,-0.020728886015679758
1.6520000000000001,-0.02073008804282602
1.6560000000000001,-0.02072907834002316
1.6600000000000001,-0.020728693691336356
1.6640000000000001,-0.02072958319142459
1.668,-0.020730737137485
1.672,-0.020731578556487388
1.676,-0.020731530475401536
1.68,-0.020730857340199627
1.684,-0.020729511069795814
1.688,-0.0207279724750486
1.692,-0.020726986812788662
1.696,-0.02072703489387451
1.7,-0.020727587826361794
1.704,-0.020728188839934925
1.708,-0.02072744358310424
1.712,-0.02072506356935464
1.716,-0.020722443150175785
1.72,-0.02072217870420361
1.724,-0.020723380731349873
1.728,-0.020725736704556547
1.732,-0.020727683988533495
1.736,-0.020730737137485
1.74,-0.020733141191777528
1.744,-0.020734174935123317
1.748,-0.020734727867610596
1.752,-0.020736074138014413
1.756,-0.020737420408418226
1.76,-0.02073797334090551
1.764,-0.020739343651852246
1.768,-0.020740353354655107
1.772,-0.02074081012497069
1.776,-0.020740425476283884
1.78,-0.02074165154397307
1.784,-0.020742348719717904
1.788,-0.020742517003518382
1.792,-0.020743622868492944
1.796,-0.0207443440847807
1.8,-0.020743670949578793
1.804,-0.020742252557546203
1.808,-0.020741074570942864
1.812,-0.02073999274651123
1.816,-0.0207398725437966
1.82,-0.020739944665425378
1.824,-0.02073953597619565
1.828,-0.020738237786877684
1.832,-0.020737059800274345
1.836,-0.020735184637926177
1.84,-0.020734920191954
1.844,-0.020734896151411074
1.848,-0.0207329248268912
1.852,-0.02073131411051521
1.856,-0.020729823596853842
1.86,-0.020728140758849073
1.864,-0.020726241555957977
1.868,-0.020725496299127295
1.872,-0.020726722366816483
1.8760000000000001,-0.020728140758849073
1.8800000000000001,-0.02072963127251044
1.8840000000000001,-0.02073150643485861
1.8880000000000001,-0.020732492097118548
1.8920000000000001,-0.020731290069972284
1.8960000000000001,-0.02072972743468214
1.9000000000000001,-0.020730208245540647
1.9040000000000001,-0.020729414907624113
1.9080000000000001,-0.02072931874545241
1.9120000000000001,-0.020729607231967515
1.9160000000000001,-0.02072958319142459
1.92,-0.020729559150881666
1.924,-0.020728140758849073
1.928,-0.020727683988533495
1.932,-0.020728092677763224
1.936,-0.020728020556134447
1.94,-0.02072729933984669
1.944,-0.020726097312700427
1.948,-0.020726770447902335
1.952,-0.02072866965079343
1.956,-0.020728525407535878
1.96,-0.020728381164278328
1.964,-0.020728765812965132
1.968,-0.020728260961563702
1.972,-0.020727732069619344
1.976,-0.020727587826361794
1.98,-0.02072679448844526
1.984,-0.02072460679903906
1.988,-0.020724077907094705
1.992,-0.020724414474695658
1.996,-0.020724125988180554
2.0,-0.02072424619089518
2.004,-0.02072527993424097
2.008,-0.020725496299127295
2.012,-0.02072511165044049
2.016,-0.02072455871795321
2.02,-0.020723573055693275
2.024,-0.020723500934064498
2.028,-0.020722659515062115
2.032,-0.020720784352713944
2.036,-0.020719966974254485
2.04,-0.02072008717696911
2.044,-0.02071963040665353
2.048,-0.020720015055340334
2.052,-0.02071999101479741
2.056,-0.020718957271451625
2.06,-0.020717226352361003
2.064,-0.020717178271275154
2.068,-0.02071729847398978
2.072,-0.020716913825302975
2.076,-0.02071578391978549
2.08,-0.02071419724395242
2.084,-0.020714798257525553
2.088,-0.020718428379507266
2.092,-0.020719149595795027
2.096,-0.020719053433623326
2.1,-0.020719029393080398
2.104,-0.020719197676880876
2.108,-0.02072064010945639
2.112,-0.02072177001497388
2.116,-0.020722034460946056
2.12,-0.020721481528458777
2.124,-0.020721241123029522
2.128,-0.0207213132446583
2.132,-0.020722563352890414
2.136,-0.020724534677410283
2.14,-0.020725159731526343
2.144,-0.020725328015326817
2.148,-0.020725183772069267
2.152,-0.020724727001753686
2.156,-0.02072484720446831
2.16,-0.020725856907271176
2.164,-0.02072679448844526
2.168,-0.020727467623647168
2.172,-0.02072703489387451
2.176,-0.020726674285730634
2.18,-0.02072857348862173
2.184,-0.020730689056399153
2.188,-0.020732900786348277
2.192,-0.020733261394492154
2.196,-0.02073141027268691
2.2,-0.02073181896191664
2.204,-0.020732996948519978
2.208,-0.02073436725946672
2.212,-0.020735232719012026
2.216,-0.020734583624353046
2.22,-0.020733670083721886
2.224,-0.020733405637749707
2.228,-0.02073328543503508
2.232,-0.02073364604317896
2.236,-0.02073359796209311
2.24,-0.02073258825929025
2.244,-0.02073328543503508
2.248,-0.020733549881007257
2.2520000000000002,-0.020733814326979436
2.2560000000000002,-0.02073318927286338
2.2600000000000002,-0.020731722799744938
2.2640000000000002,-0.020731217948343508
2.2680000000000002,-0.02073186704300249
2.2720000000000002,-0.02073328543503508
2.2760000000000002,-0.020734126854037464
2.2800000000000002,-0.020734415340552568
2.2840000000000003,-0.02073383836752236
2.2880000000000003,-0.02073318927286338
2.2920000000000003,-0.020733718164807735
2.2960000000000003,-0.020734992313582775
2.3000000000000003,-0.020735328881183727
2.3040000000000003,-0.020734992313582775
2.308,-0.02073410281349454
2.312,-0.02073451150272427
2.316,-0.02073434321892379
2.32,-0.020732660380919022
2.324,-0.020730448650969898
2.328,-0.02072794843450567
2.332,-0.020726866610074036
2.336,-0.020726337718129678
2.34,-0.020725039528811714
2.344,-0.020723380731349873
2.348,-0.020723717298950825
2.352,-0.02072419810980933
2.356,-0.020723885582751303
2.36,-0.020724029826008853
2.364,-0.020724125988180554
2.368,-0.020723356690806948
2.372,-0.020723164366463546
2.376,-0.020724174069266407
2.38,-0.02072460679903906
2.384,-0.020725087609897566
2.388,-0.020725159731526343
2.392,-0.020723669217864976
2.396,-0.020721193041943673
2.4,-0.020720543947284693
2.404,-0.020724029826008853
2.408,-0.020725856907271176
2.412,-0.020726001150528726
2.416,-0.020726193474872128
2.42,-0.020727107015503288
2.424,-0.02072739550201839
2.428,-0.02072705893441744
2.432,-0.020725640542384845
2.436,-0.02072395770438008
2.44,-0.020722803758319665
2.444,-0.020722635474519187
2.448,-0.020723813461122526
2.452,-0.020724534677410283
2.456,-0.020725592461298997
2.46,-0.020725712664013622
2.464,-0.020724919326097088
2.468,-0.020724294271981032
2.472,-0.020724438515238582
2.476,-0.02072424619089518
2.48,-0.020722972042120143
2.484,-0.02072277971777674
2.488,-0.020721986379860207
2.492,-0.020719966974254485
2.496,-0.020718236055163864
2.5,-0.0207170340280176
2.504,-0.02071511078458358
2.508,-0.020712875014091532
2.512,-0.02071136045988724
2.516,-0.020711745108574046
2.52,-0.020712105716717923
2.524,-0.020712706730291054
2.528,-0.020714629973725075
2.532,-0.02071551947381331
2.536,-0.020715663717070863
2.54,-0.020715182906212357
2.544,-0.0207145578520963
2.548,-0.020713740473636843
2.552,-0.02071304329789201
2.556,-0.020713379865492963
2.56,-0.020713716433093915
2.564,-0.020713403906035887
2.568,-0.020713932797980245
2.572,-0.020713764514179767
2.576,-0.020714077041237795
2.58,-0.020714317446667047
2.584,-0.020714389568295823
2.588,-0.02071506270349773
2.592,-0.020715543514356238
2.596,-0.020715807960328413
2.6,-0.02071547139272746
2.604,-0.020713884716894393
2.608,-0.02071268268974813
2.612,-0.020711384500430165
2.616,-0.020710014189483424
2.62,-0.02070883620288009
2.624,-0.02070866791907961
2.628,-0.020707778418991376
2.632,-0.02070669659455974
2.636,-0.020705662851213953
2.64,-0.020705326283613
2.644,-0.020704340621353064
2.648,-0.02070140767511618
2.652,-0.02069989312091189
2.656,-0.020699652715482637
2.66,-0.020700974945343526
2.664,-0.02070470122949694
2.668,-0.020708788121794237
2.672,-0.02071167298694527
2.676,-0.020711793189659895
2.68,-0.020711071973372137
2.684,-0.020713716433093915
2.688,-0.02071729847398978
2.692,-0.020717923528105836
2.696,-0.020717346555075632
2.7,-0.02071592816304304
2.704,-0.020714822298068477
2.708,-0.020714918460240178
2.712,-0.02071563967652794
2.716,-0.020715904122500114
2.72,-0.02071588008195719
2.724,-0.0207166493793308
2.728,-0.020717346555075632
2.732,-0.020719029393080398
2.736,-0.020720519906741765
2.74,-0.02072181809605973
2.744,-0.020722130623117757
2.748,-0.02072328456917817
2.7520000000000002,-0.02072400578546593
2.7560000000000002,-0.020722996082663068
2.7600000000000002,-0.0207213132446583
2.7640000000000002,-0.02072116900140075
2.7680000000000002,-0.02072258739343334
2.7720000000000002,-0.02072345285297865
2.7760000000000002,-0.020722635474519187
2.7800000000000002,-0.02072309224483477
2.7840000000000003,-0.020724077907094705
2.7880000000000003,-0.020722875879948442
2.7920000000000003,-0.020722467190718713
2.7960000000000003,-0.020722972042120143
2.8000000000000003,-0.02072400578546593
2.8040000000000003,-0.02072446255578151
2.8080000000000003,-0.020725255893698044
2.8120000000000003,-0.020725736704556547
2.816,-0.02072653004247308
2.82,-0.02072693873170281
2.824,-0.02072689065061696
2.828,-0.020726506001930156
2.832,-0.020726457920844307
2.836,-0.02072705893441744
2.84,-0.020725688623470698
2.844,-0.020724125988180554
2.848,-0.020724727001753686
2.852,-0.02072648196138723
2.856,-0.02072739550201839
2.86,-0.020727924393962746
2.864,-0.020728645610250503
2.868,-0.02072857348862173
2.872,-0.02072804459667737
2.876,-0.020726770447902335
2.88,-0.020725856907271176
2.884,-0.020725736704556547
2.888,-0.020725760745099474
2.892,-0.020725087609897566
2.896,-0.020726674285730634
2.9,-0.020726986812788662
2.904,-0.020725736704556547
2.908,-0.0207235970962362
2.912,-0.020721601731173402
2.916,-0.02072066414999932
2.92,-0.020721289204115374
2.924,-0.02072258739343334
2.928,-0.020723981744923004
2.932,-0.02072436639360981
2.936,-0.020725159731526343
2.94,-0.020724799123382463
2.944,-0.020725255893698044
2.948,-0.020725953069442877
2.952,-0.020725664582927773
2.956,-0.020726457920844307
2.96,-0.0207279724750486
2.964,-0.020727323380389615
2.968,-0.020725688623470698
2.972,-0.020724751042296614
2.976,-0.020726001150528726
2.98,-0.020727515704733017
2.984,-0.02072780419124812
2.988,-0.02072917450219486
2.992,-0.02072999188065432
2.996,-0.020731578556487388
3.0,-0.020733381597206783
3.004,-0.020734463421638417
3.008,-0.02073638666507244
3.012,-0.02073703575973142
3.016,-0.020737011719188497
3.02,-0.02073689151647387
3.024,-0.02073811758416306
3.028,-0.02074059376008436
3.032,-0.020741266895286267
3.036,-0.02074287761166226
3.04,-0.020744440246952402
3.044,-0.020745449949755263
3.048,-0.02074506530106846
3.052,-0.02074333438197784
3.056,-0.020742348719717904
3.06,-0.020742853571119334
3.064,-0.020742997814376888
3.068,-0.02074287761166226
3.072,-0.020743622868492944
3.076,-0.02074419984152315
3.08,-0.020744392165866554
3.084,-0.02074297377383396
3.088,-0.020742132354831577
3.092,-0.0207421563953745
3.096,-0.02074323821980614
3.1,-0.020743406503606617
3.104,-0.020742637206233008
3.108,-0.02074201215211695
3.112,-0.02074145921962967
3.116,-0.02074114669257164
3.12,-0.020741387098000896
3.124,-0.020741627503430147
3.128,-0.020742492962975458
3.132,-0.02074218043591743
3.136,-0.020741483260172597
3.14,-0.0207420602332028
3.144,-0.020742805490033486
3.148,-0.020741339016915043
3.152,-0.02074059376008436
3.156,-0.02074258912514716
3.16,-0.02074359882795002
3.164,-0.02074333438197784
3.168,-0.020742348719717904
3.172,-0.02074273336840471
3.176,-0.020744680652381654
3.18,-0.020744969138896757
3.184,-0.020743911355008048
3.188,-0.020742517003518382
3.192,-0.02074150730071552
3.196,-0.020740665881713135
3.2,-0.02073922344913762
3.204,-0.02073811758416306
3.208,-0.020739295570766397
3.212,-0.020741747706144772
3.216,-0.020742661246775932
3.22,-0.02074155538180137
3.224,-0.020740353354655107
3.228,-0.020740353354655107
3.232,-0.020740425476283884
3.236,-0.020740353354655107
3.24,-0.020739920624882453
3.244,-0.020739560016738573
3.248,-0.020740161030311705
3.2520000000000002,-0.020740185070854632
3.2560000000000002,-0.02073953597619565
3.2600000000000002,-0.02073811758416306
3.2640000000000002,-0.020737131921903122
3.2680000000000002,-0.0207373002057036
3.2720000000000002,-0.020738526273392788
3.2760000000000002,-0.020738838800450816
3.2800000000000002,-0.020738382030135238
3.2840000000000003,-0.020738021421991357
3.2880000000000003,-0.02073626646235781
3.2920000000000003,-0.020734078772951615
3.2960000000000003,-0.020733790286436512
3.3000000000000003,-0.020734078772951615
3.3040000000000003,-0.02073566544878468
3.3080000000000003,-0.02073871859773619
3.3120000000000003,-0.020739439814023947
3.3160000000000003,-0.02074081012497069
3.3200000000000003,-0.020742036192659876
3.3240000000000003,-0.020741795787230625
3.3280000000000003,-0.020741026489857015
3.332,-0.020741218814200418
3.336,-0.02074054567899851
3.34,-0.02073922344913762
3.344,-0.02073847819230694
3.348,-0.02073845415176401
3.352,-0.020738333949049385
3.356,-0.020738742638279115
3.36,-0.0207398725437966
3.364,-0.02074023315194048
3.368,-0.020739103246422995
3.372,-0.020737829097647955
3.376,-0.0207372040435319
3.38,-0.020737107881360198
3.384,-0.02073785313819088
3.388,-0.020739704259996126
3.392,-0.020740161030311705
3.396,-0.020739463854566872
3.4,-0.02073907920588007
3.404,-0.020738790719364967
3.408,-0.020738550313935712
3.412,-0.02073797334090551
3.416,-0.020736194340729038
3.42,-0.02073597797584271
3.424,-0.02073684343538802
3.428,-0.020737516570589927
3.432,-0.020736194340729038
3.436,-0.020732876745805352
3.44,-0.020728381164278328
3.444,-0.020727587826361794
3.448,-0.020730280367169424
3.452,-0.02073436725946672
3.456,-0.020737564651675776
3.46,-0.02073886284099374
3.464,-0.020739463854566872
3.468,-0.020739511935652724
3.472,-0.02073886284099374
3.476,-0.020737324246246525
3.48,-0.02073588181367101
3.484,-0.020735953935299783
3.488,-0.02073780505710503
3.492,-0.020738646476107413
3.496,-0.020739343651852246
3.5,-0.020738670516650338
3.504,-0.02073895900316544
3.508,-0.020739560016738573
3.512,-0.02073881475990789
3.516,-0.020738237786877684
3.52,-0.02073826182742061
3.524,-0.02073826182742061
3.528,-0.02073895900316544
3.532,-0.02073963213836735
3.536,-0.020739848503253677
3.54,-0.020739704259996126
3.544,-0.020739463854566872
3.548,-0.020740834165513613
3.552,-0.02074191598994525
3.556,-0.020741290935829194
3.56,-0.020740281233026334
3.564,-0.02073927153022347
3.568,-0.020738598395021565
3.572,-0.020737781016562106
3.576,-0.020736963638102644
3.58,-0.020737877178733807
3.584,-0.02073931961130932
3.588,-0.020740064868140003
3.592,-0.020739608097824425
3.596,-0.020738790719364967
3.6,-0.020738141624705983
3.604,-0.020737083840817273
3.608,-0.020737420408418226
3.612,-0.020738285867963537
3.616,-0.020739800422167828
3.62,-0.020740473557369733
3.624,-0.020740305273569258
3.628,-0.02074095436822824
3.632,-0.020740665881713135
3.636,-0.02073999274651123
3.64,-0.020740064868140003
3.644,-0.020740521638455585
3.648,-0.020741098611485792
3.652,-0.020741122652028716
3.656,-0.02074004082759708
3.66,-0.020738502232849863
3.664,-0.020737468489504075
3.668,-0.02073602605692856
3.672,-0.02073487211086815
3.676,-0.02073475190815352
3.68,-0.02073475190815352
3.684,-0.02073374220535066
3.688,-0.02073205936734589
3.692,-0.020732299772775145
3.696,-0.02073434321892379
3.7,-0.02073552120552713
3.704,-0.020737468489504075
3.708,-0.020738165665248907
3.712,-0.020737732935476254
3.716,-0.020738189705791835
3.72,-0.020737636773304553
3.724,-0.020736554948872915
3.728,-0.020737372327332377
3.732,-0.020738069503077206
3.736,-0.02073734828678945
3.74,-0.020737901219276732
3.744,-0.020737660813847477
3.748,-0.020736506867787066
3.7520000000000002,-0.020736675151587544
3.7560000000000002,-0.020735833732585158
3.7600000000000002,-0.020734583624353046
3.7640000000000002,-0.020734030691865763
3.7680000000000002,-0.020733862408065285
3.7720000000000002,-0.020732251691689293
3.7760000000000002,-0.02073023228608357
3.7800000000000002,-0.02072794843450567
3.7840000000000003,-0.020725856907271176
3.7880000000000003,-0.020725039528811714
3.7920000000000003,-0.020724654880124913
3.7960000000000003,-0.02072689065061696
3.8000000000000003,-0.020728525407535878
3.8040000000000003,-0.02072922258328071
3.8080000000000003,-0.020730015921197244
3.8120000000000003,-0.020730713096942077
3.8160000000000003,-0.02073104966454303
3.8200000000000003,-0.020731939164631265
3.8240000000000003,-0.020732804624176576
3.8280000000000003,-0.020733814326979436
3.8320000000000003,-0.020735208678469102
3.8360000000000003,-0.02073684343538802
3.84,-0.020736675151587544
3.844,-0.02073643474615829
3.848,-0.02073693959755972
3.852,-0.0207373002057036
3.856,-0.020737781016562106
3.86,-0.020737781016562106
3.864,-0.020738093543620134
3.868,-0.02073821374633476
3.872,-0.020737997381448433
3.876,-0.02073770889493333
3.88,-0.020736819394845094
3.884,-0.020737756976019178
3.888,-0.02073907920588007
3.892,-0.0207395840572815
3.896,-0.020738189705791835
3.9,-0.02073830990850646
3.904,-0.020739656178910274
3.908,-0.020739343651852246
3.912,-0.020737756976019178
3.916,-0.020736554948872915
3.92,-0.020737372327332377
3.924,-0.020738838800450816
3.928,-0.020740353354655107
3.932,-0.020742036192659876
3.936,-0.020742853571119334
3.94,-0.020743526706321243
3.944,-0.02074350266577832
3.948,-0.02074369499012172
3.952,-0.020744488328038255
3.956,-0.020745089341611386
3.96,-0.020745834598442068
3.964,-0.020746651976901526
3.968,-0.020747589558075614
3.972,-0.020747565517532686
3.976,-0.020747277031017582
3.98,-0.020746772179616152
3.984,-0.020746651976901526
3.988,-0.02074684430124493
3.992,-0.020746820260702004
3.996,-0.020746724098530303
4.0,-0.020747012585045407
4.0040000000000004,-0.020746507733643976
4.008,-0.020746363490386423
4.0120000000000005,-0.02074708470667418
4.016,-0.020748022287848267
4.0200000000000005,-0.020747974206762415
4.024,-0.020746988544502482
4.0280000000000005,-0.020744993179439685
4.032,-0.020743863273922195
4.0360000000000005,-0.020744127719894374
4.04,-0.020743983476636824
4.0440000000000005,-0.020744320044237777
4.048,-0.020743118017091514
4.0520000000000005,-0.020741074570942864
4.056,-0.020740425476283884
4.0600000000000005,-0.020739968705968302
4.064,-0.020740305273569258
4.0680000000000005,-0.02074208427374573
4.072,-0.020743767111750494
4.0760000000000005,-0.020745834598442068
4.08,-0.02074795016621949
4.0840000000000005,-0.020748839666307726
4.088,-0.02074917623390868
4.0920000000000005,-0.020749200274451606
4.096,-0.020748887747393575
4.1,-0.020749464720423782
4.104,-0.02075059462594127
4.108,-0.02075146008548658
4.112,-0.020752253423403113
4.116,-0.020753767977607404
4.12,-0.020756508599500886
4.124,-0.02075720577524572
4.128,-0.02075653264004381
4.132,-0.020757518302303747
4.136,-0.020760307005283075
4.14,-0.02076129266754301
4.144,-0.020761388829714712
4.148,-0.020759585788995318
4.152,-0.020757133653616942
4.156,-0.02075821547804858
4.16,-0.020759345383566066
4.164,-0.020759898316053346
4.168,-0.020760258924197226
4.172,-0.020761749437858593
4.176,-0.020762855302833155
4.18,-0.020761989843287844
4.184,-0.020759417505194843
4.188,-0.02075754234284667
4.192,-0.02075634031570041
4.196,-0.020755979707556528
4.2,-0.020754368991180536
4.204,-0.02075182069363046
4.208,-0.02075028209888324
4.212,-0.020750474423226643
4.216,-0.020752397666660666
4.22,-0.02075607586972823
4.224,-0.020758479924020756
4.228,-0.02076028296474015
4.232,-0.020762590856860975
4.236,-0.02076429773540867
4.24,-0.020764441978666223
4.244,-0.020764201573236968
4.248,-0.020763937127264792
4.252,-0.02076237449197465
4.256,-0.02076220620817417
4.26,-0.0207624225730605
4.264,-0.020762759140661453
4.268,-0.020762999546090705
4.272,-0.02076292742446193
4.276,-0.02076283126229023
4.28,-0.020762951465004856
4.284,-0.020762158127088322
4.288,-0.020762134086545397
4.292,-0.020761941762201995
4.296,-0.020761268627000087
4.3,-0.020760307005283075
4.304,-0.020759970437682122
4.308,-0.02076037912691185
4.312,-0.02076078781614158
4.316,-0.020760258924197226
4.32,-0.020759754072795795
4.324,-0.020759657910624094
4.328,-0.020759705991709943
4.332,-0.02075968195116702
4.336,-0.02075963387008117
4.34,-0.020759345383566066
4.344,-0.020758191437505652
4.348,-0.020758071234791026
4.352,-0.020759345383566066
4.356,-0.020760739735055732
4.36,-0.020761388829714712
4.364,-0.020761989843287844
4.368,-0.020761989843287844
4.372,-0.020761749437858593
4.376,-0.020760980140484983
4.38,-0.02075968195116702
4.384,-0.02075771062664715
4.388,-0.0207555710183268
4.392,-0.020754465153352237
4.396,-0.02075398434249373
4.4,-0.02075388818032203
4.404,-0.0207534794910923
4.408,-0.02075460939660979
4.412,-0.020755546977783874
4.416,-0.020756412437329185
4.42,-0.020756628802215512
4.424,-0.020755907585927755
4.428,-0.020756292234614556
4.432,-0.020756700923844285
4.436,-0.02075643647787211
4.44,-0.0207555710183268
4.444,-0.02075460939660979
4.448,-0.02075307080186257
4.452,-0.020752662112632842
4.456,-0.020751868774716308
4.46,-0.020751604328744132
4.464,-0.02075206109905971
4.468,-0.020752133220688487
4.472,-0.020751772612544607
4.476,-0.020752902518062097
4.48,-0.02075434495063761
4.484,-0.020755546977783874
4.488,-0.020756700923844285
4.492,-0.020757229815788644
4.496,-0.020757662545561297
4.5,-0.02075831164022028
4.5040000000000004,-0.0207602348836543
4.508,-0.02076182155948737
4.5120000000000005,-0.02076247065414635
4.516,-0.02076287934337608
4.5200000000000005,-0.02076398520835064
4.524,-0.020763215910977035
4.5280000000000005,-0.020761869640573218
4.532,-0.02076211004600247
4.5360000000000005,-0.020762350451431724
4.54,-0.02076146095134349
4.5440000000000005,-0.020760619532341106
4.548,-0.02076054741071233
4.5520000000000005,-0.020758696288907082
4.556,-0.020755955667013604
4.5600000000000005,-0.02075617203189993
4.564,-0.020759056897050963
4.5680000000000005,-0.02076196580274492
4.572,-0.020763288032605808
4.5760000000000005,-0.020763360154234585
4.58,-0.020763143789348258
4.5840000000000005,-0.02076141287025764
4.588,-0.020762013883830772
4.5920000000000005,-0.020763552478577987
4.596,-0.02076429773540867
4.6000000000000005,-0.020764826627353027
4.604,-0.02076540360038323
4.6080000000000005,-0.02076576420852711
4.612,-0.02076667774915827
4.616,-0.02076703835730215
4.62,-0.02076768745196113
4.624,-0.020768745235849845
4.628,-0.0207691779656225
4.632,-0.020768673114221068
4.636,-0.02076836058716304
4.64,-0.020768240384448414
4.644,-0.020768240384448414
4.648,-0.020768432708791817
4.652,-0.02076845674933474
4.656,-0.020768528870963518
4.66,-0.020768312506077188
4.664,-0.020767927857390386
4.668,-0.02076631714101439
4.672,-0.02076643734372902
4.676,-0.020769202006165423
4.68,-0.020771029087427745
4.684,-0.020772255155116933
4.688,-0.020773601425520746
4.692,-0.020775380425697217
4.696,-0.02077526022298259
4.7,-0.02077338506063442
4.704,-0.020773000411947615
4.708,-0.020774178398550953
4.712,-0.020774995777010412
4.716,-0.020775933358184496
4.72,-0.02077684689881566
4.724,-0.02077732770967417
4.728,-0.02077576507438402
4.732,-0.02077434668235143
4.736,-0.020772784047061288
4.74,-0.020771245452314072
4.744,-0.020769754938652706
4.748,-0.020769153925079574
4.752,-0.020769153925079574
4.756,-0.020769586654852228
4.76,-0.020770091506253658
4.764,-0.02077028383059706
4.768,-0.020771509898286248
4.772,-0.02077288020923299
4.776,-0.020772423438917408
4.78,-0.02077052423602631
4.784,-0.02076963473593808
4.788,-0.020769442411594678
4.792,-0.020768649073678144
4.796,-0.020767110478930925
4.8,-0.02076576420852711
4.804,-0.02076571612744126
4.808,-0.02076634118155732
4.812,-0.02076542764092616
4.816,-0.020764826627353027
4.82,-0.020765475722012008
4.824,-0.020767567249246506
4.828,-0.02076862503313522
4.832,-0.02076860099259229
4.836,-0.02076987514136733
4.84,-0.02077095696579897
4.844,-0.020771125249599443
4.848,-0.020771990709144754
4.852,-0.020772639803803738
4.856,-0.020773409101177344
4.86,-0.020773817790407073
4.864,-0.02077388991203585
4.868,-0.0207741303174651
4.872,-0.020774587087780683
4.876,-0.020775019817553336
4.88,-0.020776197804156675
4.884,-0.02077752003401757
4.888,-0.020776967101530285
4.892,-0.020775284263525515
4.896,-0.020775188101353814
4.9,-0.020777375790760017
4.904,-0.020777736398903898
4.908,-0.02077766427727512
4.912,-0.020778505696277504
4.916,-0.020779178831479412
4.92,-0.020779419236908663
4.924,-0.02077843357464873
4.928,-0.020777015182616133
4.932,-0.020778097007047774
4.936,-0.02078090975057003
4.94,-0.02078264066966065
4.944,-0.020783217642690855
4.948,-0.020782905115632827
4.952,-0.020781246318170986
4.956,-0.020778625898992133
4.96,-0.020776414169043002
4.964,-0.020775620831126468
4.968,-0.02077425052017973
4.972,-0.020770836763084343
4.976,-0.020766725830244123
4.98,-0.020766773911329972
4.984,-0.020771077168513594
4.988,-0.02077480345266701
4.992,-0.020776462250128854
4.996,-0.020775981439270348
5.0,-0.0207736495066066
5.0040000000000004,-0.02077256768217496
5.008,-0.02077321677683394
5.0120000000000005,-0.02077348122280612
5.016,-0.02077449092560898
5.0200000000000005,-0.020775452547325993
5.024,-0.020776510331214703
5.0280000000000005,-0.020777183466416615
5.032,-0.020777159425873687
5.0360000000000005,-0.020777784479989746
5.04,-0.020778866304421384
5.0440000000000005,-0.020779226912565264
5.048,-0.020779323074736965
5.0520000000000005,-0.020779058628764786
5.056,-0.0207783133719341
5.0600000000000005,-0.02077667861501518
5.064,-0.020775644871669396
5.0680000000000005,-0.020773937993121702
5.072,-0.02077288020923299
5.0760000000000005,-0.02077362546606367
5.08,-0.020774418803980205
5.0840000000000005,-0.020775356385154292
5.088,-0.020776125682527898
5.0920000000000005,-0.02077703922315906
5.096,-0.020776414169043002
5.1000000000000005,-0.020775620831126468
5.104,-0.020775524668954767
5.1080000000000005,-0.02077643820958593
5.112,-0.02077617376361375
5.1160000000000005,-0.020775981439270348
5.12,-0.020775885277098647
5.124,-0.02077540446624014
5.128,-0.020775284263525515
5.132,-0.020775356385154292
5.136,-0.020774274560722655
5.14,-0.020773962033664627
5.144,-0.020773962033664627
5.148,-0.02077348122280612
5.152,-0.020772495560546184
5.156,-0.020770932925256044
5.16,-0.02077052423602631
5.164,-0.020771269492856997
5.168,-0.020771125249599443
5.172,-0.02077004342516781
5.176,-0.020770067465710734
5.18,-0.02076973089810978
5.184,-0.02076941837105175
5.188,-0.02076973089810978
5.192,-0.020769995344081957
5.196,-0.02077054827656924
5.2,-0.02077028383059706
5.204,-0.020769250087251275
5.208,-0.02076836058716304
5.212,-0.02076648542481487
5.216,-0.020765235316582756
5.22,-0.02076525935712568
5.224,-0.020766148857213916
5.228,-0.020766461384271944
5.232,-0.020766701789701195
5.236,-0.02076607673558514
5.24,-0.02076506703278228
5.244,-0.020764706424638398
5.248,-0.02076388904617894
5.252,-0.020763865005636015
5.256,-0.020765042992239354
5.26,-0.02076576420852711
5.264,-0.020767086438388
5.268,-0.020769081803450797
5.272,-0.020770620398198013
5.276,-0.020771173330685296
5.28,-0.020771894546973053
5.284,-0.020773505263349045
5.288,-0.020775428506783065
5.292,-0.020778409534105802
5.296,-0.020780957831655882
5.3,-0.020781895412829966
5.304,-0.020781294399256835
5.308,-0.020780621264054926
5.312,-0.020780981872198807
5.316,-0.020782352183145548
5.32,-0.02078386673734984
5.324,-0.020785068764496102
5.328,-0.020785501494268756
5.332,-0.020786318872728214
5.336,-0.020786102507841887
5.34,-0.02078578998078386
5.344,-0.020785357251011206
5.348,-0.020785357251011206
5.352,-0.020785309169925353
5.356,-0.02078514088612488
5.36,-0.020784708156352222
5.364,-0.020783914818435688
5.368,-0.020783337845405484
5.372,-0.020782520466946022
5.376,-0.020780837628941257
5.38,-0.020779611561252066
5.384,-0.020778097007047774
5.388,-0.020777231547502467
5.392,-0.020776197804156675
5.396,-0.020776534371757627
5.4,-0.02077708730424491
5.404,-0.020776053560899125
5.408,-0.020773817790407073
5.412,-0.020771894546973053
5.416,-0.02077064443874094
5.42,-0.02077105312797067
5.424,-0.02077297637140469
5.428,-0.020773865871492925
5.432,-0.020772495560546184
5.436,-0.020771918587515977
5.44,-0.02077201474968768
5.444,-0.02077196666860183
5.448,-0.020772904249775914
5.452,-0.02077362546606367
5.456,-0.020775452547325993
5.46,-0.0207763180068713
5.464,-0.02077617376361375
5.468,-0.020775692952755245
5.472,-0.020774851533752862
5.476,-0.020774178398550953
5.48,-0.02077489961483871
5.484,-0.020775620831126468
5.488,-0.02077581315546987
5.492,-0.020776245885242527
5.496,-0.02077617376361375
5.5,-0.020776462250128854
5.5040000000000004,-0.020776919020444432
5.508,-0.02077708730424491
5.5120000000000005,-0.020777231547502467
5.516,-0.020778289331391177
5.5200000000000005,-0.02077816912867655
5.524,-0.020778625898992133
5.5280000000000005,-0.020779972169395946
5.532,-0.020779683682880842
5.5360000000000005,-0.02077843357464873
5.54,-0.020779010547678934
5.5440000000000005,-0.02077881822333553
5.548,-0.02077898650713601
5.5520000000000005,-0.020781150155999285
5.556,-0.02078244834531725
5.5600000000000005,-0.02078295319671868
5.564,-0.020782616629117723
5.5680000000000005,-0.020780717426226628
5.572,-0.020779371155822814
5.5760000000000005,-0.02077908266930771
5.58,-0.020779010547678934
5.5840000000000005,-0.020779299034194038
5.588,-0.02078066934514078
5.5920000000000005,-0.020781246318170986
5.596,-0.020781198237085134
5.6000000000000005,-0.02078117419654221
5.604,-0.020782111777716293
5.6080000000000005,-0.020783337845405484
5.612,-0.020783626331920584
5.6160000000000005,-0.020783890777892763
5.62,-0.020784131183322018
5.6240000000000006,-0.020783938858978616
5.628,-0.020784828359066847
5.632,-0.020784804318523923
5.636,-0.02078473219689515
5.64,-0.020785068764496102
5.644,-0.02078605442675604
5.648,-0.02078639099435699
5.652,-0.020785814021326784
5.656,-0.02078523704829658
5.66,-0.020784828359066847
5.664,-0.020783626331920584
5.668,-0.020782664710203576
5.672,-0.020782832994004054
5.676,-0.02078304935889038
5.68,-0.02078203965608752
5.684,-0.020779563480166217
5.688,-0.020777736398903898
5.692,-0.020778048925961926
5.696,-0.020779683682880842
5.7,-0.020780741466769555
5.704,-0.020780645304597854
5.708,-0.020779731763966695
5.712,-0.020778265290848252
5.716,-0.020775741033841097
5.72,-0.020773192736291017
5.724,-0.0207715579793721
5.728,-0.020768985641279096
5.732,-0.020765187235496904
5.736,-0.020763432275863362
5.74,-0.020767110478930925
5.744,-0.02077069251982679
5.748,-0.020773409101177344
5.752,-0.02077439476343728
5.756,-0.020774442844523133
5.76,-0.020774442844523133
5.764,-0.020774466885066057
5.768,-0.020773962033664627
5.772,-0.0207736495066066
5.776,-0.02077388991203585
5.78,-0.020774731331038233
5.784,-0.02077617376361375
5.788,-0.02077807296650485
5.792,-0.02077990004776717
5.796,-0.020781751169572416
5.8,-0.02078213581825922
5.804,-0.020782304102059695
5.808,-0.020782760872375277
5.812,-0.020784155223864943
5.816,-0.020783914818435688
5.82,-0.020785309169925353
5.824,-0.020787112210644748
5.828,-0.02078831423779101
5.832,-0.020789804751452378
5.836,-0.020790550008283063
5.84,-0.02079050192719721
5.844,-0.02078949222439435
5.848,-0.020788410399962712
5.852,-0.020788145953990537
5.856,-0.020787424737702776
5.86,-0.02078473219689515
5.864,-0.02078242430477432
5.868,-0.020782808953461126
5.872,-0.020781703088486564
5.876,-0.020778457615191655
5.88,-0.02077684689881566
5.884,-0.020778625898992133
5.888,-0.02077908266930771
5.892,-0.02077852973682043
5.896,-0.020777495993474643
5.9,-0.020775861236555723
5.904,-0.02077566891221232
5.908,-0.020775236182439667
5.912,-0.020774106276922177
5.916,-0.02077273596597544
5.92,-0.020770932925256044
5.924,-0.020769706857566853
5.928,-0.020770764641455566
5.932,-0.020772086871316455
5.936,-0.020774082236379252
5.94,-0.020775091939182113
5.944,-0.02077540446624014
5.948,-0.020774514966151906
5.952,-0.0207741303174651
5.956,-0.02077429860126558
5.96,-0.020774779412124085
5.964,-0.020776029520356197
5.968,-0.020778048925961926
5.972,-0.02077874610170676
5.976,-0.0207782172097624
5.98,-0.020778770142249683
5.984,-0.020778457615191655
5.988,-0.020777544074560495
5.992,-0.020778265290848252
5.996,-0.02077939519636574
6.0,-0.020780573182969077
6.0040000000000004,-0.020780573182969077
6.008,-0.020780332777539826
6.0120000000000005,-0.020781053993827583
6.016,-0.020781462683057313
6.0200000000000005,-0.020781655007400715
6.024,-0.020780645304597854
6.0280000000000005,-0.02077944327745159
6.032,-0.02077999620993887
6.0360000000000005,-0.020779972169395946
6.04,-0.020778625898992133
6.0440000000000005,-0.020778097007047774
6.048,-0.02077816912867655
6.0520000000000005,-0.020777015182616133
6.056,-0.020778385493562878
6.0600000000000005,-0.020781342480342687
6.064,-0.020783626331920584
6.0680000000000005,-0.020784660075266373
6.072,-0.02078533321046828
6.0760000000000005,-0.02078547745372583
6.08,-0.02078446775092297
6.0840000000000005,-0.020783770575178138
6.088,-0.020782496426403098
6.0920000000000005,-0.020781751169572416
6.096,-0.020781294399256835
6.1000000000000005,-0.020780933791112958
6.104,-0.020779707723423767
6.1080000000000005,-0.020779130750393563
6.112,-0.02077816912867655
6.1160000000000005,-0.02077648629067178
6.12,-0.020775933358184496
6.1240000000000006,-0.020775741033841097
6.128,-0.020776005479813273
6.132000000000001,-0.02077571699329817
6.136,-0.020774082236379252
6.140000000000001,-0.020772183033488156
6.144,-0.02077054827656924
6.148,-0.020770668479283865
6.152,-0.020772327276745706
6.156,-0.020773553344434897
6.16,-0.020773865871492925
6.164,-0.020774010114750475
6.168,-0.02077439476343728
6.172,-0.020774418803980205
6.176,-0.020774202439093878
6.18,-0.020774731331038233
6.184,-0.020775933358184496
6.188,-0.020776125682527898
6.192,-0.02077648629067178
6.196,-0.02077634204741423
6.2,-0.020776654574472257
6.204,-0.02077576507438402
6.208,-0.0207762218446996
6.212,-0.020776558412300555
6.216,-0.02077780852053267
6.22,-0.020778553777363356
6.224,-0.02077843357464873
6.228,-0.0207783133719341
6.232,-0.020779972169395946
6.236,-0.020780549142426153
6.24,-0.020780645304597854
6.244,-0.020780693385683703
6.248,-0.02078081358839833
6.252,-0.020781053993827583
6.256,-0.02078136652088561
6.26,-0.020781342480342687
6.264,-0.020780741466769555
6.268,-0.020779611561252066
6.272,-0.020780044291024723
6.276,-0.02078182329120119
6.28,-0.020783409967034257
6.284,-0.020785549575354608
6.288,-0.020786607359243318
6.292,-0.020785862102412636
6.296,-0.020784660075266373
6.3,-0.020783674413006437
6.304,-0.020782304102059695
6.308,-0.020780428939711527
6.312,-0.020779515399080364
6.316,-0.020779731763966695
6.32,-0.020781294399256835
6.324,-0.02078117419654221
6.328,-0.020780212574825197
6.332,-0.02077843357464873
6.336,-0.020777183466416615
6.34,-0.020777592155646344
6.344,-0.020778409534105802
6.348,-0.020779876007224245
6.352,-0.020781053993827583
6.356,-0.02078167904794364
6.36,-0.020782376223688472
6.364,-0.020784083102236166
6.368,-0.020786078467298963
6.372,-0.020787761305303732
6.376,-0.02078889121082122
6.38,-0.02079009323796748
6.384,-0.020789155656793398
6.388,-0.020789516264937274
6.392,-0.020791535670542996
6.396,-0.020793915684292598
6.4,-0.02079547831958274
6.404,-0.02079547831958274
6.408,-0.020795646603383216
6.412,-0.02079603125207002
6.416,-0.020794108008636
6.42,-0.02079228092737368
6.424,-0.02079208860303028
6.428,-0.020793170427461916
6.432,-0.020793651238320422
6.436,-0.02079396376537845
6.44,-0.020794829224923757
6.444,-0.020795261954696415
6.448,-0.020794829224923757
6.452,-0.02079295406257559
6.456,-0.020790838494798163
6.46,-0.02078903545407877
6.464,-0.020787641102589106
6.468,-0.02078675160250087
6.472,-0.020784660075266373
6.476,-0.020782905115632827
6.48,-0.020784299467122493
6.484,-0.020787280494445226
6.488,-0.02078867484593489
6.492,-0.02078889121082122
6.496,-0.02079076637316939
6.5,-0.020792978103118514
6.5040000000000004,-0.020793531035605793
6.508,-0.02079360315723457
6.5120000000000005,-0.02079259345443171
6.516,-0.020791800116515175
6.5200000000000005,-0.020790958697512792
6.524,-0.02078994899470993
6.5280000000000005,-0.020788963332449995
6.532,-0.020788506562134414
6.5360000000000005,-0.0207896364676519
6.54,-0.020790525967740135
6.5440000000000005,-0.02079040576502551
6.548,-0.02078999707579578
6.5520000000000005,-0.02078985283253823
6.556,-0.020789660508194828
6.5600000000000005,-0.020789155656793398
6.564,-0.020789612427108976
6.5680000000000005,-0.02078848252159149
6.572,-0.020787184332273525
6.5760000000000005,-0.020785501494268756
6.58,-0.020784708156352222
6.5840000000000005,-0.020785501494268756
6.588,-0.02078562169698338
6.5920000000000005,-0.020785501494268756
6.596,-0.020785910183498485
6.6000000000000005,-0.02078564573752631
6.604,-0.020785068764496102
6.6080000000000005,-0.0207848764401527
6.612,-0.020784155223864943
6.6160000000000005,-0.020782832994004054
6.62,-0.020781078034370508
6.6240000000000006,-0.02077934711527989
6.628,-0.02077898650713601
6.632000000000001,-0.02077874610170676
6.636,-0.020778097007047774
6.640000000000001,-0.020776967101530285
6.644,-0.02077607760144205
6.648000000000001,-0.02077480345266701
6.652,-0.020774082236379252
6.656000000000001,-0.02077256768217496
6.66,-0.020771509898286248
6.664,-0.02077059635765509
6.668,-0.020769658776481004
6.672,-0.020768793316935694
6.676,-0.020769298168337124
6.68,-0.02076891351965032
6.684,-0.020767374924903104
6.688,-0.02076530743821153
6.692,-0.020764610262466697
6.696,-0.020764682384095474
6.7,-0.02076449005975207
6.704,-0.020763865005636015
6.708,-0.020761749437858593
6.712,-0.020759754072795795
6.716,-0.020760908018856206
6.72,-0.020763119748805334
6.724,-0.020764562181380848
6.728,-0.020764826627353027
6.732,-0.02076465834355255
6.736,-0.020765042992239354
6.74,-0.02076653350590072
6.744,-0.020768528870963518
6.748,-0.02077045211439754
6.752,-0.0207715579793721
6.756,-0.020772856168690065
6.76,-0.020774106276922177
6.764,-0.020775043858096264
6.768,-0.020775356385154292
6.772,-0.02077526022298259
6.776,-0.020775476587868918
6.78,-0.020776774777186882
6.784,-0.020777375790760017
6.788,-0.020777159425873687
6.792,-0.02077684689881566
6.796,-0.02077732770967417
6.8,-0.020779202872022336
6.804,-0.020780837628941257
6.808,-0.020781342480342687
6.812,-0.020781078034370508
6.816,-0.020779371155822814
6.82,-0.020777784479989746
6.824,-0.02077672669610103
6.828,-0.020776702655558105
6.832,-0.020776534371757627
6.836,-0.020775115979725037
6.84,-0.02077540446624014
6.844,-0.020775933358184496
6.848,-0.020777063263701986
6.852,-0.020777856601618523
6.856,-0.020779323074736965
6.86,-0.020781390561428536
6.864,-0.020781655007400715
6.868,-0.020780428939711527
6.872,-0.020779611561252066
6.876,-0.02077797680433315
6.88,-0.020774779412124085
6.884,-0.020773457182263196
6.888,-0.020774106276922177
6.892,-0.020774370722894356
6.896,-0.02077429860126558
6.9,-0.02077425052017973
6.904,-0.020774971736467487
6.908,-0.02077576507438402
6.912,-0.020775115979725037
6.916,-0.020774947695924563
6.92,-0.02077557275004062
6.924,-0.020775861236555723
6.928,-0.02077581315546987
6.932,-0.02077581315546987
6.936,-0.020776101641984974
6.94,-0.02077658245284348
6.944,-0.02077672669610103
6.948,-0.020776197804156675
6.952,-0.020776390128500077
6.956,-0.020776390128500077
6.96,-0.020777015182616133
6.964,-0.020777784479989746
6.968,-0.02077884226387846
6.972,-0.020779539439623292
6.976,-0.020779827926138396
6.98,-0.02078158288577194
6.984,-0.020782256020973847
6.988,-0.020780981872198807
6.992,-0.02077874610170676
6.996,-0.020776053560899125
7.0,-0.020774322641808503
7.0040000000000004,-0.020774875574295786
7.008,-0.02077576507438402
7.0120000000000005,-0.020777544074560495
7.016,-0.02077934711527989
7.0200000000000005,-0.02078009237211057
7.024,-0.02078086166948418
7.0280000000000005,-0.020781751169572416
7.032,-0.020780380858625675
7.0360000000000005,-0.02078016449373935
7.04,-0.020780212574825197
7.0440000000000005,-0.020780188534282273
7.048,-0.020779467317994516
7.0520000000000005,-0.02077843357464873
7.056,-0.0207779287232473
7.0600000000000005,-0.020777015182616133
7.064,-0.020776414169043002
7.0680000000000005,-0.02077648629067178
7.072,-0.020776245885242527
7.0760000000000005,-0.02077684689881566
7.08,-0.02077893842605016
7.0840000000000005,-0.020780020250481795
7.088,-0.02078100591274173
7.0920000000000005,-0.020782015615544592
7.096,-0.020783313804862556
7.1000000000000005,-0.02078369845354936
7.104,-0.020784708156352222
7.1080000000000005,-0.020785862102412636
7.112,-0.020786222710556513
7.1160000000000005,-0.02078665544032917
7.12,-0.02078756898096033
7.1240000000000006,-0.02078872292702074
7.128,-0.0207893479811368
7.132000000000001,-0.020789372021679724
7.136,-0.020789275859508023
7.140000000000001,-0.020789011413535844
7.144,-0.020789299900050948
7.148000000000001,-0.02078958838656605
7.152,-0.020789155656793398
7.156000000000001,-0.02078821807561931
7.16,-0.02078761706204618
7.164000000000001,-0.02078747281878863
7.168,-0.0207871602917306
7.172,-0.02078679968358672
7.176,-0.020786463115985768
7.18,-0.020787232413359374
7.184,-0.020788266156705162
7.188,-0.020787833426932505
7.192,-0.020785958264584337
7.196,-0.020782857034546978
7.2,-0.020780957831655882
7.204,-0.020779972169395946
7.208,-0.02077934711527989
7.212,-0.020779419236908663
7.216,-0.020778097007047774
7.22,-0.02077526022298259
7.224,-0.02077321677683394
7.228,-0.020773505263349045
7.232,-0.020775452547325993
7.236,-0.020777640236732196
7.24,-0.020779611561252066
7.244,-0.020781294399256835
7.248,-0.020780236615368125
7.252,-0.020779226912565264
7.256,-0.02077797680433315
7.26,-0.02077489961483871
7.264,-0.020772279195659858
7.268,-0.02077201474968768
7.272,-0.020773505263349045
7.276,-0.020775356385154292
7.28,-0.020776510331214703
7.284,-0.020777279628588316
7.288,-0.020778625898992133
7.292,-0.020778457615191655
7.296,-0.020778698020620906
7.3,-0.020779130750393563
7.304,-0.020778385493562878
7.308,-0.020778649939535057
7.312,-0.02078026065591105
7.316,-0.020781342480342687
7.32,-0.02078218389934507
7.324,-0.020782231980430922
7.328,-0.02078167904794364
7.332,-0.020780549142426153
7.336,-0.020780188534282273
7.34,-0.020780284696453974
7.344,-0.02077985196668132
7.348,-0.02077949135853744
7.352,-0.020779178831479412
7.356,-0.02077843357464873
7.36,-0.0207779287232473
7.364,-0.02077771235836097
7.368,-0.02077761619618927
7.372,-0.02077742387184587
7.376,-0.020775837196012798
7.38,-0.020773168695748093
7.384,-0.020771918587515977
7.388,-0.020771437776657475
7.392,-0.020770259790054136
7.396,-0.020770163627882435
7.4,-0.020769442411594678
7.404,-0.020768312506077188
7.408,-0.020766365222100243
7.412,-0.020765283397668605
7.416,-0.02076552380309786
7.42,-0.020765595924726633
7.424,-0.020764946830067653
7.428,-0.02076374480292139
7.432,-0.020762999546090705
7.436,-0.02076333611369166
7.44,-0.0207648025868101
7.444,-0.02076566804635541
7.448,-0.020765884411241737
7.452,-0.02076516319495398
7.456,-0.02076530743821153
7.46,-0.020765788249070036
7.464,-0.02076516319495398
7.468,-0.020764466019209147
7.472,-0.02076434581649452
7.476,-0.020764009248893565
7.48,-0.020763624600206764
7.484,-0.020762254289260023
7.488,-0.020761484991886413
7.492,-0.020761509032429338
7.496,-0.020761244586457162
7.5,-0.02076110034319961
7.5040000000000004,-0.02076146095134349
7.508,-0.020762398532517573
7.5120000000000005,-0.020762807221747302
7.516,-0.02076273510011853
7.5200000000000005,-0.020763552478577987
7.524,-0.020764273694865745
7.5280000000000005,-0.020763432275863362
7.532,-0.020762158127088322
7.5360000000000005,-0.020761244586457162
7.54,-0.02076119650537131
7.5440000000000005,-0.02076179751894444
7.548,-0.020761509032429338
7.5520000000000005,-0.020760018518767975
7.556,-0.02075903285650804
7.5600000000000005,-0.020759321343023142
7.564,-0.020757253856331568
7.5680000000000005,-0.020755210410182922
7.572,-0.020755282531811695
7.5760000000000005,-0.020756388396786257
7.58,-0.020756821126558914
7.5840000000000005,-0.020757782748275923
7.588,-0.020757975072619325
7.5920000000000005,-0.020758023153705178
7.596,-0.02075653264004381
7.6000000000000005,-0.020754537274981014
7.604,-0.020752686153175767
7.6080000000000005,-0.02075232554503189
7.612,-0.02075292655860502
7.6160000000000005,-0.020753287166748898
7.62,-0.020752902518062097
7.6240000000000006,-0.02075297463969087
7.628,-0.020753022720776722
7.632000000000001,-0.02075297463969087
7.636,-0.020751940896345085
7.640000000000001,-0.020748527139249698
7.644,-0.020746050963328395
7.648000000000001,-0.020746603895815677
7.652,-0.02074593076061377
7.656000000000001,-0.02074484893618213
7.66,-0.020743767111750494
7.664000000000001,-0.020742805490033486
7.668,-0.02074309397654859
7.672000000000001,-0.02074278144949056
7.676,-0.020742348719717904
7.68,-0.020742132354831577
7.684,-0.020741747706144772
7.688,-0.02074100244931409
7.692,-0.020740521638455585
7.696,-0.02074049759791266
7.7,-0.02074131497637212
7.704,-0.02074297377383396
7.708,-0.02074347862523539
7.712,-0.020744079638808522
7.716,-0.02074419984152315
7.72,-0.02074319013872029
7.724,-0.020742108314288653
7.728,-0.020742709327861784
7.732,-0.02074333438197784
7.736,-0.020743550746864167
7.74,-0.020740858206056537
7.744,-0.020739752341081975
7.748,-0.020741122652028716
7.752,-0.020742300638632055
7.756,-0.020743382463063693
7.76,-0.020744127719894374
7.764,-0.020744632571295805
7.768,-0.02074542590921234
7.772,-0.020745401868669414
7.776,-0.020745449949755263
7.78,-0.020746363490386423
7.784,-0.020746002882242546
7.788,-0.02074511338215431
7.792,-0.02074451236858118
7.796,-0.02074237276026083
7.8,-0.020741435179086744
7.804,-0.020741747706144772
7.808,-0.020742613165690083
7.812,-0.020744728733467506
7.816,-0.020747252990474658
7.82,-0.020747926125676566
7.824,-0.02074730107156051
7.828,-0.020747613598618538
7.832,-0.020747469355360985
7.836,-0.02074593076061377
7.84,-0.020744223882066076
7.844,-0.020742757408947633
7.848,-0.020742637206233008
7.852,-0.02074258912514716
7.856,-0.020741339016915043
7.86,-0.020740209111397557
7.864,-0.020740521638455585
7.868,-0.020740185070854632
7.872,-0.020739463854566872
7.876,-0.02073862243556449
7.88,-0.020738382030135238
7.884,-0.020738021421991357
7.888,-0.020738141624705983
7.892,-0.020737660813847477
7.896,-0.020738141624705983
7.9,-0.020740473557369733
7.904,-0.020742997814376888
7.908,-0.02074492105781091
7.912,-0.020745233584868936
7.916,-0.02074557015246989
7.92,-0.020746748139073228
7.924,-0.02074667601744445
7.928,-0.02074770976079024
7.932,-0.020748166531105817
7.936,-0.02074912815282283
7.94,-0.02074876754467895
7.944,-0.020748166531105817
7.948,-0.02074912815282283
7.952,-0.020749560882595483
7.956,-0.02074936855825208
7.96,-0.02074912815282283
7.964,-0.020748983909565276
7.968,-0.02074876754467895
7.972,-0.02074876754467895
7.976,-0.020748791585221877
7.98,-0.020747012585045407
7.984,-0.02074460853075288
7.988,-0.020743118017091514
7.992,-0.02074256508460423
7.996,-0.02074191598994525
8.0,-0.020740209111397557
8.004,-0.02073835798959231
8.008000000000001,-0.02073898304370837
8.012,-0.020741074570942864
8.016,-0.02074222851700328
8.02,-0.020744872976725056
8.024000000000001,-0.020747012585045407
8.028,-0.020747733801333164
8.032,-0.020748551179792622
8.036,-0.020749657044767184
8.040000000000001,-0.020751099477342702
8.044,-0.020752301504488965
8.048,-0.020753407369463527
8.052,-0.020754777680410265
8.056000000000001,-0.020754537274981014
8.06,-0.020753864139779105
8.064,-0.020753623734349854
8.068,-0.020753046761319647
8.072000000000001,-0.020751772612544607
8.076,-0.02075242170720359
8.08,-0.020753936261407882
8.084,-0.02075465747769564
8.088000000000001,-0.02075429686955176
8.092,-0.020752301504488965
8.096,-0.020751243720600252
8.1,-0.020751604328744132
8.104000000000001,-0.020751772612544607
8.108,-0.020752397666660666
8.112,-0.020752301504488965
8.116,-0.020752205342317264
8.120000000000001,-0.020752782315347468
8.124,-0.020751940896345085
8.128,-0.02075237362611774
8.132,-0.020752493828832364
8.136000000000001,-0.020751027355713925
8.14,-0.020748527139249698
8.144,-0.020748142490562893
8.148,-0.020748839666307726
8.152000000000001,-0.020749753206938885
8.156,-0.020749969571825212
8.16,-0.020749248355537455
8.164,-0.02074826269327752
8.168000000000001,-0.020747565517532686
8.172,-0.020747565517532686
8.176,-0.020748046328391192
8.18,-0.02074811845001997
8.184000000000001,-0.020748575220335547
8.188,-0.02075040230159787
8.192,-0.020751724531458758
8.196,-0.020751532207115356
8.2,-0.020752181301774336
8.204,-0.020752806355890396
8.208,-0.02075283039643332
8.212,-0.020752205342317264
8.216,-0.02075155624765828
8.22,-0.02075307080186257
8.224,-0.02075561909941265
8.228,-0.020757157694159867
8.232,-0.020757013450902317
8.236,-0.020757470221217895
8.24,-0.02075754234284667
8.244,-0.020757229815788644
8.248,-0.020758239518591504
8.252,-0.020757470221217895
8.256,-0.0207555710183268
8.26,-0.02075451323443809
8.264,-0.02075415262629421
8.268,-0.02075410454520836
8.272,-0.02075410454520836
8.276,-0.020753816058693256
8.28,-0.020755138288554145
8.284,-0.020757253856331568
8.288,-0.020758744369992935
8.292,-0.020759465586280692
8.296,-0.020760258924197226
8.3,-0.020761076302656684
8.304,-0.02076179751894444
8.308,-0.020761677316229816
8.312,-0.02076170135677274
8.316,-0.020762182167631246
8.32,-0.020762013883830772
8.324,-0.020760667613426955
8.328,-0.020759994478225047
8.332,-0.020761172464828385
8.336,-0.020763528438035063
8.34,-0.020765980573413438
8.344,-0.020768072100647936
8.348,-0.020768312506077188
8.352,-0.02076799997901916
8.356,-0.020767831695218685
8.36,-0.020767230681645554
8.364,-0.02076612481667099
8.368,-0.020765595924726633
8.372,-0.020766004613956363
8.376,-0.020765115113868127
8.38,-0.020764538140837924
8.384,-0.020763913086721864
8.388,-0.02076247065414635
8.392,-0.020761388829714712
8.396,-0.020760859937770357
8.4,-0.02076095609994206
8.404,-0.02076196580274492
8.408,-0.0207624225730605
8.412,-0.02076170135677274
8.416,-0.02076059549179818
8.42,-0.02076078781614158
8.424,-0.020759465586280692
8.428,-0.020758744369992935
8.432,-0.02075850396456368
8.436,-0.020758383761849054
8.44,-0.02075754234284667
8.444,-0.020757253856331568
8.448,-0.02075759042393252
8.452,-0.02075761446447545
8.456,-0.02075912901867974
8.46,-0.02076196580274492
8.464,-0.020763263992062884
8.468,-0.02076292742446193
8.472,-0.020763552478577987
8.476,-0.020764514100294996
8.48,-0.02076607673558514
8.484,-0.02076735088436018
8.488,-0.020768576952049367
8.492,-0.02076963473593808
8.496,-0.020769803019738554
8.5,-0.020769995344081957
8.504,-0.02077023574951121
8.508000000000001,-0.020770307871139985
8.512,-0.020770331911682913
8.516,-0.020769298168337124
8.52,-0.020768673114221068
8.524000000000001,-0.020768817357478618
8.528,-0.020767230681645554
8.532,-0.02076566804635541
8.536,-0.020766196938299765
8.540000000000001,-0.020766894114044598
8.544,-0.020766701789701195
8.548,-0.020767230681645554
8.552,-0.02076744704653188
8.556000000000001,-0.02076744704653188
8.56,-0.020768336546620116
8.564,-0.02076912988453665
8.568,-0.020768288465534263
8.572000000000001,-0.020767471087074805
8.576,-0.02076840866824889
8.58,-0.020768793316935694
8.584,-0.020768432708791817
8.588000000000001,-0.020767423005988956
8.592,-0.020765692086898335
8.596,-0.020764321775951597
8.6,-0.020763095708262406
8.604000000000001,-0.020763288032605808
8.608,-0.020763119748805334
8.612,-0.020763047627176557
8.616,-0.020763672681292613
8.620000000000001,-0.02076415349215112
8.624,-0.02076429773540867
8.628,-0.020763432275863362
8.632,-0.020762302370345872
8.636000000000001,-0.02076338419477751
8.64,-0.020764970870610577
8.644,-0.020764081370522342
8.648,-0.020762951465004856
8.652000000000001,-0.0207623264108888
8.656,-0.020761268627000087
8.66,-0.020761629235143967
8.664,-0.02076247065414635
8.668000000000001,-0.020762182167631246
8.672,-0.020762278329802947
8.676,-0.02076220620817417
8.68,-0.020761220545914238
8.684000000000001,-0.020759417505194843
8.688,-0.02075881649162171
8.692,-0.02075850396456368
8.696,-0.020757470221217895
8.700000000000001,-0.020755354653440472
8.704,-0.020753407369463527
8.708,-0.020752493828832364
8.712,-0.020752806355890396
8.716,-0.020754585356066863
8.72,-0.020755282531811695
8.724,-0.02075424878846591
8.728,-0.020754465153352237
8.732,-0.020754681518238564
8.736,-0.02075398434249373
8.74,-0.020754441112809312
8.744,-0.02075460939660979
8.748,-0.020754633437152715
8.752,-0.02075424878846591
8.756,-0.02075333524783475
8.76,-0.020753359288377675
8.764,-0.020753816058693256
8.768,-0.020755330612897548
8.772,-0.020755835464298978
8.776,-0.020755883545384827
8.78,-0.020756292234614556
8.784,-0.020757229815788644
8.788,-0.020757830829361775
8.792,-0.02075845588347783
8.796,-0.02075927326193729
8.8,-0.02075987427551042
8.804,-0.020760451248540628
8.808,-0.02075968195116702
8.812,-0.02075881649162171
8.816,-0.02075761446447545
8.82,-0.02075617203189993
8.824,-0.020757253856331568
8.828,-0.020757133653616942
8.832,-0.020755042126382444
8.836,-0.020753359288377675
8.84,-0.020751604328744132
8.844,-0.020749560882595483
8.848,-0.020748166531105817
8.852,-0.020745690355184518
8.856,-0.020742252557546203
8.86,-0.020742949733291036
8.864,-0.020747661679704387
8.868,-0.020752902518062097
8.872,-0.020755450815612173
8.876,-0.020756724964387213
8.88,-0.02075754234284667
8.884,-0.020758479924020756
8.888,-0.020759201140308513
8.892,-0.020759705991709943
8.896,-0.020760090640396748
8.9,-0.02075881649162171
8.904,-0.020758047194248102
8.908,-0.02075771062664715
8.912,-0.020755859504841902
8.916,-0.020753719896521555
8.92,-0.020751724531458758
8.924,-0.02075013785562569
8.928,-0.020749608963681335
8.932,-0.02074977724748181
8.936,-0.02075064270702712
8.94,-0.02075141200440073
8.944,-0.020751892815259233
8.948,-0.020753046761319647
8.952,-0.020752662112632842
8.956,-0.020752253423403113
8.96,-0.020752541909918217
8.964,-0.020752301504488965
8.968,-0.02075201301797386
8.972,-0.020751844734173384
8.976,-0.02075246978828944
8.98,-0.02075287847751917
8.984,-0.020751796653087535
8.988,-0.020750859071913447
8.992,-0.02075004169345399
8.996,-0.02074876754467895
9.0,-0.02074912815282283
9.004,-0.02075069078811297
9.008000000000001,-0.02075182069363046
9.012,-0.020751724531458758
9.016,-0.020751243720600252
9.02,-0.020750762909741746
9.024000000000001,-0.020749969571825212
9.028,-0.020748551179792622
9.032,-0.02074718086884588
9.036,-0.020745714395727442
9.040000000000001,-0.02074419984152315
9.044,-0.020742757408947633
9.048,-0.020740689922256063
9.052,-0.02073821374633476
9.056000000000001,-0.020735352921726652
9.06,-0.020734559583810118
9.064,-0.020733814326979436
9.068,-0.020732852705262424
9.072000000000001,-0.020733453718835556
9.076,-0.02073506443521155
9.08,-0.020736098178557337
9.084,-0.02073626646235781
9.088000000000001,-0.020736458786701214
9.092,-0.020736146259643186
9.096,-0.020736194340729038
9.1,-0.020737588692218704
9.104000000000001,-0.020738646476107413
9.108,-0.020739199408594696
9.112,-0.020737636773304553
9.116,-0.02073528080009788
9.120000000000001,-0.020735545246070054
9.124,-0.020737588692218704
9.128,-0.020738430111221087
9.132,-0.020737781016562106
9.136000000000001,-0.02073703575973142
9.14,-0.020736458786701214
9.144,-0.020736819394845094
9.148,-0.020736578989415843
9.152000000000001,-0.020735809692042233
9.156,-0.020734896151411074
9.16,-0.0207351125162974
9.164,-0.020736506867787066
9.168000000000001,-0.020738838800450816
9.172,-0.020740617800627286
9.176,-0.02074131497637212
9.18,-0.020740834165513613
9.184000000000001,-0.020739824462710752
9.188,-0.02073871859773619
9.192,-0.02073811758416306
9.196,-0.020736651111044616
9.200000000000001,-0.02073588181367101
9.204,-0.020736218381271963
9.208,-0.02073578565149931
9.212,-0.02073496827303985
9.216000000000001,-0.020733790286436512
9.22,-0.020732804624176576
9.224,-0.020732612299833173
9.228,-0.0207328286647195
9.232,-0.020733549881007257
9.236,-0.020732660380919022
9.24,-0.020730304407712348
9.244,-0.020728405204821252
9.248,-0.020728765812965132
9.252,-0.02072963127251044
9.256,-0.020729703394139216
9.26,-0.020729679353596292
9.264,-0.020729847637396766
9.268,-0.020730857340199627
9.272,-0.020729871677939694
9.276,-0.020728645610250503
9.28,-0.020727251258760838
9.284,-0.02072780419124812
9.288,-0.020728429245364176
9.292,-0.02072744358310424
9.296,-0.020725736704556547
9.3,-0.020723813461122526
9.304,-0.020721842136602654
9.308,-0.020720183339140812
9.312,-0.020719606366110605
9.316,-0.020720279501312514
9.32,-0.020720880514885645
9.324,-0.02072136132574415
9.328,-0.020723789420579602
9.332,-0.020725568420756072
9.336,-0.02072602519107165
9.34,-0.020727275299303766
9.344,-0.02072756378581887
9.348,-0.020727924393962746
9.352,-0.020728934096765607
9.356,-0.020730015921197244
9.36,-0.020731241988886432
9.364,-0.020732492097118548
9.368,-0.020733934529694062
9.372,-0.02073669919213047
9.376,-0.020738189705791835
9.38,-0.020738550313935712
9.384,-0.020738069503077206
9.388,-0.020737877178733807
9.392,-0.020738502232849863
9.396,-0.020739151327508844
9.4,-0.020739439814023947
9.404,-0.020737756976019178
9.408,-0.02073566544878468
9.412,-0.020737155962446047
9.416,-0.020740064868140003
9.42,-0.020741843868316474
9.424,-0.0207421563953745
9.428,-0.020741675584515996
9.432,-0.020740834165513613
9.436,-0.02074023315194048
9.44,-0.020739944665425378
9.444,-0.020739247489680545
9.448,-0.020737781016562106
9.452,-0.02073744444896115
9.456,-0.020738189705791835
9.46,-0.02073862243556449
9.464,-0.020739415773481023
9.468,-0.020739704259996126
9.472,-0.020740016787054154
9.476,-0.020741122652028716
9.48,-0.020742396800803756
9.484,-0.02074319013872029
9.488,-0.020743550746864167
9.492,-0.02074359882795002
9.496,-0.02074350266577832
9.5,-0.020744247922609
9.504,-0.02074319013872029
9.508000000000001,-0.020742757408947633
9.512,-0.02074343054414954
9.516,-0.020744320044237777
9.52,-0.020743622868492944
9.524000000000001,-0.020741483260172597
9.528,-0.020739103246422995
9.532,-0.02073835798959231
9.536,-0.020739944665425378
9.540000000000001,-0.020741603462887222
9.544,-0.020740834165513613
9.548,-0.020738646476107413
9.552,-0.020737420408418226
9.556000000000001,-0.02073780505710503
9.56,-0.02073895900316544
9.564,-0.020740016787054154
9.568,-0.020740617800627286
9.572000000000001,-0.020740978408771166
9.576,-0.02074040143574096
9.58,-0.02073936769239517
9.584,-0.020737901219276732
9.588000000000001,-0.020737131921903122
9.592,-0.020737059800274345
9.596,-0.020736002016385636
9.6,-0.020735497164984205
9.604000000000001,-0.02073484807032522
9.608,-0.020734679786524747
9.612,-0.02073537696226958
9.616,-0.020736194340729038
9.620000000000001,-0.020736314543443664
9.624,-0.02073451150272427
9.628,-0.020732660380919022
9.632,-0.02073333351612093
9.636000000000001,-0.020735040394668624
9.64,-0.020735328881183727
9.644,-0.02073506443521155
9.648,-0.020736074138014413
9.652000000000001,-0.02073830990850646
9.656,-0.020738285867963537
9.66,-0.020736867475930943
9.664,-0.020737829097647955
9.668000000000001,-0.020738430111221087
9.672,-0.020738189705791835
9.676,-0.020738934962622517
9.68,-0.0207395840572815
9.684000000000001,-0.020739824462710752
9.688,-0.020740762043884836
9.692,-0.02074155538180137
9.696,-0.02074165154397307
9.700000000000001,-0.02074150730071552
9.704,-0.020741531341258446
9.708,-0.02074268528731886
9.712,-0.02074343054414954
9.716000000000001,-0.02074297377383396
9.72,-0.020742276598089127
9.724,-0.02074232467917498
9.728,-0.02074246892243253
9.732,-0.02074201215211695
9.736,-0.020741290935829194
9.74,-0.020740112949225856
9.744,-0.02073797334090551
9.748,-0.020736747273216317
9.752,-0.02073643474615829
9.756,-0.02073537696226958
9.76,-0.020734054732408688
9.764,-0.020734319178380867
9.768,-0.02073576161095638
9.772,-0.02073881475990789
9.776,-0.02074287761166226
9.78,-0.020745714395727442
9.784,-0.020747012585045407
9.788,-0.020746243287671797
9.792,-0.02074607500387132
9.796,-0.020746555814729825
9.8,-0.0207464356120152
9.804,-0.020746002882242546
9.808,-0.020746315409300574
9.812,-0.020745714395727442
9.816,-0.02074475277401043
9.82,-0.020744728733467506
9.824,-0.020744127719894374
9.828,-0.02074359882795002
9.832,-0.02074374307120757
9.836,-0.020743118017091514
9.84,-0.02074364690903587
9.844,-0.020745089341611386
9.848,-0.0207464356120152
9.852,-0.020745449949755263
9.856,-0.020745089341611386
9.86,-0.020747325112103435
9.864,-0.020747493395903913
9.868,-0.020747565517532686
9.872,-0.020748190571648745
9.876,-0.020748647341964323
9.88,-0.0207486233014214
9.884,-0.020748983909565276
9.888,-0.020748887747393575
9.892,-0.020749056031194053
9.896,-0.020748094409477044
9.9,-0.020745401868669414
9.904,-0.020743670949578793
9.908,-0.020742396800803756
9.912,-0.020740786084427764
9.916,-0.020739055165337143
9.92,-0.02073927153022347
9.924,-0.02074114669257164
9.928,-0.02074100244931409
9.932,-0.02074059376008436
9.936,-0.020740786084427764
9.94,-0.020740016787054154
9.944,-0.020739608097824425
9.948,-0.020739103246422995
9.952,-0.02073886284099374
9.956,-0.02073907920588007
9.96,-0.0207395840572815
9.964,-0.020738141624705983
9.968,-0.020736578989415843
9.972,-0.020737107881360198
9.976,-0.020737781016562106
9.98,-0.02073734828678945
9.984,-0.020736194340729038
9.988,-0.020734535543267194
9.992,-0.020734583624353046
9.996,-0.02073465574598182
10.0,-0.020732708462004874
10.004,-0.020730184204997722
10.008000000000001,-0.02072811671830615
10.012,-0.020727275299303766
10.016,-0.020728236921020774
10.02,-0.020728549448078802
10.024000000000001,-0.020729054299480233
10.028,-0.020729246623823635
10.032,-0.020729607231967515
10.036,-0.020730689056399153
10.040000000000001,-0.020731843002459564
10.044,-0.02073090542128548
10.048,-0.020729366826538264
10.052,-0.020728357123735403
10.056000000000001,-0.020727587826361794
10.06,-0.020727323380389615
10.064,-0.02072780419124812
10.068,-0.020728092677763224
10.072000000000001,-0.020727611866904718
10.076,-0.0207279724750486
10.08,-0.020728381164278328
10.084,-0.020729006218394384
10.088000000000001,-0.020728741772422205
10.092,-0.020729198542737786
10.096,-0.02072972743468214
10.1,-0.020729967840111396
10.104000000000001,-0.020731025624000105
10.108,-0.02073309311069168
10.112,-0.020732900786348277
10.116,-0.020731530475401536
10.120000000000001,-0.02073090542128548
10.124,-0.020730424610426974
10.128,-0.020730064002283097
10.132,-0.020730184204997722
10.136000000000001,-0.020729366826538264
10.14,-0.020728525407535878
10.144,-0.020728958137308535
10.148,-0.020729751475225065
10.152000000000001,-0.020730304407712348
10.156,-0.0207305448131416
10.16,-0.020730064002283097
10.164,-0.020729102380566085
10.168000000000001,-0.020728188839934925
10.172,-0.020726409839758455
10.176,-0.02072628963704383
10.18,-0.020728164799392
10.184000000000001,-0.020729006218394384
10.188,-0.020729102380566085
10.192,-0.020729150461651934
10.196,-0.02072989571848262
10.200000000000001,-0.020730929461828404
10.204,-0.020732251691689293
10.208,-0.020732492097118548
10.212,-0.020733069070148755
10.216000000000001,-0.020734944232496923
10.22,-0.02073506443521155
10.224,-0.020735232719012026
10.228,-0.020737228084074823
10.232000000000001,-0.020739704259996126
10.236,-0.020741603462887222
10.24,-0.0207421563953745
10.244,-0.020741627503430147
10.248,-0.020741699625058924
10.252,-0.02074100244931409
10.256,-0.020739752341081975
10.26,-0.02073886284099374
10.264,-0.02073785313819088
10.268,-0.020737636773304553
10.272,-0.020738069503077206
10.276,-0.020738069503077206
10.28,-0.020737829097647955
10.284,-0.020738670516650338
10.288,-0.020739463854566872
10.292,-0.020741627503430147
10.296,-0.02074383923337927
10.3,-0.02074506530106846
10.304,-0.020745498030841115
10.308,-0.020745137422697235
10.312,-0.020743526706321243
10.316,-0.020742276598089127
10.32,-0.020740978408771166
10.324,-0.020740112949225856
10.328,-0.020739199408594696
10.332,-0.0207395840572815
10.336,-0.0207398725437966
10.34,-0.020739752341081975
10.344,-0.0207395840572815
10.348,-0.020738742638279115
10.352,-0.02073927153022347
10.356,-0.020740786084427764
10.36,-0.020741699625058924
10.364,-0.020741988111574027
10.368,-0.02074155538180137
10.372,-0.020741675584515996
10.376,-0.02074268528731886
10.38,-0.02074357478740709
10.384,-0.020743622868492944
10.388,-0.020744271963151924
10.392,-0.020745498030841115
10.396,-0.020745329747040638
10.4,-0.020744127719894374
10.404,-0.020743791152293422
10.408,-0.02074383923337927
10.412,-0.020743911355008048
10.416,-0.020743526706321243
10.42,-0.02074287761166226
10.424,-0.020741771746687697
10.428,-0.020741026489857015
10.432,-0.02074114669257164
10.436,-0.020741026489857015
10.44,-0.0207395840572815
10.444,-0.020739560016738573
10.448,-0.020740425476283884
10.452,-0.020740786084427764
10.456,-0.020740112949225856
10.46,-0.02073862243556449
10.464,-0.020737516570589927
10.468,-0.02073754061113285
10.472,-0.02073871859773619
10.476,-0.02073907920588007
10.48,-0.020739055165337143
10.484,-0.020739295570766397
10.488,-0.02073931961130932
10.492,-0.020738790719364967
10.496,-0.020739776381624903
10.5,-0.020740425476283884
10.504,-0.02074105053039994
10.508000000000001,-0.02074090628714239
10.512,-0.020740209111397557
10.516,-0.02073999274651123
10.52,-0.020740377395198035
10.524000000000001,-0.02073999274651123
10.528,-0.020740112949225856
10.532,-0.02074013698976878
10.536,-0.020738934962622517
10.540000000000001,-0.020737011719188497
10.544,-0.020736002016385636
10.548,-0.020735809692042233
10.552,-0.020735352921726652
10.556000000000001,-0.020735184637926177
10.56,-0.020735328881183727
10.564,-0.02073578565149931
10.568,-0.020735545246070054
10.572000000000001,-0.02073424705675209
10.576,-0.020732131488974667
10.58,-0.02073181896191664
10.584,-0.02073333351612093
10.588000000000001,-0.02073542504335543
10.592,-0.020738598395021565
10.596,-0.020740930327685314
10.6,-0.02074191598994525
10.604000000000001,-0.020742204476460354
10.608,-0.020741771746687697
10.612,-0.020741627503430147
10.616,-0.020740930327685314
10.620000000000001,-0.02073907920588007
10.624,-0.02073830990850646
10.628,-0.020737420408418226
10.632,-0.020737011719188497
10.636000000000001,-0.020737155962446047
10.64,-0.02073602605692856
10.644,-0.02073465574598182
10.648,-0.020735304840640803
10.652000000000001,-0.020737011719188497
10.656,-0.02073862243556449
10.66,-0.020740425476283884
10.664,-0.020741483260172597
10.668000000000001,-0.020741242854743342
10.672,-0.020740665881713135
10.676,-0.020740185070854632
10.68,-0.0207394878951098
10.684000000000001,-0.020739199408594696
10.688,-0.02073862243556449
10.692,-0.020738069503077206
10.696,-0.020736867475930943
10.700000000000001,-0.020735953935299783
10.704,-0.020735401002812504
10.708,-0.02073506443521155
10.712,-0.020734054732408688
10.716000000000001,-0.020732948867434126
10.72,-0.020732107448431743
10.724,-0.020733453718835556
10.728,-0.020737372327332377
10.732000000000001,-0.020741795787230625
10.736,-0.020744440246952402
10.74,-0.020744416206409478
10.744,-0.02074319013872029
10.748000000000001,-0.020743310341434916
10.752,-0.020743454584692466
10.756,-0.020742517003518382
10.76,-0.020741891949402326
10.764,-0.020741290935829194
10.768,-0.020740209111397557
10.772,-0.020740353354655107
10.776,-0.020740305273569258
10.78,-0.020740112949225856
10.784,-0.020739199408594696
10.788,-0.02073744444896115
10.792,-0.02073643474615829
10.796,-0.02073470382706767
10.8,-0.020732251691689293
10.804,-0.020729847637396766
10.808,-0.02072931874545241
10.812,-0.020730881380742555
10.816,-0.020732972907977053
10.82,-0.020733549881007257
10.824,-0.02073364604317896
10.828,-0.020732804624176576
10.832,-0.020732804624176576
10.836,-0.020733862408065285
10.84,-0.020734896151411074
10.844,-0.02073496827303985
10.848,-0.020735304840640803
10.852,-0.02073638666507244
10.856,-0.02073643474615829
10.86,-0.020736146259643186
10.864,-0.020735905854213935
10.868,-0.02073561736769883
10.872,-0.020735569286612982
10.876,-0.02073537696226958
10.88,-0.02073436725946672
10.884,-0.020733261394492154
10.888,-0.020732444016032695
10.892,-0.020731482394315687
10.896,-0.020730208245540647
10.9,-0.020729943799568468
10.904,-0.020730112083368946
10.908,-0.020730713096942077
10.912,-0.020731987245717117
10.916,-0.020732299772775145
10.92,-0.0207329248268912
10.924,-0.020733718164807735
10.928,-0.020733862408065285
10.932,-0.020733670083721886
10.936,-0.020731891083545416
10.94,-0.02073114582671473
10.944,-0.020732251691689293
10.948,-0.02073167471865909
10.952,-0.020730064002283097
10.956,-0.020729655313053364
10.96,-0.02073023228608357
10.964,-0.020730280367169424
10.968,-0.020729799556310918
10.972,-0.020728958137308535
10.976,-0.02072729933984669
10.98,-0.020725448218041443
10.984,-0.020725328015326817
10.988,-0.02072436639360981
10.992,-0.020724414474695658
10.996,-0.02072527993424097
11.0,-0.020726457920844307
11.004,-0.020727491664190092
11.008000000000001,-0.020728693691336356
11.012,-0.020729342785995336
11.016,-0.020729342785995336
11.02,-0.020729823596853842
11.024000000000001,-0.020730256326626496
11.028,-0.02073126602942936
11.032,-0.020732347853860994
11.036,-0.02073278058363365
11.040000000000001,-0.020733069070148755
11.044,-0.02073359796209311
11.048,-0.02073434321892379
11.052,-0.020735208678469102
11.056000000000001,-0.02073552120552713
11.06,-0.02073578565149931
11.064,-0.020735593327155907
11.068,-0.020734078772951615
11.072000000000001,-0.020732972907977053
11.076,-0.0207328286647195
11.08,-0.020732660380919022
11.084,-0.020733213313406305
11.088000000000001,-0.02073436725946672
11.092,-0.02073612221910026
11.096,-0.020736771313759245
11.1,-0.02073588181367101
11.104000000000001,-0.020734944232496923
11.108,-0.020735088475754476
11.112,-0.020734487462181345
11.116,-0.020734223016209165
11.120000000000001,-0.020736578989415843
11.124,-0.02073931961130932
11.128,-0.02073895900316544
11.132,-0.02073835798959231
11.136000000000001,-0.020740257192483406
11.14,-0.020741627503430147
11.144,-0.020742396800803756
11.148,-0.02074292569274811
11.152000000000001,-0.020742757408947633
11.156,-0.02074273336840471
11.16,-0.020742637206233008
11.164,-0.020743118017091514
11.168000000000001,-0.020743045895462737
11.172,-0.02074273336840471
11.176,-0.020742204476460354
11.18,-0.020742204476460354
11.184000000000001,-0.020742492962975458
11.188,-0.020740834165513613
11.192,-0.020739824462710752
11.196,-0.02073927153022347
11.200000000000001,-0.02073912728696592
11.204,-0.02073999274651123
11.208,-0.020740521638455585
11.212,-0.02074008890868293
11.216000000000001,-0.02074059376008436
11.22,-0.020741627503430147
11.224,-0.020741795787230625
11.228,-0.020741339016915043
11.232000000000001,-0.020741170733114565
11.236,-0.020741339016915043
11.24,-0.020741795787230625
11.244,-0.020741074570942864
11.248000000000001,-0.02074145921962967
11.252,-0.02074131497637212
11.256,-0.020740473557369733
11.26,-0.020738550313935712
11.264,-0.020737636773304553
11.268,-0.0207393917329381
11.272,-0.020740762043884836
11.276,-0.02074155538180137
11.28,-0.020741435179086744
11.284,-0.020742709327861784
11.288,-0.02074369499012172
11.292,-0.020743983476636824
11.296,-0.020742757408947633
11.3,-0.020741699625058924
11.304,-0.020742901652205187
11.308,-0.02074501721998261
11.312,-0.020747132787760032
11.316,-0.020749416639337933
11.32,-0.020750931193542224
11.324,-0.020752205342317264
11.328,-0.020752686153175767
11.332,-0.020752205342317264
11.336,-0.02075232554503189
11.34,-0.020752301504488965
11.344,-0.020752085139602635
11.348,-0.020753575653264
11.352,-0.02075499404529659
11.356,-0.02075434495063761
11.36,-0.020753912220864958
11.364,-0.02075343141000645
11.368,-0.02075256595046114
11.372,-0.020750859071913447
11.376,-0.020748887747393575
11.38,-0.020748887747393575
11.384,-0.02074987340965351
11.388,-0.020750618666484196
11.392,-0.02074989745019644
11.396,-0.020747252990474658
11.4,-0.020745954801156694
11.404,-0.020745041260525534
11.408,-0.02074383923337927
11.412,-0.020744223882066076
11.416,-0.020744800855096283
11.42,-0.020745473990298188
11.424,-0.02074557015246989
11.428,-0.020745690355184518
11.432,-0.020744897017267984
11.436,-0.020744175800980223
11.44,-0.02074557015246989
11.444,-0.020745882679527917
11.448,-0.02074451236858118
11.452,-0.02074451236858118
11.456,-0.020745449949755263
11.46,-0.020745642274098666
11.464,-0.02074552207138404
11.468,-0.020745882679527917
11.472,-0.020746555814729825
11.476,-0.02074718086884588
11.48,-0.020747926125676566
11.484,-0.020747926125676566
11.488,-0.020746459652558124
11.492,-0.020747132787760032
11.496,-0.020748334814906295
11.5,-0.020748238652734594
11.504,-0.020747252990474658
11.508000000000001,-0.02074629136875765
11.512,-0.020745810557899143
11.516,-0.020745906720070845
11.52,-0.020745594193012817
11.524000000000001,-0.020744800855096283
11.528,-0.020744175800980223
11.532,-0.020744320044237777
11.536,-0.020746772179616152
11.540000000000001,-0.020749248355537455
11.544,-0.020751532207115356
11.548,-0.020755378693983396
11.552,-0.020759321343023142
11.556000000000001,-0.02076110034319961
11.56,-0.020761845600030294
11.564,-0.020761028221570835
11.568,-0.020761629235143967
11.572000000000001,-0.020762398532517573
11.576,-0.020762759140661453
11.58,-0.020763720762378465
11.584,-0.020765788249070036
11.588000000000001,-0.020766966235673374
11.592,-0.020766365222100243
11.596,-0.020764562181380848
11.6,-0.02076283126229023
11.604000000000001,-0.020763191870434107
11.608,-0.02076384096509309
11.612,-0.020763504397492135
11.616,-0.020764225613779896
11.620000000000001,-0.020764778546267175
11.624,-0.02076415349215112
11.628,-0.02076525935712568
11.632,-0.02076694219513045
11.636000000000001,-0.020768889479107395
11.64,-0.020769851100824407
11.644,-0.020769081803450797
11.648,-0.020766605627529494
11.652000000000001,-0.020764033289436493
11.656,-0.020762662978489752
11.66,-0.020761004181027908
11.664,-0.02075881649162171
11.668000000000001,-0.020757253856331568
11.672,-0.02075626819407163
11.676,-0.020755234450725846
11.68,-0.02075749426176082
11.684000000000001,-0.02076114842428546
11.688,-0.020764201573236968
11.692,-0.02076552380309786
11.696,-0.02076501895169643
11.700000000000001,-0.02076398520835064
11.704,-0.020763672681292613
11.708,-0.020762999546090705
11.712,-0.02076338419477751
11.716000000000001,-0.020763624600206764
11.72,-0.020764033289436493
11.724,-0.02076439389758037
11.728,-0.020764201573236968
11.732000000000001,-0.020764081370522342
11.736,-0.020764225613779896
11.74,-0.020764778546267175
11.744,-0.020765595924726633
11.748000000000001,-0.02076566804635541
11.752,-0.020764634303009625
11.756,-0.020763312073148733
11.76,-0.020762759140661453
11.764000000000001,-0.020761869640573218
11.768,-0.02076095609994206
11.772,-0.02076081185668451
11.776,-0.020760835897227433
11.78,-0.020759705991709943
11.784,-0.020759056897050963
11.788,-0.0207601387214826
11.792,-0.020760739735055732
11.796,-0.020761364789171788
11.8,-0.02076069165396988
11.804,-0.020759393464651915
11.808,-0.02075790295099055
11.812,-0.020756099910271154
11.816,-0.020754585356066863
11.82,-0.020754970004753667
11.824,-0.020755306572354623
11.828,-0.02075525849126877
11.832,-0.020755787383213126
11.836,-0.020755210410182922
11.84,-0.02075561909941265
11.844,-0.020756460518415034
11.848,-0.020756652842758436
11.852,-0.020756773045473062
11.856,-0.02075694132927354
11.86,-0.020756724964387213
11.864,-0.020755739302127277
11.868,-0.020753575653264
11.872,-0.02075206109905971
11.876,-0.020752133220688487
11.88,-0.020751484126029503
11.884,-0.02074977724748181
11.888,-0.020748286733820443
11.892,-0.0207464356120152
11.896,-0.020743863273922195
11.9,-0.020740786084427764
11.904,-0.020739944665425378
11.908,-0.020740834165513613
11.912,-0.02074040143574096
11.916,-0.020738550313935712
11.92,-0.02073826182742061
11.924,-0.02074023315194048
11.928,-0.020742709327861784
11.932,-0.020743382463063693
11.936,-0.02074319013872029
11.94,-0.020743358422520765
11.944,-0.020743142057634438
11.948,-0.020743791152293422
11.952,-0.02074383923337927
11.956,-0.020743959436093896
11.96,-0.020744800855096283
11.964,-0.020745185503783087
11.968,-0.020745810557899143
11.972,-0.02074657985527275
11.976,-0.02074694046341663
11.98,-0.020747469355360985
11.984,-0.02074734915264636
11.988,-0.0207464356120152
11.992,-0.020744824895639207
11.996,-0.020743911355008048
12.0,-0.020743262260349064
12.004,-0.02074232467917498
12.008000000000001,-0.0207420602332028
12.012,-0.020743118017091514
12.016,-0.020742853571119334
12.02,-0.02074090628714239
12.024000000000001,-0.020739031124794218
12.028,-0.020739776381624903
12.032,-0.020740473557369733
12.036,-0.02073821374633476
12.040000000000001,-0.02073754061113285
12.044,-0.020738406070678162
12.048,-0.020739031124794218
12.052,-0.020738742638279115
12.056000000000001,-0.02073886284099374
12.06,-0.020738910922079593
12.064,-0.02073845415176401
12.068,-0.020737829097647955
12.072000000000001,-0.020737564651675776
12.076,-0.020737564651675776
12.08,-0.020738237786877684
12.084,-0.020737829097647955
12.088000000000001,-0.020736915557016795
12.092,-0.020736146259643186
12.096,-0.02073528080009788
12.1,-0.02073528080009788
12.104000000000001,-0.020735184637926177
12.108,-0.02073578565149931
12.112,-0.020736819394845094
12.116,-0.020737781016562106
12.120000000000001,-0.02073907920588007
12.124,-0.020740713962798987
12.128,-0.02074232467917498
12.132,-0.02074208427374573
12.136000000000001,-0.02073922344913762
12.14,-0.020738430111221087
12.144,-0.02074064184117021
12.148,-0.020742709327861784
12.152000000000001,-0.020742204476460354
12.156,-0.020741387098000896
12.16,-0.020741266895286267
12.164,-0.02074165154397307
12.168000000000001,-0.020740882246599465
12.172,-0.020741387098000896
12.176,-0.02074268528731886
12.18,-0.02074359882795002
12.184000000000001,-0.02074333438197784
12.188,-0.02074273336840471
12.192,-0.020741603462887222
12.196,-0.020741242854743342
12.200000000000001,-0.02074090628714239
12.204,-0.020738069503077206
12.208,-0.020736482827244142
12.212,-0.020737588692218704
12.216000000000001,-0.02073835798959231
12.22,-0.02073907920588007
12.224,-0.020739031124794218
12.228,-0.020738646476107413
12.232000000000001,-0.020738742638279115
12.236,-0.020738838800450816
12.24,-0.020738550313935712
12.244,-0.020738382030135238
12.248000000000001,-0.020737660813847477
12.252,-0.020736554948872915
12.256,-0.020735497164984205
12.26,-0.0207350163541257
12.264000000000001,-0.0207351125162974
12.268,-0.02073669919213047
12.272,-0.020737901219276732
12.276,-0.0207373002057036
12.280000000000001,-0.020736651111044616
12.284,-0.02073734828678945
12.288,-0.02073785313819088
12.292,-0.020736747273216317
12.296,-0.020735641408241755
12.3,-0.020735136556840325
12.304,-0.02073487211086815
12.308,-0.02073460766489597
12.312,-0.020735833732585158
12.316,-0.020738430111221087
12.32,-0.020740425476283884
12.324,-0.020741603462887222
12.328,-0.020741122652028716
12.332,-0.02074049759791266
12.336,-0.02074008890868293
12.34,-0.02073972830053905
12.344,-0.020739415773481023
12.348,-0.020739439814023947
12.352,-0.020737925259819656
12.356,-0.02073679535430217
12.36,-0.020737083840817273
12.364,-0.020737660813847477
12.368,-0.02073871859773619
12.372,-0.020740521638455585
12.376,-0.020741699625058924
12.38,-0.020741363057457968
12.384,-0.02074073800334191
12.388,-0.020739439814023947
12.392,-0.020738237786877684
12.396,-0.020738333949049385
12.4,-0.020739415773481023
12.404,-0.02074090628714239
12.408,-0.02074165154397307
12.412,-0.020741747706144772
12.416,-0.020741627503430147
12.42,-0.02074040143574096
12.424,-0.02073895900316544
12.428,-0.020736458786701214
12.432,-0.020735809692042233
12.436,-0.020736627070501692
12.44,-0.02073669919213047
12.444,-0.02073547312444128
12.448,-0.020733573921550185
12.452,-0.020732131488974667
12.456,-0.020731530475401536
12.46,-0.020730424610426974
12.464,-0.020729655313053364
12.468,-0.020729847637396766
12.472,-0.02073076117802793
12.476,-0.020731530475401536
12.48,-0.020730833299656703
12.484,-0.02073023228608357
12.488,-0.020730689056399153
12.492,-0.020731386232143986
12.496,-0.020731290069972284
12.5,-0.02073145835377276
12.504,-0.020731602597030312
12.508000000000001,-0.020731530475401536
12.512,-0.020732035326802966
12.516,-0.020732972907977053
12.52,-0.020733670083721886
12.524000000000001,-0.02073268442146195
12.528,-0.020732636340376098
12.532,-0.02073561736769883
12.536,-0.020738285867963537
12.540000000000001,-0.020739824462710752
12.544,-0.020740185070854632
12.548,-0.020740161030311705
12.552,-0.020741122652028716
12.556000000000001,-0.020742348719717904
12.56,-0.020742709327861784
12.564,-0.02074256508460423
12.568,-0.020742252557546203
12.572000000000001,-0.02074268528731886
12.576,-0.02074328630089199
12.58,-0.020744464287495327
12.584,-0.020746099044414247
12.588000000000001,-0.020746555814729825
12.592,-0.020745642274098666
12.596,-0.02074319013872029
12.6,-0.020740425476283884
12.604000000000001,-0.020738886881536668
12.608,-0.020738021421991357
12.612,-0.020736675151587544
12.616,-0.020736218381271963
12.620000000000001,-0.020737324246246525
12.624,-0.020740978408771166
12.628,-0.020745353787583562
12.632,-0.02074775784187609
12.636000000000001,-0.020748503098706773
12.64,-0.020748479058163845
12.644,-0.020748791585221877
12.648,-0.02074775784187609
12.652000000000001,-0.02074552207138404
12.656,-0.02074492105781091
12.66,-0.020745858638984992
12.664,-0.020747373193189284
12.668000000000001,-0.02074826269327752
12.672,-0.020749560882595483
12.676,-0.02074927239608038
12.68,-0.020747781882419013
12.684000000000001,-0.02074667601744445
12.688,-0.020746916422873705
12.692,-0.020746820260702004
12.696,-0.020746555814729825
12.700000000000001,-0.020746243287671797
12.704,-0.02074552207138404
12.708,-0.020744969138896757
12.712,-0.020745353787583562
12.716000000000001,-0.020746627936358602
12.72,-0.02074720490938881
12.724,-0.020746050963328395
12.728,-0.020744969138896757
12.732000000000001,-0.020744464287495327
12.736,-0.020743142057634438
12.74,-0.02074150730071552
12.744,-0.020741242854743342
12.748000000000001,-0.02074095436822824
12.752,-0.020740617800627286
12.756,-0.020740834165513613
12.76,-0.02074059376008436
12.764000000000001,-0.020739511935652724
12.768,-0.020739463854566872
12.772,-0.020740112949225856
12.776,-0.02074004082759708
12.780000000000001,-0.02074004082759708
12.784,-0.020739031124794218
12.788,-0.020739151327508844
12.792,-0.02073927153022347
12.796000000000001,-0.020739199408594696
12.8,-0.02073886284099374
12.804,-0.020737877178733807
12.808,-0.020736963638102644
12.812,-0.02073689151647387
12.816,-0.02073830990850646
12.82,-0.020739511935652724
12.824,-0.020740786084427764
12.828,-0.02074268528731886
12.832,-0.020744127719894374
12.836,-0.020744680652381654
12.84,-0.020745089341611386
12.844,-0.0207441517604373
12.848,-0.020742637206233008
12.852,-0.0207421563953745
12.856,-0.02074218043591743
12.86,-0.02074222851700328
12.864,-0.020742108314288653
12.868,-0.020741603462887222
12.872,-0.020740978408771166
12.876,-0.020741026489857015
12.88,-0.020741026489857015
12.884,-0.02074100244931409
12.888,-0.020740473557369733
12.892,-0.020740882246599465
12.896,-0.0207421563953745
12.9,-0.020743262260349064
12.904,-0.020743767111750494
12.908,-0.02074328630089199
12.912,-0.02074287761166226
12.916,-0.020742949733291036
12.92,-0.020744320044237777
12.924,-0.020744993179439685
12.928,-0.020744440246952402
12.932,-0.02074347862523539
12.936,-0.02074273336840471
12.94,-0.020741483260172597
12.944,-0.02074013698976878
12.948,-0.0207398725437966
12.952,-0.020740257192483406
12.956,-0.020741627503430147
12.96,-0.02074347862523539
12.964,-0.020744368125323626
12.968,-0.020743791152293422
12.972,-0.020743550746864167
12.976,-0.020744296003694852
12.98,-0.020744031557722673
12.984,-0.02074343054414954
12.988,-0.02074319013872029
12.992,-0.02074359882795002
12.996,-0.020744728733467506
13.0,-0.020744897017267984
13.004,-0.020744320044237777
13.008000000000001,-0.020743791152293422
13.012,-0.02074364690903587
13.016,-0.02074328630089199
13.02,-0.020742444881889605
13.024000000000001,-0.020740689922256063
13.028,-0.020739848503253677
13.032,-0.020739511935652724
13.036,-0.020738550313935712
13.040000000000001,-0.020738646476107413
13.044,-0.020738406070678162
13.048,-0.02073770889493333
13.052,-0.0207373963678753
13.056000000000001,-0.020738165665248907
13.06,-0.02073999274651123
13.064,-0.020742204476460354
13.068,-0.020743791152293422
13.072000000000001,-0.02074511338215431
13.076,-0.02074684430124493
13.08,-0.02074730107156051
13.084,-0.02074679622015908
13.088000000000001,-0.020745882679527917
13.092,-0.020744680652381654
13.096,-0.0207441517604373
13.1,-0.020742949733291036
13.104000000000001,-0.020741723665601848
13.108,-0.02074114669257164
13.112,-0.020740834165513613
13.116,-0.020739608097824425
13.120000000000001,-0.02073835798959231
13.124,-0.02073898304370837
13.128,-0.020740281233026334
13.132,-0.02074131497637212
13.136000000000001,-0.020741675584515996
13.14,-0.020741627503430147
13.144,-0.02074141113854382
13.148,-0.020739463854566872
13.152000000000001,-0.020737276165160676
13.156,-0.020736819394845094
13.16,-0.020737781016562106
13.164,-0.02073862243556449
13.168000000000001,-0.020739199408594696
13.172,-0.020739752341081975
13.176,-0.02073953597619565
13.18,-0.020738021421991357
13.184000000000001,-0.020737612732761628
13.188,-0.02073780505710503
13.192,-0.020739007084251294
13.196,-0.020739463854566872
13.200000000000001,-0.020740353354655107
13.204,-0.020741242854743342
13.208,-0.020741723665601848
13.212,-0.02074232467917498
13.216000000000001,-0.02074400751717975
13.22,-0.020745233584868936
13.224,-0.020744536409124104
13.228,-0.02074343054414954
13.232000000000001,-0.02074359882795002
13.236,-0.020743815192836346
13.24,-0.020743767111750494
13.244,-0.02074246892243253
13.248000000000001,-0.02074054567899851
13.252,-0.020740064868140003
13.256,-0.020740353354655107
13.26,-0.020741266895286267
13.264000000000001,-0.02074306993600566
13.268,-0.020743887314465123
13.272,-0.020742997814376888
13.276,-0.020743166098177362
13.280000000000001,-0.020743406503606617
13.284,-0.020743911355008048
13.288,-0.020743526706321243
13.292,-0.02074364690903587
13.296000000000001,-0.020744680652381654
13.3,-0.020745834598442068
13.304,-0.020747156828302957
13.308,-0.02074775784187609
13.312000000000001,-0.020748046328391192
13.316,-0.020747974206762415
13.32,-0.020747493395903913
13.324,-0.020747228949931733
13.328,-0.02074667601744445
13.332,-0.020745209544326012
13.336,-0.020743887314465123
13.34,-0.020744271963151924
13.344,-0.020746988544502482
13.348,-0.020748286733820443
13.352,-0.020748503098706773
13.356,-0.02074845501762092
13.36,-0.020747926125676566
13.364,-0.0207464356120152
13.368,-0.02074383923337927
13.372,-0.02074258912514716
13.376,-0.0207419640710311
13.38,-0.020741122652028716
13.384,-0.020739944665425378
13.388,-0.020738045462534282
13.392,-0.020737228084074823
13.396,-0.020738045462534282
13.4,-0.020738838800450816
13.404,-0.020738838800450816
13.408,-0.02073862243556449
13.412,-0.02073907920588007
13.416,-0.020740353354655107
13.42,-0.02074191598994525
13.424,-0.020741675584515996
13.428,-0.020740786084427764
13.432,-0.02074081012497069
13.436,-0.02074222851700328
13.44,-0.020742901652205187
13.444,-0.020742757408947633
13.448,-0.02074232467917498
13.452,-0.02074181982777355
13.456,-0.020740762043884836
13.46,-0.020740449516826808
13.464,-0.02074208427374573
13.468,-0.020743310341434916
13.472,-0.020743911355008048
13.476,-0.020743670949578793
13.48,-0.02074400751717975
13.484,-0.02074511338215431
13.488,-0.020744560449667028
13.492,-0.020744488328038255
13.496,-0.020744632571295805
13.5,-0.020744872976725056
13.504,-0.020744680652381654
13.508000000000001,-0.020743719030664645
13.512,-0.020743550746864167
13.516,-0.020742348719717904
13.52,-0.02074095436822824
13.524000000000001,-0.020740569719541434
13.528,-0.0207398725437966
13.532,-0.02073794930036258
13.536,-0.020735136556840325
13.540000000000001,-0.020733934529694062
13.544,-0.020735304840640803
13.548,-0.020739463854566872
13.552,-0.020745714395727442
13.556000000000001,-0.020750883112456372
13.56,-0.020752782315347468
13.564,-0.02075297463969087
13.568,-0.02075323908566305
13.572000000000001,-0.020752902518062097
13.576,-0.02075256595046114
13.58,-0.020750666747570045
13.584,-0.020749320477166232
13.588000000000001,-0.02075028209888324
13.592,-0.02075146008548658
13.596,-0.02075237362611774
13.6,-0.020753191004577197
13.604000000000001,-0.020752638072089918
13.608,-0.02075155624765828
13.612,-0.020751099477342702
13.616,-0.0207512918016861
13.620000000000001,-0.02075095523408515
13.624,-0.020752037058516786
13.628,-0.020752445747746515
13.632,-0.02075165240982998
13.636000000000001,-0.020750931193542224
13.64,-0.020750762909741746
13.644,-0.020747589558075614
13.648,-0.020745954801156694
13.652000000000001,-0.020745089341611386
13.656,-0.020744175800980223
13.66,-0.020744897017267984
13.664,-0.02074511338215431
13.668000000000001,-0.020745401868669414
13.672,-0.020746411571472275
13.676,-0.020746964503959554
13.68,-0.020747373193189284
13.684000000000001,-0.02074754147698976
13.688,-0.020747325112103435
13.692,-0.020747517436446837
13.696,-0.020746459652558124
13.700000000000001,-0.020744632571295805
13.704,-0.020744031557722673
13.708,-0.02074460853075288
13.712,-0.020744488328038255
13.716000000000001,-0.020744632571295805
13.72,-0.020744320044237777
13.724,-0.02074383923337927
13.728,-0.020742492962975458
13.732000000000001,-0.02074054567899851
13.736,-0.020739055165337143
13.74,-0.02073821374633476
13.744,-0.020737324246246525
13.748000000000001,-0.02073612221910026
13.752,-0.020735136556840325
13.756,-0.020735497164984205
13.76,-0.020735545246070054
13.764000000000001,-0.020735953935299783
13.768,-0.020735833732585158
13.772,-0.020734439381095492
13.776,-0.020732804624176576
13.780000000000001,-0.020730304407712348
13.784,-0.02072866965079343
13.788,-0.02072821288047785
13.792,-0.02072684256953111
13.796000000000001,-0.020725640542384845
13.8,-0.020723885582751303
13.804,-0.02072323648809232
13.808,-0.020723765380036677
13.812000000000001,-0.020724174069266407
13.816,-0.020724294271981032
13.82,-0.02072386154220838
13.824,-0.020723212447549395
13.828,-0.020723789420579602
13.832,-0.020725808826185323
13.836,-0.0207279724750486
13.84,-0.020728910056222682
13.844,-0.02072912642110901
13.848,-0.020728741772422205
13.852,-0.020728693691336356
13.856,-0.020728765812965132
13.86,-0.020729703394139216
13.864,-0.020730929461828404
13.868,-0.02073181896191664
13.872,-0.020733020989062902
13.876,-0.02073400665132284
13.88,-0.02073528080009788
13.884,-0.020737324246246525
13.888,-0.020736915557016795
13.892,-0.020736482827244142
13.896,-0.020737732935476254
13.9,-0.020739031124794218
13.904,-0.02074054567899851
13.908,-0.02074155538180137
13.912,-0.020742853571119334
13.916,-0.02074383923337927
13.92,-0.02074465661183873
13.924,-0.020745281665954785
13.928,-0.020745449949755263
13.932,-0.020744680652381654
13.936,-0.02074323821980614
13.94,-0.02074181982777355
13.944,-0.02074023315194048
13.948,-0.020739103246422995
13.952,-0.02073895900316544
13.956,-0.020739608097824425
13.96,-0.02073881475990789
13.964,-0.020738430111221087
13.968,-0.020738910922079593
13.972,-0.02074023315194048
13.976,-0.02074008890868293
13.98,-0.020738598395021565
13.984,-0.020737877178733807
13.988,-0.02073876667882204
13.992,-0.0207398725437966
13.996,-0.020739800422167828
14.0,-0.020739968705968302
14.004,-0.02073953597619565
14.008000000000001,-0.020739415773481023
14.012,-0.02073927153022347
14.016,-0.02073953597619565
14.02,-0.02073999274651123
14.024000000000001,-0.020739656178910274
14.028,-0.020739031124794218
14.032,-0.020737997381448433
14.036,-0.020736747273216317
14.040000000000001,-0.020737228084074823
14.044,-0.02073797334090551
14.048,-0.02073871859773619
14.052,-0.02073907920588007
14.056000000000001,-0.02073898304370837
14.06,-0.02073907920588007
14.064,-0.020738502232849863
14.068,-0.020738646476107413
14.072000000000001,-0.02073862243556449
14.076,-0.02073871859773619
14.08,-0.020739247489680545
14.084,-0.020740161030311705
14.088000000000001,-0.02074131497637212
14.092,-0.020741843868316474
14.096,-0.020742613165690083
14.1,-0.020742997814376888
14.104000000000001,-0.020742949733291036
14.108,-0.02074268528731886
14.112,-0.020743406503606617
14.116,-0.020745185503783087
14.120000000000001,-0.020745473990298188
14.124,-0.020745642274098666
14.128,-0.02074679622015908
14.132,-0.020747469355360985
14.136000000000001,-0.02074684430124493
14.14,-0.020745738436270367
14.144,-0.020743911355008048
14.148,-0.020743959436093896
14.152000000000001,-0.020743550746864167
14.156,-0.02074369499012172
14.16,-0.020744175800980223
14.164,-0.020745401868669414
14.168000000000001,-0.02074626732821472
14.172,-0.020746772179616152
14.176,-0.02074739723373221
14.18,-0.02074720490938881
14.184000000000001,-0.02074607500387132
14.188,-0.02074492105781091
14.192,-0.020745233584868936
14.196,-0.020745281665954785
14.200000000000001,-0.020744127719894374
14.204,-0.02074246892243253
14.208,-0.020741843868316474
14.212,-0.020740786084427764
14.216000000000001,-0.020738285867963537
14.22,-0.020737180002988975
14.224,-0.020737756976019178
14.228,-0.02073770889493333
14.232000000000001,-0.020736194340729038
14.236,-0.02073470382706767
14.24,-0.020734391300009643
14.244,-0.020733982610779914
14.248000000000001,-0.0207328286647195
14.252,-0.02073181896191664
14.256,-0.02073114582671473
14.26,-0.020730737137485
14.264000000000001,-0.02072953511033874
14.268,-0.020728381164278328
14.272,-0.020728164799392
14.276,-0.020728525407535878
14.280000000000001,-0.020728597529164654
14.284,-0.020728260961563702
14.288,-0.02072785227233397
14.292,-0.020725832866728248
14.296000000000001,-0.02072292396103429
14.3,-0.020721962339317283
14.304,-0.020722034460946056
14.308,-0.020721794055516805
14.312000000000001,-0.020720519906741765
14.316,-0.02071924575796673
14.32,-0.02071780332539121
14.324,-0.02071720231181808
14.328000000000001,-0.020717322514532704
14.332,-0.020718260095706792
14.336,-0.020718644744393597
14.34,-0.020718957271451625
14.344,-0.020719678487739382
14.348,-0.02072100071760027
14.352,-0.02072167385280218
14.356,-0.020722130623117757
14.36,-0.02072273163669089
14.364,-0.020722250825832386
14.368,-0.02072294800157722
14.372,-0.020725207812612192
14.376,-0.020725568420756072
14.38,-0.020726674285730634
14.384,-0.020725953069442877
14.388,-0.020724438515238582
14.392,-0.02072294800157722
14.396,-0.02072282779886259
14.4,-0.020725448218041443
14.404,-0.02072794843450567
14.408,-0.020728260961563702
14.412,-0.020728140758849073
14.416,-0.020730568853684527
14.42,-0.020733261394492154
14.424,-0.020734631705438895
14.428,-0.020735184637926177
14.432,-0.020734030691865763
14.436,-0.020732660380919022
14.44,-0.020730929461828404
14.444,-0.020729607231967515
14.448,-0.02072958319142459
14.452,-0.02073013612391187
14.456,-0.020732804624176576
14.46,-0.020737372327332377
14.464,-0.020741290935829194
14.468,-0.020743406503606617
14.472,-0.02074273336840471
14.476,-0.020741988111574027
14.48,-0.020741387098000896
14.484,-0.02074155538180137
14.488,-0.020741194773657493
14.492,-0.020739511935652724
14.496,-0.020738790719364967
14.5,-0.0207373963678753
14.504,-0.020735545246070054
14.508000000000001,-0.02073451150272427
14.512,-0.02073547312444128
14.516,-0.02073626646235781
14.52,-0.020735232719012026
14.524000000000001,-0.020734030691865763
14.528,-0.020732852705262424
14.532,-0.02073328543503508
14.536,-0.020733405637749707
14.540000000000001,-0.02073323735394923
14.544,-0.020734295137837942
14.548,-0.02073400665132284
14.552,-0.02073309311069168
14.556000000000001,-0.020733020989062902
14.56,-0.02073155451594446
14.564,-0.020729967840111396
14.568,-0.020728741772422205
14.572000000000001,-0.02072684256953111
14.576,-0.02072496740718294
14.58,-0.02072328456917817
14.584,-0.020723524974607423
14.588000000000001,-0.02072460679903906
14.592,-0.020725400136955594
14.596,-0.020725832866728248
14.6,-0.020726626204644782
14.604000000000001,-0.020727275299303766
14.608,-0.02072790035341982
14.612,-0.02072907834002316
14.616,-0.020729967840111396
14.620000000000001,-0.020730472691512826
14.624,-0.020730112083368946
14.628,-0.02072972743468214
14.632,-0.02072907834002316
14.636000000000001,-0.020728140758849073
14.64,-0.02072705893441744
14.644,-0.020726169434329204
14.648,-0.02072460679903906
14.652000000000001,-0.020723813461122526
14.656,-0.020724318312523957
14.66,-0.02072345285297865
14.664,-0.02072241910963286
14.668000000000001,-0.020722659515062115
14.672,-0.02072268355560504
14.676,-0.020723212447549395
14.68,-0.020723717298950825
14.684000000000001,-0.02072400578546593
14.688,-0.020723621136779124
14.692,-0.020722755677233817
14.696,-0.020721649812259255
14.700000000000001,-0.02072059202837054
14.704,-0.02072039970402714
14.708,-0.020719822730996932
14.712,-0.02071984677153986
14.716000000000001,-0.020721289204115374
14.72,-0.020721241123029522
14.724,-0.02072039970402714
14.728,-0.020720832433799793
14.732000000000001,-0.020722130623117757
14.736,-0.020722972042120143
14.74,-0.020724775082839538
14.744,-0.020725953069442877
14.748000000000001,-0.020726193474872128
14.752,-0.020726602164101857
14.756,-0.02072655408301601
14.76,-0.020727131056046212
14.764000000000001,-0.02072811671830615
14.768,-0.020727732069619344
14.772,-0.020727010853331587
14.776,-0.0207258809478141
14.780000000000001,-0.02072501548826879
14.784,-0.02072424619089518
14.788,-0.020724125988180554
14.792,-0.02072364517732205
14.796000000000001,-0.020722972042120143
14.8,-0.02072232294746116
14.804,-0.02072191425823143
14.808,-0.020721529609544626
14.812000000000001,-0.02072222678528946
14.816,-0.02072292396103429
14.82,-0.020722130623117757
14.824,-0.020721577690630478
14.828000000000001,-0.020721842136602654
14.832,-0.020721433447372924
14.836,-0.020721048798686123
14.84,-0.020720327582398362
14.844000000000001,-0.020719606366110605
14.848,-0.020720183339140812
14.852,-0.020720952636514422
14.856,-0.02072049586619884
14.86,-0.020718500501136043
14.864,-0.02071648109553032
14.868,-0.0207166493793308
14.872,-0.020718236055163864
14.876,-0.020718740906565298
14.88,-0.020717466757790258
14.884,-0.02071633685227277
14.888,-0.02071638493335862
14.892,-0.0207167455415025
14.896,-0.02071679362258835
14.9,-0.020716721500959573
14.904,-0.02071715423073223
14.908,-0.020716673419873724
14.912,-0.020714750176439704
14.916,-0.020714221284495345
14.92,-0.020715447352184536
14.924,-0.02071628877118692
14.928,-0.020716264730643995
14.932,-0.020717226352361003
14.936,-0.020718428379507266
14.94,-0.02071866878493652
14.944,-0.02071862070385067
14.948,-0.020718861109279924
14.952,-0.020719293839052577
14.956,-0.020719774649911083
14.96,-0.020720519906741765
14.964,-0.02072126516357245
14.968,-0.020721890217688506
14.972,-0.0207235970962362
14.976,-0.02072364517732205
14.98,-0.020722443150175785
14.984,-0.02072227486637531
14.988,-0.020722371028547012
14.992,-0.020722803758319665
14.996,-0.02072354901515035
15.0,-0.0207236932584079
15.004,-0.020722875879948442
15.008000000000001,-0.020722899920491367
15.012,-0.02072328456917817
15.016,-0.020723476893521574
15.02,-0.020724077907094705
15.024000000000001,-0.02072405386655178
15.028,-0.02072424619089518
15.032,-0.020723164366463546
15.036,-0.020722539312347486
15.040000000000001,-0.020721986379860207
15.044,-0.020720207379683737
15.048,-0.020719678487739382
15.052,-0.02071984677153986
15.056000000000001,-0.020719414041767203
15.06,-0.020719774649911083
15.064,-0.02072025546076959
15.068,-0.020721193041943673
15.072000000000001,-0.020721553650087553
15.076,-0.02072177001497388
15.08,-0.02072167385280218
15.084,-0.02072116900140075
15.088000000000001,-0.02072008717696911
15.092,-0.020718837068736996
15.096,-0.02071725039290393
15.1,-0.020715832000871338
15.104000000000001,-0.020715182906212357
15.108,-0.020714389568295823
15.112,-0.02071342794657881
15.116,-0.02071378855472269
15.120000000000001,-0.020713764514179767
15.124,-0.020711745108574046
15.128,-0.020711384500430165
15.132,-0.020710831567942886
15.136000000000001,-0.020710014189483424
15.14,-0.020708740040708388
15.144,-0.020707129324332395
15.148,-0.020706672554016814
15.152000000000001,-0.020707778418991376
15.156,-0.020708860243423013
15.16,-0.020709869946225874
15.164,-0.020709148729938117
15.168000000000001,-0.02070861983799376
15.172,-0.02070866791907961
15.176,-0.020708643878536687
15.18,-0.02070833135147866
15.184000000000001,-0.02070938913536737
15.188,-0.02071126429771554
15.192,-0.02071090368957166
15.196,-0.02071039883817023
15.200000000000001,-0.02070994206785465
15.204,-0.02070811498659233
15.208,-0.02070847559473621
15.212,-0.020712105716717923
15.216000000000001,-0.02071470209535385
15.22,-0.020715591595442086
15.224,-0.02071597624412889
15.228,-0.020717106149646378
15.232000000000001,-0.020717947568648764
15.236,-0.02071816393353509
15.24,-0.02071866878493652
15.244,-0.020719438082310127
15.248000000000001,-0.0207193178795955
15.252,-0.02071948616339598
15.256,-0.02072035162294129
15.26,-0.020720880514885645
15.264000000000001,-0.020721217082486598
15.268,-0.020721745974430956
15.272,-0.020723524974607423
15.276,-0.02072506356935464
15.280000000000001,-0.020725760745099474
15.284,-0.020726602164101857
15.288,-0.020727683988533495
15.292,-0.02072948702925289
15.296000000000001,-0.020729967840111396
15.3,-0.02072912642110901
15.304,-0.02072775611016227
15.308,-0.020725159731526343
15.312000000000001,-0.020724222150352255
15.316,-0.02072527993424097
15.32,-0.020725352055869745
15.324,-0.02072345285297865
15.328000000000001,-0.020720567987827617
15.332,-0.02071806777136339
15.336,-0.02071830817679264
15.34,-0.02071797160919169
15.344000000000001,-0.020716601298244947
15.348,-0.02071496654132603
15.352,-0.020714221284495345
15.356,-0.020716985946931752
15.36,-0.020722058501488984
15.364,-0.020725808826185323
15.368,-0.020727683988533495
15.372,-0.02072866965079343
15.376,-0.020729150461651934
15.38,-0.020728092677763224
15.384,-0.020726578123558933
15.388,-0.020725736704556547
15.392,-0.02072460679903906
15.396,-0.020724727001753686
15.4,-0.020724654880124913
15.404,-0.020722996082663068
15.408,-0.020722563352890414
15.412,-0.020722443150175785
15.416,-0.020722106582574833
15.42,-0.020720688190542243
15.424,-0.020719197676880876
15.428,-0.02071775524430536
15.432,-0.020716601298244947
15.436,-0.020715351190012835
15.44,-0.020714750176439704
15.444,-0.020715158865669433
15.448,-0.02071520694675528
15.452,-0.020714389568295823
15.456,-0.02071410108178072
15.46,-0.020712562487033504
15.464,-0.02071049500034193
15.468,-0.02070902852722349
15.472,-0.02070934105428152
15.476,-0.02070994206785465
15.48,-0.020709773784054173
15.484,-0.0207100863111122
15.488,-0.020711120054457986
15.492,-0.020711697027488193
15.496,-0.020710951770657512
15.5,-0.020711216216629687
15.504,-0.020711985514003297
15.508000000000001,-0.020711961473460373
15.512,-0.020711576824773568
15.516,-0.020711216216629687
15.52,-0.020710567121970707
15.524000000000001,-0.020709773784054173
15.528,-0.020709918027311723
15.532,-0.0207099901489405
15.536,-0.020709677621882472
15.540000000000001,-0.02070984590568295
15.544,-0.020709292973195667
15.548,-0.020708042864963555
15.552,-0.02070765821627675
15.556000000000001,-0.020707610135190898
15.56,-0.020708018824420627
15.564,-0.0207078024595343
15.568,-0.020707778418991376
15.572000000000001,-0.02070655235130219
15.576,-0.020706167702615384
15.58,-0.020707513973019197
15.584,-0.020708691959622536
15.588000000000001,-0.02070852367582206
15.592,-0.020708451554193284
15.596,-0.020708764081251312
15.6,-0.0207098939867688
15.604000000000001,-0.020710230554369755
15.608,-0.0207098939867688
15.612,-0.020710374797627305
15.616,-0.020710975811200436
15.620000000000001,-0.020711288338258464
15.624,-0.020711096013915062
15.628,-0.02071025459491268
15.632,-0.02070958145971077
15.636000000000001,-0.020709821865140022
15.64,-0.020710230554369755
15.644,-0.020711456622058942
15.648,-0.020712490365404727
15.652000000000001,-0.020713259662778337
15.656,-0.02071313946006371
15.66,-0.02071258652757643
15.664,-0.020712802892462755
15.668000000000001,-0.020712081676174998
15.672,-0.020710711365228257
15.676,-0.020710470959799006
15.68,-0.020711624905859417
15.684000000000001,-0.02071313946006371
15.688,-0.020714317446667047
15.692,-0.020715495433270385
15.696,-0.02071602432521474
15.700000000000001,-0.02071638493335862
15.704,-0.02071729847398978
15.708,-0.02071816393353509
15.712,-0.020718284136249716
15.716000000000001,-0.020718428379507266
15.72,-0.020719197676880876
15.724,-0.02071898131199455
15.728,-0.020718043730820465
15.732000000000001,-0.020716985946931752
15.736,-0.02071633685227277
15.74,-0.02071643301444447
15.744,-0.020716072406300592
15.748000000000001,-0.020714798257525553
15.752,-0.020714389568295823
15.756,-0.020716264730643995
15.76,-0.020717178271275154
15.764000000000001,-0.02071602432521474
15.768,-0.020714942500783106
15.772,-0.020714918460240178
15.776,-0.020715904122500114
15.780000000000001,-0.020717490798333182
15.784,-0.020717947568648764
15.788,-0.020716961906388828
15.792,-0.02071578391978549
15.796000000000001,-0.020715591595442086
15.8,-0.02071573583869964
15.804,-0.02071770716321951
15.808,-0.020719197676880876
15.812000000000001,-0.02072008717696911
15.816,-0.020720471825655916
15.82,-0.020720880514885645
15.824,-0.020721962339317283
15.828000000000001,-0.020723164366463546
15.832,-0.020723140325920618
15.836,-0.020722851839405518
15.84,-0.02072328456917817
15.844000000000001,-0.020724222150352255
15.848,-0.020724799123382463
15.852,-0.020724438515238582
15.856,-0.020724775082839538
15.860000000000001,-0.020726361758672606
15.864,-0.0207258809478141
15.868,-0.020725207812612192
15.872,-0.020724414474695658
15.876,-0.02072405386655178
15.88,-0.020722563352890414
15.884,-0.020721986379860207
15.888,-0.020722803758319665
15.892,-0.020723116285377693
15.896,-0.020723789420579602
15.9,-0.020723669217864976
15.904,-0.020723212447549395
15.908,-0.020722851839405518
15.912,-0.020724222150352255
15.916,-0.020725712664013622
15.92,-0.020724895285554164
15.924,-0.02072405386655178
15.928,-0.020723789420579602
15.932,-0.02072592902889995
15.936,-0.020727371461475467
15.94,-0.02072753974527594
15.944,-0.020727467623647168
15.948,-0.02072744358310424
15.952,-0.020727611866904718
15.956,-0.020727107015503288
15.96,-0.020726722366816483
15.964,-0.02072734742093254
15.968,-0.020728285002106626
15.972,-0.020729246623823635
15.976,-0.020729270664366563
15.98,-0.020729655313053364
15.984,-0.020729246623823635
15.988,-0.020729342785995336
15.992,-0.020730256326626496
15.996,-0.020730568853684527
16.0,-0.020730857340199627
16.004,-0.02073090542128548
16.008,-0.020731121786171806
16.012,-0.020731578556487388
16.016000000000002,-0.02073181896191664
16.02,-0.020732756543090723
16.024,-0.02073217957006052
16.028,-0.020731290069972284
16.032,-0.020731097745628882
16.036,-0.02073104966454303
16.04,-0.020730737137485
16.044,-0.020730208245540647
16.048000000000002,-0.02073114582671473
16.052,-0.02073066501585623
16.056,-0.020727419542561316
16.06,-0.02072552033967022
16.064,-0.020725328015326817
16.068,-0.020725832866728248
16.072,-0.020725592461298997
16.076,-0.020725039528811714
16.080000000000002,-0.020724751042296614
16.084,-0.02072436639360981
16.088,-0.02072451063686736
16.092,-0.020724991447725865
16.096,-0.020724991447725865
16.1,-0.020724438515238582
16.104,-0.020723621136779124
16.108,-0.02072436639360981
16.112000000000002,-0.020726193474872128
16.116,-0.02072720317767499
16.12,-0.02072705893441744
16.124,-0.02072729933984669
16.128,-0.020727323380389615
16.132,-0.020727780150705196
16.136,-0.02073013612391187
16.14,-0.02073177088083079
16.144000000000002,-0.020732468056575623
16.148,-0.020732636340376098
16.152,-0.020732371894403922
16.156,-0.02073241997548977
16.16,-0.020732852705262424
16.164,-0.020731939164631265
16.168,-0.02073116986725766
16.172,-0.02073076117802793
16.176000000000002,-0.02073023228608357
16.18,-0.02072972743468214
16.184,-0.020730304407712348
16.188,-0.020730929461828404
16.192,-0.02073104966454303
16.196,-0.020731025624000105
16.2,-0.02073080925911378
16.204,-0.020728645610250503
16.208000000000002,-0.020726361758672606
16.212,-0.020726506001930156
16.216,-0.020727924393962746
16.22,-0.020729703394139216
16.224,-0.020729198542737786
16.228,-0.02072794843450567
16.232,-0.020726602164101857
