0.0,0.00999531249149392
0.004,0.009994567234663234
0.008,0.009993196923716495
0.012,0.009993918140004252
0.016,0.009992523788514587
0.02,0.009996778964612362
0.024,0.00999988019464972
0.028,0.010002572735457349
0.032,0.009999663829763392
0.036000000000000004,0.009998894532389785
0.04,0.009999110897276111
0.044,0.010000409086594076
0.048,0.009998918572932709
0.052000000000000005,0.009985792436495514
0.056,0.009984181720119521
0.06,0.009989711044992331
0.064,0.009991970856027306
0.068,0.009995625018551947
0.07200000000000001,0.009999759991935094
0.076,0.01000211596514177
0.08,0.010004928708664025
0.084,0.010002981424687078
0.088,0.010001923640798367
0.092,0.010002476573285648
0.096,0.009989061950333349
0.1,0.009976152178782482
0.10400000000000001,0.009987667598843683
0.108,0.009997524221443043
0.112,0.010000072518993122
0.116,0.010003726681517762
0.12,0.010006250938524915
0.124,0.010007212560241925
0.128,0.010008703073903292
0.132,0.010008126100873085
0.136,0.010009256006390573
0.14,0.010002692938171976
0.14400000000000002,0.00998723486907103
0.148,0.009992884396658467
0.152,0.00999978403247802
0.156,0.010001899600255442
0.16,0.01000408728966164
0.164,0.010004471938348445
0.168,0.010000817775823805
0.17200000000000001,0.009997884829586924
0.176,0.009999158978361962
0.18,0.009997428059271342
0.184,0.009992475707428736
0.188,0.009990023572050359
0.192,0.009992163180370708
0.196,0.009997235734927942
0.2,0.010005072951921577
0.20400000000000001,0.010006972154812672
0.20800000000000002,0.010007020235898523
0.212,0.0100049046681211
0.216,0.010004784465406473
0.22,0.0100048085059494
0.224,0.010004712343777698
0.228,0.010005553762780083
0.232,0.010000529289308701
0.23600000000000002,0.010001226465053534
0.24,0.010004375776176744
0.244,0.010008582871188665
0.248,0.010008775195532067
0.252,0.010007380844042402
0.256,0.010007332762956551
0.26,0.010007837614357981
0.264,0.010008823276617918
0.268,0.010006395181782467
0.272,0.0100048085059494
0.276,0.009994639356292011
0.28,0.009987066585270552
0.28400000000000003,0.009998894532389785
0.28800000000000003,0.010007380844042402
0.292,0.010009953182135406
0.296,0.010008895398246693
0.3,0.010010602276794388
0.304,0.010010217628107583
0.308,0.010010458033536836
0.312,0.010010578236251462
0.316,0.010012020668826978
0.32,0.010008919438789619
0.324,0.010002885262515377
0.328,0.00999855796478883
0.332,0.009988484977303144
0.336,0.009982450801028902
0.34,0.009982282517228425
0.34400000000000003,0.009989999531507435
0.34800000000000003,0.01001824716944462
0.352,0.010059620943818999
0.356,0.010097124190782411
0.36,0.010123256260942173
0.364,0.010124939098946942
0.368,0.010111740840880972
0.372,0.010109240624416744
0.376,0.010093157501199742
0.38,0.010067650485156038
0.384,0.010044042672003428
0.388,0.010025699737751453
0.392,0.010013823709546373
0.396,0.010009376209105199
0.4,0.010010746520051938
0.404,0.010010602276794388
0.40800000000000003,0.010003414154459734
0.41200000000000003,0.00999632219429678
0.41600000000000004,0.0100026208165432
0.42,0.010007020235898523
0.424,0.010006491343954167
0.428,0.010006587506125868
0.432,0.010009159844218872
0.436,0.010009280046933498
0.44,0.010011035006567042
0.444,0.010011371574167996
0.448,0.010010217628107583
0.452,0.010006924073726822
0.456,0.009999303221619514
0.46,0.0100026208165432
0.464,0.01000810206033016
0.468,0.010005890330381035
0.47200000000000003,0.010005385478979605
0.47600000000000003,0.010003774762603612
0.48,0.010007332762956551
0.484,0.010010554195708538
0.488,0.010011732182311875
0.492,0.01001043399299391
0.496,0.010006851952098047
0.5,0.009996923207869912
0.504,0.009987595477214908
0.508,0.00999759634307182
0.512,0.010001563032654488
0.516,0.010002452532742723
0.52,0.010006058614181513
0.524,0.010006539425040017
0.528,0.010002284248942245
0.532,0.010001418789396936
0.536,0.010003870924775313
0.54,0.010005890330381035
0.544,0.009997932910672774
0.548,0.009970550732280897
0.552,0.009972498016257844
0.556,0.009986754058212524
0.56,0.009990648626166417
0.5640000000000001,0.009989446599020154
0.5680000000000001,0.00999637027538263
0.5720000000000001,0.010001851519169592
0.5760000000000001,0.010008029938701384
0.58,0.010008174181958936
0.584,0.010008847317160842
0.588,0.010009207925304723
0.592,0.010008991560418394
0.596,0.010009760857792004
0.6,0.010010794601137789
0.604,0.010010578236251462
0.608,0.010014112196061476
0.612,0.010019761723648912
0.616,0.01002235810228484
0.62,0.010020170412878643
0.624,0.010026444994582136
0.628,0.010034378373747472
0.632,0.010032527251942227
0.636,0.010015626750265768
0.64,0.010007909735986758
0.644,0.010017838480214892
0.648,0.010032911900629032
0.652,0.010039787495905656
0.656,0.010036638184782447
0.66,0.010036686265868297
0.664,0.010038681630931095
0.668,0.01004012406350661
0.672,0.010042215590741109
0.676,0.010040388509478788
0.68,0.010041350131195798
0.684,0.010041782860968454
0.6880000000000001,0.010041566496082127
0.6920000000000001,0.010042840644857165
0.6960000000000001,0.010041422252824575
0.7000000000000001,0.010040773158165593
0.704,0.010044018631460504
0.708,0.010046687131725207
0.712,0.010045797631636972
0.716,0.010041879023140155
0.72,0.010041133766309471
0.724,0.010038056576815039
0.728,0.01002957026516242
0.732,0.010037623847042383
0.736,0.010045773591094048
0.74,0.010052168375512167
0.744,0.010050197050992296
0.748,0.010048081483214873
0.752,0.010050509578050324
0.756,0.010051735645739513
0.76,0.01005337040265843
0.764,0.010054933037948573
0.768,0.01004921138873236
0.772,0.010039547090476404
0.776,0.010043513780059073
0.78,0.010043754185488325
0.784,0.010041350131195798
0.788,0.010042455996170362
0.792,0.010046807334439833
0.796,0.010047576631813443
0.8,0.010047648753442218
0.804,0.010047720875070994
0.808,0.010045701469465271
0.812,0.010043345496258595
0.8160000000000001,0.010042888725943016
0.8200000000000001,0.010043081050286418
0.8240000000000001,0.01004596591543745
0.8280000000000001,0.01004327337462982
0.8320000000000001,0.010040749117622667
0.836,0.010038080617357963
0.84,0.01004108568522362
0.844,0.010044331158518532
0.848,0.010045316820778468
0.852,0.01004519661806384
0.856,0.010049836442848417
0.86,0.010037167076726803
0.864,0.01003053188687943
0.868,0.010048369969729977
0.872,0.010053562727001832
0.876,0.010053466564830131
0.88,0.010052504943113121
0.884,0.010054356064918366
0.888,0.010052336659312645
0.892,0.010053394443201356
0.896,0.01005834679504396
0.9,0.01006027003847798
0.904,0.010057769822013753
0.908,0.01005697648409722
0.912,0.010061712471053497
0.916,0.010061472065624244
0.92,0.010057192848983548
0.924,0.010057577497670351
0.928,0.010062049038654451
0.932,0.010058563159930287
0.936,0.010054908997405647
0.9400000000000001,0.01005560617315048
0.9440000000000001,0.010054259902746665
0.9480000000000001,0.010052625145827748
0.9520000000000001,0.010052096253883392
0.9560000000000001,0.010056447592152865
0.96,0.010060774889879411
0.964,0.010063803998287995
0.968,0.010064429052404051
0.972,0.010066159971494671
0.976,0.01006382803883092
0.98,0.010062698133313433
0.984,0.010067794728413588
0.988,0.010074814566947766
0.992,0.010068876552845225
0.996,0.010050100888820595
1.0,0.010057048605725996
1.004,0.010071857580167959
1.008,0.010072314350483539
1.012,0.010068852512302301
1.016,0.01007378082360198
1.02,0.010075896391379402
1.024,0.010078612972729956
1.028,0.010078132161871452
1.032,0.010078420648386556
1.036,0.010077050337439815
1.04,0.010073492337086876
1.044,0.010072795161342043
1.048,0.010074982850748242
1.052,0.010075415580520898
1.056,0.010077098418525665
1.06,0.010077218621240292
1.064,0.010078637013272882
1.068,0.010077146499611516
1.072,0.010079213986303088
1.076,0.010076377202237908
1.08,0.01007524729672042
1.084,0.01007428567500341
1.088,0.010065174309234735
1.092,0.010062049038654451
1.096,0.010061784592682272
1.1,0.010072723039713268
1.104,0.010097965609784796
1.108,0.0101303241805622
1.112,0.010161528805279192
1.116,0.010188526334984262
1.12,0.010199897511787912
1.124,0.010195570214061365
1.1280000000000001,0.010179078401614635
1.1320000000000001,0.010159485359130544
1.1360000000000001,0.010142681019625786
1.1400000000000001,0.010124001517772856
1.1440000000000001,0.010106596164694965
1.1480000000000001,0.010093494068800698
1.1520000000000001,0.010088758081844418
1.156,0.010089647581932653
1.16,0.01009464801486111
1.164,0.01009556155549227
1.168,0.010092917095770489
1.172,0.010090176473877008
1.176,0.010076377202237908
1.18,0.01007793983752805
1.184,0.010083541284029636
1.188,0.010088084946642512
1.192,0.010090200514419934
1.196,0.010091065973965243
1.2,0.01009255648762661
1.204,0.010092171838939805
1.208,0.01009209971731103
1.212,0.010094840339204512
1.216,0.010092243960568582
1.22,0.010076689729295936
1.224,0.010072650918084491
1.228,0.010082796027198953
1.232,0.010091883352424702
1.236,0.010095826001464447
1.24,0.010093758514772875
1.244,0.010093085379570965
1.248,0.010096282771780027
1.252,0.010097893488156021
1.256,0.010100009055933444
1.26,0.010098686826072553
1.264,0.010094095082373829
1.268,0.01009077748745014
1.272,0.010088349392614689
1.276,0.010085825135607535
1.28,0.010084190378688618
1.284,0.010083709567830113
1.288,0.010081834405481943
1.292,0.010082747946113102
1.296,0.01008214693253997
1.3,0.01007894954033091
1.304,0.010082940270456505
1.308,0.010079574594446968
1.312,0.010072482634284015
1.316,0.01006844382307257
1.32,0.010075655985950149
1.324,0.01007885337815921
1.328,0.010077386905040769
1.332,0.010075127094005794
1.336,0.010076665688753011
1.34,0.010078372567300705
1.344,0.01007702629689689
1.348,0.010075848310293551
1.352,0.010071448890938228
1.356,0.010053250199943804
1.36,0.010061255700737917
1.364,0.01007428567500341
1.368,0.010079430351189416
1.372,0.010079598634989893
1.3760000000000001,0.01007991116204792
1.3800000000000001,0.01008306047317113
1.3840000000000001,0.010083661486744262
1.3880000000000001,0.010081425716252214
1.3920000000000001,0.010078877418702135
1.3960000000000001,0.010077290742869068
1.4000000000000001,0.010075415580520898
1.4040000000000001,0.010077771553727573
1.408,0.010082074810911196
1.412,0.010081233391908811
1.416,0.01007986308096207
1.42,0.010076329121152057
1.424,0.01007625699952328
1.428,0.010078829337616285
1.432,0.010081738243310242
1.436,0.010082387337969224
1.44,0.010082747946113102
1.444,0.010069116958274478
1.448,0.010063683795573368
1.452,0.010076617607667161
1.456,0.010079839040419146
1.46,0.010084478865203722
1.464,0.010093566190429473
1.468,0.010094720136489885
1.472,0.010100489866791948
1.476,0.010097412677297515
1.48,0.010091498703737899
1.484,0.010089671622475578
1.488,0.010081786324396092
1.492,0.01007337213437225
1.496,0.010079334189017715
1.5,0.010086233824837266
1.504,0.010092748811970012
1.508,0.010101812096652838
1.512,0.010102340988597193
1.516,0.010098566623357928
1.52,0.010105177772662375
1.524,0.010124891017861092
1.528,0.010129266396673489
1.532,0.010111356192194167
1.536,0.010084262500317394
1.54,0.01008520008149148
1.544,0.010102797758912775
1.548,0.01011570753046364
1.552,0.010116284503493847
1.556,0.01011241397608288
1.56,0.01011383236811547
1.564,0.010114962273632956
1.568,0.010103711299543934
1.572,0.010092484365997833
1.576,0.010088157068271287
1.58,0.010069092917731552
1.584,0.010067890890585289
1.588,0.010076906094182263
1.592,0.010081786324396092
1.596,0.010098061771956497
1.6,0.010103759380629785
1.604,0.010104144029316588
1.608,0.010099600366703715
1.612,0.010099744609961266
1.616,0.010099384001817386
1.62,0.010104865245604347
1.624,0.010102942002170325
1.6280000000000001,0.010107846272927079
1.6320000000000001,0.01011154851653757
1.6360000000000001,0.010102629475112297
1.6400000000000001,0.010108519408128987
1.6440000000000001,0.010113207313999412
1.6480000000000001,0.01010839920541436
1.6520000000000001,0.010105297975377
1.6560000000000001,0.010114409341145675
1.6600000000000001,0.010117342287382558
1.6640000000000001,0.01011693359815283
1.668,0.010099480163989087
1.672,0.010080440053992277
1.676,0.010067722606784813
1.68,0.010082243094711672
1.684,0.010098782988244254
1.688,0.010092772852512937
1.692,0.010090561122563813
1.696,0.010092195879482731
1.7,0.010117246125210857
1.704,0.010122270598682237
1.708,0.010115971976435819
1.712,0.010082483500140925
1.716,0.010042239631284033
1.72,0.010052144334969242
1.724,0.01009459993377526
1.728,0.010116092179150445
1.732,0.01010551434026333
1.736,0.010088685960215643
1.74,0.010077218621240292
1.744,0.010084550986832497
1.748,0.010102437150768894
1.752,0.010113928530287171
1.756,0.010113351557256964
1.76,0.010095080744633764
1.764,0.010088926365644894
1.768,0.010134050464715617
1.772,0.010154364723487463
1.776,0.010137392100182227
1.78,0.010126862342380962
1.784,0.010133810059286364
1.788,0.010125828599035176
1.792,0.010106331718722788
1.796,0.010108279002699734
1.8,0.010139435546330875
1.804,0.010133209045713232
1.808,0.010129891450789545
1.812,0.010144099411658376
1.816,0.010119962706561412
1.82,0.01008762817632693
1.824,0.010098542582815003
1.828,0.010092724771427086
1.832,0.010089743744104354
1.836,0.010085512608549507
1.84,0.010073131728942997
1.844,0.010075607904864298
1.848,0.010091835271338851
1.852,0.010128521139842805
1.856,0.010204753701458815
1.86,0.010270216099844307
1.864,0.010292092993906298
1.868,0.010260070990729847
1.872,0.010207157755751341
1.8760000000000001,0.010165639738119412
1.8800000000000001,0.010191290997420667
1.8840000000000001,0.010216942256721925
1.8880000000000001,0.010185929956348334
1.8920000000000001,0.010153138655798276
1.8960000000000001,0.010155158061403997
1.9000000000000001,0.01013662280280862
1.9040000000000001,0.01011388044920132
1.9080000000000001,0.010110562854277635
1.9120000000000001,0.010085536649092433
1.9160000000000001,0.01007620891843743
1.92,0.010090921730707691
1.924,0.010109144462245043
1.928,0.010106764448495443
1.932,0.010098686826072553
1.936,0.010100201380276846
1.94,0.010093301744457295
1.944,0.010084118257059842
1.948,0.010082940270456505
1.952,0.01009459993377526
1.956,0.01009164294699545
1.96,0.010087796460127408
1.964,0.010094527812146483
1.968,0.010098686826072553
1.972,0.01009748479892629
1.976,0.010100417745163173
1.98,0.010120611801220394
1.984,0.010122198477053462
1.988,0.010138401802985088
1.992,0.010153595426113856
1.996,0.010112630340969207
2.0,0.010051759686282438
2.004,0.010051927970082915
2.008,0.010091522744280823
2.012,0.010114024692458872
2.016,0.01013164641042309
2.02,0.010147897817440568
2.024,0.010120852206649647
2.028,0.01009255648762661
2.032,0.010084671189547123
2.036,0.010092292041654433
2.04,0.010097821366527244
2.044,0.010096499136666355
2.048,0.010102605434569372
2.052,0.010113519841057442
2.056,0.010119529976788758
2.06,0.010124770815146464
2.064,0.010128497099299881
2.068,0.010123208179856322
2.072,0.010092195879482731
2.076,0.01005103846999468
2.08,0.010065775322807866
2.084,0.010095297109520092
2.088,0.010110322448848382
2.092,0.010127102747810215
2.096,0.010118472192900045
2.1,0.010097460758383366
2.104,0.01008767625741278
2.108,0.01009565771766397
2.112,0.010104216150945365
2.116,0.010104095948230737
2.12,0.010115178638519285
2.124,0.010119481895702907
2.128,0.010107197178268097
2.132,0.010110033962333278
2.136,0.010116597030551875
2.14,0.010125371828719596
2.144,0.010137728667783182
2.148,0.010128785585814983
2.152,0.01013073286979193
2.156,0.010130420342733901
2.16,0.010128977910158385
2.164,0.010119457855159981
2.168,0.010129530842645666
2.172,0.010158908386100339
2.176,0.010154773412717193
2.18,0.010110995584050288
2.184,0.010090248595505785
2.188,0.010093614271515323
2.192,0.010105586461892104
2.196,0.010105033529404823
2.2,0.010105466259177479
2.204,0.010109745475818175
2.208,0.010108735773015314
2.212,0.010104264232031215
2.216,0.010109577192017698
2.22,0.010106836570124218
2.224,0.010104408475288767
2.228,0.010111788921966822
2.232,0.010110202246133754
2.236,0.01011428913843105
2.24,0.010133858140372215
2.244,0.010146046695635322
2.248,0.010125516071977148
2.2520000000000002,0.01010698081338177
2.2560000000000002,0.010094407609431857
2.2600000000000002,0.01011159659762342
2.2640000000000002,0.010146984276809408
2.2680000000000002,0.010147897817440568
2.2720000000000002,0.0101417434384517
2.2760000000000002,0.010137271897467602
2.2800000000000002,0.010129939531875395
2.2840000000000003,0.010111284070565392
2.2880000000000003,0.010103975745516112
2.2920000000000003,0.010113303476171114
2.2960000000000003,0.010113039030198936
2.3000000000000003,0.01009260456871246
2.3040000000000003,0.010100105218105145
2.308,0.010121934031081284
2.312,0.010126501734237084
2.316,0.01012296777442707
2.32,0.010127511437039945
2.324,0.010123953436687006
2.328,0.010134555316117047
2.332,0.010147969939069343
2.336,0.010151503898879357
2.34,0.010125900720663952
2.344,0.010117775017155214
2.348,0.010131814694223567
2.352,0.01013570926217746
2.356,0.010140805857277614
2.36,0.010142873343969188
2.364,0.010139699992303053
2.368,0.010123328382570948
2.372,0.0100982540962999
2.376,0.010083180675885758
2.38,0.010109961840704503
2.384,0.01013078095087778
2.388,0.010118496233442971
2.392,0.010110803259706886
2.396,0.010111235989479541
2.4,0.010117366327925483
2.404,0.010118279868556644
2.408,0.010115370962862687
2.412,0.0101189049226727
2.416,0.010126189207179056
2.42,0.010128424977671104
2.424,0.010129675085903218
2.428,0.010115034395261733
2.432,0.010085103919319778
2.436,0.010067722606784813
2.44,0.010094047001287978
2.444,0.010122486963568565
2.448,0.010122318679768087
2.452,0.010109481029845997
2.456,0.010104937367233122
2.46,0.010098133893585272
2.464,0.010097220352954113
2.468,0.010114721868203705
2.472,0.01011109174622199
2.476,0.01011118790839369
2.48,0.010121453220222778
2.484,0.01011885684158685
2.488,0.0101211887742506
2.492,0.01012621324772198
2.496,0.010116356625122622
2.5,0.010111716800338047
2.504,0.01011895300375855
2.508,0.010126381531522457
2.512,0.010128424977671104
2.516,0.010127727801926271
2.52,0.01011885684158685
2.524,0.01011154851653757
2.528,0.010111043665136139
2.532,0.010115779652092417
2.536,0.010122294639225163
2.54,0.010121909990538358
2.544,0.010122294639225163
2.548,0.0101210926120789
2.552,0.010128040328984301
2.556,0.010124987180032793
2.56,0.010114024692458872
2.564,0.010110346489391306
2.568,0.010092340122740283
2.572,0.010083805730001814
2.576,0.010087339689811828
2.58,0.010094407609431857
2.584,0.010105370097005777
2.588,0.010126525774780008
2.592,0.010152898250369023
2.596,0.010189343713443723
2.6,0.010223000473539091
2.604,0.010235886204547032
2.608,0.010247545867865785
2.612,0.010239997137387252
2.616,0.010219586716443702
2.62,0.010191675646107472
2.624,0.01016768318426806
2.628,0.010149099844586831
2.632,0.010142488695282384
2.636,0.010142488695282384
2.64,0.010145565884776817
2.644,0.010145085073918312
2.648,0.010147777614725942
2.652,0.010147921857983492
2.656,0.010117750976612288
2.66,0.010105538380806254
2.664,0.010110875381335663
2.668,0.010123184139313398
2.672,0.010139796154474754
2.676,0.010157249588638496
2.68,0.010150494196076497
2.684,0.010136791086609096
2.688,0.01013941150578795
2.692,0.01014758529038254
2.696,0.010148378628299074
2.7,0.010139579789588427
2.704,0.010135468856748207
2.708,0.010133641775485886
2.712,0.010135228451318954
2.716,0.010135324613490655
2.72,0.010136406437922293
2.724,0.010141334749221971
2.728,0.010148186303955671
2.732,0.010149797020331664
2.736,0.010145782249663145
2.74,0.010140012519361082
2.744,0.010141046262706867
2.748,0.010140637573477138
2.7520000000000002,0.010144868709031985
2.7560000000000002,0.01015169622322276
2.7600000000000002,0.010147729533640092
2.7640000000000002,0.010140252924790333
2.7680000000000002,0.010142416573653609
2.7720000000000002,0.010144700425231508
2.7760000000000002,0.010146936195723558
2.7800000000000002,0.010149580655445337
2.7840000000000003,0.010150950966392076
2.7880000000000003,0.010145157195547087
2.7920000000000003,0.010125395869262522
2.7960000000000003,0.010126934464009738
2.8000000000000003,0.010129651045360294
2.8040000000000003,0.010141478992479523
2.8080000000000003,0.01014809014178397
2.8120000000000003,0.010147104479524034
2.816,0.010149797020331664
2.82,0.010148186303955671
2.824,0.010145085073918312
2.828,0.010145782249663145
2.832,0.010148114182326895
2.836,0.01014946045273071
2.84,0.010153739669371407
2.844,0.010153980074800659
2.848,0.010156985142666317
2.852,0.01015590331823468
2.856,0.010155422507376175
2.86,0.010160278697047078
2.864,0.0101645819542307
2.868,0.010172779779368216
2.872,0.010173452914570122
2.876,0.010169005414128948
2.88,0.010162057697223548
2.884,0.010160062332160751
2.888,0.010168019751869014
2.892,0.010174462617372983
2.896,0.010175664644519246
2.9,0.010177948496097147
2.904,0.010179366888129737
2.908,0.010182059428937367
2.912,0.010182564280338797
2.916,0.010179583253016065
2.92,0.010181362253192534
2.924,0.01017402988760033
2.928,0.010158788183385711
2.932,0.01016503872454628
2.936,0.010171649873850728
2.94,0.010176818590579659
2.944,0.01017869375292783
2.948,0.010182516199252947
2.952,0.01018645884829269
2.956,0.010192781511082034
2.96,0.010194416268000953
2.964,0.010195450011346738
2.968,0.010197349214237834
2.972,0.010194848997773606
2.976,0.010195714457318917
2.98,0.010194416268000953
2.984,0.010195450011346738
2.988,0.010191363119049444
2.992,0.010187204105123374
2.996,0.01017960729355899
3.0,0.010173092306426244
3.004,0.010169390062815753
3.008,0.01016773126535391
3.012,0.010162418305367427
3.016,0.010142681019625786
3.02,0.01013169449150894
3.024,0.010145493763148042
3.028,0.010154725331631342
3.032,0.010159076669900815
3.036,0.010149075804043907
3.04,0.010137007451495424
3.044,0.01013859412732849
3.048,0.010141863641166328
3.052,0.01014580629020607
3.056,0.010145373560433416
3.06,0.010141959803338027
3.064,0.010145589925319743
3.068,0.010146383263236277
3.072,0.010150253790647244
3.076,0.010151840466480311
3.08,0.010144628303602733
3.084,0.010139026857101146
3.088,0.010140132722075708
3.092,0.010142272330396057
3.096,0.010144676384688583
3.1,0.010144676384688583
3.104,0.010139892316646455
3.108,0.010138353721899238
3.112,0.01013859412732849
3.116,0.010140445249133736
3.12,0.01014712852006696
3.124,0.010152321277338816
3.128,0.010153811791000182
3.132,0.010153451182856304
3.136,0.010153475223399228
3.14,0.010165134886717981
3.144,0.010167538941010508
3.148,0.01016143264310749
3.152,0.01015402815588651
3.156,0.01015955748075932
3.16,0.010161528805279192
3.164,0.010162322143195726
3.168,0.010166120548977918
3.172,0.010164197305543896
3.176,0.01015849969687061
3.18,0.010160999913334837
3.184,0.010158860305014488
3.188,0.010154749372174268
3.192,0.010162730832425455
3.196,0.01016133648093579
3.2,0.010160999913334837
3.204,0.010165182967803832
3.208,0.010165279129975533
3.212,0.010168428441098743
3.216,0.01017037572507569
3.22,0.010176698387865033
3.224,0.010180689117990627
3.228,0.010179342847586812
3.232,0.010174606860630535
3.236,0.010175856968862649
3.24,0.010170784414305419
3.244,0.010164678116402402
3.248,0.010163331845998587
3.2520000000000002,0.01017402988760033
3.2560000000000002,0.010179390928672663
3.2600000000000002,0.010176818590579659
3.2640000000000002,0.010174967468774413
3.2680000000000002,0.010181362253192534
3.2720000000000002,0.010187300267295075
3.2760000000000002,0.010190882308190938
3.2800000000000002,0.010186482888835615
3.2840000000000003,0.010175424239089995
3.2880000000000003,0.010169293900644052
3.2920000000000003,0.010165375292147234
3.2960000000000003,0.010153258858512901
3.3000000000000003,0.010148306506670297
3.3040000000000003,0.010151431777250582
3.3080000000000003,0.010160086372703676
3.3120000000000003,0.010189127348557394
3.3160000000000003,0.010221894608564527
3.3200000000000003,0.010248820016640823
3.3240000000000003,0.010268100532066884
3.3280000000000003,0.010271346005361795
3.332,0.010250334570845114
3.336,0.010241944421364198
3.34,0.010233121542110627
3.344,0.010211557175106665
3.348,0.010192541105652781
3.352,0.010179463050301438
3.356,0.010165279129975533
3.36,0.010158163129269655
3.364,0.010155710993891278
3.368,0.010161144156592387
3.372,0.010157562115696524
3.376,0.010141094343792718
3.38,0.010144700425231508
3.384,0.010153787750457258
3.388,0.010154340682944539
3.392,0.010158307372527207
3.396,0.010160783548448508
3.4,0.010164149224458045
3.404,0.010166793684179824
3.408,0.010165832062462814
3.412,0.010163187602741035
3.416,0.010163476089256138
3.42,0.010156792818322916
3.424,0.01015813908872673
3.428,0.010161216278221164
3.432,0.010167202373409553
3.436,0.01017311634696917
3.44,0.010172274927966785
3.444,0.010173861603799851
3.448,0.010174270293029582
3.452,0.01017179411710828
3.456,0.010168813089785548
3.46,0.010169269860101127
3.464,0.010163836697400017
3.468,0.010161072034963612
3.472,0.010163235683826885
3.476,0.010165976305720366
3.48,0.01016549549486186
3.484,0.010165687819205262
3.488,0.010164726197488252
3.492,0.010163476089256138
3.496,0.010162778913511306
3.5,0.010160398899761705
3.504,0.010157586156239448
3.508,0.010156167764206858
3.512,0.010143546479171095
3.516,0.010146840033551856
3.52,0.010157129385923868
3.524,0.010159773845645648
3.528,0.010164197305543896
3.532,0.010167202373409553
3.536,0.010168356319469966
3.54,0.010171169062992223
3.544,0.010168500562727518
3.548,0.010160134453789526
3.552,0.010160158494332452
3.556,0.01016362033251369
3.56,0.010166457116578872
3.564,0.010165687819205262
3.568,0.010164365589344374
3.572,0.0101667696436369
3.576,0.010165639738119412
3.58,0.010160951832248986
3.584,0.01016503872454628
3.588,0.010167635103182209
3.592,0.010164293467715597
3.596,0.010164053062286346
3.6,0.010160495061933407
3.604,0.010159797886188574
3.608,0.010159629602388096
3.612,0.01016508680563213
3.616,0.010171409468421475
3.62,0.010169293900644052
3.624,0.010168837130328472
3.628,0.010176626266236258
3.632,0.010180785280162329
3.636,0.010179270725958036
3.64,0.01017696283383721
3.644,0.010166697522008123
3.648,0.010157345750810197
3.652,0.0101622019404811
3.656,0.010168332278927042
3.66,0.010171481590050251
3.664,0.01016773126535391
3.668,0.01016864480598507
3.672,0.010166961967980302
3.676,0.01016777934643976
3.68,0.0101713373467927
3.684,0.01017088057647712
3.688,0.010164509832601925
3.692,0.010157562115696524
3.696,0.010160254656504154
3.7,0.010163884778485868
3.704,0.010170664211590793
3.708,0.010170568049419092
3.712,0.010166649440922272
3.716,0.010167851468068536
3.72,0.010166168630063768
3.724,0.010164654075859477
3.728,0.010169726630416707
3.732,0.01016544741377601
3.736,0.010154725331631342
3.74,0.010160110413246602
3.744,0.010163235683826885
3.748,0.010169486224987454
3.7520000000000002,0.01017453473900176
3.7560000000000002,0.010173164428055019
3.7600000000000002,0.010170447846704464
3.7640000000000002,0.010172010481994606
3.7680000000000002,0.010178116779897623
3.7720000000000002,0.010178837996185382
3.7760000000000002,0.010175472320175846
3.7800000000000002,0.01015636008855026
3.7840000000000003,0.010148691155357102
3.7880000000000003,0.010156624534522438
3.7920000000000003,0.01016864480598507
3.7960000000000003,0.010171505630593176
3.8000000000000003,0.01016549549486186
3.8040000000000003,0.010165639738119412
3.8080000000000003,0.010176794550036734
3.8120000000000003,0.010179751536816542
3.8160000000000003,0.010179871739531167
3.8200000000000003,0.010181602658621787
3.8240000000000003,0.01017179411710828
3.8280000000000003,0.010170976738648821
3.8320000000000003,0.010175255955289517
3.8360000000000003,0.010176842631122585
3.84,0.010175255955289517
3.844,0.010176433941892856
3.848,0.010177587887953268
3.852,0.010177034955465987
3.856,0.01017910244215756
3.86,0.010179439009758514
3.864,0.010180953563962805
3.868,0.010179318807043886
3.872,0.010172250887423859
3.876,0.01017366927945645
3.88,0.010175183833660742
3.884,0.010177563847410342
3.888,0.010180953563962805
3.892,0.01018463176703037
3.896,0.010180641036904777
3.9,0.010180905482876954
3.904,0.010186194402320513
3.908,0.010187324307838
3.912,0.01018417499671479
3.916,0.010176337779721155
3.92,0.010175832928319724
3.924,0.010180376590932598
3.928,0.01018448752377282
3.932,0.010191795848822098
3.936,0.010190137051360255
3.94,0.010190088970274404
3.944,0.010191435240678219
3.948,0.010196026984376945
3.952,0.010193382524655166
3.956,0.010190281294617807
3.96,0.010181362253192534
3.964,0.010181674780250562
3.968,0.010188814821499366
3.972,0.01019463263288728
3.976,0.010193166159768839
3.98,0.01019518556537456
3.984,0.010197180930437358
3.988,0.010197613660210013
3.992,0.010193454646283942
3.996,0.01019249302456693
4.0,0.010189728362130526
4.0040000000000004,0.010171866238737056
4.008,0.010163235683826885
4.0120000000000005,0.01017508767148904
4.016,0.010182107510023217
4.0200000000000005,0.010187156024037523
4.024,0.01018499237517425
4.0280000000000005,0.010181506496450086
4.032,0.010173909684885702
4.0360000000000005,0.010164173265000971
4.04,0.010158307372527207
4.0440000000000005,0.010160759507905584
4.048,0.010183646104770435
4.0520000000000005,0.010219466513729077
4.056,0.010256512990376908
4.0600000000000005,0.010286587709576411
4.064,0.010303055481480219
4.0680000000000005,0.010305531657401522
4.072,0.01028968893961377
4.0760000000000005,0.010270528626902335
4.08,0.010246391921805372
4.0840000000000005,0.010222928351910314
4.088,0.010208864634299035
4.0920000000000005,0.010190762105476312
4.096,0.010170856535934194
4.1,0.010173837563256927
4.104,0.010180352550389673
4.108,0.010177828293382521
4.112,0.010177299401438165
4.116,0.010180544874733076
4.12,0.010177395563609866
4.124,0.01017412604977203
4.128,0.010173500995655973
4.132,0.010177491725781567
4.136,0.010176289698635304
4.14,0.010173693319999375
4.144,0.010177155158180613
4.148,0.010175111712031965
4.152,0.010175881009405575
4.156,0.010170087238560586
4.16,0.010168548643813368
4.164,0.010176674347322109
4.168,0.010180040023331645
4.172,0.01017768405012497
4.176,0.010176025252663127
4.18,0.0101759050499485
4.184,0.010168428441098743
4.188,0.01016681772472275
4.192,0.010166168630063768
4.196,0.010165134886717981
4.2,0.010163235683826885
4.204,0.010167202373409553
4.208,0.010165519535404786
4.212,0.010164461751516075
4.216,0.010163932859571718
4.22,0.010162923156768857
4.224,0.010160591224105106
4.228,0.01014708043898111
4.232,0.010134555316117047
4.236,0.010141983843880953
4.24,0.010147609330925464
4.244,0.010151672182679834
4.248,0.01015494169651767
4.252,0.010158427575241833
4.256,0.010157441912981898
4.26,0.010155037858689372
4.264,0.010152345317881742
4.268,0.010155470588462025
4.272,0.01016047102139048
4.276,0.010164605994773626
4.28,0.01016412518391512
4.284,0.010160158494332452
4.288,0.010160903751163136
4.292,0.010156744737237065
4.296,0.010156215845292709
4.3,0.010162322143195726
4.304,0.010167106211237854
4.308,0.010164149224458045
4.312,0.010163884778485868
4.316,0.010160254656504154
4.32,0.010162923156768857
4.324,0.010164678116402402
4.328,0.010168548643813368
4.332,0.010172202806338008
4.336,0.010171265225163924
4.34,0.010166793684179824
4.344,0.010175304036375368
4.348,0.010179919820617018
4.352,0.010179871739531167
4.356,0.01017554444180462
4.36,0.010170111279103512
4.364,0.01017549636071877
4.368,0.010178285063698101
4.372,0.01017645798243578
4.376,0.01017691475275136
4.38,0.010174222211943732
4.384,0.010168668846527996
4.388,0.01016996703584596
4.392,0.010169822792588408
4.396,0.010170207441275211
4.4,0.010172178765795084
4.404,0.010163860737942943
4.408,0.01016407710282927
4.412,0.010172731698282365
4.416,0.010175472320175846
4.42,0.01017554444180462
4.424,0.010176698387865033
4.428,0.010174871306602714
4.432,0.010177058996008912
4.436,0.010177635969039119
4.44,0.010177299401438165
4.444,0.01017696283383721
4.448,0.010173044225340393
4.452,0.010160831629534359
4.456,0.010170519968333241
4.46,0.01017696283383721
4.464,0.010177924455554222
4.468,0.010176986874380137
4.472,0.010167418738295882
4.476,0.010163908819028794
4.48,0.010177948496097147
4.484,0.010191892010993799
4.488,0.010195281727546262
4.492,0.010194103740942925
4.496,0.01019102655144849
4.5,0.01019249302456693
4.5040000000000004,0.010190641902761685
4.508,0.010191098673077267
4.5120000000000005,0.010192781511082034
4.516,0.010186386726663913
4.5200000000000005,0.010185160658974726
4.524,0.010186290564492214
4.5280000000000005,0.01018472792920207
4.532,0.010184199037257716
4.5360000000000005,0.010183958631828463
4.54,0.010183982672371387
4.5440000000000005,0.010182636401967574
4.548,0.010186074199605885
4.5520000000000005,0.010185112577888875
4.556,0.01018838209172671
4.5600000000000005,0.010191579483935771
4.564,0.010189079267471543
4.5680000000000005,0.010192372821852305
4.572,0.010197349214237834
4.5760000000000005,0.010191795848822098
4.58,0.010187757037610655
4.5840000000000005,0.010175881009405575
4.588,0.010165279129975533
4.5920000000000005,0.010183453780427032
4.596,0.010195834660033543
4.6000000000000005,0.010198719525184575
4.604,0.010196820322293479
4.6080000000000005,0.010188814821499366
4.612,0.010184247118343566
4.616,0.01018650692937854
4.62,0.010193526767912717
4.624,0.010191603524478697
4.628,0.01018696369969412
4.632,0.010186314605035138
4.636,0.010190810186562163
4.64,0.01019230070022353
4.644,0.010192180497508902
4.648,0.010189055226928619
4.652,0.010185256821146427
4.656,0.010192012213708426
4.66,0.01020006579558839
4.664,0.010205474917746574
4.668,0.01020518643123147
4.672,0.010200738930790296
4.676,0.010198551241384097
4.68,0.010201556309249755
4.684,0.010207205836837192
4.688,0.010212638999538302
4.692,0.01021340829691191
4.696,0.010204056525713982
4.7,0.010190593821675835
4.704,0.010200546606446894
4.708,0.010209393526243392
4.712,0.010211557175106665
4.716,0.010210691715561356
4.72,0.010208528066698083
4.724,0.010208648269412708
4.728,0.010214946891659128
4.732,0.010217374986494578
4.736,0.010215403661974707
4.74,0.010212614958995376
4.744,0.010212542837366601
4.748,0.010216725891835596
4.752,0.010216846094550223
4.756,0.010213095769853882
4.76,0.010213240013111434
4.764,0.010213696783427014
4.768,0.01021610083771954
4.772,0.010221485919334798
4.776,0.010220644500332414
4.78,0.010218649135269618
4.784,0.010212254350851498
4.788,0.010200931255133699
4.792,0.010202541971509691
4.796,0.01021162929673544
4.8,0.010239876934672624
4.804,0.01027548097874494
4.808,0.010300795670445244
4.812,0.01031192644181964
4.816,0.010333226362851425
4.82,0.010338659525552534
4.824,0.010330533822043795
4.828,0.010307118333234588
4.832,0.010275769465260043
4.836,0.010261489382762437
4.84,0.010253123273824445
4.844,0.010239059556213166
4.848,0.010233602352969131
4.852,0.01022752009560904
4.856,0.010227712419952443
4.86,0.010228625960583602
4.864,0.010226462311720329
4.868,0.01023016455533082
4.872,0.010225909379233048
4.876,0.01022619786574815
4.88,0.010224587149372157
4.884,0.010220788743589965
4.888,0.010222062892365005
4.892,0.010226630595520805
4.896,0.010225356446745767
4.9,0.01022213501399378
4.904,0.010225067960230663
4.908,0.010226943122578833
4.912,0.010227904744295843
4.916,0.010230116474244969
4.92,0.01022477947371556
4.924,0.010223625527655147
4.928,0.010230645366189324
4.932,0.010230188595873744
4.936,0.01023112617704783
4.94,0.01023259265016627
4.944,0.010217254783779953
4.948,0.010209633931672644
4.952,0.010219562675900778
4.956,0.010226991203664684
4.96,0.010232111839307764
4.964,0.010230765568903951
4.968,0.010221341676077246
4.972,0.010217543270295056
4.976,0.010220187730016834
4.98,0.01022619786574815
4.984,0.010228265352439724
4.988,0.01021888954069887
4.992,0.010212013945422245
4.996,0.01021610083771954
5.0,0.010220307932731461
5.0040000000000004,0.01021980308133003
5.008,0.010219009743413497
5.0120000000000005,0.010214754567315725
5.016,0.010214249715914295
5.0200000000000005,0.010216701851292672
5.024,0.01021888954069887
5.0280000000000005,0.010217615391923831
5.032,0.010218240446039887
5.0360000000000005,0.010214586283515249
5.04,0.010214682445686948
5.0440000000000005,0.010218288527125738
5.048,0.010220283892188535
5.0520000000000005,0.010221269554448471
5.056,0.010208600188326858
5.0600000000000005,0.010205330674489022
5.064,0.010214586283515249
5.0680000000000005,0.010221894608564527
5.072,0.010226871000950058
5.0760000000000005,0.010228553838954825
5.08,0.010228000906467544
5.0840000000000005,0.010230044352616192
5.088,0.010231703150078035
5.0920000000000005,0.010232448406908718
5.096,0.010235068826087572
5.1000000000000005,0.010234756299029544
5.104,0.01023259265016627
5.1080000000000005,0.010237737326352277
5.112,0.010241127042904738
5.1160000000000005,0.010238530664268811
5.12,0.010233890839484235
5.124,0.010227544136151965
5.128,0.010233842758398384
5.132,0.010238819150783913
5.136,0.0102376652047235
5.14,0.010236415096491387
5.144,0.010234035082741786
5.148,0.010231390623020007
5.152,0.0102398528941297
5.156,0.010240694313132084
5.16,0.010245021610858631
5.164,0.010247882435466737
5.168,0.01023163102844926
5.172,0.010219346311014451
5.176,0.010226390190091552
5.18,0.010232496487994569
5.184,0.010239732691415074
5.188,0.010237569042551799
5.192,0.010232400325822868
5.196,0.01023437165034274
5.2,0.01023720843440792
5.204,0.01024086259693256
5.208,0.010235477515317302
5.212,0.010232232042022392
5.216,0.01023624681269091
5.22,0.010241872299735421
5.224,0.010239636529243373
5.228,0.010236559339748938
5.232,0.010235958326175807
5.236,0.010233361947539878
5.24,0.010235429434231452
5.244,0.010237016110064518
5.248,0.010236030447804583
5.252,0.010234900542287095
5.256,0.010234443771971516
5.26,0.010230909812161501
5.264,0.010227351811808562
5.268,0.010226822919864207
5.272,0.010227688379409516
5.276,0.010233722555683758
5.28,0.010232616690709196
5.284,0.010231486785191708
5.288,0.010231847393335587
5.292,0.010232688812337971
5.296,0.010234876501744171
5.3,0.010234684177400769
5.304,0.010214730526772799
5.308,0.010211316769677412
5.312,0.010220812784132892
5.316,0.010240477948245756
5.32,0.01024615151637612
5.324,0.010240886637475487
5.328,0.01023720843440792
5.332,0.010240886637475487
5.336,0.010242064624078824
5.34,0.010245863029861016
5.344,0.010243603218826041
5.348,0.010235261150430974
5.352,0.010238602785897586
5.356,0.010242569475480254
5.36,0.010245117773030332
5.364,0.01024761798949456
5.368,0.010245598583888838
5.372,0.010239227840013644
5.376,0.010238722988612212
5.38,0.010239275921099493
5.384,0.010238674907526361
5.388,0.010236799745178191
5.392,0.010231150217590754
5.396,0.010232953258310149
5.4,0.010231342541934156
5.404,0.010229082730899182
5.408,0.010229707785015238
5.412,0.010230429001302997
5.416,0.010223072595167866
5.42,0.010227231609093937
5.424,0.010237304596579622
5.428,0.010242713718737806
5.432,0.010245069691944482
5.436,0.01024040582661698
5.44,0.010235717920746554
5.444,0.010239756731957999
5.448,0.01024228098896515
5.452,0.010243939786426995
5.456,0.010246103435290269
5.46,0.01023807389395323
5.464,0.010237593083094725
5.468,0.010244444637828426
5.472,0.010246920813749727
5.476,0.010250623057360218
5.48,0.010247233340807755
5.484,0.010240574110417457
5.488,0.010241151083447664
5.492,0.01024396382696992
5.496,0.010243987867512846
5.5,0.010242882002538282
5.5040000000000004,0.010240477948245756
5.508,0.010240165421187728
5.5120000000000005,0.010243627259368965
5.516,0.010248339205782317
5.5200000000000005,0.010249613354557357
5.524,0.010244661002714752
5.5280000000000005,0.010223024514082015
5.532,0.010216413364777568
5.5360000000000005,0.010225019879144813
5.54,0.010226462311720329
5.5440000000000005,0.010221317635534322
5.548,0.010212927486053404
5.5520000000000005,0.010203623795941329
5.556,0.010204128647342759
5.5600000000000005,0.010220307932731461
5.564,0.010254950355086764
5.5680000000000005,0.010285962655460355
5.572,0.010311613914761613
5.5760000000000005,0.01033284171416462
5.58,0.010341376106903088
5.5840000000000005,0.01034010195812805
5.588,0.010323129334822814
5.5920000000000005,0.01029319885888086
5.596,0.01026822073478151
5.6000000000000005,0.01025350792251125
5.604,0.010242906043081208
5.6080000000000005,0.01023396296111301
5.612,0.0102307174878181
5.6160000000000005,0.01022290431136739
5.62,0.010217447108123355
5.6240000000000006,0.010216293162062942
5.628,0.010218168324411112
5.632,0.01021944247318615
5.636,0.010214970932202052
5.64,0.010208407863983455
5.644,0.01020732603955182
5.648,0.010208047255839577
5.652,0.010209970499273597
5.656,0.010205474917746574
5.66,0.010194440308543877
5.664,0.010174053928143254
5.668,0.010175856968862649
5.672,0.010180905482876954
5.676,0.010182011347851516
5.68,0.010181554577535936
5.684,0.010178597590756129
5.688,0.010177996577182997
5.692,0.010180713158533552
5.696,0.010176794550036734
5.7,0.0101736211983706
5.704,0.010165158927260907
5.708,0.01015804292655503
5.712,0.010155374426290324
5.716,0.010154725331631342
5.72,0.010154148358601137
5.724,0.010146503465950902
5.728,0.010137800789411957
5.732,0.010136286235207665
5.736,0.010127535477582869
5.74,0.010119554017331682
5.744,0.010112630340969207
5.748,0.01010601919166476
5.752,0.010094720136489885
5.756,0.010090633244192588
5.76,0.010086113622122639
5.764,0.010082531581226776
5.768,0.010074526080432663
5.772,0.010059404578932672
5.776,0.010033969684517743
5.78,0.010027839346071802
5.784,0.010029690467877047
5.788,0.010029546224619495
5.792,0.010020170412878643
5.796,0.010012838047286437
5.8,0.010010770560594864
5.804,0.010003029505772929
5.808,0.009996081788867529
5.812,0.009991634288426353
5.816,0.009983676868718091
5.82,0.009976464705840512
5.824,0.009968290921245923
5.828,0.009966439799440677
5.832,0.009964300191120328
5.836,0.009958578541904116
5.84,0.00994977970319347
5.844,0.009942687743030516
5.848,0.009946077459582979
5.852,0.009947519892158495
5.856,0.009945284121666445
5.86,0.009942158851086161
5.864,0.009927421998272975
5.868,0.009925907444068682
5.872,0.00992658057927059
5.876,0.009922854295117174
5.88,0.009920113673223695
5.884,0.009912180294058357
5.888,0.00989881375219191
5.892,0.009900929319969335
5.896,0.009912588983288086
5.9,0.009918623159562328
5.904,0.009914464145636258
5.908,0.009905448942039284
5.912,0.009899198400878715
5.916,0.00989927052250749
5.92,0.00989739536015932
5.924,0.009899967698252323
5.928,0.009901842860600495
5.932,0.009891914116372361
5.936,0.009892467048859642
5.94,0.009894390292293663
5.944,0.009894991305866794
5.948,0.009895784643783328
5.952,0.009888332075476496
5.956,0.009885615494125942
5.96,0.00988770702136044
5.964,0.009885855899555195
5.968,0.009877922520389857
5.972,0.009871960465744392
5.976,0.009867585086931994
5.98,0.009866142654356478
5.984,0.00986450789743756
5.988,0.009863450113548848
5.992,0.009870181465567923
5.996,0.009869604492537716
6.0,0.009861070099799248
6.0040000000000004,0.00986486850558144
6.008,0.009865036789381916
6.0120000000000005,0.009856165829042494
6.016,0.009849145990508318
6.0200000000000005,0.00984481869278177
6.024,0.009840371192340595
6.0280000000000005,0.009843256057491628
6.032,0.00984445808463789
6.0360000000000005,0.009844842733324696
6.04,0.009842342516860468
6.0440000000000005,0.0098293365831379
6.048,0.009819023190222962
6.0520000000000005,0.009831043461685594
6.056,0.009836813191987656
6.0600000000000005,0.009839145124651408
6.064,0.00983445721878098
6.0680000000000005,0.00982741333970388
6.072,0.009825490096269858
6.0760000000000005,0.009823711096093389
6.08,0.009824384231295296
6.0840000000000005,0.009821042595828685
6.088,0.009812027392231712
6.0920000000000005,0.009810584959656195
6.096,0.009817340352218195
6.1000000000000005,0.009818133690134727
6.104,0.009814864176296892
6.1080000000000005,0.009810801324542522
6.112,0.009804214215781001
6.1160000000000005,0.009804478661753178
6.12,0.009804598864467804
6.1240000000000006,0.009803925729265897
6.128,0.009811450419201504
6.132000000000001,0.009810056067711839
6.136,0.009793395971464629
6.140000000000001,0.009790583227942374
6.144,0.009795367295984502
6.148,0.0097975549853907
6.152,0.009799333985567172
6.156,0.009796833769102942
6.16,0.009793564255265107
6.164,0.00979868489090819
6.168,0.009797915593534582
6.172,0.009798300242221385
6.176,0.009804911391525832
6.18,0.009802747742662559
6.184,0.009799910958597379
6.188,0.009798901255794516
6.192,0.009797074174532195
6.196,0.009794622039153818
6.2,0.009793828701237284
6.204,0.009799309945024247
6.208,0.009805680688899442
6.212,0.00980914252708068
6.216,0.00980289198592011
6.22,0.009795583660870829
6.224,0.009793203647121227
6.228,0.009801593796602146
6.232,0.009805800891614067
6.236,0.009801521674973371
6.24,0.009799622472082275
6.244,0.0097975549853907
6.248,0.009786255930215827
6.252,0.009794838404040145
6.256,0.009805824932156993
6.26,0.009811041729971775
6.264,0.009807435648532986
6.268,0.009807579891790538
6.272,0.009811330216486879
6.276,0.009813638108607704
6.28,0.009822340785146648
6.284,0.009824985244868427
6.288,0.009820032893025823
6.292,0.009818902987508336
6.296,0.009822316744603724
6.3,0.00982298987980563
6.304,0.00981746055493282
6.308,0.009813974676208656
6.312,0.009803685323836644
6.316,0.009799526309910574
6.32,0.009808926162194352
6.324,0.009832101245574305
6.328,0.009863522235177625
6.332,0.009902395793087776
6.336,0.00993328789074674
6.34,0.009951654865541639
6.344,0.009958338136474863
6.348,0.009953289622460558
6.352,0.009931893539257074
6.356,0.009903838225663292
6.36,0.009883091237118788
6.364,0.009877489790617203
6.368,0.00987450876329447
6.372,0.009871671979229288
6.376,0.009868955397878734
6.38,0.009860276761882714
6.384,0.009848352652591784
6.388,0.009865974370556002
6.392,0.009879725561109252
6.396,0.009885783777926418
6.4,0.00988496639946696
6.404,0.009884605791323081
6.408,0.009885543372497165
6.412,0.009881240115313543
6.416,0.009884485588608454
6.42,0.00988907733230718
6.424,0.009891914116372361
6.428,0.009893068062432774
6.432,0.009894871103152169
6.436,0.00989597696812673
6.44,0.009901722657885867
6.444,0.009899174360335791
6.448,0.00988963026479446
6.452,0.009889317737736433
6.456,0.009891745832571883
6.46,0.009893116143518624
6.464,0.009897154954730068
6.468,0.009898236779161705
6.472,0.009900833157797634
6.476,0.00990292468503213
6.48,0.00989999173879525
6.484,0.009899655171194295
6.488,0.00989633757627061
6.492,0.009886240548241998
6.496,0.009879196669164897
6.5,0.009886456913128326
6.5040000000000004,0.00989273149483182
6.508,0.00989181795420066
6.5120000000000005,0.009891024616284126
6.516,0.009883860534492398
6.5200000000000005,0.009882922953318312
6.524,0.009886817521272205
6.5280000000000005,0.009884173061550426
6.532,0.009882249818116405
6.5360000000000005,0.009878547574505915
6.54,0.009877850398761082
6.5440000000000005,0.009879052425907345
6.548,0.009878427371791287
6.5520000000000005,0.00988044677739701
6.556,0.009880639101740411
6.5600000000000005,0.009876263722928014
6.564,0.009873499060491609
6.5680000000000005,0.00987354714157746
6.572,0.00987811484473326
6.5760000000000005,0.009878691817763467
6.58,0.009877008979758697
6.5840000000000005,0.009876023317498761
6.588,0.009879773642195102
6.5920000000000005,0.009886192467156147
6.596,0.009893620994920055
6.6000000000000005,0.009893669076005905
6.604,0.00988419710209335
6.6080000000000005,0.00987309037126188
6.612,0.009875254020125153
6.6160000000000005,0.009870950762941531
6.62,0.009873475019948683
6.6240000000000006,0.009869796816881118
6.628,0.009865974370556002
6.632000000000001,0.009874364520036918
6.636,0.009879437074594148
6.640000000000001,0.00987135945217126
6.644,0.009859339180708629
6.648000000000001,0.00985796886976189
6.652,0.009854290666694323
6.656000000000001,0.009856887045330252
6.66,0.0098589304914789
6.664,0.009854627234295277
6.668,0.009849771044624374
6.672,0.00984171746274441
6.676,0.009847391030874774
6.68,0.009851862571858872
6.684,0.009856959166959028
6.688,0.009853377126063163
6.692,0.009838544111078276
6.696,0.009833327313263494
6.7,0.009840419273426446
6.704,0.009844842733324696
6.708,0.009842655043918496
6.712,0.00984198190871659
6.716,0.009836909354159358
6.72,0.00983568328647017
6.724,0.009836332381129152
6.728,0.009833760043036148
6.732,0.009834889948553636
6.736,0.009832461853718185
6.74,0.009820994514742835
6.744,0.009820513703884329
6.748,0.009828182637077488
6.752,0.009827822028933609
6.756,0.009829096177708647
6.76,0.009830730934627566
6.764,0.00983070689408464
6.768,0.00982796627219116
6.772,0.0098315242725441
6.776,0.009834288934980505
6.78,0.009831836799602128
6.784,0.009827749907304832
6.788,0.009827725866761908
6.792,0.00983253397534696
6.796,0.009832966705119616
6.8,0.009830202042683209
6.804,0.009829480826395452
6.808,0.009823711096093389
6.812,0.009823158163606108
6.816,0.009823590893378762
6.82,0.009823470690664136
6.824,0.00982111471745746
6.828,0.009817148027874792
6.832,0.009813565986978927
6.836,0.009817388433304045
6.84,0.009818470257735681
6.844,0.009818686622622008
6.848,0.009816210446700706
6.852,0.009803637242750794
6.856,0.009798973377423293
6.86,0.009807243324189583
6.864,0.00981161870300198
6.868,0.009821042595828685
6.872,0.009827485461332655
6.876,0.009829096177708647
6.88,0.009829048096622797
6.884,0.009830827096799267
6.888,0.009836524705472555
6.892,0.00983852007053535
6.896,0.009839024921936782
6.9,0.00983760652990419
6.904,0.009832269529374783
6.908,0.009827317177532179
6.912,0.009822148460803247
6.916,0.009828350920877964
6.92,0.009827990312734085
6.924,0.009831932961773829
6.928,0.009835707327013095
6.932,0.009827749907304832
6.936,0.009826259393643467
6.94,0.009826884447759523
6.944,0.009826403636901019
6.948,0.009830057799425659
6.952,0.009836380462215003
6.956,0.009843424341292104
6.96,0.009846621733501164
6.964,0.009836765110901806
6.968,0.009824480393466997
6.972,0.009833255191634718
6.976,0.00984217423305999
6.98,0.00984481869278177
6.984,0.009846357287528987
6.988,0.009849867206796075
6.992,0.009858545842792095
6.996,0.009861526870114828
7.0,0.009859002613107674
7.0040000000000004,0.009863762640606876
7.008,0.009872970168547253
7.0120000000000005,0.009870277627739624
7.016,0.009870421870997174
7.0200000000000005,0.009874292398408143
7.024,0.009872705722575075
7.0280000000000005,0.009862416370203063
7.032,0.009855252288411335
7.0360000000000005,0.009856478356100522
7.04,0.009855204207325484
7.0440000000000005,0.009848112247162531
7.048,0.009846020719928033
7.0520000000000005,0.009846477490243612
7.056,0.009841573219486859
7.0600000000000005,0.009842919489890673
7.064,0.009850035490596551
7.0680000000000005,0.009852728031404181
7.072,0.009852199139459826
7.0760000000000005,0.009840827962656177
7.08,0.00983294266457669
7.0840000000000005,0.00982984143453933
7.088,0.009838231584020248
7.0920000000000005,0.009860204640253938
7.096,0.009889293697193506
7.1000000000000005,0.009918863564991581
7.104,0.009947688175958971
7.1080000000000005,0.00995535710915213
7.112,0.009953409825175183
7.1160000000000005,0.00994845747333258
7.12,0.009931004039168839
7.1240000000000006,0.0099046075230369
7.128,0.009887226210501934
7.132000000000001,0.00987715322301625
7.136,0.009862776978346942
7.140000000000001,0.00985075670688431
7.144,0.009838135421848547
7.148000000000001,0.009830202042683209
7.152,0.009836572786558405
7.156000000000001,0.009839938462567942
7.16,0.009839938462567942
7.164000000000001,0.00983522651615459
7.168,0.0098271488937317
7.172,0.009824792920525025
7.176,0.009823086041977331
7.18,0.009829673150738854
7.184,0.009836164097328674
7.188,0.009828038393819936
7.192,0.009819864609225347
7.196,0.009818109649591802
7.2,0.009824744839439174
7.204,0.009826668082873196
7.208,0.00982426402858067
7.212,0.009806281702472573
7.216,0.009800752377599762
7.22,0.009813638108607704
7.224,0.009820441582255554
7.228,0.009822869677091004
7.232,0.00981969632542487
7.236,0.009811642743544907
7.24,0.00981157062191613
7.244,0.00981421508163791
7.248,0.009818494298278607
7.252,0.00981883086587956
7.256,0.009814960338468593
7.26,0.00981020031096939
7.264,0.009809046364908978
7.268,0.009808950202737277
7.272,0.009814455487067162
7.276,0.009815561352041724
7.28,0.009814094878923284
7.284,0.009817941365791326
7.288,0.009818061568505952
7.292,0.009820441582255554
7.296,0.009818590460450308
7.3,0.009811474459744429
7.304,0.009809358891967006
7.308,0.009812267797660963
7.312,0.009814142960009134
7.316,0.009813902554579881
7.32,0.009809983946083064
7.324,0.009796352958244436
7.328,0.009789164835909784
7.332,0.00980243521560453
7.336,0.009812580324718993
7.34,0.009812916892319945
7.344,0.009812219716575112
7.348,0.009811161932686401
7.352,0.009818614500993233
7.356,0.009829120218251573
7.36,0.009833255191634718
7.364,0.009830274164311986
7.368,0.009827605664047282
7.372,0.009824648677267475
7.376,0.009829528907481302
7.38,0.009834553380952682
7.384,0.009833928326836626
7.388,0.009829913556168107
7.392,0.00983065881299879
7.396,0.009836308340586226
7.4,0.009836380462215003
7.404,0.009836019854071124
7.408,0.009836212178414525
7.412,0.009825033325954278
7.416,0.009821234920172086
7.42,0.009824480393466997
7.424,0.009830490529198313
7.428,0.00983472166475316
7.432,0.009828687488478918
7.436,0.009824624636724549
7.44,0.00982700465047415
7.444,0.009833255191634718
7.448,0.009840010584196717
7.452,0.009839409570623585
7.456,0.009837342083932013
7.46,0.009837991178590995
7.464,0.009839698057138689
7.468,0.009835010151268262
7.472,0.009831163664400221
7.476,0.009830971340056819
7.48,0.009831908921230903
7.484,0.009826283434186392
7.488,0.009824865042153802
7.492,0.009831163664400221
7.496,0.009844097476494012
7.5,0.009847439111960624
7.5040000000000004,0.009831163664400221
7.508,0.009820898352571134
7.5120000000000005,0.009827605664047282
7.516,0.009833760043036148
7.5200000000000005,0.009835851570270646
7.524,0.009826860407216599
7.5280000000000005,0.009816018122357304
7.532,0.009819047230765888
7.5360000000000005,0.009820032893025823
7.54,0.009816571054844585
7.5440000000000005,0.009818398136106906
7.548,0.009821715731030592
7.5520000000000005,0.009821595528315966
7.556,0.009823614933921688
7.5600000000000005,0.009830394367026611
7.564,0.009832606096975735
7.5680000000000005,0.009828639407393067
7.572,0.009808156864820743
7.5760000000000005,0.009807387567447135
7.58,0.009815777716928051
7.5840000000000005,0.009815946000728529
7.588,0.009821451285058415
7.5920000000000005,0.009819960771397048
7.596,0.009819792487596572
7.6000000000000005,0.009819431879452691
7.604,0.009825994947671288
7.6080000000000005,0.00983065881299879
7.612,0.009831259826571922
7.6160000000000005,0.009828567285764292
7.62,0.009826235353100541
7.6240000000000006,0.009824504434009923
7.628,0.009825033325954278
7.632000000000001,0.009823326447406584
7.636,0.009823903420436791
7.640000000000001,0.00982421594749482
7.644,0.009829168299337424
7.648000000000001,0.009829985677796882
7.652,0.009829168299337424
7.656000000000001,0.00982787011001946
7.66,0.009822148460803247
7.664000000000001,0.009816571054844585
7.668,0.009816474892672884
7.672000000000001,0.00981883086587956
7.676,0.009816210446700706
7.68,0.009810440716398644
7.684,0.009795944269014707
7.688,0.009796208714986885
7.692,0.009800439850541734
7.696,0.009803084310263513
7.7,0.00981015222988354
7.704,0.009808373229707072
7.708,0.009809214648709454
7.712,0.00981385447349403
7.716,0.009815465189870023
7.72,0.009821956136459845
7.724,0.00982426402858067
7.728,0.009818061568505952
7.732,0.009814022757294507
7.736,0.009814623770867639
7.74,0.00981599408181438
7.744,0.009823711096093389
7.748,0.009830682853541715
7.752,0.009828399001963814
7.756,0.009825562217898634
7.76,0.009820321379540926
7.764,0.009822316744603724
7.768,0.009828399001963814
7.772,0.00982527373138353
7.776,0.00981923955510929
7.78,0.009815417108784173
7.784,0.009815008419554443
7.788,0.009812652446347768
7.792,0.00981020031096939
7.796,0.009802723702119634
7.8,0.009810897486714223
7.804,0.009820249257912151
7.808,0.009817484595475745
7.812,0.009808974243280203
7.816,0.009800680255970987
7.82,0.009788251295278624
7.824,0.00979152080911646
7.828,0.009798444485478936
7.832,0.009800223485655407
7.836,0.00979522305272695
7.84,0.009785126024698339
7.844,0.009774379902010747
7.848,0.009766903293160989
7.852,0.009768201482478953
7.856,0.009783948038095002
7.86,0.009818902987508336
7.864,0.00985354540986364
7.868,0.009884124980464575
7.872,0.009898068495361227
7.876,0.009897203035815918
7.88,0.009888067629504319
7.884,0.009869147722222136
7.888,0.009847342949788923
7.892,0.00982298987980563
7.896,0.009800944701943164
7.9,0.009787986849306445
7.904,0.009785294308498817
7.908,0.009773947172238092
7.912,0.009768009158135551
7.916,0.009770581496228555
7.92,0.009775317483184831
7.924,0.009773274037036185
7.928,0.00976649460393126
7.932,0.009749113291396294
7.936,0.009748247831850985
7.94,0.009751950075461476
7.944,0.009753632913466244
7.948,0.00975320018369359
7.952,0.009749858548226978
7.956,0.009753344426951142
7.96,0.00976019598168484
7.964,0.00975964304919756
7.968,0.009755724440700742
7.972,0.009752358764691205
7.976,0.009747262169591049
7.98,0.009748752683252416
7.984,0.009748343994022687
7.988,0.009750435521257185
7.992,0.00974822379130806
7.996,0.009740025966170546
8.0,0.009733991789896304
8.004,0.009735001492699165
8.008000000000001,0.009741756885261164
8.012,0.009745459128871654
8.016,0.00974584377755846
8.02,0.009743343561094232
8.024000000000001,0.009738775857938432
8.028,0.009739521114769115
8.032,0.009741588601460687
8.036,0.00973812676327945
8.040000000000001,0.009736948776676111
8.044,0.009731347330174524
8.048,0.009731491573432076
8.052,0.009730145303028261
8.056000000000001,0.009725505478243687
8.06,0.009724543856526676
8.064,0.009719567464141146
8.068,0.009706032638474223
8.072000000000001,0.00971213893637724
8.076,0.00971401409872541
8.08,0.009721514748118092
8.084,0.009721875356261971
8.088000000000001,0.009715769058358954
8.092,0.009717740382878827
8.096,0.009720649288572783
8.1,0.009722572532006804
8.104000000000001,0.009726154572902669
8.108,0.009721851315719046
8.112,0.009715480571843852
8.116,0.009715144004242898
8.120000000000001,0.00971122539574608
8.124,0.009715408450215075
8.128,0.009715528652929703
8.132,0.009707763557564843
8.136000000000001,0.009706321124989327
8.14,0.009715168044785822
8.144,0.00972314950503701
8.148,0.009725072748471031
8.152000000000001,0.009719423220883594
8.156,0.009716874923333516
8.16,0.009720985856173738
8.164,0.009720793531830335
8.168000000000001,0.009725265072814434
8.172,0.009725120829556882
8.176,0.009717548058535424
8.18,0.009708845381996479
8.184000000000001,0.009718966450568014
8.188,0.009730553992257992
8.192,0.00973182814103303
8.196,0.009729351965111729
8.2,0.009721755153547345
8.204,0.009722861018521907
8.208,0.009727236397334305
8.212,0.009724591937612527
8.216,0.009725216991728583
8.22,0.009725649721501238
8.224,0.009726178613445593
8.228,0.009727500843306484
8.232,0.00972543335661491
8.236,0.009726587302675322
8.24,0.009725144870099808
8.244,0.009714591071755617
8.248,0.009714999760985346
8.252,0.009722019599519523
8.256,0.009724808302498854
8.26,0.009722067680605373
8.264,0.009718509680252434
8.268,0.00971716340984862
8.272,0.009712355301263567
8.276,0.009703844949068023
8.28,0.009700623516316039
8.284,0.009704998895128436
8.288,0.009700815840659441
8.292,0.009687497379878843
8.296,0.009691680434347838
8.3,0.00969913300265467
8.304,0.00970346030038122
8.308,0.009704710408613334
8.312,0.009693146907466279
8.316,0.00969350751561016
8.32,0.009701272610975021
8.324,0.009698363705281062
8.328,0.009696536624018742
8.332,0.009697738651165005
8.336,0.009701753421833527
8.34,0.009705623949244494
8.344,0.009707042341277084
8.348,0.009707547192678514
8.352,0.00970254675975006
8.356,0.009702234232692031
8.36,0.009705143138385988
8.364,0.009705864354673747
8.368,0.009703580503095846
8.372,0.009705239300557689
8.376,0.00970071967848774
8.38,0.009691440028918585
8.384,0.009690238001772322
8.388,0.00969045436665865
8.392,0.009692209326292195
8.396,0.009688098393451975
8.4,0.009683963420068829
8.404,0.009685910704045776
8.408,0.009691584272176137
8.412,0.009697450164649901
8.416,0.00969694531324847
8.42,0.00969329115072383
8.424,0.009682545028036239
8.428,0.009678145608680916
8.432,0.009683122001066444
8.436,0.009685261609386793
8.44,0.009685357771558495
8.444,0.009680525622430516
8.448,0.009675308824615734
8.452,0.009681463203604601
8.456,0.00968182381174848
8.46,0.0096835547308391
8.464,0.009684299987669783
8.468,0.00968268927129379
8.472,0.009683987460611755
8.476,0.009683963420068829
8.48,0.009682761392922566
8.484,0.009686415555447206
8.488,0.00968497312287169
8.492,0.009679299554741328
8.496,0.009682713311836715
8.5,0.009687401217707142
8.504,0.009689468704398714
8.508000000000001,0.009693483475067233
8.512,0.009695575002301731
8.516,0.009693675799410635
8.52,0.00969273821823655
8.524000000000001,0.009693170948009205
8.528,0.009695310556329554
8.532,0.009693002664208729
8.536,0.009681727649576779
8.540000000000001,0.009670500716030681
8.544,0.009677616716736559
8.548,0.009691656393804914
8.552,0.009702618881378836
8.556000000000001,0.009701513016404274
8.56,0.00969766652953623
8.564,0.009701993827262778
8.568,0.009705311422186466
8.572000000000001,0.009702739084093462
8.576,0.00970208998943448
8.58,0.00969456529949887
8.584,0.00968918021788361
8.588000000000001,0.009693771961582337
8.592,0.00969127174511811
8.596,0.009693820042668187
8.6,0.00969232952900682
8.604000000000001,0.009677809041079961
8.608,0.009670861324174562
8.612,0.0096744193245275
8.616,0.009699998462199981
8.620000000000001,0.00973762191187802
8.624,0.009768009158135551
8.628,0.00978933311971026
8.632,0.009804791188811206
8.636000000000001,0.009800608134342212
8.64,0.00979471820132552
8.644,0.009780967010772268
8.648,0.009745747615386758
8.652000000000001,0.009708388611680899
8.656,0.009703219894951967
8.66,0.009695382677958329
8.664,0.009690574569373276
8.668000000000001,0.009693579637238934
8.672,0.009689468704398714
8.676,0.009688771528653882
8.68,0.009689805271999669
8.684000000000001,0.009693627718324785
8.688,0.009694901867099825
8.692,0.009690839015345454
8.696,0.009693122866923354
8.700000000000001,0.009695166313072002
8.704,0.009691536191090287
8.708,0.009694252772440843
8.712,0.009694493177870094
8.716,0.009688771528653882
8.72,0.009686199190560879
8.724,0.009683747055182502
8.728,0.00968091027111732
8.732,0.009685502014816046
8.736,0.009687016569020337
8.74,0.009684588474184887
8.744,0.00969177659651954
8.748,0.009696055813160237
8.752,0.009688410920510003
8.756,0.009683747055182502
8.76,0.009675813676017164
8.764,0.009677304189678531
8.768,0.009684203825498082
8.772,0.009687232933906664
8.776,0.009689564866570416
8.78,0.00968954082602749
8.784,0.009670428594401906
8.788,0.009667207161649921
8.792,0.009677881162708738
8.796,0.00968040541971589
8.8,0.009682424825321612
8.804,0.009680140973743713
8.808,0.009676270446332746
8.812,0.009677736919451186
8.816,0.009680621784602217
8.82,0.00968131896034705
8.824,0.009680741987316844
8.828,0.009676582973390774
8.832,0.009676222365246895
8.836,0.009677352270764382
8.84,0.009676078121989343
8.844,0.009674251040727022
8.848,0.009674251040727022
8.852,0.009676390649047371
8.856,0.009683843217354203
8.86,0.009685309690472644
8.864,0.009680573703516366
8.868,0.00967990056831446
8.872,0.009679203392569627
8.876,0.009677833081622888
8.88,0.009681511284690452
8.884,0.009687978190737348
8.888,0.009690646691002053
8.892,0.009689757190913818
8.896,0.009675260743529883
8.9,0.009673625986610966
8.904,0.009683650893010801
8.908,0.009689781231456742
8.912,0.009689204258426537
8.916,0.009684708676899512
8.92,0.009685357771558495
8.924,0.009695166313072002
8.928,0.009698507948538614
8.932,0.009694156610269141
8.936,0.009689685069285041
8.94,0.00968908405571191
8.944,0.00969035820448695
8.948,0.009693170948009205
8.952,0.009693074785837504
8.956,0.009694324894069618
8.96,0.009693988326468663
8.964,0.009687930109651497
8.968,0.009690550528830352
8.972,0.009691415988375661
8.976,0.00969187275869124
8.98,0.009698339664738136
8.984,0.00969862815125324
8.988,0.009697738651165005
8.992,0.009698291583652286
8.996,0.009697185718677724
9.0,0.009698531989081539
9.004,0.009705239300557689
9.008000000000001,0.009700046543285832
9.012,0.009699181083740521
9.016,0.009702618881378836
9.02,0.009704638286984557
9.024000000000001,0.00970898962525403
9.028,0.009702618881378836
9.032,0.009688362839424152
9.036,0.009697810772793782
9.040000000000001,0.009706825976390757
9.044,0.00970538354381524
9.048,0.00970675385476198
9.052,0.009708412652223823
9.056000000000001,0.009710095490228592
9.06,0.00971254762560697
9.064,0.00971213893637724
9.068,0.009713268841894726
9.072000000000001,0.00971401409872541
9.076,0.009709374273940835
9.08,0.009707402949420962
9.084,0.0097062009222747
9.088000000000001,0.009710696503801724
9.092,0.00971218701746309
9.096,0.009708556895481375
9.1,0.009708340530595048
9.104000000000001,0.00971360540949568
9.108,0.009718317355909032
9.112,0.009714999760985346
9.116,0.009715144004242898
9.120000000000001,0.009716850882790591
9.124,0.009715648855644328
9.128,0.00971396601763956
9.132,0.009712691868864521
9.136000000000001,0.009713437125695204
9.14,0.009709566598284237
9.144,0.009695166313072002
9.148,0.009697858853879632
9.152000000000001,0.009708388611680899
9.156,0.009713124598637176
9.16,0.009709879125342265
9.164,0.009706104760102998
9.168000000000001,0.009707763557564843
9.172,0.009712114895834314
9.176,0.009712451463435268
9.18,0.00971091286868805
9.184000000000001,0.009709326192854984
9.188,0.009704133435583127
9.192,0.009706080719560074
9.196,0.009705527787072793
9.200000000000001,0.009710263774029068
9.204,0.009713725612210308
9.208,0.009714975720442422
9.212,0.009705046976214287
9.216000000000001,0.009702065948891555
9.22,0.009696176015874863
9.224,0.009696127934789012
9.228,0.009698243502566435
9.232,0.009696103894246088
9.236,0.00969670490781922
9.24,0.009700479273058487
9.244,0.009700887962288216
9.248,0.009698075218765959
9.252,0.009698531989081539
9.256,0.009682280582064062
9.26,0.009681992095548958
9.264,0.009698291583652286
9.268,0.009704590205898707
9.272,0.009706393246618102
9.276,0.009703700705810472
9.28,0.00970624900336055
9.284,0.009711273476831931
9.288,0.009709638719913012
9.292,0.009712571666149895
9.296,0.009715696936730179
9.3,0.009712451463435268
9.304,0.009710432057829546
9.308,0.009711057111945602
9.312,0.009713365004066428
9.316,0.00971620178813161
9.32,0.0097153363285863
9.324,0.009712403382349417
9.328,0.0097153363285863
9.332,0.009715264206957524
9.336,0.009714038139268336
9.34,0.009714422787955139
9.344,0.009710792665973425
9.348,0.009709734882084714
9.352,0.009717499977449574
9.356,0.00972086565345911
9.36,0.009720937775087887
9.364,0.009713365004066428
9.368,0.009694613380584721
9.372,0.009688194555623676
9.376,0.009694036407554514
9.38,0.009694901867099825
9.384,0.009690887096431304
9.388,0.009691752555976615
9.392,0.009702162111063256
9.396,0.0097336071412095
9.4,0.009767720671620449
9.404,0.009798564688193564
9.408,0.009822196541889098
9.412,0.009829889515625181
9.416,0.009827269096446328
9.42,0.009813517905893077
9.424,0.00979253051191932
9.428,0.009769139063653039
9.432,0.009750627845600586
9.436,0.00973182814103303
9.44,0.009720384842600606
9.444,0.00972040888314353
9.448,0.009721346464317616
9.452,0.009719976153370875
9.456,0.009711850449862136
9.46,0.009713316922980577
9.464,0.009722043640062449
9.468,0.009721658991375644
9.472,0.009716778761161816
9.476,0.009709807003713489
9.48,0.009700695637944814
9.484,0.009702618881378836
9.488,0.009714639152841468
9.492,0.009724279410554497
9.496,0.009719783829027474
9.5,0.009708629017110152
9.504,0.00969406044809744
9.508000000000001,0.00969867623233909
9.512,0.009708580936024301
9.516,0.009713677531124457
9.52,0.009711561963347033
9.524000000000001,0.009696752988905068
9.528,0.009694204691354992
9.532,0.009700455232515563
9.536,0.009704710408613334
9.540000000000001,0.00970802800353702
9.544,0.00970579223304497
9.548,0.009700791800116515
9.552,0.009700142705457533
9.556000000000001,0.009702041908348629
9.56,0.009705623949244494
9.564,0.009709350233397909
9.568,0.009704590205898707
9.572000000000001,0.00969634429967534
9.576,0.009690670731544978
9.58,0.009696200056417787
9.584,0.009699902300028282
9.588000000000001,0.009701801502919376
9.592,0.00969492590764275
9.596,0.009692401650635597
9.6,0.00969319498855213
9.604000000000001,0.009693675799410635
9.608,0.009694180650812066
9.612,0.009691295785661035
9.616,0.009671582540462319
9.620000000000001,0.009670019905172177
9.624,0.009680621784602217
9.628,0.009692209326292195
9.632,0.009693363272352607
9.636000000000001,0.00968867536648218
9.64,0.009693844083211112
9.644,0.009698051178223033
9.648,0.009701777462376451
9.652000000000001,0.009700912002831142
9.656,0.009704061313954352
9.66,0.00970259484083591
9.664,0.009700575435230188
9.668000000000001,0.009704974854585512
9.672,0.009709590638827162
9.676,0.009708653057653076
9.68,0.009706657692590279
9.684000000000001,0.00970939831448376
9.688,0.00971721149093447
9.692,0.009713701571667382
9.696,0.009710263774029068
9.700000000000001,0.009704710408613334
9.704,0.009700743719030664
9.708,0.009701873624548153
9.712,0.009705672030330344
9.716000000000001,0.009704470003184081
9.72,0.009702787165179312
9.724,0.009702234232692031
9.728,0.009685189487758018
9.732,0.009685309690472644
9.736,0.009694180650812066
9.74,0.009698531989081539
9.744,0.009703219894951967
9.748,0.009705311422186466
9.752,0.009705720111416195
9.756,0.009702474638121284
9.76,0.00970071967848774
9.764,0.00970711446290586
9.768,0.009711081152488529
9.772,0.009708653057653076
9.776,0.00970752315213559
9.78,0.00970757123322144
9.784,0.009713773693296159
9.788,0.009716394112475012
9.792,0.009713172679723027
9.796,0.009709254071226208
9.8,0.009714230463611738
9.804,0.009719783829027474
9.808,0.009719086653282642
9.812,0.009718317355909032
9.816,0.009715961382702356
9.82,0.009714975720442422
9.824,0.009716562396275488
9.828,0.009714663193384392
9.832,0.00971168216606166
9.836,0.00970990316588519
9.84,0.009704518084269932
9.844,0.009713196720265951
9.848,0.009715480571843852
9.852,0.009713725612210308
9.856,0.009710960949773901
9.86,0.00971122539574608
9.864,0.009713220760808876
9.868,0.009711970652576764
9.872,0.009710600341630023
9.876,0.009712812071579147
9.88,0.009717451896363723
9.884,0.009706224962817625
9.888,0.009700142705457533
9.892,0.009708364571137974
9.896,0.009711802368776286
9.9,0.009715408450215075
9.904,0.009716442193560862
9.908,0.00971502380152827
9.912,0.009720937775087887
9.916,0.00972396688349647
9.92,0.00972401496458232
9.924,0.009718726045138761
9.928,0.009716442193560862
9.932,0.00971670663953304
9.936,0.009711874490405063
9.94,0.009712427422892344
9.944,0.009712499544521119
9.948,0.009714494909583916
9.952,0.009707282746706337
9.956,0.009707451030506813
9.96,0.009713004395922549
9.964,0.009713485206781055
9.968,0.009713893896010784
9.972,0.009709422355026686
9.976,0.00969305074529458
9.98,0.009692041042491717
9.984,0.0096949739887286
9.988,0.009693940245382813
9.992,0.009700912002831142
9.996,0.009700815840659441
10.0,0.009701657259661826
10.004,0.009706946179105383
10.008000000000001,0.009711201355203154
10.012,0.009714398747412215
10.016,0.009716057544874057
10.02,0.009716081585416984
10.024000000000001,0.009720745450744485
10.028,0.009719687666855773
10.032,0.00972310142395116
10.036,0.009725769924215864
10.040000000000001,0.009718726045138761
10.044,0.009714951679899496
10.048,0.009717283612563247
10.052,0.009719976153370875
10.056000000000001,0.009721298383231766
10.06,0.009720096356085502
10.064,0.00972137050486054
10.068,0.009724664059241302
10.072000000000001,0.00972858266773812
10.076,0.009727020032447978
10.08,0.009728222059594241
10.084,0.009720072315542576
10.088000000000001,0.009704470003184081
10.092,0.009713990058182485
10.096,0.00972543335661491
10.1,0.009728991356967849
10.104000000000001,0.009730746316601393
10.108,0.009720505045315232
10.112,0.009720384842600606
10.116,0.009721586869746869
10.120000000000001,0.009718245234280257
10.124,0.0097267555864758
10.128,0.009728967316424924
10.132,0.009727813370364512
10.136000000000001,0.009726947910819203
10.14,0.009719567464141146
10.144,0.009718822207310462
10.148,0.009716081585416984
10.152000000000001,0.009707883760279468
10.156,0.009703820908525099
10.16,0.009708148206251646
10.164,0.009733006127636369
10.168000000000001,0.009769860279940796
10.172,0.009804142094152224
10.176,0.009826043028757139
10.18,0.009837125719045686
10.184000000000001,0.009837943097505145
10.188,0.009827533542418505
10.192,0.009808156864820743
10.196,0.009784164402981329
10.200000000000001,0.00976421075235336
10.204,0.009753825237809646
10.208,0.009737982520021898
10.212,0.009735626546815222
10.216000000000001,0.009735073614327941
10.22,0.009724111126754021
10.224,0.009715432490758001
10.228,0.00972213980223415
10.232000000000001,0.009730001059770711
10.236,0.009733294614151471
10.24,0.009731467532889152
10.244,0.009730553992257992
10.248,0.009730674194972618
10.252,0.009728534586652269
10.256,0.009730433789543365
10.26,0.009733486938494873
10.264,0.00973031358682874
10.268,0.00972762104602111
10.272,0.009731804100490106
10.276,0.009735866952244475
10.28,0.009737333425362916
10.284,0.009732549357320788
10.288,0.009723462032095039
10.292,0.00972355819426674
10.296,0.009735722708986923
10.3,0.009741540520374837
10.304,0.009743728209781036
10.308,0.009742550223177698
10.312,0.009735794830615698
10.316,0.00973548230355767
10.32,0.009729880857056084
10.324,0.009731924303204732
10.328,0.009732477235692013
10.332,0.009723389910466264
10.336,0.009711802368776286
10.34,0.009722572532006804
10.344,0.009729063478596625
10.348,0.009727284478420155
10.352,0.009726274775617294
10.356,0.009722909099607758
10.36,0.009723221626665786
10.364,0.009723774559153067
10.368,0.009727140235162603
10.372,0.009726611343218249
10.376,0.009724303451097423
10.38,0.009725625680958312
10.384,0.009731395411260375
10.388,0.009732164708633985
10.392,0.009734304316954332
10.396,0.009735554425186446
10.4,0.00973634776310298
10.404,0.0097335109790378
10.408,0.00973497745215624
10.412,0.00974442538552587
10.416,0.009744184980096616
10.42,0.009743608007066409
10.424,0.009737237263191215
10.428,0.009736203519845428
10.432,0.009741203952773883
10.436,0.009749642183340651
10.44,0.009756469697531425
10.444,0.009753128062064813
10.448,0.009739160506625235
10.452,0.009747166007419348
10.456,0.009754065643238899
10.46,0.00975868142748055
10.464,0.009758897792366876
10.468,0.009757118792190407
10.472,0.00975868142748055
10.476,0.009761157603401852
10.48,0.009766302279587857
10.484,0.009771639280117267
10.488,0.009769619874511545
10.492,0.009771086347629986
10.496,0.009774476064182448
10.5,0.009772793226177679
10.504,0.009773778888437615
10.508000000000001,0.00977147099631679
10.512,0.009767552387819971
10.516,0.009765677225471801
10.52,0.009770220888084677
10.524000000000001,0.00977887548353777
10.528,0.00978430864623888
10.532,0.009787361795190389
10.536,0.009783058538006767
10.540000000000001,0.009783611470494048
10.544,0.009785029862526638
10.548,0.009785967443700723
10.552,0.009788131092563997
10.556000000000001,0.00978664057890263
10.56,0.00978289025420629
10.564,0.009779260132224575
10.568,0.009779668821454304
10.572000000000001,0.009784693294925685
10.576,0.009785294308498817
10.58,0.009776206983273066
10.584,0.0097723364558621
10.588000000000001,0.009780678524257165
10.592,0.009782000754118055
10.596,0.00978014963231281
10.6,0.009777721537477357
10.604000000000001,0.009777937902363686
10.608,0.009781207416201521
10.612,0.009784789457097385
10.616,0.009786015524786574
10.620000000000001,0.00978289025420629
10.624,0.00977892356462362
10.628,0.009782409443347784
10.632,0.00978978989002584
10.636000000000001,0.009793107484949527
10.64,0.009793011322777826
10.644,0.00978796280876352
10.648,0.009780582362085464
10.652000000000001,0.009780438118827913
10.656,0.009785005821983713
10.66,0.00978938120079611
10.664,0.009788852308851756
10.668000000000001,0.00978714543030406
10.672,0.009783082578549691
10.676,0.009781976713575129
10.68,0.009788347457450323
10.684000000000001,0.009789525444053662
10.688,0.009787073308675285
10.692,0.009775702131871636
10.696,0.009766566725560036
10.700000000000001,0.009776759915760347
10.704,0.009780558321542539
10.708,0.00978339510560772
10.712,0.009787530078990865
10.716000000000001,0.00978700118704651
10.72,0.009789934133283391
10.724,0.009790222619798495
10.728,0.009791232322601356
10.732000000000001,0.009791448687487683
10.736,0.009788563822336652
10.74,0.009784861578726161
10.744,0.009785799159900247
10.748000000000001,0.00978745795736209
10.752,0.009786664619445556
10.756,0.00977644738870232
10.76,0.009766206117416156
10.764,0.009772793226177679
10.768,0.009781327618916147
10.772,0.009784645213839835
10.776,0.009789813930568766
10.78,0.009791713133459862
10.784,0.009789717768397065
10.788,0.009786544416730929
10.792,0.009789212916995634
10.796,0.009792867079520274
10.8,0.00979257859300517
10.804,0.009781952673032205
10.808,0.009769788158312021
10.812,0.0097747164696117
10.816,0.009783683592122823
10.82,0.009787265633018688
10.824,0.00978649633564508
10.828,0.009780726605343015
10.832,0.009784116321895478
10.836,0.009792722836262722
10.84,0.00979572790412838
10.844,0.009797170336703897
10.848,0.009796304877158586
10.852,0.009792386268661768
10.856,0.009794501836439191
10.86,0.009799478228824723
10.864,0.009800295607284182
10.868,0.009798204080049685
10.872,0.00979781943136288
10.876,0.009803661283293718
10.88,0.009804045931980523
10.884,0.009804478661753178
10.888,0.009805055634783384
10.892,0.009797795390819954
10.896,0.009789525444053662
10.9,0.009798636809822339
10.904,0.009801521674973371
10.908,0.00979161697128816
10.912,0.009781471862173699
10.916,0.00977522132101313
10.92,0.009773706766808839
10.924,0.009787602200619642
10.928,0.009824384231295296
10.932,0.009860685451112444
10.936,0.009888187832218944
10.94,0.009893765238177607
10.944,0.009897203035815918
10.948,0.00989912627924994
10.952,0.00988775510244629
10.956,0.009866118613813554
10.96,0.009842847368261898
10.964,0.009826547880158569
10.968,0.009813205378835049
10.972,0.009801281269544118
10.976,0.009795920228471783
10.98,0.009793011322777826
10.984,0.009787746443877192
10.988,0.009788852308851756
10.992,0.009791905457803264
10.996,0.009792169903775442
11.0,0.009792794957891498
11.004,0.009791136160429655
11.008000000000001,0.00978988605219754
11.012,0.009791088079343804
11.016,0.009792386268661768
11.02,0.009793323849835854
11.024000000000001,0.009789813930568766
11.028,0.009781976713575129
11.032,0.009777745578020284
11.036,0.00978019771339866
11.040000000000001,0.009782000754118055
11.044,0.009792434349747619
11.048,0.009788058970935222
11.052,0.009770942104372434
11.056000000000001,0.009767600468905822
11.06,0.00977745709150518
11.064,0.009783154700178468
11.068,0.00979034282251312
11.072000000000001,0.00978522218687004
11.076,0.009775557888614084
11.08,0.009780534280999613
11.084,0.009785943403157797
11.088000000000001,0.00978517410578419
11.092,0.00978161610543125
11.096,0.009777024361732525
11.1,0.009777216686075927
11.104000000000001,0.009782673889319962
11.108,0.009780317916113286
11.112,0.00977791386182076
11.116,0.009774163537124419
11.120000000000001,0.009770894023286583
11.124,0.009773057672149857
11.128,0.009771903726089444
11.132,0.009767648549991672
11.136000000000001,0.009766975414789766
11.14,0.009770990185458284
11.144,0.009772793226177679
11.148,0.00977339423975081
11.152000000000001,0.009772721104548902
11.156,0.009779428416025051
11.16,0.009783731673208673
11.164,0.00978212095683268
11.168000000000001,0.009779764983626005
11.172,0.009778322551050489
11.176,0.00978339510560772
11.18,0.009788587862879576
11.184000000000001,0.009784861578726161
11.188,0.00976654268501711
11.192,0.009771735442288968
11.196,0.00978289025420629
11.200000000000001,0.009785510673385144
11.204,0.009787530078990865
11.208,0.0097838518759233
11.212,0.009787602200619642
11.216000000000001,0.009794646079696743
11.22,0.009799430147738873
11.224,0.009796425079873213
11.228,0.009796785688017092
11.232000000000001,0.009796473160959064
11.236,0.009798829134165741
11.24,0.009799069539594994
11.244,0.00979399698503776
11.248000000000001,0.009788732106137128
11.252,0.009793011322777826
11.256,0.009797026093446345
11.26,0.009802555418319156
11.264,0.009806522107901826
11.268,0.009807315445818358
11.272,0.009804767148268282
11.276,0.00980019944511248
11.28,0.009795150931098173
11.284,0.00979471820132552
11.288,0.009792242025404217
11.292,0.009792458390290545
11.296,0.009788659984508353
11.3,0.009775702131871636
11.304,0.009780894889143493
11.308,0.009789501403510738
11.312,0.009797699228648251
11.316,0.009797434782676074
11.32,0.009791929498346189
11.324,0.009788443619622025
11.328,0.009793203647121227
11.332,0.00979426143100994
11.336,0.009793732539065583
11.34,0.009793828701237284
11.344,0.009789429281881961
11.348,0.009791592930745234
11.352,0.009797242458332672
11.356,0.009794934566211846
11.36,0.009792338187575918
11.364,0.00979430951209579
11.368,0.009797675188105327
11.372,0.009802747742662559
11.376,0.009804045931980523
11.38,0.00980375744546542
11.384,0.00980019944511248
11.388,0.009795703863585454
11.392,0.009797362661047297
11.396,0.009799934999140303
11.4,0.009802242891261128
11.404,0.009806930797131555
11.408,0.009806185540300872
11.412,0.009787770484420118
11.416,0.009786568457273855
11.42,0.009796064471729335
11.424,0.009804815229354133
11.428,0.009808084743191968
11.432,0.00980385360763712
11.436,0.009798540647650638
11.44,0.009802699661576708
11.444,0.009805199878040936
11.448,0.00980512775641216
11.452,0.009798829134165741
11.456,0.009796905890731717
11.46,0.00980243521560453
11.464,0.009805151796955085
11.468,0.009804045931980523
11.472,0.009804719067182431
11.476,0.009800896620857313
11.48,0.009798204080049685
11.484,0.00979659336367369
11.488,0.009798660850365265
11.492,0.009800031161312004
11.496,0.009802315012889905
11.5,0.009798035796249207
11.504,0.009792891120063199
11.508000000000001,0.009789741808939989
11.512,0.009792434349747619
11.516,0.009793107484949527
11.52,0.009786880984331883
11.524000000000001,0.00977329807757911
11.528,0.0097770003211896
11.532,0.009783972078637926
11.536,0.009788972511566381
11.540000000000001,0.009797915593534582
11.544,0.009800391769455883
11.548,0.009799261863938397
11.552,0.009798492566564787
11.556000000000001,0.00979567982304253
11.56,0.009797506904304849
11.564,0.009801233188458268
11.568,0.00980380552655127
11.572000000000001,0.009809070405451903
11.576,0.009809022324366054
11.58,0.009809455054138707
11.584,0.009803420877864467
11.588000000000001,0.009797843471905805
11.592,0.00980334875623569
11.596,0.00980827706753537
11.6,0.009809070405451903
11.604000000000001,0.009812099513860487
11.608,0.00981279668960532
11.612,0.009806810594416928
11.616,0.009802483296690381
11.620000000000001,0.009809286770338231
11.624,0.009809286770338231
11.628,0.009809118486537753
11.632,0.00980827706753537
11.636000000000001,0.009806209580843796
11.64,0.009808709797308024
11.644,0.009811690824630757
11.648,0.009810873446171297
11.652000000000001,0.009807555851247611
11.656,0.009805560486184814
11.66,0.009800752377599762
11.664,0.009802916026463037
11.668000000000001,0.009800079242397855
11.672,0.009789813930568766
11.676,0.009788900389937606
11.68,0.009787698362791343
11.684000000000001,0.00981330154100675
11.688,0.00984943447702342
11.692,0.009881119912598917
11.696,0.009906771171900173
11.700000000000001,0.009911194631798423
11.704,0.009894318170664888
11.708,0.009887442575388261
11.712,0.00987446068220862
11.716000000000001,0.009853737734207042
11.72,0.00983421681335173
11.724,0.009821307041800863
11.728,0.00981157062191613
11.732000000000001,0.009805873013242844
11.736,0.009802603499405007
11.74,0.009801305310087043
11.744,0.009800824499228538
11.748000000000001,0.00980096874248609
11.752,0.00980046389108466
11.756,0.009796569323130765
11.76,0.009799862877511528
11.764000000000001,0.009801521674973371
11.768,0.009799045499052068
11.772,0.009798588728736488
11.776,0.009803228553521065
11.78,0.009802242891261128
11.784,0.009803973810351748
11.788,0.009804190175238075
11.792,0.009795848106843006
11.796,0.009797074174532195
11.8,0.009799862877511528
11.804,0.009800343688370032
11.808,0.009800560053256361
11.812,0.00979618467444396
11.816,0.009780870848600567
11.82,0.009784693294925685
11.824,0.009790006254912168
11.828,0.009792386268661768
11.832,0.009797194377246821
11.836,0.009793636376893882
11.84,0.009788131092563997
11.844,0.009785871281529022
11.848,0.009787842606048893
11.852,0.009793131525492452
11.856,0.009795295174355725
11.86,0.009788732106137128
11.864,0.009786736741074331
11.868,0.009787818565505969
11.872,0.009787121389761136
11.876,0.009789068673738082
11.88,0.009785895322071948
11.884,0.009785318349041741
11.888,0.009789645646768288
11.892,0.00978745795736209
11.896,0.009782673889319962
11.9,0.009782385402804858
11.904,0.009779476497110902
11.908,0.009781399740544924
11.912,0.009782361362261934
11.916,0.009783154700178468
11.92,0.009784092281352554
11.924,0.009784981781440787
11.928,0.009773370199207885
11.932,0.009766566725560036
11.936,0.00977212009097577
11.94,0.00977695224010375
11.944,0.009785366430127592
11.948,0.009783419146150645
11.952,0.009786808862703108
11.956,0.009787361795190389
11.96,0.009786159768044126
11.964,0.009790775552285776
11.968,0.00979207374160374
11.972,0.00978476541655446
11.976,0.00978212095683268
11.98,0.00978481349764031
11.984,0.00978933311971026
11.988,0.009789573525139513
11.992,0.009788659984508353
11.996,0.00978700118704651
12.0,0.009788395538536174
12.004,0.009792097782146665
12.008000000000001,0.00979714629616097
12.012,0.009796833769102942
12.016,0.009781712267602952
12.02,0.009766590766102961
12.024000000000001,0.009783707632665749
12.028,0.009793588295808031
12.032,0.00979668952584539
12.036,0.009792386268661768
12.040000000000001,0.009790438984684822
12.044,0.00979481436349722
12.048,0.009795992350100558
12.052,0.009799718634253976
12.056000000000001,0.009805199878040936
12.06,0.009800800458685612
12.064,0.009793540214722181
12.068,0.009798372363850161
12.072000000000001,0.009803228553521065
12.076,0.0098018342020314
12.08,0.009801641877687997
12.084,0.009798636809822339
12.088000000000001,0.009798420444936012
12.092,0.00980019944511248
12.096,0.009801713999316774
12.1,0.009808974243280203
12.104000000000001,0.009808950202737277
12.108,0.00980467098609658
12.112,0.009806666351159376
12.116,0.009805320080755563
12.120000000000001,0.009801665918230923
12.124,0.009804959472611683
12.128,0.009800584093799285
12.132,0.009784885619269086
12.136000000000001,0.009793107484949527
12.14,0.009798035796249207
12.144,0.00980015136402663
12.148,0.009804646945553655
12.152000000000001,0.009802940067005961
12.156,0.009801641877687997
12.16,0.009799550350453498
12.164,0.009803036229177662
12.168000000000001,0.009799622472082275
12.172,0.00978933311971026
12.176,0.009785053903069564
12.18,0.009792602633548095
12.184000000000001,0.009800872580314389
12.188,0.009804045931980523
12.192,0.00980015136402663
12.196,0.009798492566564787
12.200000000000001,0.009798420444936012
12.204,0.00980010328294078
12.208,0.009801713999316774
12.212,0.009800367728912959
12.216000000000001,0.009802555418319156
12.22,0.009797434782676074
12.224,0.0097996465126252
12.228,0.009801713999316774
12.232000000000001,0.009799502269367648
12.236,0.009798540647650638
12.24,0.009792097782146665
12.244,0.009790919795543328
12.248000000000001,0.00979873297199404
12.252,0.009798588728736488
12.256,0.009788443619622025
12.26,0.009784645213839835
12.264000000000001,0.009780991051315194
12.268,0.009775101118298504
12.272,0.009782265200090233
12.276,0.009786039565329498
12.280000000000001,0.009787121389761136
12.284,0.00978207287574683
12.288,0.009779404375482127
12.292,0.009784452889496432
12.296,0.00978567895718562
12.3,0.009784741376011534
12.304,0.009785005821983713
12.308,0.00978279409203459
12.312,0.009787530078990865
12.316,0.009796785688017092
12.32,0.009795463458156203
12.324,0.009795391336527426
12.328,0.009799093580137919
12.332,0.00979995903968323
12.336,0.00980051197217051
12.34,0.009801161066829493
12.344,0.009800319647827108
12.348,0.009802122688546503
12.352,0.009803108350806437
12.356,0.009800728337056837
12.36,0.009803204512978139
12.364,0.009803276634606915
12.368,0.009806233621386723
12.372,0.009803877648180047
12.376,0.009788611903422503
12.38,0.009780341956656212
12.384,0.009788708065594204
12.388,0.009798155998963835
12.392,0.009805344121298487
12.396,0.00980010328294078
12.4,0.00979664144475954
12.404,0.009799550350453498
12.408,0.009800319647827108
12.412,0.009801185107372417
12.416,0.009803877648180047
12.42,0.009802266931804055
12.424,0.009802266931804055
12.428,0.009800872580314389
12.432,0.009797194377246821
12.436,0.009790727471199925
12.44,0.009783996119180852
12.444,0.009773947172238092
12.448,0.00977476455069755
12.452,0.009783611470494048
12.456,0.009808373229707072
12.46,0.009841428976229308
12.464,0.00986501274883899
12.468,0.00989131310279923
12.472,0.009905352779867583
12.476,0.009898885873820687
12.48,0.009886504994214177
12.484,0.009875999276955837
12.488,0.00984578031449878
12.492,0.009814142960009134
12.496,0.009807627972876388
12.5,0.009798396404393086
12.504,0.009798396404393086
12.508000000000001,0.009800271566741257
12.512,0.009797915593534582
12.516,0.009797675188105327
12.52,0.009798035796249207
12.524000000000001,0.009797194377246821
12.528,0.0097975549853907
12.532,0.00979293920114905
12.536,0.009783250862350169
12.540000000000001,0.009787337754647463
12.544,0.00979623275552981
12.548,0.009797506904304849
12.552,0.009790414944141897
12.556000000000001,0.009784957740897863
12.56,0.009786015524786574
12.564,0.009789453322424887
12.568,0.009787698362791343
12.572000000000001,0.00978649633564508
12.576,0.00978983797111169
12.58,0.009787818565505969
12.584,0.009788203214192773
12.588000000000001,0.009786664619445556
12.592,0.009786520376188004
12.596,0.009783058538006767
12.6,0.009781447821630774
12.604000000000001,0.009782385402804858
12.608,0.009782169037918531
12.612,0.009781640145974177
12.616,0.009783515308322346
12.620000000000001,0.009781135294572744
12.624,0.009762239427833488
12.628,0.009756469697531425
12.632,0.009767720671620449
12.636000000000001,0.009775125158841429
12.64,0.009780702564800091
12.644,0.009777553253676881
12.648,0.009770894023286583
12.652000000000001,0.009768153401393103
12.656,0.0097723364558621
12.66,0.009770509374599778
12.664,0.009765460860585475
12.668000000000001,0.009769115023110113
12.672,0.0097677687527063
12.676,0.009771134428715836
12.68,0.009771639280117267
12.684000000000001,0.00977284130726353
12.688,0.009771663320660191
12.692,0.009768538050079907
12.696,0.009774163537124419
12.700000000000001,0.009775317483184831
12.704,0.009780510240456688
12.708,0.009781760348688802
12.712,0.009776399307616469
12.716000000000001,0.00977841871322219
12.72,0.009781039132401045
12.724,0.009779356294396276
12.728,0.009776832037389124
12.732000000000001,0.009776423348159393
12.736,0.009766206117416156
12.74,0.00975832081933667
12.744,0.009765052171355744
12.748000000000001,0.009769211185281814
12.752,0.009776711834674497
12.756,0.009781207416201521
12.76,0.009781231456744446
12.764000000000001,0.009784068240809627
12.768,0.009782241159547308
12.772,0.009780005389055258
12.776,0.00978065448371424
12.780000000000001,0.009778899524080696
12.784,0.009774956875040952
12.788,0.00977695224010375
12.792,0.009778635078108519
12.796000000000001,0.009775678091328711
12.8,0.009772408577490874
12.804,0.009767840874335075
12.808,0.009768129360850178
12.812,0.009770942104372434
12.816,0.009772216253147472
12.82,0.009772913428892305
12.824,0.009769499671796918
12.828,0.009768009158135551
12.832,0.009769355428539366
12.836,0.009769619874511545
12.84,0.009771254631430462
12.844,0.009769307347453515
12.848,0.009750339359085484
12.852,0.009743295480008381
12.856,0.009760171941141916
12.86,0.009769884320483722
12.864,0.009767840874335075
12.868,0.009766831171532214
12.872,0.009767215820219019
12.876,0.00976877845550916
12.88,0.009767696631077523
12.884,0.009766783090446363
12.888,0.009764980049726969
12.892,0.009759402643768308
12.896,0.00976046042765702
12.9,0.009767864914878
12.904,0.009769451590711067
12.908,0.009764282873982136
12.912,0.009763441454979751
12.916,0.009760123860056065
12.92,0.009763585698237303
12.924,0.009764835806469417
12.928,0.009769451590711067
12.932,0.009768465928451132
12.936,0.009761566292631581
12.94,0.009760676792543346
12.944,0.009765340657870847
12.948,0.009764138630724584
12.952,0.009767023495875616
12.956,0.00976293660357832
12.96,0.009757335157076734
12.964,0.009760027697884364
12.968,0.0097610133601443
12.972,0.009767937036506776
12.976,0.009768562090622832
12.98,0.00976288852249247
12.984,0.009748872885967041
12.988,0.00975009895365623
12.992,0.009755964846129995
12.996,0.009761133562858926
13.0,0.009762551954891516
13.004,0.009756517778617276
13.008000000000001,0.00975045956180011
13.012,0.009756565859703126
13.016,0.009764547319954313
13.02,0.009765460860585475
13.024000000000001,0.009762696198149068
13.028,0.0097565418191602
13.032,0.009754233927039375
13.036,0.00975598888667292
13.040000000000001,0.009761590333174506
13.044,0.009757070711104557
13.048,0.009751781791660998
13.052,0.009751276940259568
13.056000000000001,0.009753584832380393
13.06,0.00975315210260774
13.064,0.009758176576079119
13.068,0.009762455792719817
13.072000000000001,0.009757142832733332
13.076,0.009754786859526656
13.08,0.009756325454273873
13.084,0.009751637548403448
13.088000000000001,0.009753440589122843
13.092,0.009751397142974195
13.096,0.009741660723089463
13.1,0.009742646385349399
13.104000000000001,0.009747839142621256
13.108,0.00975151734568882
13.112,0.009750483602343034
13.116,0.009744377304440019
13.120000000000001,0.009729472167826355
13.124,0.009736035236044951
13.128,0.009742093452862118
13.132,0.009745218723442401
13.136000000000001,0.009744184980096616
13.14,0.009738992222824759
13.144,0.009743391642180082
13.148,0.009751180778087867
13.152000000000001,0.009759090116710278
13.156,0.009762047103490086
13.16,0.009758248697707896
13.164,0.009753777156723795
13.168000000000001,0.009754883021698357
13.172,0.009758248697707896
13.176,0.009765148333527445
13.18,0.009763417414436827
13.184000000000001,0.009757479400334286
13.188,0.009761253765573553
13.192,0.009765148333527445
13.196,0.009762119225118862
13.200000000000001,0.009763898225295331
13.204,0.009763946306381182
13.208,0.009749521980626024
13.212,0.009753608872923319
13.216000000000001,0.009765172374070371
13.22,0.009770244928627601
13.224,0.00977137483414509
13.228,0.009770413212428077
13.232000000000001,0.009765941671443979
13.236,0.009766807130989288
13.24,0.009770942104372434
13.244,0.009770293009713452
13.248000000000001,0.009767023495875616
13.252,0.009760724873629197
13.256,0.00976050850874287
13.26,0.009758561224765924
13.264000000000001,0.009751733710575148
13.268,0.009745507209957505
13.272,0.009742934871864502
13.276,0.009750627845600586
13.280000000000001,0.009781736308145876
13.284,0.009819864609225347
13.288,0.00985395409909337
13.292,0.00987176814140099
13.296000000000001,0.009869099641136286
13.3,0.009861430707943127
13.304,0.009853785815292893
13.308,0.009832053164488454
13.312000000000001,0.0098086857567651
13.316,0.009785799159900247
13.32,0.009768369766279431
13.324,0.00975685434621823
13.328,0.009751998156547327
13.332,0.009752599170120458
13.336,0.009754714737897881
13.34,0.009751228859173717
13.344,0.009735193817042567
13.348,0.009740699101372452
13.352,0.009746108223530637
13.356,0.00974781510207833
13.36,0.009743319520551305
13.364,0.009743944574667363
13.368,0.009747141966876424
13.372,0.009750820169943988
13.376,0.009746877520904244
13.38,0.009744233061182467
13.384,0.0097405548581149
13.388,0.009738006560564822
13.392,0.009744858115298523
13.396,0.00974877672379534
13.4,0.009749906629312828
13.404,0.009750026832027454
13.408,0.009745915899187234
13.412,0.009739905763455918
13.416,0.009741901128518715
13.42,0.009746589034389143
13.424,0.009746468831674515
13.428,0.009745218723442401
13.432,0.009742213655576744
13.436,0.009739809601284217
13.44,0.009738222925451151
13.444,0.009732068546462283
13.448,0.00973324653306562
13.452,0.009735458263014744
13.456,0.009717067247676918
13.46,0.009721610910289794
13.464,0.009729640451626831
13.468,0.009734208154782632
13.472,0.009730890559858945
13.476,0.009726370937788996
13.48,0.009727188316248454
13.484,0.00972959237054098
13.488,0.009728438424480568
13.492,0.009728149937965466
13.496,0.009724495775440826
13.5,0.00972086565345911
13.504,0.00972543335661491
13.508000000000001,0.00972579396475879
13.512,0.009729736613798532
13.516,0.009729424086740504
13.52,0.00972954428945513
13.524000000000001,0.009727044072990902
13.528,0.009724255370011573
13.532,0.009724159207839872
13.536,0.009733222492522696
13.540000000000001,0.009735049573785015
13.544,0.009732116627548134
13.548,0.009731395411260375
13.552,0.009735770790072774
13.556000000000001,0.009739689398569592
13.56,0.00974146839874606
13.564,0.0097358909927874
13.568,0.009720144437171353
13.572000000000001,0.009724784261955928
13.576,0.009736876655047336
13.58,0.009736275641474204
13.584,0.009734785127812838
13.588000000000001,0.009734280276411407
13.592,0.009733823506095828
13.596,0.009734833208898688
13.6,0.009735554425186446
13.604000000000001,0.009736059276587876
13.608,0.009740602939200751
13.612,0.009735121695413792
13.616,0.00973355906012365
13.620000000000001,0.009729327924568803
13.624,0.009731707938318405
13.628,0.009735338060300119
13.632,0.009734376438583109
13.636000000000001,0.009732477235692013
13.64,0.009734160073696782
13.644,0.009737766155135571
13.648,0.009740867385172929
13.652000000000001,0.0097404586959432
13.656,0.00973319845197977
13.66,0.00972670750538995
13.664,0.009727476802763558
13.668000000000001,0.009728895194796148
13.672,0.009724399613269125
13.676,0.009723317788837487
13.68,0.009720456964229381
13.684000000000001,0.009715817139444805
13.688,0.009720769491287409
13.692,0.009724303451097423
13.696,0.009729303884025878
13.700000000000001,0.009722909099607758
13.704,0.009717187450391546
13.708,0.009723293748294563
13.712,0.009724832343041778
13.716000000000001,0.00972351011318089
13.72,0.009722211923862925
13.724,0.00970711446290586
13.728,0.009698700272882015
13.732000000000001,0.009709975287513967
13.736,0.00971624986921746
13.74,0.009716129666502834
13.744,0.009721851315719046
13.748000000000001,0.009720769491287409
13.752,0.00971725957202032
13.756,0.009718413518080733
13.76,0.009722500410378029
13.764000000000001,0.009720721410201558
13.768,0.00972137050486054
13.772,0.009719351099254819
13.776,0.009715432490758001
13.780000000000001,0.009718557761338285
13.784,0.009720553126401082
13.788,0.009716490274646713
13.792,0.00971406217981126
13.796000000000001,0.009715240166414599
13.8,0.009718798166767538
13.804,0.009716634517904265
13.808,0.009713797733839083
13.812000000000001,0.009710600341630023
13.816,0.009694685502213496
13.82,0.009702234232692031
13.824,0.009711201355203154
13.828,0.009715937342159432
13.832,0.00971624986921746
13.836,0.009716033504331133
13.84,0.009713004395922549
13.844,0.009715119963699972
13.848,0.009715360369129225
13.852,0.009716850882790591
13.856,0.009719254937083118
13.86,0.009715456531300926
13.864,0.009712619747235744
13.868,0.009720072315542576
13.872,0.00971985595065625
13.876,0.009720625248029857
13.88,0.009717932707222229
13.884,0.009717043207133994
13.888,0.009720577166944007
13.892,0.009722836977978981
13.896,0.009723125464494085
13.9,0.009725072748471031
13.904,0.009723702437524292
13.908,0.009720456964229381
13.912,0.00972574588367294
13.916,0.009731707938318405
13.92,0.00973278976275004
13.924,0.009728895194796148
13.928,0.009711778328233361
13.932,0.009714446828498065
13.936,0.009721634950832718
13.94,0.00972598628910219
13.944,0.009726178613445593
13.948,0.009724736180870077
13.952,0.009722909099607758
13.956,0.009723221626665786
13.96,0.009722260004948776
13.964,0.00972254849146388
13.968,0.009720288680428905
13.972,0.009714999760985346
13.976,0.009714855517727794
13.98,0.009718413518080733
13.984,0.009720529085858156
13.988,0.009722909099607758
13.992,0.009720721410201558
13.996,0.009719423220883594
14.0,0.009713196720265951
14.004,0.009713268841894726
14.008000000000001,0.009719254937083118
14.012,0.009719062612739715
14.016,0.009716466234103787
14.02,0.009714639152841468
14.024000000000001,0.009719182815454343
14.028,0.009722380207663401
14.032,0.009723846680781844
14.036,0.009721562829203943
14.040000000000001,0.00972182727517612
14.044,0.009728462465023494
14.048,0.009732405114063238
14.052,0.00973644392527468
14.056000000000001,0.009734544722383585
14.06,0.009722788896893132
14.064,0.009713076517551326
14.068,0.00971985595065625
14.072000000000001,0.009726539221589472
14.076,0.009728486505566418
14.08,0.009730217424657038
14.084,0.009730145303028261
14.088000000000001,0.00973644392527468
14.092,0.00974182900688994
14.096,0.009742814669149875
14.1,0.00974690156144717
14.104000000000001,0.009743559925980558
14.108,0.009741396277117285
14.112,0.009749185413025071
14.116,0.009749618142797725
14.120000000000001,0.009742454061005996
14.124,0.009731756019404255
14.128,0.009725457397157836
14.132,0.009728438424480568
14.136000000000001,0.009757118792190407
14.14,0.00979481436349722
14.144,0.0098315242725441
14.148,0.009854603193752353
14.152000000000001,0.009861454748486051
14.156,0.009859771910481284
14.16,0.009849554679738047
14.164,0.00983061073191294
14.168000000000001,0.009806762513331077
14.172,0.009776255064358917
14.176,0.009751901994375626
14.18,0.009753608872923319
14.184000000000001,0.009755243629842238
14.188,0.009753464629665767
14.192,0.009745795696472609
14.196,0.009744257101725391
14.200000000000001,0.009751565426774671
14.204,0.009753945440524273
14.208,0.009754522413554479
14.212,0.009756998589475782
14.216000000000001,0.00975151734568882
14.22,0.00975553211635734
14.224,0.009763201049550498
14.228,0.009763778022580705
14.232000000000001,0.009765220455156222
14.236,0.00976360973878023
14.24,0.00975877758965225
14.244,0.009759090116710278
14.248000000000001,0.009761542252088655
14.252,0.009759715170826336
14.256,0.00976608591470153
14.26,0.00977010068537005
14.264000000000001,0.009761205684487703
14.268,0.0097609171979726
14.272,0.009761494171002805
14.276,0.009762527914348592
14.280000000000001,0.009759570927568784
14.284,0.009749618142797725
14.288,0.009738799898481356
14.292,0.0097495941022548
14.296000000000001,0.009757287075990884
14.3,0.009762575995434442
14.304,0.009763056806292948
14.308,0.00975584464341537
14.312000000000001,0.009747839142621256
14.316,0.009746733277646694
14.32,0.009746709237103768
14.324,0.009748920967052892
14.328000000000001,0.009751829872746849
14.332,0.009749353696825547
14.336,0.009749618142797725
14.34,0.009750699967229362
14.344,0.009753632913466244
14.348,0.009752527048491682
14.352,0.009749473899540173
14.356,0.009749954710398679
14.36,0.009751541386231747
14.364,0.009750339359085484
14.368,0.009750796129401064
14.372,0.009750267237456707
14.376,0.009750171075285006
14.38,0.009754714737897881
14.384,0.009755363832556863
14.388,0.00975918627888198
14.392,0.009758200616622045
14.396,0.009759330522139531
14.4,0.009760989319601374
14.404,0.009761325887202328
14.408,0.009759354562682458
14.412,0.009756205251559248
14.416,0.009754858981155433
14.42,0.00974375225032396
14.424,0.009749329656282621
14.428,0.009766807130989288
14.432,0.009776567591416945
14.436,0.009774956875040952
14.44,0.009769595833968619
14.444,0.009768369766279431
14.448,0.009769667955597396
14.452,0.009771903726089444
14.456,0.009774283739839046
14.46,0.009773875050609317
14.464,0.009772504739662576
14.468,0.009772937469435231
14.472,0.009775365564270682
14.476,0.009774740510154626
14.48,0.009769980482655424
14.484,0.00976822552302188
14.488,0.009764379036153837
14.492,0.009765220455156222
14.496,0.00976695137424684
14.5,0.009773466361379586
14.504,0.009776471429245244
14.508000000000001,0.009774932834498028
14.512,0.009774500104725373
14.516,0.009776880118474975
14.52,0.00977868315919437
14.524000000000001,0.009779885186340632
14.528,0.009775341523727757
14.532,0.00976151821154573
14.536,0.009760244062770691
14.540000000000001,0.009773730807351765
14.544,0.009780678524257165
14.548,0.009786063605872425
14.552,0.009785150065241265
14.556000000000001,0.009784909659812012
14.56,0.009780510240456688
14.564,0.009778586997022668
14.568,0.00977846679430804
14.572000000000001,0.009782313281176083
14.576,0.009779139929509949
14.58,0.009778274469964638
14.584,0.009782914294749215
14.588000000000001,0.009782914294749215
14.592,0.009781928632489278
14.596,0.009784116321895478
14.6,0.009783250862350169
14.604000000000001,0.009783274902893093
14.608,0.00978750603844794
14.612,0.00979075151174285
14.616,0.009791665052374011
14.620000000000001,0.009787842606048893
14.624,0.00978791472767767
14.628,0.009794021025580687
14.632,0.009789453322424887
14.636000000000001,0.009786111686958275
14.64,0.009782649848777037
14.644,0.009774836672326327
14.648,0.009774956875040952
14.652000000000001,0.00978695310596066
14.656,0.009794573958067968
14.66,0.00979563174195668
14.664,0.009792097782146665
14.668000000000001,0.009782313281176083
14.672,0.009783202781264318
14.676,0.009784597132753984
14.68,0.009782914294749215
14.684000000000001,0.00978252964606241
14.688,0.009777649415848582
14.692,0.00977502899666973
14.696,0.009778178307792937
14.700000000000001,0.009780390037742063
14.704,0.009780918929686418
14.708,0.009779620740368453
14.712,0.009774427983096598
14.716000000000001,0.009775557888614084
14.72,0.009773875050609317
14.724,0.009774740510154626
14.728,0.009773442320836661
14.732000000000001,0.009772408577490874
14.736,0.009772817266720604
14.74,0.009777433050962256
14.744,0.009777841740191985
14.748000000000001,0.009778298510507565
14.752,0.009775798294043337
14.756,0.009767023495875616
14.76,0.009766855212075138
14.764000000000001,0.009768129360850178
14.768,0.009771711401746042
14.772,0.009773081712692783
14.776,0.00977111038817291
14.780000000000001,0.009755604237986116
14.784,0.009753272305322365
14.788,0.00975315210260774
14.792,0.009759426684311233
14.796000000000001,0.00976334529280805
14.8,0.009758368900422521
14.804,0.00975233472414828
14.808,0.009754306048668152
14.812000000000001,0.009755652319071967
14.816,0.00975584464341537
14.82,0.009753536751294542
14.824,0.00974928157519677
14.828000000000001,0.009754642616269106
14.832,0.009757888089564015
14.836,0.009758368900422521
14.84,0.009758513143680073
14.844000000000001,0.009757912130106941
14.848,0.009752358764691205
14.852,0.00975868142748055
14.856,0.009762648117063217
14.86,0.009759090116710278
14.864,0.009761686495346207
14.868,0.009755147467670536
14.872,0.009751757751118074
14.876,0.009756205251559248
14.88,0.009753921399981347
14.884,0.009752839575549711
14.888,0.009749425818454322
14.892,0.009736996857761962
14.896,0.009735169776499642
14.9,0.009744305182811242
14.904,0.009749978750941603
14.908,0.009749786426598203
14.912,0.009744064777381989
14.916,0.00974009808779932
14.92,0.00974538700724288
14.924,0.009749353696825547
14.928,0.009745699534300907
14.932,0.009742093452862118
14.936,0.009738847979567207
14.94,0.00973908838499646
14.944,0.00974005000671347
14.948,0.009733871587181678
14.952,0.009730505911172142
14.956,0.009725529518786611
14.96,0.009709566598284237
14.964,0.009702234232692031
14.968,0.009692810339865326
14.972,0.009689564866570416
14.976,0.009704061313954352
14.98,0.009727933573079137
14.984,0.009756301413730949
14.988,0.009793227687664153
14.992,0.00981700378461724
14.996,0.009822220582432022
15.0,0.009811811027345383
15.004,0.009777144564447152
15.008000000000001,0.009743175277293755
15.012,0.009722260004948776
15.016,0.009703267976037818
15.02,0.009684203825498082
15.024000000000001,0.009669226567255643
15.028,0.009663240472067252
15.032,0.009658504485110976
15.036,0.009652782835894764
15.040000000000001,0.009645017740529904
15.044,0.009635305361188097
15.048,0.009629054820027528
15.052,0.009627804711795414
15.056000000000001,0.009626169954876496
15.06,0.009622996603210362
15.064,0.009623910143841521
15.068,0.00961604888630496
15.072000000000001,0.009609798345144391
15.076,0.00960595185827635
15.08,0.009601504357835177
15.084,0.009608019344967923
15.088000000000001,0.009604966196016414
15.092,0.00959407583007127
15.096,0.009594869167987803
15.1,0.009588786910627712
15.104000000000001,0.009582872937068098
15.108,0.009581310301777956
15.112,0.009574578949758881
15.116,0.009565203138018029
15.120000000000001,0.009561669178208014
15.124,0.009564481921730272
15.128,0.009563904948700064
15.132,0.009557702488625346
15.136000000000001,0.009549841231088785
15.14,0.00953474377013172
15.144,0.009531305972493407
15.148,0.009530897283263678
15.152000000000001,0.009530055864261294
15.156,0.00952469482318896
15.16,0.009509332916259716
15.164,0.009491350590151618
15.168000000000001,0.009493946968787546
15.172,0.009496399104165923
15.176,0.009496711631223951
15.18,0.00949341807684319
15.184000000000001,0.009480003453890894
15.188,0.009471084412465622
15.192,0.00947048339889249
15.196,0.009461227789866264
15.200000000000001,0.009453799262102356
15.204,0.009444014761131775
15.208,0.009437571895627803
15.212,0.009435504408936231
15.216000000000001,0.009435264003506978
15.22,0.009428676894745457
15.224,0.009417738447714461
15.228,0.009410502244293958
15.232000000000001,0.009410622447008583
15.236,0.009408218392716057
15.24,0.009401847648840863
15.244,0.009394539323791582
15.248000000000001,0.009387423323085705
15.252,0.009366652293998277
15.256,0.009360906604239138
15.26,0.009363575104503842
15.264000000000001,0.009360113266322604
15.268,0.009360353671751857
15.272,0.009356675468684293
15.276,0.009345544697309895
15.280000000000001,0.009339726885921981
15.284,0.009335952520682715
15.288,0.009331168452640587
15.292,0.009326456506227236
15.296000000000001,0.009313041883274939
15.3,0.009304219004021366
15.304,0.009302560206559523
15.308,0.00930018019280992
15.312000000000001,0.00928779931320341
15.316,0.0092776061230031
15.32,0.009273134582019
15.324,0.009269648703294837
15.328000000000001,0.0092639991757074
15.332,0.009256378323600092
15.336,0.009245536038740797
15.34,0.009233876375422046
15.344000000000001,0.00921933184695226
15.348,0.009209114616209024
15.352,0.009197575155604897
15.356,0.009188896519608877
15.36,0.009180746775557212
15.364,0.00915725916511923
15.368,0.009151465394274243
15.372,0.009155816732543714
15.376,0.009154230056710648
15.38,0.009145455258542927
15.384,0.009134540852054857
15.388,0.009123482202309236
15.392,0.009113216890480148
15.396,0.00910970697121306
15.4,0.009108336660266319
15.404,0.009106509579003998
15.408,0.009099129132325943
15.412,0.009090354334158222
15.416,0.009085978955345823
15.42,0.009082348833364109
15.424,0.009075713643516736
15.428,0.009070208359186852
15.432,0.009062034574592261
15.436,0.00906189033133471
15.44,0.009058260209352995
15.444,0.00905371654674012
15.448,0.009054053114341074
15.452,0.009049293086841872
15.456,0.00904188859962089
15.46,0.00903965282912884
15.464,0.009042032842878443
15.468,0.00903864312632598
15.472,0.009033931179912628
15.476,0.009025372746631235
15.48,0.009023641827540617
15.484,0.009023689908626467
15.488,0.009027512354951583
15.492,0.009023209097767961
15.496,0.009007991434096268
15.5,0.00898777333749612
15.504,0.008990898608076406
15.508000000000001,0.008997798243895957
15.512,0.008998399257469088
15.516,0.008997197230322825
15.52,0.008993182459654305
15.524000000000001,0.008996860662721871
15.528,0.009000731190132838
15.532,0.008993494986712335
15.536,0.008988350310526328
15.540000000000001,0.008993783473227436
15.544,0.008991307297306135
15.548,0.00899539418960343
15.552,0.008997942487153507
15.556000000000001,0.008993903675942064
15.56,0.008991235175677358
15.564,0.008991908310879267
15.568,0.008997509757380853
15.572000000000001,0.009005274852745713
15.576,0.009005298893288638
15.58,0.009001260082077195
15.584,0.008996596216749694
15.588000000000001,0.008989816783644768
15.592,0.008990706283733003
15.596,0.008991114972962733
15.6,0.00899356710834111
15.604000000000001,0.008993206500197231
15.608,0.008991715986535864
15.612,0.008982003607194058
15.616,0.008983854728999303
15.620000000000001,0.008987340607723467
15.624,0.008995682676118532
15.628,0.008999577244072425
15.632,0.009007077893465108
15.636000000000001,0.009007486582694837
15.64,0.009014794907744119
15.644,0.009018977962213116
15.648,0.009024002435684495
15.652000000000001,0.009026238206176545
15.656,0.009022511922023128
15.66,0.009025613152060488
15.664,0.009027368111694032
15.668000000000001,0.00903265703113759
15.672,0.00903402734208433
15.676,0.009034387950228208
15.68,0.009033426328511198
15.684000000000001,0.009039436464242514
15.688,0.009046840951463495
15.692,0.009050663397788612
15.696,0.009048956519240918
15.700000000000001,0.009041624153648713
15.704,0.009040951018446805
15.708,0.00903914797772741
15.712,0.009042201126678919
15.716000000000001,0.009048716113811665
15.72,0.009053283816967466
15.724,0.009053163614252839
15.728,0.009051697141134398
15.732000000000001,0.009053884830540598
15.736,0.009055207060401487
15.74,0.009051168249190042
15.744,0.009038114234381625
15.748000000000001,0.00902727194952233
15.752,0.009037393018093866
15.756,0.009045470640516756
15.76,0.009047802573180505
15.764000000000001,0.009049773897700378
15.768,0.009047922775895133
15.772,0.009041864559077966
15.776,0.009030733787703568
15.780000000000001,0.009021406057048566
15.784,0.00902265616528068
15.788,0.009030325098473839
15.792,0.009058813141840276
15.796000000000001,0.009100331159472206
15.8,0.00913624773060255
15.804,0.009174496234396643
15.808,0.009196998182574691
15.812000000000001,0.009202815993962605
15.816,0.009191204411729702
15.82,0.009167356193147841
15.824,0.009137906528064394
15.828000000000001,0.00912117431018841
15.832,0.009099249335040568
15.836,0.009075833846231363
15.84,0.00907056896733073
15.844000000000001,0.009064150142369685
15.848,0.009065448331687648
15.852,0.009070088156472225
15.856,0.009064294385627236
15.860000000000001,0.009046071654089887
15.864,0.00904914884358432
15.868,0.009057298587635985
15.872,0.009057851520123266
15.876,0.009061169115046952
15.88,0.009059870925728988
15.884,0.00906270770979417
15.888,0.009065977223632005
15.892,0.009063741453139955
15.896,0.009069318859098617
15.9,0.009074078886597819
15.904,0.00907778113020831
15.908,0.009074487575827548
15.912,0.009072732616194004
15.916,0.009072636454022303
15.92,0.009072804737822779
15.924,0.009071963318820396
15.928,0.009072011399906247
15.932,0.00907340575139591
15.936,0.009072564332393528
15.94,0.00907458373799925
15.944,0.009070160278101001
15.948,0.009060760425817223
15.952,0.00906741965620752
15.956,0.009081699738705127
15.96,0.009091844847819589
15.964,0.009091820807276663
15.968,0.00908554622557317
15.972,0.009080954481874444
15.976,0.009082012265763155
15.98,0.009083671063224998
15.984,0.009080569833187639
15.988,0.009075569400259186
15.992,0.009065328128973022
15.996,0.009056577371348226
16.0,0.009065424291144724
16.004,0.00907148250796189
16.008,0.009076771427405449
16.012,0.009080425589930089
16.016000000000002,0.009077348400435654
16.02,0.009082493076621661
16.024,0.009087878158236919
16.028,0.00909254202356442
16.032,0.00909203717216299
16.036,0.009086219360775076
16.04,0.00908655592837603
16.044,0.009095306686000827
16.048000000000002,0.009090354334158222
16.052,0.009086868455434058
16.056,0.00908482500928541
16.06,0.009086868455434058
16.064,0.009090017766557268
16.068,0.009090041807100194
16.072,0.009088959982668557
16.076,0.009090883226102577
16.080000000000002,0.009090883226102577
16.084,0.009092325658678093
16.088,0.009097638618664576
16.092,0.009103216024623238
16.096,0.009105932605973793
16.1,0.009107399079092233
16.104,0.009097157807806072
16.108,0.009086724212176506
16.112000000000002,0.009095643253601779
16.116,0.009105211389686034
16.12,0.009108096254837066
16.124,0.0091043218895978
16.128,0.009100234997300505
16.132,0.009103672794938818
16.136,0.009099874389156626
16.14,0.009096580834775865
16.144000000000002,0.009099778226984925
16.148,0.009094393145369665
16.152,0.009086724212176506
16.156,0.009088334928552499
16.16,0.009094176780483338
16.164,0.009103696835481742
16.168,0.009103696835481742
16.172,0.009104297849054874
16.176000000000002,0.009103167943537388
16.18,0.009104658457198753
16.184,0.009103264105709089
16.188,0.00910350451113834
16.192,0.009094008496682862
16.196,0.009091436158589858
16.2,0.009098407916038186
16.204,0.009099153172868867
16.208000000000002,0.009096172145546135
16.212,0.009092253537049318
16.216,0.009082180549563633
16.22,0.00908117084676077
16.224,0.009083743184853775
16.228,0.00908340661725282
16.232,0.009087589671721817
16.236,0.00909234969922102
16.240000000000002,0.00907660314360497
16.244,0.00907316534596666
16.248,0.009081339130561248
16.252,0.009087950279865696
16.256,0.009094633550798918
16.26,0.009097542456492875
16.264,0.009097614578121652
16.268,0.009101268740646292
16.272000000000002,0.00910574028163039
16.276,0.009099057010697168
16.28,0.009090474536872848
16.284,0.009090378374701146
16.288,0.00909162848293326
16.292,0.009097806902465054
16.296,0.00909696548346267
16.3,0.00909655679423294
16.304000000000002,0.009094681631884769
16.308,0.009097278010520697
16.312,0.009099249335040568
16.316,0.009095835577945181
16.32,0.00909523456437205
16.324,0.009091892928905438
16.328,0.009084416320055681
16.332,0.009088551293438827
16.336000000000002,0.0090884310907242
16.34,0.009088310888009574
16.344,0.009094681631884769
16.348,0.009097326091606548
16.352,0.009080858319702742
16.356,0.009080305387215461
16.36,0.009089440793527062
16.364,0.009098359834952335
16.368000000000002,0.0090998503486137
16.372,0.00909701356454852
16.376,0.009093479604738506
16.38,0.009096484672604164
16.384,0.009099177213411793
16.388,0.009095114361657424
16.392,0.009090402415244073
16.396,0.009084873090371261
16.4,0.009088719577239304
16.404,0.009100547524358533
16.408,0.009107230795291757
16.412,0.009106894227690803
16.416,0.009100379240558057
16.42,0.009094970118399872
16.424,0.009101965916391124
16.428,0.009104129565254398
16.432,0.009103600673310041
16.436,0.009106004727602568
16.44,0.009106461497918147
16.444,0.00910624513303182
16.448,0.009113625579709878
16.452,0.009126126662031015
16.456,0.00913523802779969
16.46,0.009139925933670115
16.464,0.009123530283395086
16.468,0.009120380972271877
16.472,0.009124155337511142
16.476,0.00912788162166456
16.48,0.009127040202662175
16.484,0.009127304648634352
16.488,0.00912518908085693
16.492,0.009129372135325924
16.496,0.009128554756866466
16.5,0.009131054973330693
16.504,0.009134588933140708
16.508,0.009134757216941184
16.512,0.009137137230690784
16.516000000000002,0.009136055406259148
16.52,0.009135286108885539
16.524,0.009139757649869639
16.528,0.00914026250127107
16.532,0.009131655986903825
16.536,0.009127785459492858
16.54,0.00912990102727028
16.544,0.00912761717569238
16.548000000000002,0.009122472499506375
16.552,0.009113841944596204
16.556,0.009102903497565209
16.56,0.009099081051240092
16.564,0.009107495241263934
16.568,0.009142931001535773
16.572,0.00918091505935769
16.576,0.009196541412259111
16.580000000000002,0.009224284198794865
16.584,0.009254887809938725
16.588,0.00926623494619945
16.592,0.009261090270013443
16.596,0.00923111171298564
16.6,0.009197647277233673
16.604,0.009177813829320331
16.608,0.0091543742999682
16.612000000000002,0.009130622243558038
16.616,0.009114106390568383
16.62,0.009108985754925301
16.624,0.009104129565254398
16.628,0.009107543322349785
16.632,0.00911208698496266
16.636,0.009114418917626411
16.64,0.00910792797103659
16.644000000000002,0.009099778226984925
16.648,0.009101028335217039
16.652,0.009104129565254398
16.656,0.009108360700809243
16.66,0.009107855849407813
16.664,0.009102759254307657
16.668,0.00909838387549526
16.672,0.00910071580815901
16.676000000000002,0.00910061964598731
16.68,0.009095715375230556
16.684,0.009094104658854563
16.688,0.009084103792997653
