0.0,-0.01391877717798279
0.004,-0.013919450313184697
0.008,-0.013919955164586127
0.012,-0.01392115719173239
0.016,-0.013923128516252263
0.02,-0.013924018016340496
0.024,-0.013923729529825395
0.028,-0.013923921854168797
0.032,-0.013923513164939066
0.036000000000000004,-0.013922070732363552
0.04,-0.013920532137616334
0.044,-0.013918536772553537
0.048,-0.013916325042604413
0.052000000000000005,-0.013915699988488356
0.056,-0.013914522001885019
0.06,-0.01391247855573637
0.064,-0.013910988042075004
0.068,-0.01391005046090092
0.07200000000000001,-0.013909978339272143
0.076,-0.013909305204070237
0.08,-0.013908487825610777
0.084,-0.013907189636292812
0.088,-0.013906011649689475
0.092,-0.013904977906343688
0.096,-0.013905098109058316
0.1,-0.0139060356902324
0.10400000000000001,-0.013905963568603625
0.108,-0.013905314473944642
0.112,-0.013905482757745119
0.116,-0.013906468420005055
0.12,-0.013907958933666422
0.124,-0.013909016717555133
0.128,-0.013909305204070237
0.132,-0.01391024278524432
0.136,-0.013911781379991538
0.14,-0.013912646839536847
0.14400000000000002,-0.013913608461253859
0.148,-0.013914738366771345
0.152,-0.013914281596455766
0.156,-0.01391389694776896
0.16,-0.013914594123513794
0.164,-0.013914089272112363
0.168,-0.013913127650395353
0.17200000000000001,-0.01391247855573637
0.176,-0.013911324609675958
0.18,-0.013910531271759424
0.184,-0.013911565015105211
0.188,-0.01391187754216324
0.192,-0.013910266825787247
0.196,-0.013908944595926356
0.2,-0.013908391663439075
0.20400000000000001,-0.013908343582353225
0.20800000000000002,-0.013908295501267376
0.212,-0.013908872474297581
0.216,-0.01390968985275704
0.22,-0.013909978339272143
0.224,-0.013910603393388201
0.228,-0.013910819758274528
0.232,-0.01391106016370378
0.23600000000000002,-0.013911685217819837
0.24,-0.013911661177276912
0.244,-0.01391142077184766
0.248,-0.013910627433931125
0.252,-0.013910074501443844
0.256,-0.013909160960812685
0.26,-0.013908031055295197
0.264,-0.013907117514664037
0.268,-0.013907117514664037
0.272,-0.013907237717378663
0.276,-0.013907742568780093
0.28,-0.013907598325522543
0.28400000000000003,-0.013907261757921589
0.28800000000000003,-0.01390654054163383
0.292,-0.013905194271230017
0.296,-0.013907622366065468
0.3,-0.013915411501973254
0.304,-0.013918055961695031
0.308,-0.013917190502149722
0.312,-0.013916060596632236
0.316,-0.013913632501796783
0.32,-0.013911781379991538
0.324,-0.013911324609675958
0.328,-0.013912526636822221
0.332,-0.013913055528766578
0.336,-0.013913560380168008
0.34,-0.013914041191026513
0.34400000000000003,-0.01391380078559726
0.34800000000000003,-0.013914041191026513
0.352,-0.013914233515369915
0.356,-0.013913127650395353
0.36,-0.013911613096191062
0.364,-0.013911757339448614
0.368,-0.013912238150307118
0.372,-0.013912815123337325
0.376,-0.013913151690938277
0.38,-0.013913368055824606
0.384,-0.013912262190850044
0.388,-0.013912166028678343
0.392,-0.01391283916388025
0.396,-0.013914570082970869
0.4,-0.013916805853462917
0.404,-0.013917262623778499
0.40800000000000003,-0.013917022218349246
0.41200000000000003,-0.01391704625889217
0.41600000000000004,-0.013916902015634619
0.42,-0.013917599191379451
0.424,-0.013917791515722854
0.428,-0.013917478988664826
0.432,-0.013917527069750676
0.436,-0.01391795979952333
0.44,-0.013918608894182312
0.444,-0.013918681015811089
0.448,-0.013919354151012996
0.452,-0.013920003245671978
0.456,-0.013920484056530484
0.46,-0.013920820624131438
0.464,-0.01392161396204797
0.468,-0.013921373556618719
0.47200000000000003,-0.013920988907931914
0.47600000000000003,-0.013920291732187081
0.48,-0.013919209907755444
0.484,-0.013918560813096462
0.488,-0.01391872909689694
0.492,-0.013919594556442249
0.496,-0.013920820624131438
0.5,-0.01392197457019185
0.504,-0.013921710124219671
0.508,-0.013921926489106
0.512,-0.013921854367477223
0.516,-0.01392197457019185
0.52,-0.01392243134050743
0.524,-0.013921085070103615
0.528,-0.013919137786126669
0.532,-0.013917118380520947
0.536,-0.013916204839889786
0.54,-0.01391603655608931
0.544,-0.013916276961518563
0.548,-0.013917118380520947
0.552,-0.013917887677894555
0.556,-0.013918681015811089
0.56,-0.013918921421240342
0.5640000000000001,-0.013920724461959737
0.5680000000000001,-0.013922287097249878
0.5720000000000001,-0.013923248718966889
0.5760000000000001,-0.013924066097426347
0.58,-0.013923993975797572
0.584,-0.01392389781362587
0.588,-0.013923008313537636
0.592,-0.013922214975621102
0.596,-0.01392187840802015
0.6,-0.013921325475532868
0.604,-0.013920580218702185
0.608,-0.01392024365110123
0.612,-0.01392014748892953
0.616,-0.013920772543045587
0.62,-0.013921734164762598
0.624,-0.013921253353904092
0.628,-0.013920339813272932
0.632,-0.013919306069927145
0.636,-0.013919330110470071
0.64,-0.013919570515899324
0.644,-0.013919402232098846
0.648,-0.013919017583412043
0.652,-0.013918705056354013
0.656,-0.013918705056354013
0.66,-0.01391872909689694
0.664,-0.01391827232658136
0.668,-0.013919161826669593
0.672,-0.01392106102956069
0.676,-0.01392238325942158
0.68,-0.013922142853992327
0.684,-0.013921638002590896
0.6880000000000001,-0.013921253353904092
0.6920000000000001,-0.013920940826846064
0.6960000000000001,-0.013919907083500277
0.7000000000000001,-0.013919450313184697
0.704,-0.01391877717798279
0.708,-0.01391781555626578
0.712,-0.01391649332640489
0.716,-0.013915171096544
0.72,-0.013914738366771345
0.724,-0.013913776745054335
0.728,-0.013913752704511409
0.732,-0.013913536339625082
0.736,-0.013912358353021745
0.74,-0.013910170663615546
0.744,-0.013909617731128265
0.748,-0.013909473487870713
0.752,-0.013908872474297581
0.756,-0.013908079136381047
0.76,-0.013907237717378663
0.764,-0.013907141555206962
0.768,-0.013908343582353225
0.772,-0.01390928116352731
0.776,-0.013909786014928741
0.78,-0.013909641771671189
0.784,-0.013909497528413639
0.788,-0.013909353285156087
0.792,-0.013909834096014592
0.796,-0.013910387028501872
0.8,-0.013910266825787247
0.804,-0.013908800352668806
0.808,-0.0139083195418103
0.812,-0.013908487825610777
0.8160000000000001,-0.013908103176923974
0.8200000000000001,-0.013907430041722065
0.8240000000000001,-0.013907622366065468
0.8280000000000001,-0.013908391663439075
0.8320000000000001,-0.013908175298552749
0.836,-0.013906949230863561
0.84,-0.013905699122631447
0.844,-0.013905963568603625
0.848,-0.01390562700100267
0.852,-0.013904352852227632
0.856,-0.013903415271053546
0.86,-0.01390319890616722
0.864,-0.01390187667630633
0.868,-0.013900265959930337
0.872,-0.013899809189614757
0.876,-0.013898871608440671
0.88,-0.013897525338036856
0.884,-0.013895529972974061
0.888,-0.013894327945827798
0.892,-0.013893101878138608
0.896,-0.013890481458959755
0.9,-0.01388817356683893
0.904,-0.013886082039604432
0.908,-0.013883557782597275
0.912,-0.013880456552559916
0.916,-0.013879254525413652
0.92,-0.013877499565780108
0.924,-0.013875912889947042
0.928,-0.013873701159997916
0.932,-0.013871176902990764
0.936,-0.013868796889241163
0.9400000000000001,-0.013866801524178367
0.9440000000000001,-0.013865551415946253
0.9480000000000001,-0.01386403686174196
0.9520000000000001,-0.013862810794052773
0.9560000000000001,-0.013862209780479641
0.96,-0.013852785887652938
0.964,-0.01385018950901701
0.968,-0.013848867279156121
0.972,-0.01384744888712353
0.976,-0.01384603049509094
0.98,-0.0138447563463159
0.984,-0.013844227454371544
0.988,-0.013843602400255487
0.992,-0.013842472494738
0.996,-0.013841679156821466
1.0,-0.013842400373109224
1.004,-0.013842616737995552
1.008,-0.013843578359712562
1.012,-0.0138447563463159
1.016,-0.013846246859977266
1.02,-0.013846895954636248
1.024,-0.013846847873550398
1.028,-0.013846174738348491
1.032,-0.013845717968032911
1.036,-0.013845525643689509
1.04,-0.01384521311663148
1.044,-0.013845645846404134
1.048,-0.013845645846404134
1.052,-0.013844828467944676
1.056,-0.013843650481341337
1.06,-0.013843530278626712
1.064,-0.01384439573817202
1.068,-0.013844083211113993
1.072,-0.013843193711025758
1.076,-0.01384292926505358
1.08,-0.013842448454195074
1.084,-0.01384191956225072
1.088,-0.013841679156821466
1.092,-0.013841270467591737
1.096,-0.013841486832478064
1.1,-0.013841799359536092
1.104,-0.013842592697452626
1.108,-0.013844035130028142
1.112,-0.013844491900343722
1.116,-0.013844443819257871
1.12,-0.013844275535457395
1.124,-0.013843963008399367
1.1280000000000001,-0.013843770684055965
1.1320000000000001,-0.013845357359889031
1.1360000000000001,-0.013847184441151352
1.1400000000000001,-0.013848747076441494
1.1440000000000001,-0.013849588495443878
1.1480000000000001,-0.013850477995532113
1.1520000000000001,-0.013851463657792048
1.156,-0.013852232955165657
1.16,-0.0138516079010496
1.164,-0.013851175171276946
1.168,-0.013850477995532113
1.172,-0.013850405873903337
1.176,-0.013851223252362797
1.18,-0.013851415576706197
1.184,-0.013850958806390617
1.188,-0.013850309711731635
1.192,-0.013848170103411288
1.196,-0.013847016157350876
1.2,-0.01384653534649237
1.204,-0.01384603049509094
1.208,-0.013845597765318284
1.212,-0.0138447563463159
1.216,-0.013843650481341337
1.22,-0.013844275535457395
1.224,-0.013846559387035294
1.228,-0.013848218184497139
1.232,-0.013849155765671223
1.236,-0.013849756779244354
1.24,-0.013850670319875516
1.244,-0.01385110304964817
1.248,-0.013850934765847693
1.252,-0.013850381833360412
1.256,-0.013850093346845309
1.26,-0.013850357792817486
1.264,-0.013851223252362797
1.268,-0.013851127090191095
1.272,-0.013850502036075038
1.276,-0.013851487698334974
1.28,-0.013851848306478853
1.284,-0.01385211275245103
1.288,-0.013853531144483622
1.292,-0.013854925495973286
1.296,-0.01385622368529125
1.3,-0.013857281469179963
1.304,-0.01385754591515214
1.308,-0.013856872779950232
1.312,-0.01385531014466009
1.316,-0.013854540847286483
1.32,-0.013853939833713351
1.324,-0.013853194576882668
1.328,-0.013852809928195863
1.332,-0.013853266698511443
1.336,-0.013853867712084574
1.34,-0.013853987914799202
1.344,-0.013854180239142604
1.348,-0.013853939833713351
1.352,-0.013853939833713351
1.356,-0.013854901455430361
1.36,-0.013855790955518596
1.364,-0.013856896820493158
1.368,-0.013859252793699834
1.372,-0.01386120007767678
1.3760000000000001,-0.013862762712966922
1.3800000000000001,-0.013865912024090132
1.3840000000000001,-0.013868796889241163
1.3880000000000001,-0.013870359524531306
1.3920000000000001,-0.013870672051589334
1.3960000000000001,-0.013869974875844501
1.4000000000000001,-0.013870022956930352
1.4040000000000001,-0.013870744173218109
1.408,-0.013871417308420017
1.412,-0.013872499132851653
1.416,-0.013874133889770572
1.42,-0.013875143592573433
1.424,-0.013875167633116359
1.428,-0.013874254092485197
1.432,-0.013873340551854038
1.436,-0.013873292470768187
1.44,-0.013873172268053562
1.444,-0.013871970240907298
1.448,-0.013871128821904914
1.452,-0.013870960538104438
1.456,-0.013871224984076615
1.46,-0.013870936497561511
1.464,-0.013870359524531306
1.468,-0.013869205578470893
1.472,-0.013867763145895377
1.476,-0.01386668132146374
1.48,-0.01386576778083258
1.484,-0.013865527375403327
1.488,-0.013864998483458972
1.492,-0.013863387767082978
1.496,-0.01386216169939379
1.5,-0.013861392402020183
1.504,-0.01386033461813147
1.508,-0.013858122888182346
1.512,-0.013857329550265812
1.516,-0.013858988347727657
1.52,-0.013860911591161677
1.524,-0.013861897253421613
1.528,-0.013861680888535285
1.532,-0.013861512604734809
1.536,-0.013861632807449434
1.54,-0.013861801091249912
1.544,-0.013862281902108416
1.548,-0.013862233821022566
1.552,-0.013860599064103649
1.556,-0.013859397036957386
1.56,-0.013858291171982824
1.564,-0.013858291171982824
1.568,-0.013858940266641806
1.572,-0.013858892185555955
1.576,-0.013858074807096495
1.58,-0.013857305509722887
1.584,-0.013858195009811123
1.588,-0.013859228753156908
1.592,-0.013859084509899358
1.596,-0.013857593996237991
1.6,-0.013856440050177578
1.604,-0.01385480529325866
1.608,-0.013853050333625116
1.612,-0.013852545482223685
1.616,-0.013852954171453415
1.62,-0.013853410941768994
1.624,-0.013853002252539265
1.6280000000000001,-0.013853050333625116
1.6320000000000001,-0.01385333882014022
1.6360000000000001,-0.013852305076794432
1.6400000000000001,-0.013851776184850078
1.6440000000000001,-0.013851752144307151
1.6480000000000001,-0.013851896387564703
1.6520000000000001,-0.013852713766024162
1.6560000000000001,-0.013852785887652938
1.6600000000000001,-0.01385261760385246
1.6640000000000001,-0.013853074374168042
1.668,-0.013853026293082191
1.672,-0.01385165598213545
1.676,-0.01384973273870143
1.68,-0.013857017023207784
1.684,-0.013856872779950232
1.688,-0.013857137225922411
1.692,-0.013856367928548802
1.696,-0.01385603136094785
1.7,-0.01385653621234928
1.704,-0.013856632374520981
1.708,-0.013855574590632268
1.712,-0.013853747509369949
1.716,-0.01385206467136518
1.72,-0.013852833968738789
1.724,-0.013853266698511443
1.728,-0.01385333882014022
1.732,-0.013853290739054369
1.736,-0.013853483063397771
1.74,-0.013853290739054369
1.744,-0.013853146495796817
1.748,-0.013852545482223685
1.752,-0.013852256995708582
1.756,-0.01385261760385246
1.76,-0.013852497401137835
1.764,-0.013851391536163273
1.768,-0.013851006887476468
1.772,-0.013850862644218916
1.776,-0.013851271333448647
1.78,-0.013851271333448647
1.784,-0.013851439617249123
1.788,-0.01385216083353688
1.792,-0.013852713766024162
1.796,-0.013853050333625116
1.8,-0.013853531144483622
1.804,-0.013853483063397771
1.808,-0.01385293013091049
1.812,-0.013853771549912873
1.816,-0.013853867712084574
1.82,-0.013853410941768994
1.824,-0.013852906090367564
1.828,-0.013851079009105245
1.832,-0.013847785454724483
1.836,-0.013844371697629096
1.84,-0.013841727237907317
1.844,-0.013838890453842135
1.848,-0.013837952872668051
1.852,-0.013837616305067097
1.856,-0.013835596899461376
1.86,-0.01383319284516885
1.864,-0.013831245561191903
1.868,-0.01383013969621734
1.872,-0.013828985750156928
1.8760000000000001,-0.013827014425637055
1.8800000000000001,-0.01382521138491766
1.8840000000000001,-0.013824802695687931
1.8880000000000001,-0.013825091182203035
1.8920000000000001,-0.013824850776773782
1.8960000000000001,-0.013824538249715754
1.9000000000000001,-0.013825259466003511
1.9040000000000001,-0.013825451790346914
1.9080000000000001,-0.013825403709261063
1.9120000000000001,-0.013824418047001127
1.9160000000000001,-0.013822759249539284
1.92,-0.013821437019678395
1.924,-0.013820619641218937
1.928,-0.013820739843933562
1.932,-0.013820475397961385
1.936,-0.01381917720864342
1.94,-0.013817758816610829
1.944,-0.013816604870550416
1.948,-0.013815643248833406
1.952,-0.013814296978429591
1.956,-0.013813960410828639
1.96,-0.013813191113455029
1.964,-0.013812421816081421
1.968,-0.01381186888359414
1.972,-0.013810835140248353
1.976,-0.013809248464415285
1.98,-0.01380766178858222
1.984,-0.013806772288493984
1.988,-0.01380698865338031
1.992,-0.01380648380197888
1.996,-0.013806411680350105
2.0,-0.013806002991120376
2.004,-0.013805305815375543
2.008,-0.013804776923431187
2.012,-0.01380410378822928
2.016,-0.013804031666600504
2.02,-0.01380328640976982
2.024,-0.013801627612307977
2.028,-0.013800545787876341
2.032,-0.013798502341727694
2.036,-0.013797781125439936
2.04,-0.013797372436210206
2.044,-0.01379775708489701
2.048,-0.013798694666071096
2.052,-0.013798237895755516
2.056,-0.013797444557838982
2.06,-0.013796458895579046
2.064,-0.013795978084720542
2.068,-0.013795112625175231
2.072,-0.013794006760200669
2.076,-0.013794247165629922
2.08,-0.013795809800920064
2.084,-0.013796555057750747
2.088,-0.013796555057750747
2.092,-0.013796386773950271
2.096,-0.013797156071323879
2.1,-0.013797011828066327
2.104,-0.013795449192776185
2.108,-0.01379354998988509
2.112,-0.013792660489796854
2.116,-0.01379040067876188
2.12,-0.013787948543383503
2.124,-0.013786145502664108
2.128,-0.013784438624116414
2.132,-0.013781096988649802
2.136,-0.013779053542501156
2.14,-0.013778452528928025
2.144,-0.013777803434269043
2.148,-0.01377660140712278
2.152,-0.013774582001517056
2.156,-0.013773692501428823
2.16,-0.013773211690570317
2.164,-0.013772827041883512
2.168,-0.013773211690570317
2.172,-0.01377249047428256
2.176,-0.013771697136366026
2.18,-0.01377126440659337
2.184,-0.01377080763627779
2.188,-0.013770951879535342
2.192,-0.013771024001164117
2.196,-0.013770639352477314
2.2,-0.013770206622704659
2.204,-0.013769557528045677
2.208,-0.013769605609131527
2.212,-0.013770110460532958
2.216,-0.01377080763627779
2.22,-0.013771168244421669
2.224,-0.013770567230848537
2.228,-0.013770543190305613
2.232,-0.013770062379447107
2.236,-0.013768139136013087
2.24,-0.013767946811669684
2.244,-0.013767826608955057
2.248,-0.013767033271038525
2.2520000000000002,-0.013766552460180019
2.2560000000000002,-0.01376619185203614
2.2600000000000002,-0.013766312054750766
2.2640000000000002,-0.013767225595381925
2.2680000000000002,-0.01376715347375315
2.2720000000000002,-0.01376660054126587
2.2760000000000002,-0.01376715347375315
2.2800000000000002,-0.013766985189952674
2.2840000000000003,-0.013765855284435186
2.2880000000000003,-0.013764196486973343
2.2920000000000003,-0.013763306986885108
2.2960000000000003,-0.013762561730054424
2.3000000000000003,-0.01376162414888034
2.3040000000000003,-0.013761672229966191
2.308,-0.013762369405711022
2.312,-0.013762705973311976
2.316,-0.013762633851683201
2.32,-0.01376208091919592
2.324,-0.013760662527163329
2.328,-0.01375938837838829
2.332,-0.013758450797214205
2.336,-0.013757777662012298
2.34,-0.013757296851153792
2.344,-0.013756816040295288
2.348,-0.013755854418578276
2.352,-0.013753786931886704
2.356,-0.013752320458768263
2.36,-0.013751094391079074
2.364,-0.01375020489099084
2.368,-0.013750132769362064
2.372,-0.013749627917960633
2.376,-0.013748281647556818
2.38,-0.013747151742039332
2.384,-0.013746526687923274
2.388,-0.013745709309463816
2.392,-0.013744651525575104
2.396,-0.013743882228201495
2.4,-0.013743882228201495
2.404,-0.013742463836168905
2.408,-0.013740829079249986
2.412,-0.013740829079249986
2.416,-0.013740540592734884
2.42,-0.013740829079249986
2.424,-0.013739458768303247
2.428,-0.013737775930298478
2.432,-0.013738617349300862
2.436,-0.013740372308934407
2.44,-0.013740756957621211
2.444,-0.013740179984591004
2.448,-0.013740420390020257
2.452,-0.013740588673820735
2.456,-0.013741862822595773
2.46,-0.013742704241598158
2.464,-0.013742247471282578
2.468,-0.013742559998340606
2.472,-0.01374294464702741
2.476,-0.013743425457885915
2.48,-0.013745324660777011
2.484,-0.013747752755612463
2.488,-0.01374796912049879
2.492,-0.01374792103941294
2.496,-0.013748089323213416
2.5,-0.013748041242127565
2.504,-0.013749099026016278
2.508,-0.013750228931533765
2.512,-0.01375020489099084
2.516,-0.013750445296420092
2.52,-0.013750517418048868
2.524,-0.013750685701849345
2.528,-0.013750878026192747
2.532,-0.013750637620763494
2.536,-0.013750589539677643
2.54,-0.01375010872881914
2.544,-0.013749916404475737
2.548,-0.013749459634160157
2.552,-0.013748642255700697
2.556,-0.013748449931357296
2.56,-0.013749627917960633
2.564,-0.013750493377505942
2.568,-0.013751118431622
2.572,-0.013750902066735673
2.576,-0.013750228931533765
2.58,-0.013748906701672876
2.584,-0.013748858620587025
2.588,-0.013748714377329474
2.592,-0.013747488309640284
2.596,-0.013746117998693545
2.6,-0.013744988093176057
2.604,-0.013745613147292115
2.608,-0.013745084255347758
2.612,-0.013744411120145851
2.616,-0.01374436303906
2.62,-0.013744098593087823
2.624,-0.013744555363403403
2.628,-0.013745084255347758
2.632,-0.013745589106749188
2.636,-0.01374623820140817
2.64,-0.013746574769009125
2.644,-0.013747632552897836
2.648,-0.013749219228730904
2.652,-0.01375020489099084
2.656,-0.013750277012619615
2.66,-0.013749988526104512
2.664,-0.013750685701849345
2.668,-0.013751839647909757
2.672,-0.013752176215510711
2.676,-0.013752248337139486
2.68,-0.013753618648086227
2.684,-0.013755061080661744
2.688,-0.013757008364638688
2.692,-0.013760133635218974
2.696,-0.013762201121910546
2.7,-0.013763667595028986
2.704,-0.01376542255466253
2.708,-0.013765951446606887
2.712,-0.013767946811669684
2.716,-0.013770326825419284
2.72,-0.013770783595734864
2.724,-0.01377075955519194
2.728,-0.013770783595734864
2.732,-0.013771552893108474
2.736,-0.013772851082426438
2.74,-0.013773764623057598
2.744,-0.013775038771832636
2.748,-0.01377664948820863
2.7520000000000002,-0.01377811596132707
2.7560000000000002,-0.013778620812728501
2.7600000000000002,-0.013778260204584622
2.7640000000000002,-0.013778404447842174
2.7680000000000002,-0.01377857273164265
2.7720000000000002,-0.013778692934357276
2.7760000000000002,-0.013779366069559184
2.7800000000000002,-0.01377994304258939
2.7840000000000003,-0.013779894961503539
2.7880000000000003,-0.013779317988473334
2.7920000000000003,-0.013778765055986053
2.7960000000000003,-0.013779245866844557
2.8000000000000003,-0.01378044789399082
2.8040000000000003,-0.013781096988649802
2.8080000000000003,-0.01378044789399082
2.8120000000000003,-0.013779702637160138
2.816,-0.013778789096528977
2.82,-0.013777346663953463
2.824,-0.013776433123322301
2.828,-0.013775399379976516
2.832,-0.013774774325860458
2.836,-0.01377400502848685
2.84,-0.01377400502848685
2.844,-0.013774557960974132
2.848,-0.013773980987943924
2.852,-0.013774077150115626
2.856,-0.013775255136718964
2.86,-0.013776120596264273
2.864,-0.013776120596264273
2.868,-0.0137761446368072
2.872,-0.013776240798978899
2.876,-0.013775735947577469
2.88,-0.013774533920431205
2.884,-0.013772009663424054
2.888,-0.013769605609131527
2.892,-0.013767081352124375
2.896,-0.013764340730230895
2.9,-0.013764052243715791
2.904,-0.013763186784170482
2.908,-0.013761191419107685
2.912,-0.01376080677042088
2.916,-0.013761816473223741
2.92,-0.01376208091919592
2.924,-0.013761912635395442
2.928,-0.013760422121734077
2.932,-0.013760133635218974
2.936,-0.013759748986532169
2.94,-0.013759075851330262
2.944,-0.013757994026898625
2.948,-0.013756094824007529
2.952,-0.013754652391432013
2.956,-0.013753282080485273
2.96,-0.01375208005333901
2.964,-0.01375116651270785
2.968,-0.013749916404475737
2.972,-0.013748642255700697
2.976,-0.013747752755612463
2.98,-0.013748089323213416
2.984,-0.013747127701496406
2.988,-0.01374623820140817
2.992,-0.013746743052809601
2.996,-0.013745949714893069
3.0,-0.01374376202548687
3.004,-0.013741550295537745
3.008,-0.013740805038707062
3.012,-0.013741189687393867
3.016,-0.013741189687393867
3.02,-0.013740468471106108
3.024,-0.013741454133366044
3.028,-0.013741910903681624
3.032,-0.01374157433608067
3.036,-0.013741382011737267
3.04,-0.013740035741333454
3.044,-0.013737944214098956
3.048,-0.01373554015980643
3.052,-0.013734410254288941
3.056,-0.013732511051397845
3.06,-0.01373015507819117
3.064,-0.013727654861726942
3.068,-0.013725899902093398
3.072,-0.013724289185717406
3.076,-0.01372320736128577
3.08,-0.013721788969253178
3.084,-0.013720635023192766
3.088,-0.013720586942106915
3.092,-0.013719577239304054
3.096,-0.013717990563470986
3.1,-0.013717846320213436
3.104,-0.013718543495958267
3.108,-0.01372010613124841
3.112,-0.013721187955680047
3.116,-0.013720707144821542
3.12,-0.013719913806905008
3.124,-0.013720707144821542
3.128,-0.013721163915137122
3.132,-0.013720947550250794
3.136,-0.013721308158394674
3.14,-0.013721764928710254
3.144,-0.013720442698849363
3.148,-0.013717702076955884
3.152,-0.013717509752612482
3.156,-0.013720707144821542
3.16,-0.01372238998282631
3.164,-0.013722990996399441
3.168,-0.013723231401828694
3.172,-0.013723567969429648
3.176,-0.013722918874770666
3.18,-0.013721668766538552
3.184,-0.013721115834051271
3.188,-0.013722197658482907
3.192,-0.013723471807257947
3.196,-0.013723808374858901
3.2,-0.013723111199114069
3.204,-0.013722221699025833
3.208,-0.013719961887990859
3.212,-0.01371883198247337
3.216,-0.013718495414872417
3.22,-0.013719360874417727
3.224,-0.013721909171967805
3.228,-0.013723519888343798
3.232,-0.013722365942283385
3.236,-0.013718158847271464
3.24,-0.013713735387373215
3.244,-0.013710778400593407
3.248,-0.01371005718430565
3.2520000000000002,-0.013712268914254774
3.2560000000000002,-0.013714312360403422
3.2600000000000002,-0.013714360441489272
3.2640000000000002,-0.013713855590087842
3.2680000000000002,-0.01371325457651471
3.2720000000000002,-0.01371270164402743
3.2760000000000002,-0.013712677603484503
3.2800000000000002,-0.013713134373800083
3.2840000000000003,-0.013712437198055252
3.2880000000000003,-0.013710778400593407
3.2920000000000003,-0.013708085859785779
3.2960000000000003,-0.01370457594051869
3.3000000000000003,-0.013702676737627595
3.3040000000000003,-0.013700729453650648
3.3080000000000003,-0.013696257912666548
3.3120000000000003,-0.013693877898916948
3.3160000000000003,-0.013697243574926484
3.3200000000000003,-0.013699166818360507
3.3240000000000003,-0.013700609250936021
3.3280000000000003,-0.013701931480796911
3.332,-0.01370421533237481
3.336,-0.013707100197525843
3.34,-0.013708975359874013
3.344,-0.013709023440959863
3.348,-0.013708037778699928
3.352,-0.013707532927298498
3.356,-0.013708494549015508
3.36,-0.013709768697790546
3.364,-0.013708927278788162
3.368,-0.013706739589381964
3.372,-0.013707028075897068
3.376,-0.013706835751553665
3.38,-0.013704912508119643
3.384,-0.013702604615998818
3.388,-0.013701667034824732
3.392,-0.01369452699357593
3.396,-0.01369315668262919
3.4,-0.013702869061970996
3.404,-0.013709071522045714
3.408,-0.013712893968370832
3.412,-0.013716476009266695
3.416,-0.013717533793155406
3.42,-0.01371823096890024
3.424,-0.013719024306816773
3.428,-0.013720082090705485
3.432,-0.01372010613124841
3.436,-0.013718928144645072
3.44,-0.013716379847094994
3.444,-0.01371609136057989
3.448,-0.013718663698672895
3.452,-0.013722414023369236
3.456,-0.013724601712775434
3.46,-0.013725010402005165
3.464,-0.013722365942283385
3.468,-0.013710273549191977
3.472,-0.013702724818713445
3.476,-0.013717581874241257
3.48,-0.01373695855183902
3.484,-0.013746430525751573
3.488,-0.013749074985473352
3.492,-0.013746286282494021
3.496,-0.013736453700437589
3.5,-0.013731405186423283
3.504,-0.013733664997458258
3.508,-0.013736020970664934
3.512,-0.01373554015980643
3.516,-0.013733160146056828
3.52,-0.013731573470223761
3.524,-0.01373234276759737
3.528,-0.013732222564882744
3.532,-0.01373188599728179
3.536,-0.013730299321448721
3.54,-0.013728448199643476
3.544,-0.013728544361815177
3.548,-0.013728472240186402
3.552,-0.013736646024780991
3.556,-0.013749724080132334
3.56,-0.013757320891696718
3.564,-0.013747488309640284
3.568,-0.013731645591852536
3.572,-0.013721909171967805
3.576,-0.013716548130895472
3.58,-0.013715682671350161
3.584,-0.013718663698672895
3.588,-0.013720250374505963
3.592,-0.013720635023192766
3.596,-0.013718399252700717
3.6,-0.0137190483473597
3.604,-0.01372097159079372
3.608,-0.013721284117851748
3.612,-0.013720394617763513
3.616,-0.013722005334139507
3.62,-0.013719649360932831
3.624,-0.013710537995164156
3.628,-0.013716596211981322
3.632,-0.01374746426909736
3.636,-0.013756070783464604
3.64,-0.013742608079426457
3.644,-0.01373243892976907
3.648,-0.013730275280905797
3.652,-0.013716476009266695
3.656,-0.013692074858197553
3.66,-0.013689021709246045
3.664,-0.013691185358109318
3.668,-0.013690728587793738
3.672,-0.013696522358638727
3.676,-0.013705657764950327
3.68,-0.01371279780619913
3.684,-0.013717269347183229
3.688,-0.013718086725642687
3.692,-0.013717197225554454
3.696,-0.013718158847271464
3.7,-0.01371919259061725
3.704,-0.013718615617587044
3.708,-0.013716476009266695
3.712,-0.013714985495605328
3.716,-0.013715490347006759
3.72,-0.013715514387549685
3.724,-0.013716596211981322
3.728,-0.013716500049809621
3.732,-0.013716427928180844
3.736,-0.013720683104278616
3.74,-0.013728448199643476
3.744,-0.013730371443077498
3.748,-0.013723880496487676
3.7520000000000002,-0.013731453267509134
3.7560000000000002,-0.01374599779597892
3.7600000000000002,-0.013734049646145063
3.7640000000000002,-0.013725322929063193
3.7680000000000002,-0.013740083822419305
3.7720000000000002,-0.013744435160688776
3.7760000000000002,-0.01374335333625714
3.7800000000000002,-0.013736886430210244
3.7840000000000003,-0.013726717280552858
3.7880000000000003,-0.013727654861726942
3.7920000000000003,-0.013745589106749188
3.7960000000000003,-0.013764941743804026
3.8000000000000003,-0.013772274109396231
3.8040000000000003,-0.013777923636983668
3.8080000000000003,-0.013785256002575873
3.8120000000000003,-0.013789703503017047
3.8160000000000003,-0.013792516246539302
3.8200000000000003,-0.013794992422460605
3.8240000000000003,-0.013796555057750747
3.8280000000000003,-0.013794992422460605
3.8320000000000003,-0.013791987354594947
3.8360000000000003,-0.013789919867903375
3.84,-0.01379167482753692
3.844,-0.013794944341374755
3.848,-0.013797997490326263
3.852,-0.013796915665894626
3.856,-0.013781096988649802
3.86,-0.013763980122087016
3.864,-0.013780976785935177
3.868,-0.013809609072559166
3.872,-0.013819008924842942
3.876,-0.013819898424931178
3.88,-0.013813671924313535
3.884,-0.01380496924777459
3.888,-0.013809296545501136
3.892,-0.013819754181673626
3.896,-0.013826148966091746
3.9,-0.01382922615558618
3.904,-0.013830981115219724
3.908,-0.013831582128792855
3.912,-0.013830307980017817
3.916,-0.01382973100698761
3.92,-0.01383004353404564
3.924,-0.013829009790699853
3.928,-0.013826774020207802
3.932,-0.013824514209172828
3.936,-0.013819561857330223
3.94,-0.013815330721775378
3.944,-0.013813431518884282
3.948,-0.013815258600146601
3.952,-0.0138220139927086
3.956,-0.013824081479400174
3.96,-0.013818696397784914
3.964,-0.01381460950548762
3.968,-0.013816989519237221
3.972,-0.01381602789752021
3.976,-0.013814176775714965
3.98,-0.013822927533339762
3.984,-0.013828024128439916
3.988,-0.013829490601558359
3.992,-0.013831101317934351
3.996,-0.013831197480106052
4.0,-0.013830307980017817
4.0040000000000004,-0.013828408777126721
4.008,-0.013825788357947868
4.0120000000000005,-0.0138288655474423
4.016,-0.01383319284516885
4.0200000000000005,-0.013835789223804776
4.024,-0.013830067574588564
4.0280000000000005,-0.013816148100234836
4.032,-0.013813311316169656
4.0360000000000005,-0.013809873518531343
4.04,-0.013784222259230088
4.0440000000000005,-0.013772298149939157
4.048,-0.01378364528619988
4.0520000000000005,-0.013789655421931196
4.056,-0.01379191523296617
4.0600000000000005,-0.013805666423519422
4.064,-0.013811171707849308
4.0680000000000005,-0.01380460863963071
4.072,-0.013807325220981265
4.0760000000000005,-0.013808358964327052
4.08,-0.013809104221157735
4.0840000000000005,-0.013813070910740403
4.088,-0.013814825870373948
4.0920000000000005,-0.013815955775891434
4.096,-0.01381648466783579
4.1,-0.01381643658674994
4.104,-0.013815883654262659
4.108,-0.013814777789288097
4.112,-0.013813599802684758
4.116,-0.013819249330272195
4.12,-0.013820451357418459
4.124,-0.013818455992355662
4.128,-0.013821388938592544
4.132,-0.013820234992532132
4.136,-0.013815835573176808
4.14,-0.013820283073617982
4.144,-0.013821124492620367
4.148,-0.013823480465827043
4.152,-0.013828288574412095
4.156,-0.013831702331507482
4.16,-0.013835308412946272
4.164,-0.013839828035016221
4.168,-0.013843770684055965
4.172,-0.01384744888712353
4.176,-0.013850285671188711
4.18,-0.01385247336059491
4.184,-0.013854228320228455
4.188,-0.013855045698687913
4.192,-0.013851800225393002
4.196,-0.01385110304964817
4.2,-0.013857858442210168
4.204,-0.013857065104293634
4.208,-0.01385571883388982
4.212,-0.013853531144483622
4.216,-0.013842280170394598
4.22,-0.013829081912328628
4.224,-0.013850718400961365
4.228,-0.01387211448416485
4.232,-0.013876105214290443
4.236,-0.013876249457547995
4.24,-0.013875335916916835
4.244,-0.013874326214113974
4.248,-0.013873436714025739
4.252,-0.013871994281450223
4.256,-0.013870455686703007
4.26,-0.013869253659556744
4.264,-0.01386713809177932
4.268,-0.013865863943004281
4.272,-0.013865286969974074
4.276,-0.01386216169939379
4.28,-0.01386019037487392
4.284,-0.013860070172159292
4.288,-0.013861801091249912
4.292,-0.013864830199658494
4.296,-0.013864613834772168
4.3,-0.01386206553722209
4.304,-0.013855334185203017
4.308,-0.013856343888005877
4.312,-0.013860430780303171
4.316,-0.013859541280214938
4.32,-0.013858219050354047
4.324,-0.013859901888358816
4.328,-0.013861632807449434
4.332,-0.01385968552347249
4.336,-0.013850165468474084
4.34,-0.013840669454018606
4.344,-0.013846679589749921
4.348,-0.013848674954812719
4.352,-0.013841078143248335
4.356,-0.013852088711908106
4.36,-0.01386434938879999
4.364,-0.013867618902637826
4.368,-0.013869013254127491
4.372,-0.013865912024090132
4.376,-0.01386069522627535
4.38,-0.013855935198776148
4.384,-0.013853723468827022
4.388,-0.013856752577235606
4.392,-0.013855887117690298
4.396,-0.013850574157703814
4.4,-0.013846944035722099
4.404,-0.013841438751392213
4.408,-0.013835260331860421
4.412,-0.013835548818375525
4.416,-0.013834394872315112
4.42,-0.01383607771031988
4.424,-0.0138401886431601
4.428,-0.013846174738348491
4.432,-0.01384389088677059
4.436,-0.013835043966974095
4.44,-0.013822398641395405
4.444,-0.013814104654086189
4.448,-0.013815282640689527
4.452,-0.013816364465121165
4.456,-0.013814922032545649
4.46,-0.013817061640865996
4.464,-0.013814296978429591
4.468,-0.013811219788935158
4.472,-0.013809657153645016
4.476,-0.013804776923431187
4.48,-0.01380963311310209
4.484,-0.01381917720864342
4.488,-0.013820763884476487
4.492,-0.01381816750584056
4.496,-0.013813864248656937
4.5,-0.013806315518178404
4.5040000000000004,-0.013804151869315131
4.508,-0.013808839775185556
4.5120000000000005,-0.013807830072382695
4.516,-0.013803791261171252
4.5200000000000005,-0.013803166207055195
4.524,-0.013801771855565529
4.5280000000000005,-0.013797877287611636
4.532,-0.013792275841110051
4.5360000000000005,-0.013790160273332627
4.54,-0.013792251800567125
4.5440000000000005,-0.01379730031458143
4.548,-0.013795665557662512
4.5520000000000005,-0.013788188948812756
4.556,-0.013779822839874764
4.5600000000000005,-0.013773163609484466
4.564,-0.01377318765002739
4.5680000000000005,-0.013779125664129931
4.572,-0.013784029934886685
4.5760000000000005,-0.013784510745745191
4.58,-0.013782274975253141
4.5840000000000005,-0.013779173745215782
4.588,-0.013776048474635498
4.5920000000000005,-0.01377537533943359
4.596,-0.013774606042059982
4.6000000000000005,-0.01377273087971181
4.604,-0.013771072082249968
4.6080000000000005,-0.013769485406416902
4.612,-0.013766552460180019
4.616,-0.01376354739231436
4.62,-0.0137602538379336
4.624,-0.013757537256583045
4.628,-0.013754339864373985
4.632,-0.013748161444842193
4.636,-0.013743834147115644
4.64,-0.01374066079544951
4.644,-0.013737583605955077
4.648,-0.013741261809022642
4.652,-0.013744002430916122
4.656,-0.013744194755259525
4.66,-0.01374239171454013
4.664,-0.013734338132660166
4.668,-0.013728640523986878
4.672,-0.013725274847977342
4.676,-0.013723688172144274
4.68,-0.013731501348594985
4.684,-0.013735828646321533
4.688,-0.013734097727230913
4.692,-0.013728496280729327
4.696,-0.013721668766538552
4.7,-0.01371412003606002
4.704,-0.013711090927651437
4.708,-0.013714144076602946
4.712,-0.013716019238951115
4.716,-0.013716572171438396
4.72,-0.01371558650917846
4.724,-0.01371198042773967
4.728,-0.013707581008384349
4.732,-0.013703325832286577
4.736,-0.013699287021075132
4.74,-0.013694911642262735
4.744,-0.01369137768245272
4.748,-0.013689021709246045
4.752,-0.013687218668526648
4.756,-0.013684021276317588
4.76,-0.013679742059676892
4.764,-0.013676232140409802
4.768,-0.01367543880249327
4.772,-0.013673539599602174
4.776,-0.013670197964135562
4.78,-0.013668154517986914
4.784,-0.013667385220613306
4.788,-0.013663418531030638
4.792,-0.013654884138292168
4.796,-0.013648898043103779
4.8,-0.013652095435312839
4.804,-0.013656831422269115
4.808,-0.013660942355109335
4.812,-0.013662360747141925
4.816,-0.013657624760185649
4.82,-0.013656591016839862
4.824,-0.013655845760009179
4.828,-0.013653489786802503
4.832,-0.01365260028671427
4.836,-0.013653682111145905
4.84,-0.013652359881285017
4.844,-0.013647575813242888
4.848,-0.01364310427225879
4.852,-0.01364118102882477
4.856,-0.013640099204393132
4.86,-0.013640291528736534
4.864,-0.013639930920592656
4.868,-0.013639257785390747
4.872,-0.01363899333941857
4.876,-0.013634353514633994
4.88,-0.013625867202981376
4.884,-0.013627501959900293
4.888,-0.013634617960606173
4.892,-0.013636853731098221
4.896,-0.013636685447297745
4.9,-0.013635243014722229
4.904,-0.013633319771288208
4.908,-0.01363077147373813
4.912,-0.013629088635733361
4.916,-0.013627405797728594
4.92,-0.013621804351227007
4.924,-0.013613366120660239
4.928,-0.013615145120836709
4.932,-0.013621539905254828
4.936,-0.013621299499825577
4.94,-0.013621107175482174
4.944,-0.013625674878637974
4.948,-0.013631156122424933
4.952,-0.013634714122777872
4.956,-0.013632887041515553
4.96,-0.013631516730568814
4.964,-0.01363680565001237
4.968,-0.013640483853079937
4.972,-0.013641493555882797
4.976,-0.013642070528913003
4.98,-0.013642503258685658
4.984,-0.013642935988458314
4.988,-0.013642166691084704
4.992,-0.013639137582676122
4.996,-0.013637166258156249
5.0,-0.013637695150100606
5.0040000000000004,-0.01363995496113558
5.008,-0.013643176393887565
5.0120000000000005,-0.013646229542839073
5.016,-0.013647816218672141
5.0200000000000005,-0.013647527732157038
5.024,-0.01364630166446785
5.0280000000000005,-0.01364949905667691
5.032,-0.013651302097396305
5.0360000000000005,-0.013649715421563237
5.04,-0.013648705718760376
5.0440000000000005,-0.013652359881285017
5.048,-0.013652936854315222
5.0520000000000005,-0.013648657637674526
5.056,-0.013650580881108546
5.0600000000000005,-0.013655268786978973
5.064,-0.013655148584264346
5.0680000000000005,-0.013654379286890738
5.072,-0.013652119475855764
5.0760000000000005,-0.013649234610704731
5.08,-0.013646830556412205
5.0840000000000005,-0.013644354380490904
5.088,-0.013642479218142734
5.0920000000000005,-0.013641012745024291
5.096,-0.013640243447650684
5.1000000000000005,-0.013640027082764357
5.104,-0.013641854164026676
5.1080000000000005,-0.013643488920945595
5.112,-0.013644138015604577
5.1160000000000005,-0.013644546704834306
5.12,-0.013643945691261174
5.124,-0.01364219073162763
5.128,-0.013639666474620477
5.132,-0.01363853656910299
5.136,-0.013638224042044962
5.14,-0.013638296163673737
5.144,-0.013637647069014755
5.148,-0.013636421001325567
5.152,-0.013637022014898699
5.156,-0.013637190298699175
5.16,-0.01363269471717215
5.164,-0.01362995409527867
5.168,-0.013630170460164999
5.172,-0.013632478352285824
5.176,-0.013635916149924135
5.18,-0.013637022014898699
5.184,-0.013635747866123659
5.188,-0.013634137149747667
5.192,-0.013632454311742898
5.196,-0.013630651271023503
5.2,-0.013627790446415397
5.204,-0.013625194067779468
5.208,-0.01362305445945912
5.212,-0.013619905148335911
5.216,-0.013618270391416993
5.22,-0.013624448810948786
5.224,-0.01362848762216023
5.228,-0.013631204203510784
5.232,-0.013635411298522705
5.236,-0.01364036365036531
5.24,-0.013645484286008392
5.244,-0.013653081097572774
5.248,-0.013661206801081512
5.252,-0.013667024612469427
5.256,-0.013671544234539377
5.26,-0.01367493395109184
5.264,-0.013682362478855745
5.268,-0.013688733222730941
5.272,-0.013690993033765916
5.276,-0.013690536263450336
5.28,-0.013693829817831097
5.284,-0.013701474710481332
5.288,-0.01370818202195748
5.292,-0.013712509319684027
5.296,-0.013716379847094994
5.3,-0.013720082090705485
5.304,-0.013718759860844596
5.308,-0.013719481077132353
5.312,-0.013723495847800872
5.316,-0.01372659707783823
5.32,-0.0137306599295926
5.324,-0.013735516119263503
5.328,-0.013740252106219781
5.332,-0.013741814741509923
5.336,-0.013741742619881148
5.34,-0.013742463836168905
5.344,-0.013744146674173674
5.348,-0.01374522849860531
5.352,-0.013745156376976535
5.356,-0.0137442668768883
5.36,-0.01374381010657272
5.364,-0.013743545660600542
5.368,-0.013741910903681624
5.372,-0.013741790700966998
5.376,-0.013743497579514692
5.38,-0.01374436303906
5.384,-0.0137442668768883
5.388,-0.01374436303906
5.392,-0.013742367673997204
5.396,-0.013741406052280193
5.4,-0.01374335333625714
5.404,-0.0137442668768883
5.408,-0.013743377376800064
5.412,-0.01374436303906
5.416,-0.013749050944930428
5.42,-0.013752392580397038
5.424,-0.013749916404475737
5.428,-0.013746935377153003
5.432,-0.013748449931357296
5.436,-0.01374965195850356
5.44,-0.013747560431269061
5.444,-0.013751815607366833
5.448,-0.013757633418754746
5.452,-0.013759941310875571
5.456,-0.01376157606779449
5.46,-0.013761816473223741
5.464,-0.013760951013678432
5.468,-0.013758138270156177
5.472,-0.013754940877947116
5.476,-0.013754436026545686
5.48,-0.013754027337315957
5.484,-0.01375518128337637
5.488,-0.013756503513237258
5.492,-0.013756287148350931
5.496,-0.013754844715775415
5.5,-0.013753642688629152
5.5040000000000004,-0.013753931175144255
5.508,-0.013754532188717387
5.5120000000000005,-0.013754484107631536
5.516,-0.013753786931886704
5.5200000000000005,-0.013752608945283367
5.524,-0.013752296418225337
5.5280000000000005,-0.013751959850624385
5.532,-0.01375020489099084
5.5360000000000005,-0.013747368106925659
5.54,-0.01374239171454013
5.5440000000000005,-0.013737150876182422
5.548,-0.013734867024604521
5.5520000000000005,-0.013737367241068749
5.556,-0.013738713511472564
5.5600000000000005,-0.013737391281611675
5.564,-0.013742656160512307
5.5680000000000005,-0.013748353769185595
5.572,-0.013748401850271446
5.5760000000000005,-0.013748401850271446
5.58,-0.013749531755788932
5.5840000000000005,-0.013748690336786547
5.588,-0.01374705557986763
5.5920000000000005,-0.01374472364720388
5.596,-0.01374335333625714
5.6000000000000005,-0.013742800403769859
5.604,-0.013741213727936791
5.6080000000000005,-0.013739578971017873
5.612,-0.013739675133189574
5.6160000000000005,-0.013738593308757938
5.62,-0.013736766227495617
5.6240000000000006,-0.01373481894351867
5.628,-0.013733063983885126
5.632,-0.01373289570008465
5.636,-0.013734842984061597
5.64,-0.013737150876182422
5.644,-0.013737679768126778
5.648,-0.013739098160159368
5.652,-0.013740276146762705
5.656,-0.013738857754730115
5.66,-0.013737295119439974
5.664,-0.013738160578985283
5.668,-0.013737319159982898
5.672,-0.01373563632197813
5.676,-0.013733977524516288
5.68,-0.013731212862079881
5.684,-0.013731910037824714
5.688,-0.013735107430033774
5.692,-0.013734482375917718
5.696,-0.013731645591852536
5.7,-0.013730371443077498
5.704,-0.013730515686335048
5.708,-0.013729313659188785
5.712,-0.013728448199643476
5.716,-0.013727534659012317
5.72,-0.01372777506444157
5.724,-0.01372736637521184
5.728,-0.013727246172497213
5.732,-0.013729265578102936
5.736,-0.013729530024075114
5.74,-0.013727414456297691
5.744,-0.013725154645262715
5.748,-0.01372508252363394
5.752,-0.013724096861374003
5.756,-0.01372294291531359
5.76,-0.01372243806391216
5.764,-0.013720538861021064
5.768,-0.013718158847271464
5.772,-0.013719264712246026
5.776,-0.013723471807257947
5.78,-0.01372604414535095
5.784,-0.013727462537383541
5.788,-0.013727799104984494
5.792,-0.013728400118557626
5.796,-0.01372823183475715
5.8,-0.013727847186070345
5.804,-0.013729722348418516
5.808,-0.013732487010854921
5.812,-0.01373234276759737
5.816,-0.013731309024251582
5.82,-0.013731381145880359
5.824,-0.013730756091764301
5.828,-0.013731597510766686
5.832,-0.013734145808316764
5.836,-0.013735155511119625
5.84,-0.01373554015980643
5.844,-0.013735227632748401
5.848,-0.013733184186599754
5.852,-0.013733424592029007
5.856,-0.013735419957091802
5.86,-0.013736934511296095
5.864,-0.013735203592205475
5.868,-0.013734169848859688
5.872,-0.013735684403063981
5.876,-0.013736982592381946
5.88,-0.013737992295184806
5.884,-0.013734338132660166
5.888,-0.013732703375741248
5.892,-0.013737944214098956
5.896,-0.013739819376447126
5.9,-0.013740179984591004
5.904,-0.013740131903505154
5.908,-0.013739939579161753
5.912,-0.013740276146762705
5.916,-0.013741430092823118
5.92,-0.013743569701143467
5.924,-0.013745300620234087
5.928,-0.01374522849860531
5.932,-0.013745060214804834
5.936,-0.013744891931004357
5.94,-0.01374376202548687
5.944,-0.013740035741333454
5.948,-0.013736333497722963
5.952,-0.013738449065500386
5.956,-0.013740997363050464
5.96,-0.013740324227848556
5.964,-0.013742632119969381
5.968,-0.013744699606660955
5.972,-0.013744507282317553
5.976,-0.01374477172828973
5.98,-0.013743569701143467
5.984,-0.013741910903681624
5.988,-0.013740179984591004
5.992,-0.013737896133013105
5.996,-0.013736934511296095
6.0,-0.013738593308757938
6.0040000000000004,-0.013740420390020257
6.008,-0.0137396991737325
6.0120000000000005,-0.013738184619528209
6.016,-0.01373847310604331
6.0200000000000005,-0.01373650178152344
6.024,-0.013732919740627575
6.0280000000000005,-0.013733136105513903
6.032,-0.013736020970664934
6.0360000000000005,-0.013736429659894665
6.04,-0.013735155511119625
6.0440000000000005,-0.013734145808316764
6.048,-0.01373426601103139
6.0520000000000005,-0.013733568835286557
6.056,-0.013732414889226144
6.0600000000000005,-0.013730371443077498
6.064,-0.013728616483443954
6.0680000000000005,-0.013729121334845384
6.072,-0.013728352037471775
6.0760000000000005,-0.013724024739745228
6.08,-0.013718976225730923
6.0840000000000005,-0.01372238998282631
6.088,-0.013727150010325512
6.0920000000000005,-0.013727125969782587
6.096,-0.013725515253406595
6.1000000000000005,-0.013725611415578296
6.104,-0.013724553631689583
6.1080000000000005,-0.013722678469341413
6.112,-0.013718904104102148
6.1160000000000005,-0.013714408522575123
6.12,-0.013712365076426475
6.1240000000000006,-0.013713110333257159
6.128,-0.013711860225025045
6.132000000000001,-0.013709456170732518
6.136,-0.013708831116616462
6.140000000000001,-0.013709744657247622
6.144,-0.013709985062676875
6.148,-0.01370914364367449
6.152,-0.013707268481326319
6.156,-0.013705176954091822
6.16,-0.013704071089117259
6.164,-0.013702532494370043
6.168,-0.013700152480620441
6.172,-0.013698084993928869
6.176,-0.01369635407483825
6.18,-0.013696185791037773
6.184,-0.013696233872123624
6.188,-0.013694839520633958
6.192,-0.013693036479914563
6.196,-0.013692940317742862
6.2,-0.013694166385432052
6.204,-0.013694671236833482
6.208,-0.013695320331492464
6.212,-0.013695152047691986
6.216,-0.013695296290949538
6.22,-0.013695007804434436
6.224,-0.013695464574750016
6.228,-0.013696594480267502
6.232,-0.01369635407483825
6.236,-0.013694959723348585
6.24,-0.013694743358462257
6.244,-0.013694310628689603
6.248,-0.013694791439548108
6.252,-0.013693204763715041
6.256,-0.013691762331139525
6.26,-0.013692964358285788
6.264,-0.013694142344889125
6.268,-0.01369447891249008
6.272,-0.013698109034471793
6.276,-0.013702412291655416
6.28,-0.01370447977834699
6.284,-0.013705922210922504
6.288,-0.013706883832639516
6.292,-0.01370731656241217
6.296,-0.013707100197525843
6.3,-0.013705513521692775
6.304,-0.013706090494722982
6.308,-0.013708999400416939
6.312,-0.013710634157335857
6.316,-0.013712893968370832
6.32,-0.013713807509001991
6.324,-0.013714360441489272
6.328,-0.013714937414519478
6.332,-0.013712629522398653
6.336,-0.013710730319507557
6.34,-0.013710489914078305
6.344,-0.013709936981591024
6.348,-0.013709215765303265
6.352,-0.013710345670820754
6.356,-0.013710153346477351
6.36,-0.013708518589558433
6.364,-0.013709864859962248
6.368,-0.01371274972511328
6.372,-0.01371366326574444
6.376,-0.013714528725289749
6.38,-0.01371462488746145
6.384,-0.013715322063206282
6.388,-0.01371599519840819
6.392,-0.01371539418483506
6.396,-0.013714889333433627
6.4,-0.013716596211981322
6.404,-0.0137168606579535
6.408,-0.013714865292890703
6.412,-0.013714288319860496
6.416,-0.01371517781994873
6.42,-0.01371508165777703
6.424,-0.013713470941401037
6.428,-0.013711403454709465
6.432,-0.013709576373447144
6.436,-0.01370955233290422
6.44,-0.01371056203570708
6.444,-0.01371178810339627
6.448,-0.013712509319684027
6.452,-0.013712509319684027
6.456,-0.013712533360226951
6.46,-0.013714408522575123
6.464,-0.013715730752436012
6.468,-0.01371731742826908
6.472,-0.013718423293243642
6.476,-0.013718519455415343
6.48,-0.013718543495958267
6.484,-0.013718952185187998
6.488,-0.013718687739215819
6.492,-0.013720346536677662
6.496,-0.013721764928710254
6.5,-0.01372188513142488
6.5040000000000004,-0.013721644725995626
6.508,-0.01372294291531359
6.5120000000000005,-0.013724072820831079
6.516,-0.01372467383440421
6.5200000000000005,-0.013725154645262715
6.524,-0.013725707577749996
6.5280000000000005,-0.013725202726348565
6.532,-0.013725298888520266
6.5360000000000005,-0.013728544361815177
6.54,-0.013730876294478929
6.5440000000000005,-0.013732823578455875
6.548,-0.013734001565059212
6.5520000000000005,-0.013733448632571931
6.556,-0.013734987227319148
6.5600000000000005,-0.01373609309229371
6.564,-0.013735708443606906
6.5680000000000005,-0.013735155511119625
6.572,-0.013733953483973362
6.5760000000000005,-0.013731405186423283
6.58,-0.01373116478099403
6.5840000000000005,-0.013735035308404999
6.588,-0.013737799970841404
6.5920000000000005,-0.013740324227848556
6.596,-0.013743593741686393
6.6000000000000005,-0.013747368106925659
6.604,-0.013750685701849345
6.6080000000000005,-0.013751719445195132
6.612,-0.013751334796508327
6.6160000000000005,-0.01375107035053615
6.62,-0.013750878026192747
6.6240000000000006,-0.01374965195850356
6.628,-0.013748329728642669
6.632000000000001,-0.013748906701672876
6.636,-0.013748546093528996
6.640000000000001,-0.013746286282494021
6.644,-0.013746646890637901
6.648000000000001,-0.013748113363756342
6.652,-0.013748498012443147
6.656000000000001,-0.013748185485385117
6.66,-0.01374792103941294
6.664,-0.013748137404299266
6.668,-0.013751238634336626
6.672,-0.01375381097242963
6.676,-0.01375518128337637
6.68,-0.013756215026722156
6.684,-0.013756263107808007
6.688,-0.01375518128337637
6.692,-0.013752969553427245
6.696,-0.013751719445195132
6.7,-0.013751887728995608
6.704,-0.01375157520193758
6.708,-0.013751551161394654
6.712,-0.013753161877770648
6.716,-0.013752464702025815
6.72,-0.013743737984943943
6.724,-0.013730539726877974
6.728,-0.013719000266273849
6.732,-0.013710489914078305
6.736,-0.013703638359344605
6.74,-0.013699238939989282
6.744,-0.013696378115381175
6.748,-0.013693877898916948
6.752,-0.013693589412401844
6.756,-0.01369671468298213
6.76,-0.013699912075191188
6.764,-0.013702917143056846
6.768,-0.013706042413637131
6.772,-0.013708783035530612
6.776,-0.013709504251818369
6.78,-0.013708807076073536
6.784,-0.013708302224672106
6.788,-0.013709912941048098
6.792,-0.013715466306463834
6.796,-0.013720346536677662
6.8,-0.01372294291531359
6.804,-0.013723856455944752
6.808,-0.013724649793861284
6.812,-0.013726116266979727
6.816,-0.013726717280552858
6.82,-0.013725419091234894
6.824,-0.013724193023545704
6.828,-0.013724553631689583
6.832,-0.01372654899675238
6.836,-0.013728472240186402
6.84,-0.013730034875476544
6.844,-0.013730876294478929
6.848,-0.01373097245665063
6.852,-0.013730010834933618
6.856,-0.013729073253759534
6.86,-0.013729674267332665
6.864,-0.013729361740274636
6.868,-0.013728279915843
6.872,-0.013727630821184018
6.876,-0.013727029807610886
6.88,-0.013728135672585448
6.884,-0.013729121334845384
6.888,-0.013730179118734096
6.892,-0.013730900335021853
6.896,-0.013729914672761917
6.9,-0.013730010834933618
6.904,-0.01372928961864586
6.908,-0.013727414456297691
6.912,-0.013727967388784972
6.916,-0.013732222564882744
6.92,-0.01373472278134697
6.924,-0.013735828646321533
6.928,-0.013736790268038543
6.932,-0.013737391281611675
6.936,-0.013737391281611675
6.94,-0.013736718146409766
6.944,-0.01373508338949085
6.948,-0.013733520754200706
6.952,-0.013733280348771455
6.956,-0.01373234276759737
6.96,-0.013730443564706273
6.964,-0.013728303956385924
6.968,-0.013726332631866053
6.972,-0.013727678902269868
6.976,-0.013731236902622807
6.98,-0.013733208227142678
6.984,-0.013734241970488465
6.988,-0.013735251673291326
6.992,-0.013735780565235682
6.996,-0.013734410254288941
7.0,-0.01373243892976907
7.0040000000000004,-0.013732462970311995
7.008,-0.013732198524339817
7.0120000000000005,-0.013731333064794508
7.016,-0.013732366808140294
7.0200000000000005,-0.013732270645968594
7.024,-0.01373152538913791
7.0280000000000005,-0.013732126402711042
7.032,-0.013733039943342202
7.0360000000000005,-0.01373380924071581
7.04,-0.013734338132660166
7.0440000000000005,-0.013735732484149832
7.048,-0.01373650178152344
7.0520000000000005,-0.013735708443606906
7.056,-0.013735516119263503
7.0600000000000005,-0.013734338132660166
7.064,-0.013733713078544109
7.0680000000000005,-0.013735347835463027
7.072,-0.013734891065147447
7.0760000000000005,-0.013732727416284174
7.08,-0.01373061184850675
7.0840000000000005,-0.01372650091566653
7.088,-0.013724962320919314
7.0920000000000005,-0.013725010402005165
7.096,-0.013724721915490061
7.1000000000000005,-0.01372513060471979
7.104,-0.013723928577573527
7.1080000000000005,-0.013722005334139507
7.112,-0.013721716847624403
7.1160000000000005,-0.013720827347536168
7.12,-0.013720082090705485
7.1240000000000006,-0.013718952185187998
7.128,-0.013716043279494041
7.132000000000001,-0.013713062252171308
7.136,-0.013712557400769878
7.140000000000001,-0.013712557400769878
7.144,-0.013712148711540148
7.148000000000001,-0.013713398819772262
7.152,-0.013713831549544916
7.156000000000001,-0.0137124852791411
7.16,-0.013709816778876397
7.164000000000001,-0.01370827818412918
7.168,-0.013709167684217415
7.172,-0.013709624454532995
7.176,-0.013708254143586255
7.18,-0.013704047048574334
7.184,-0.013698517723701524
7.188,-0.013693397088058442
7.192,-0.013689310195761148
7.196,-0.013688108168614885
7.2,-0.013686737857668142
7.204,-0.013685319465635552
7.208,-0.013681689343653837
7.212,-0.01367928528936131
7.216,-0.013680896005737304
7.22,-0.01368202591125479
7.224,-0.013681833586911388
7.228,-0.013680343073250023
7.232,-0.013677650532442394
7.236,-0.013673611721230949
7.24,-0.013670077761420936
7.244,-0.013669837355991683
7.248,-0.013670630693908217
7.252,-0.013669669072191205
7.256,-0.013665221571750033
7.26,-0.013661519328139542
7.264,-0.013659067192761165
7.268,-0.013656687179011563
7.272,-0.013654860097749244
7.276,-0.013652912813772297
7.28,-0.013651398259568006
7.284,-0.013649523097219835
7.288,-0.013647816218672141
7.292,-0.013646662272611729
7.296,-0.013644618826463081
7.3,-0.013642407096513957
7.304,-0.013640652136880413
7.308,-0.013638392325845438
7.312,-0.013634666041692023
7.316,-0.01363077147373813
7.32,-0.013628559743789006
7.324,-0.013625602757009199
7.328,-0.01362223708099966
7.332,-0.013618727161732572
7.336,-0.013616226945268345
7.34,-0.013613293999031464
7.344,-0.013609639836506824
7.348,-0.01360519233606565
7.352,-0.013600961200510804
7.356,-0.013596393497355003
7.36,-0.013590840131939267
7.364,-0.013588267793846264
7.368,-0.01358742637484388
7.372,-0.013584974239465503
7.376,-0.013580646941738956
7.38,-0.013575959035868529
7.384,-0.013571848103028309
7.388,-0.013567665048559314
7.392,-0.013564804223951208
7.396,-0.013562640575087933
7.4,-0.013560957737083166
7.404,-0.013558072871932133
7.408,-0.013553024357917828
7.412,-0.013546124722098278
7.416,-0.013540210748538664
7.42,-0.013536484464385247
7.424,-0.013529945436709576
7.428,-0.013522492868402744
7.432,-0.013517732840903542
7.436,-0.013514174840550603
7.44,-0.013511722705172226
7.444,-0.013507972380475885
7.448,-0.01350383740709274
7.452,-0.013499894758052997
7.456,-0.013493259568205624
7.46,-0.01348708114867383
7.464,-0.013482465364432178
7.468,-0.013478618877564137
7.472,-0.013475181079925824
7.476,-0.013474363701466366
7.48,-0.013473281877034728
7.484,-0.013469531552338387
7.488,-0.013464987889725511
7.492,-0.013457535321418681
7.496,-0.013449938509854297
7.5,-0.013443231198378149
7.5040000000000004,-0.013436403684187375
7.508,-0.013428878994251768
7.5120000000000005,-0.013420585006942551
7.516,-0.013413276681893271
7.5200000000000005,-0.013406208762273244
7.524,-0.013398756193966412
7.5280000000000005,-0.01339207292303319
7.532,-0.013384596314183431
7.5360000000000005,-0.01337668697556102
7.54,-0.013369162285625413
7.5440000000000005,-0.013361084663202525
7.548,-0.013352069459605551
7.5520000000000005,-0.013342260918092043
7.556,-0.013332091768434657
7.5600000000000005,-0.013322691916150878
7.564,-0.013313820955811457
7.5680000000000005,-0.013305046157643736
7.572,-0.013297954197480782
7.5760000000000005,-0.013291559413062658
7.58,-0.013283842398783649
7.5840000000000005,-0.013274466587042797
7.588,-0.01326643704570576
7.5920000000000005,-0.013258647909797973
7.596,-0.013251051098233591
7.6000000000000005,-0.013245137124673975
7.604,-0.013238982745685109
7.6080000000000005,-0.013229775217744733
7.612,-0.01322030324383218
7.6160000000000005,-0.013212345824123917
7.62,-0.013202296877181156
7.6240000000000006,-0.013191286308521386
7.628,-0.013179314118144604
7.632000000000001,-0.013166067778992785
7.636,-0.013152364669525385
7.640000000000001,-0.013141498344123165
7.644,-0.013131473437723331
7.648000000000001,-0.013118154976942735
7.652,-0.013104956718876766
7.656000000000001,-0.0130946192854189
7.66,-0.013087647527970574
7.664000000000001,-0.013080555567807621
7.668,-0.013071179756066769
7.672000000000001,-0.013061178890209859
7.676,-0.013051995402812409
7.68,-0.013041826253155022
7.684,-0.013032354279242469
7.688,-0.013020646534837865
7.692,-0.01300687130374169
7.696,-0.012994177897077151
7.7,-0.012980667111953153
7.704,-0.012966651475427724
7.708,-0.012952852203788622
7.712,-0.012939076972692446
7.716,-0.012926672052543012
7.72,-0.012915084510853034
7.724,-0.012903352725905506
7.728,-0.012889914062410282
7.732,-0.012875249331225871
7.736,-0.012858733478236215
7.74,-0.012842049341446083
7.744,-0.012829091488809365
7.748,-0.012816229798344349
7.752,-0.01280252668887695
7.756,-0.01278577043045804
7.76,-0.012768196793579673
7.764,-0.012753435900223563
7.768,-0.012736968128319757
7.772,-0.0127203561131584
7.776,-0.0127065568415193
7.78,-0.012694776975485916
7.784,-0.012682492258051107
7.788,-0.01267003925681582
7.792,-0.012656889079835702
7.796,-0.012642248389194215
7.8,-0.012628953968956545
7.804,-0.012614890251345266
7.808,-0.012602196844680728
7.812,-0.012594648114202195
7.816,-0.012587628275668018
7.82,-0.0125792381261871
7.824,-0.012569621909016995
7.828,-0.012560125894561517
7.832,-0.012550966447706991
7.836,-0.012543081149627504
7.84,-0.012534282310916859
7.844,-0.0125244256883175
7.848,-0.012514929673862021
7.852,-0.012506251037866001
7.856,-0.012498053212728486
7.86,-0.012491105495823085
7.864,-0.012482667265256318
7.868,-0.012473099129172063
7.872,-0.012462545330827872
7.876,-0.01245203961356953
7.88,-0.012440836720566359
7.884,-0.01243143686828258
7.888,-0.012421291759168118
7.892,-0.012409535933677666
7.896,-0.012399799513792933
7.9,-0.012390688148024258
7.904,-0.012378667876561627
7.908,-0.012365036888723003
7.912,-0.012352848333459893
7.916,-0.01234022704842413
7.92,-0.012330610831254024
7.924,-0.012327774047188843
7.928,-0.012323182303490117
7.932,-0.012317628938074381
7.936,-0.012312820829489328
7.94,-0.012308517572305706
7.944,-0.012303565220463103
7.948,-0.012297747409075188
7.952,-0.012291328584114143
7.956,-0.012283851975264387
7.96,-0.012274235758094281
7.964,-0.012264932067982204
7.968,-0.012257719905104625
7.972,-0.012250531782769972
7.976,-0.012244617809210358
7.98,-0.012242959011748513
7.984,-0.012241588700801774
7.988,-0.012237285443618151
7.992,-0.012230938740285881
7.996,-0.012225986388443279
8.0,-0.012222909198948844
8.004,-0.01221927907696713
8.008000000000001,-0.012214110360238197
8.012,-0.012209085886766818
8.016,-0.012203484440265231
8.02,-0.012199085020909908
8.024000000000001,-0.012197065615304186
8.028,-0.012196464601731054
8.032,-0.012195791466529148
8.036,-0.012196873290960784
8.040000000000001,-0.012197113696390037
8.044,-0.01219689733150371
8.048,-0.012196825209874933
8.052,-0.01219790703430657
8.056000000000001,-0.012198940777652358
8.06,-0.01219790703430657
8.064,-0.012193892263638052
8.068,-0.012192545993234237
8.072000000000001,-0.012192305587804984
8.076,-0.01219105547957287
8.08,-0.012189324560482252
8.084,-0.012186824344018025
8.088000000000001,-0.01218466069515475
8.092,-0.012184324127553797
8.096,-0.012186151208816116
8.1,-0.012188050411707212
8.104000000000001,-0.012190766993057767
8.108,-0.012193315290607845
8.112,-0.012193892263638052
8.116,-0.012190406384913888
8.120000000000001,-0.01218781000627796
8.124,-0.012189084155053
8.128,-0.012189540925368579
8.132,-0.012186127168273192
8.136000000000001,-0.012183915438324068
8.14,-0.012183410586922638
8.144,-0.01218273745172073
8.148,-0.012183218262579235
8.152000000000001,-0.012181751789460793
8.156,-0.012179323694625342
8.16,-0.012176510951103087
8.164,-0.012170981626230275
8.168000000000001,-0.012166654328503728
8.172,-0.012168769896281151
8.176,-0.012172255775005315
8.18,-0.012173986694095933
8.184000000000001,-0.012175140640156346
8.188,-0.012176414788931385
8.192,-0.012178049545850302
8.196,-0.012177881262049826
8.2,-0.012173986694095933
8.204,-0.012170693139715173
8.208,-0.01217273658586382
8.212,-0.01217506851852757
8.216,-0.012177472572820097
8.22,-0.012178746721595135
8.224,-0.012178866924309762
8.228,-0.012179924708198474
8.232,-0.012182016235432972
8.236,-0.012184131803210395
8.24,-0.012187834046820886
8.244,-0.012193171047350293
8.248,-0.012197666628877318
8.252,-0.012199902399369368
8.256,-0.0121983157235363
8.26,-0.012195502980014044
8.264,-0.01219511833132724
8.268,-0.012195647223271596
8.272,-0.012194349033953632
8.276,-0.012193122966264442
8.28,-0.012192497912148386
8.284,-0.01219014193894171
8.288,-0.01218817061442184
8.292,-0.012186800303475099
8.296,-0.012187978290078437
8.3,-0.012189060114510073
8.304,-0.012187136871076053
8.308,-0.01218593484392979
8.312,-0.012186271411530744
8.316,-0.012187088789990202
8.32,-0.012186319492616594
8.324,-0.01218475685732645
8.328,-0.012184324127553797
8.332,-0.012183554830180188
8.336,-0.012182473005748552
8.34,-0.012181968154347122
8.344,-0.012180525721771605
8.348,-0.012177424491734246
8.352,-0.012175717613186553
8.356,-0.012176102261873357
8.36,-0.012177544694448872
8.364,-0.01217872268105221
8.368,-0.012178554397251734
8.372,-0.012178073586393228
8.376,-0.0121776648971635
8.38,-0.01217502043744172
8.384,-0.012171630720889257
8.388,-0.012170020004513265
8.392,-0.012169370909854283
8.396,-0.012168024639450468
8.4,-0.01216501957158481
8.404,-0.012166654328503728
8.408,-0.012172904869664297
8.412,-0.012178578437794659
8.416,-0.012183675032894815
8.42,-0.012188603344194493
8.424,-0.012192666195948863
8.428,-0.012195815507072072
8.432,-0.01219826764245045
8.436,-0.012202042007689717
8.44,-0.012206273143244562
8.444,-0.012212283278975878
8.448,-0.012218101090363791
8.452,-0.012221803333974282
8.456,-0.012226755685816887
8.46,-0.012231900362002893
8.464,-0.012234761186611
8.468,-0.012237573930133255
8.472,-0.012239497173567275
8.476,-0.012241059808857419
8.48,-0.01224262244414756
8.484,-0.012242838809033887
8.488,-0.012242045471117353
8.492,-0.012240891525056941
8.496,-0.012239064443794622
8.5,-0.012239785660082379
8.504,-0.012244689930839133
8.508000000000001,-0.01224764691761894
8.512,-0.01224815176902037
8.516,-0.012249041269108606
8.52,-0.012253320485749302
8.524000000000001,-0.012260724972970283
8.528,-0.01226774481150446
8.532,-0.012272312514660261
8.536,-0.012273971312122104
8.540000000000001,-0.012276231123157079
8.544,-0.012279957407310494
8.548,-0.012283419245491731
8.552,-0.01228596754304181
8.556000000000001,-0.01228769846213243
8.56,-0.012287938867561682
8.564,-0.01228606370521351
8.568,-0.012283948137436088
8.572000000000001,-0.012288010989190457
8.576,-0.012291737273343872
8.58,-0.012292290205831153
8.584,-0.012293900922207147
8.588000000000001,-0.012297026192787431
8.592,-0.012301521774314456
8.596,-0.012305440382811273
8.6,-0.012307628072217473
8.604000000000001,-0.012308373329048156
8.608,-0.012309527275108569
8.612,-0.012309551315651493
8.616,-0.012309935964338298
8.620000000000001,-0.01231154668071429
8.624,-0.012313614167405862
8.628,-0.012313205478176133
8.632,-0.012312412140259599
8.636000000000001,-0.01231159476180014
8.64,-0.012310248491396326
8.644,-0.012310488896825579
8.648,-0.012311210113113336
8.652000000000001,-0.012312868910575179
8.656,-0.012315585491925735
8.66,-0.012318830965220644
8.664,-0.012318999249021122
8.668000000000001,-0.012319143492278674
8.672,-0.012321523506028274
8.676,-0.0123239275603208
8.68,-0.012323326546747669
8.684000000000001,-0.012320489762682487
8.688,-0.012319191573364524
8.692,-0.012318999249021122
8.696,-0.01231794146513241
8.700000000000001,-0.012319023289564046
8.704,-0.012322388965573583
8.708,-0.012324937263123661
8.712,-0.012326187371355775
8.716,-0.012326235452441625
8.72,-0.012326644141671355
8.724,-0.01232758172284544
8.728,-0.012329913655509192
8.732,-0.012332053263829539
8.736,-0.012333351453147503
8.74,-0.012333495696405055
8.744,-0.0123329668044607
8.748,-0.012332293669258792
8.752,-0.012331884980029063
8.756,-0.012331620534056885
8.76,-0.012331740736771511
8.764,-0.012333663980205533
8.768,-0.012334048628892336
8.772,-0.012334096709978187
8.776,-0.012336356521013161
8.78,-0.012340659778196783
8.784,-0.012343761008234143
8.788,-0.012345179400266732
8.792,-0.012344914954294555
8.796,-0.01234433798126435
8.8,-0.012346429508498846
8.804,-0.012349266292564028
8.808,-0.012348641238447972
8.812,-0.012344987075923332
8.816,-0.012339193305078343
8.82,-0.012334096709978187
8.824,-0.012333135088261176
8.828,-0.012333519736947981
8.832,-0.012332125385458316
8.836,-0.012329577087908238
8.84,-0.012327004749815235
8.844,-0.012324119884664203
8.848,-0.012322437046659434
8.852,-0.012321066735712694
8.856,-0.01232027339779616
8.86,-0.012321331181684872
8.864,-0.012323446749462296
8.868,-0.012325057465838288
8.872,-0.012325394033439241
8.876,-0.012325081506381213
8.88,-0.012326211411898701
8.884,-0.012328879912163405
8.888,-0.012333447615319204
8.892,-0.01233621227775561
8.896,-0.012338712494219837
8.9,-0.012342679183802507
8.904,-0.012347078603157828
8.908,-0.012350732765682469
8.912,-0.012353833995719828
8.916,-0.012357824725845422
8.92,-0.01236433971297817
8.924,-0.012370830659567992
8.928,-0.012374653105893108
8.932,-0.012377730295387543
8.936,-0.012378619795475776
8.94,-0.012378427471132374
8.944,-0.012379052525248431
8.948,-0.012378523633304075
8.952,-0.012378932322533806
8.956,-0.012382634566144295
8.96,-0.012385735796181654
8.964,-0.012387442674729347
8.968,-0.012390712188567184
8.972,-0.01239352493208944
8.976,-0.012398068594702315
8.98,-0.012401939122113282
8.984,-0.012405713487352548
8.988,-0.012410497555394676
8.992,-0.012413839190861288
8.996,-0.012417156785784974
9.0,-0.012422613989029009
9.004,-0.012431653233168907
9.008000000000001,-0.01243961065287717
9.012,-0.012443168653230108
9.016,-0.012444514923633923
9.02,-0.012443961991146642
9.024000000000001,-0.01244432259929052
9.028,-0.012447303626613254
9.032,-0.012450404856650613
9.036,-0.012452664667685588
9.040000000000001,-0.012455669735551246
9.044,-0.012458338235815951
9.048,-0.012460237438707047
9.052,-0.012463002101143452
9.056000000000001,-0.0124696132504479
9.06,-0.01247357994003057
9.064,-0.01247372418328812
9.068,-0.012473652061659344
9.072000000000001,-0.012473243372429615
9.076,-0.01247600803486602
9.08,-0.012480431494764268
9.084,-0.012481970089511485
9.088000000000001,-0.01248235473819829
9.092,-0.01248184988679686
9.096,-0.012482186454397812
9.1,-0.012484205860003535
9.104000000000001,-0.01248843699555838
9.108,-0.01249149014450989
9.112,-0.01249418268531752
9.116,-0.012497668564041681
9.120000000000001,-0.0125015871725385
9.124,-0.012505409618863617
9.128,-0.012506948213610834
9.132,-0.012507404983926414
9.136000000000001,-0.01250569810537872
9.14,-0.012503895064659326
9.144,-0.012507933875870769
9.148,-0.012512285214140242
9.152000000000001,-0.012512693903369971
9.156,-0.012512165011425616
9.16,-0.012511419754594933
9.164,-0.012510794700478877
9.168000000000001,-0.012510289849077445
9.172,-0.012508174281300022
9.176,-0.01250807811912832
9.18,-0.012510145605819895
9.184000000000001,-0.012513487241286505
9.188,-0.012517261606525772
9.192,-0.01251980990407585
9.196,-0.01252122829610844
9.200000000000001,-0.012522814971941508
9.204,-0.012524545891032126
9.208,-0.012526180647951045
9.212,-0.01252675762098125
9.216000000000001,-0.01252625276957982
9.22,-0.012527863485955812
9.224,-0.01253031562133419
9.228,-0.012532118662053584
9.232,-0.012532887959427193
9.236,-0.012534666959603662
9.24,-0.012539210622216537
9.244,-0.01254223973062512
9.248,-0.012544860149803974
9.252,-0.012546470866179967
9.256,-0.012545004393061526
9.26,-0.01254264841985485
9.264,-0.01254209548736757
9.268,-0.012545797730978058
9.272,-0.012551855947795225
9.276,-0.012557745880811915
9.28,-0.012562313583967715
9.284,-0.012563299246227651
9.288,-0.012563972381429558
9.292,-0.012567963111555152
9.296,-0.012573276071541635
9.3,-0.01257827650447009
9.304,-0.012581738342651328
9.308,-0.012582483599482011
9.312,-0.012581570058850852
9.316,-0.012581594099393776
9.32,-0.012583709667171199
9.324,-0.012586257964721277
9.328,-0.012588373532498701
9.332,-0.012591402640907284
9.336,-0.012594744276373896
9.34,-0.012597148330666422
9.344,-0.01260061016884766
9.348,-0.01260568272340489
9.352,-0.01261025042656069
9.356,-0.012611957305108383
9.36,-0.012612558318681515
9.364,-0.012614241156686284
9.368,-0.012616741373150511
9.372,-0.012618977143642561
9.376,-0.01261938583287229
9.38,-0.012620058968074197
9.384,-0.01262198221150822
9.388,-0.01262445838742952
9.392,-0.01262633354977769
9.396,-0.012625732536204559
9.4,-0.012623184238654482
9.404,-0.012620587860018554
9.408,-0.012622390900737948
9.412,-0.012628497198640965
9.416,-0.012635396834460515
9.42,-0.012638738469927127
9.424,-0.012642801321681496
9.428,-0.012647994078953353
9.432,-0.01265181652527847
9.436,-0.012654316741742697
9.44,-0.012656071701376241
9.444,-0.012657634336666383
9.448,-0.012659605661186256
9.452,-0.012661096174847623
9.456,-0.012661793350592454
9.46,-0.012663596391311848
9.464,-0.012664029121084504
9.468,-0.012662562647966063
9.472,-0.012657321809608355
9.476,-0.01265090298464731
9.48,-0.012647465187008997
9.484,-0.012647224781579746
9.488,-0.012648571051983559
9.492,-0.012649821160215673
9.496,-0.012648955700670364
9.5,-0.012645133254345247
9.504,-0.012642032024307888
9.508000000000001,-0.012643570619055106
9.512,-0.012645974673347632
9.516,-0.0126477536735241
9.52,-0.012647272862665596
9.524000000000001,-0.012645493862489126
9.528,-0.01264506113271647
9.532,-0.012645590024660827
9.536,-0.012647633470809475
9.540000000000001,-0.012650782781932685
9.544,-0.012653884011970044
9.548,-0.012656264025719644
9.552,-0.012657514133951758
9.556000000000001,-0.012658836363812646
9.56,-0.0126591729314136
9.564,-0.012662177999279258
9.568,-0.01266542347257417
9.572000000000001,-0.012667539040351592
9.576,-0.01266835641881105
9.58,-0.01266963056758609
9.584,-0.012671265324505009
9.588000000000001,-0.012673428973368282
9.592,-0.012673477054454133
9.596,-0.01267186633807814
9.6,-0.012670616229846027
9.604000000000001,-0.012670447946045549
9.608,-0.012671073000161607
9.612,-0.01267177017590644
9.616,-0.012675400297888153
9.620000000000001,-0.012680112244301505
9.624,-0.012683934690626623
9.628,-0.012688670677582899
9.632,-0.012692541204993866
9.636000000000001,-0.012692637367165567
9.64,-0.012691074731875425
9.644,-0.01269429616462741
9.648,-0.012699392759727566
9.652000000000001,-0.012703720057454118
9.656,-0.012706941490206103
9.66,-0.012709778274271284
9.664,-0.012711845760962856
9.668000000000001,-0.012713408396252998
9.672,-0.012714658504485112
9.676,-0.012714466180141711
9.68,-0.012715956693803076
9.684000000000001,-0.012722784207993852
9.688,-0.012730188695214832
9.692,-0.01273446791185553
9.696,-0.012736487317461251
9.700000000000001,-0.012737905709493843
9.704,-0.012738819250125002
9.708,-0.012737472979721188
9.712,-0.012735117006514512
9.716000000000001,-0.012735525695744241
9.72,-0.012733458209052669
9.724,-0.012728001005808634
9.728,-0.012722375518764121
9.732,-0.012720644599673503
9.736,-0.012722495721478749
9.74,-0.012726967262462847
9.744,-0.012732063857563003
9.748,-0.012736222871489074
9.752,-0.012740333804329294
9.756,-0.01274314654785155
9.76,-0.012743939885768083
9.764,-0.01274451685879829
9.768,-0.01274502171019972
9.772,-0.012746007372459655
9.776,-0.012747714251007349
9.78,-0.012749733656613072
9.784,-0.012753219535337234
9.788,-0.012757258346548679
9.792,-0.012759109468353924
9.796,-0.012760816346901618
9.8,-0.012764302225625782
9.804,-0.012768653563895253
9.808,-0.012771346104702883
9.812,-0.012772163483162343
9.816,-0.012771802875018463
9.82,-0.012771394185788734
9.824,-0.012772764496735475
9.828,-0.012773317429222756
9.832,-0.012773557834652007
9.836,-0.012774952186141672
9.84,-0.012777933213464406
9.844,-0.012780024740698902
9.848,-0.012782452835534355
9.852,-0.012784568403311778
9.856,-0.012785433862857087
9.86,-0.012784880930369806
9.864,-0.012783775065395244
9.868,-0.012782693240963608
9.872,-0.0127821162679334
9.876,-0.012783823146481094
9.88,-0.012788150444207643
9.884,-0.012791996931075685
9.888,-0.012794641390797463
9.892,-0.01279526644491352
9.896,-0.01279786282354945
9.9,-0.01280120445901606
9.904,-0.012803368107879335
9.908,-0.012806926108232274
9.912,-0.012811157243787119
9.916,-0.012814955649569311
9.92,-0.01281663848757408
9.924,-0.012816109595629724
9.928,-0.012815556663142443
9.932,-0.012816157676715574
9.936,-0.012818922339151979
9.94,-0.012820316690641645
9.944,-0.012818681933722726
9.948,-0.01281577302802877
9.952,-0.012813825744051823
9.956,-0.01281303240613529
9.96,-0.012812840081791888
9.964,-0.012812311189847532
9.968,-0.012809955216640856
9.972,-0.012806012567601112
9.976,-0.012800867891415107
9.98,-0.012797021404547065
9.984,-0.012797790701920672
9.988,-0.012801733350960416
9.992,-0.012804570135025598
9.996,-0.012805892364886487
10.0,-0.012806541459545469
10.004,-0.012805050945884102
10.008000000000001,-0.012802358405076472
10.012,-0.01280130062118776
10.016,-0.012800507283271227
10.02,-0.012798151310064551
10.024000000000001,-0.012797165647804616
10.028,-0.012798247472236252
10.032,-0.012801060215758508
10.036,-0.012802767094306203
10.040000000000001,-0.012803656594394437
10.044,-0.012805435594570907
10.048,-0.012806204891944515
10.052,-0.012808080054292686
10.056000000000001,-0.012809690770668678
10.06,-0.012810580270756914
10.064,-0.012811565933016848
10.068,-0.012813104527764066
10.072000000000001,-0.012815051811741012
10.076,-0.012816518284859453
10.08,-0.01281704717680381
10.084,-0.012817119298432584
10.088000000000001,-0.012817840514720343
10.092,-0.012817431825490612
10.096,-0.012815748987485845
10.1,-0.012816061514543873
10.104000000000001,-0.01281678273083163
10.108,-0.012814234433281554
10.112,-0.012810772595100314
10.116,-0.012811950581703653
10.120000000000001,-0.01281531625771319
10.124,-0.01281810496069252
10.128,-0.012822384177333217
10.132,-0.012826206623658335
10.136000000000001,-0.012827937542748953
10.14,-0.012828322191435758
10.144,-0.01282942805641032
10.148,-0.012829211691523993
10.152000000000001,-0.012826999961574867
10.156,-0.012824379542396014
10.16,-0.012821879325931786
10.164,-0.012819908001411915
10.168000000000001,-0.012818225163407146
10.172,-0.012814498879253731
10.176,-0.0128095224868682
10.18,-0.012806301054116216
10.184000000000001,-0.012804161445795867
10.188,-0.012803608513308586
10.192,-0.012803055580821305
10.196,-0.012804570135025598
10.200000000000001,-0.012809306121981874
10.204,-0.01281394594676645
10.208,-0.012816878893003331
10.212,-0.01281805687960667
10.216000000000001,-0.012818585771551025
10.22,-0.012819908001411915
10.224,-0.012823321758507302
10.228,-0.012825196920855472
10.232000000000001,-0.01282577389388568
10.236,-0.012826038339857857
10.24,-0.012826398948001735
10.244,-0.012826543191259287
10.248,-0.01282774521840555
10.252,-0.012829644421296646
10.256,-0.012831615745816519
10.26,-0.012832048475589173
10.264,-0.012830774326814134
10.268,-0.012829788664554198
10.272,-0.01283089452952876
10.276,-0.012831615745816519
10.28,-0.012831615745816519
10.284,-0.012830269475412704
10.288,-0.01283180807015992
10.292,-0.012835606475942112
10.296,-0.012838563462721919
10.3,-0.012839188516837977
10.304,-0.012838226895120966
10.308,-0.01283966932769648
10.312,-0.012841640652216353
10.316,-0.012841664692759278
10.32,-0.012841664692759278
10.324,-0.012844309152481057
10.328,-0.012848876855636857
10.332,-0.012852170410017618
10.336,-0.012854574464310145
10.34,-0.012858372870092337
10.344,-0.012862892492162286
10.348,-0.01286601776274257
10.352,-0.012868710303550199
10.356,-0.012870441222640819
10.36,-0.012871787493044634
10.364,-0.012873061641819672
10.368,-0.012874119425708383
10.372,-0.012875177209597095
10.376,-0.01287520125014002
10.38,-0.012875802263713152
10.384,-0.012875225290682945
10.388,-0.012872845276933345
10.392,-0.012870417182097893
10.396,-0.012868037168348292
10.4,-0.012867772722376113
10.404,-0.01287027293884034
10.408,-0.012871859614673409
10.412,-0.01287104223621395
10.416,-0.01286830161432047
10.42,-0.012864767654510455
10.424,-0.012862748248904734
10.428,-0.012864671492338756
10.432,-0.012867195749345908
10.436,-0.012868157371062918
10.44,-0.012869599803638434
10.444,-0.01287190769575926
10.448,-0.012874768520367365
10.452,-0.01287560993936975
10.456,-0.012874888723081993
10.46,-0.012873037601276748
10.464,-0.012873278006705999
10.468,-0.012876932169230639
10.472,-0.012881475831843514
10.476,-0.01288510595382523
10.48,-0.012888231224405513
10.484,-0.012892173873445257
10.488,-0.01289525106293969
10.492,-0.01289626076574255
10.496,-0.012897679157775142
10.5,-0.012897246428002487
10.504,-0.012893568224934922
10.508000000000001,-0.012890202548925384
10.512,-0.012891885386930153
10.516,-0.012894866414252885
10.52,-0.012897054103659085
10.524000000000001,-0.012897655117232216
10.528,-0.012896741576601057
10.532,-0.01289428944122268
10.536,-0.012892005589644779
10.540000000000001,-0.012893279738419819
10.544,-0.012897967644290244
10.548,-0.012901116955413456
10.552,-0.012901261198671007
10.556000000000001,-0.012899818766095493
10.56,-0.012896885819858608
10.564,-0.012897126225287861
10.568,-0.012900684225640802
10.572000000000001,-0.012903929698935713
10.576,-0.012906910726258445
10.58,-0.012908377199376885
10.584,-0.01290784830743253
10.588000000000001,-0.01291022832118213
10.592,-0.012913666118820444
10.596,-0.012914122889136024
10.6,-0.012913738240449219
10.604000000000001,-0.012913161267419013
10.608,-0.012913569956648743
10.612,-0.012915300875739362
10.616,-0.012916959673201205
10.620000000000001,-0.012917969376004066
10.624,-0.012919291605864955
10.628,-0.012922056268301362
10.632,-0.01292520557942457
10.636000000000001,-0.012926888417429339
10.64,-0.01292748943100247
10.644,-0.012927417309373695
10.648,-0.012928475093262407
10.652000000000001,-0.012931071471898335
10.656,-0.012932850472074804
10.66,-0.012933235120761609
10.664,-0.012933595728905487
10.668000000000001,-0.012932658147731401
10.672,-0.01293114359352711
10.676,-0.012931720566557317
10.68,-0.012934437147907872
10.684000000000001,-0.012937081607629651
10.688,-0.012939293337578775
10.692,-0.01294083193232599
10.696,-0.012943235986618517
10.700000000000001,-0.01294443801376478
10.704,-0.012944870743537435
10.708,-0.012948164297918197
10.712,-0.012953669582248082
10.716000000000001,-0.012957564150201975
10.72,-0.012959631636893548
10.724,-0.01295931910983552
10.728,-0.012955977474368907
10.732000000000001,-0.012952299271301341
10.736,-0.012949606730493713
10.74,-0.012946697824799756
10.744,-0.012943644675848248
10.748000000000001,-0.012941120418841094
10.752,-0.012939629905179727
10.756,-0.012938716364548568
10.76,-0.01293845191857639
10.764,-0.01293982222952313
10.768,-0.012941577189156674
10.772,-0.012944077405620901
10.776,-0.01294612085176955
10.78,-0.01294576024362567
10.784,-0.012944918824623286
10.788,-0.012944197608335529
10.792,-0.012944149527249678
10.796,-0.012944630338108182
10.8,-0.012945375594938866
10.804,-0.012944534175936481
10.808,-0.012945327513853015
10.812,-0.012945928527426147
10.816,-0.012947683487059691
10.82,-0.012949678852122488
10.824,-0.012949125919635207
10.828,-0.012947322878915812
10.832,-0.01294977501429419
10.836,-0.012953212811932503
10.84,-0.01295489564993727
10.844,-0.012955737068939654
10.848,-0.012956241920341085
10.852,-0.01295590535274013
10.856,-0.012956290001426935
10.86,-0.012958621934090687
10.864,-0.01295955951526477
10.868,-0.012960761542411034
10.872,-0.012963862772448393
10.876,-0.012968286232346643
10.88,-0.012971459584012777
10.884,-0.012971772111070805
10.888,-0.012973238584189245
10.892,-0.012975786881739323
10.896,-0.012978166895488925
10.9,-0.01298047478760975
10.904,-0.012981316206612135
10.908,-0.01298138832824091
10.912,-0.012980450747066824
10.916,-0.01297946508480689
10.92,-0.012979753571321993
10.924,-0.012980619030867302
10.928,-0.01298001801729417
10.932,-0.012978335179289402
10.936,-0.01297768608463042
10.94,-0.012975450314138371
10.944,-0.012974560814050136
10.948,-0.01297508970599449
10.952,-0.012975017584365716
10.956,-0.012976147489883204
10.96,-0.01297778224680212
10.964,-0.012978575584718655
10.968,-0.01297626769259783
10.972,-0.012972445246272713
10.976,-0.012969824827093858
10.98,-0.012969872908179709
10.984,-0.012972325043558086
10.988,-0.01297590708445395
10.992,-0.012978455382004029
10.996,-0.012979777611864918
11.0,-0.01298037862543805
11.004,-0.012978335179289402
11.008000000000001,-0.012976580219655857
11.012,-0.01297905639557716
11.016,-0.012980907517382406
11.02,-0.0129804267065239
11.024000000000001,-0.012978984273948384
11.028,-0.012980234382180498
11.032,-0.012982518233758398
11.036,-0.01298311924733153
11.040000000000001,-0.012982133585071593
11.044,-0.01298234994995792
11.048,-0.012982229747243295
11.052,-0.012982085503985743
11.056000000000001,-0.012983095206788604
11.06,-0.012984561679907046
11.064,-0.0129850905718514
11.068,-0.012983720260904661
11.072000000000001,-0.012984321274477793
11.076,-0.012987085936914198
11.08,-0.012991413234640745
11.084,-0.012996221343225797
11.088000000000001,-0.012998024383945192
11.092,-0.012997639735258389
11.096,-0.013000308235523093
11.1,-0.01300691938482754
11.104000000000001,-0.013010261020294152
11.108,-0.01301143900689749
11.112,-0.013012376588071575
11.116,-0.013013001642187631
11.120000000000001,-0.01301153516906919
11.124,-0.01300961192563517
11.128,-0.013009179195862515
11.132,-0.013010477385180479
11.136000000000001,-0.013010934155496059
11.14,-0.013010862033867284
11.144,-0.013010717790609732
11.148,-0.013009491722920543
11.152000000000001,-0.013008169493059654
11.156,-0.013005861600938829
11.16,-0.013006222209082707
11.164,-0.013008409898488907
11.168000000000001,-0.013011751533955517
11.172,-0.013014564277477774
11.176,-0.013014612358563625
11.18,-0.013013290128702735
11.184000000000001,-0.013013602655760763
11.188,-0.01301711257502785
11.192,-0.013020382088865688
11.196,-0.013022425535014336
11.200000000000001,-0.013025695048852171
11.204,-0.01302970981952069
11.208,-0.01303240236032832
11.212,-0.013033219738787778
11.216000000000001,-0.013032738927929272
11.22,-0.013032666806300497
11.224,-0.013033724590189208
11.228,-0.01303391691453261
11.232000000000001,-0.013033436103674105
11.236,-0.013035960360681258
11.24,-0.013038099969001606
11.244,-0.01303838845551671
11.248000000000001,-0.013038869266375215
11.252,-0.013039878969178076
11.256,-0.013041754131526246
11.26,-0.013043725456046118
11.264,-0.013045889104909392
11.268,-0.013047956591600964
11.272,-0.013049927916120837
11.276,-0.01305213964606996
11.28,-0.013052404092042138
11.284,-0.013051706916297305
11.288,-0.013048653767345797
11.292,-0.013046730523911776
11.296,-0.013047235375313207
11.3,-0.01304935094309063
11.304,-0.01305158671358268
11.308,-0.013053942686789355
11.312,-0.01305447157873371
11.316,-0.013055000470678067
11.32,-0.013057548768228145
11.324,-0.013057548768228145
11.328,-0.013056587146511135
11.332,-0.013056995835740864
11.336,-0.013060938484780606
11.34,-0.013064039714817965
11.344,-0.013067140944855324
11.348,-0.013069977728920506
11.352,-0.013071372080410171
11.356,-0.013071949053440376
11.36,-0.013072910675157388
11.364,-0.013073102999500789
11.368,-0.013072550067013508
11.372,-0.013071492283124797
11.376,-0.01306954499914785
11.38,-0.013066371647481716
11.384,-0.013068054485486485
11.388,-0.013073391486015893
11.392,-0.013077742824285365
11.396,-0.013078464040573123
11.4,-0.013080194959663742
11.404,-0.013083368311329877
11.408,-0.013084786703362468
11.412,-0.013085916608879955
11.416,-0.013087214798197919
11.42,-0.013089739055205073
11.424,-0.013094691407047675
11.428,-0.013100389015720965
11.432,-0.013104668232361663
11.436,-0.013107192489368815
11.44,-0.013109476340946715
11.444,-0.013111255341123184
11.448,-0.013113082422385505
11.452,-0.01311589516590776
11.456,-0.013119068517573895
11.46,-0.013120559031235261
11.464,-0.013120631152864038
11.468,-0.01312041478797771
11.472,-0.013123059247699489
11.476,-0.013128588572572299
11.48,-0.013133997694730483
11.484,-0.013137531654540497
11.488,-0.01313777205996975
11.492,-0.013138541357343358
11.496,-0.013137627816712199
11.5,-0.013136377708480085
11.504,-0.013137171046396619
11.508000000000001,-0.013138060546484854
11.512,-0.013139382776345743
11.516,-0.01314274845235528
11.52,-0.013146186249993592
11.524000000000001,-0.013147580601483258
11.528,-0.013151234764007898
11.532,-0.013154985088704238
11.536,-0.013156235196936351
11.540000000000001,-0.013154912967075463
11.544,-0.01315284548038389
11.548,-0.013152917602012665
11.552,-0.013154095588616004
11.556000000000001,-0.013154864885989612
11.56,-0.013155970750964174
11.564,-0.013158735413400579
11.568,-0.01316157219746576
11.572000000000001,-0.013164240697730464
11.576,-0.013165370603247952
11.58,-0.013165562927591355
11.584,-0.013167173643967347
11.588000000000001,-0.013169169009030144
11.592,-0.013170948009206613
11.596,-0.013173015495898185
11.6,-0.013175323388019012
11.604000000000001,-0.013177847645026164
11.608,-0.013180083415518214
11.612,-0.013181597969722505
11.616,-0.01318344909152775
11.620000000000001,-0.013185131929532518
11.624,-0.013185925267449052
11.628,-0.013185252132247145
11.632,-0.013184266469987209
11.636000000000001,-0.013183641415871153
11.64,-0.013182824037411693
11.644,-0.01318212686166686
11.648,-0.013180468064205017
11.652000000000001,-0.01317933815868753
11.656,-0.013179362199230455
11.66,-0.013181117158864
11.664,-0.01318335292935605
11.668000000000001,-0.013183689496957003
11.672,-0.013184074145643807
11.676,-0.013184434753787685
11.68,-0.013183665456414077
11.684000000000001,-0.013182271104924412
11.688,-0.013181453726464953
11.692,-0.01318207878058101
11.696,-0.013183569294242376
11.700000000000001,-0.013185564659305173
11.704,-0.013189290943458588
11.708,-0.013193017227612005
11.712,-0.013195012592674802
11.716000000000001,-0.013196479065793243
11.72,-0.01319806574162631
11.724,-0.01319888312008577
11.728,-0.013198234025426787
11.732000000000001,-0.013195998254934737
11.736,-0.013194123092586567
11.74,-0.013193978849329015
11.744,-0.013193257633041258
11.748000000000001,-0.013193714403356838
11.752,-0.01319669543067957
11.756,-0.013200517877004688
11.76,-0.01320349890432742
11.764000000000001,-0.013205374066675591
11.768,-0.01320532598558974
11.772,-0.013202681525867961
11.776,-0.013200710201348088
11.78,-0.013198570593027741
11.784,-0.01319582997113426
11.788,-0.013195180876475279
11.792,-0.013196527146879094
11.796,-0.013197344525338552
11.8,-0.013197633011853655
11.804,-0.01319664734959372
11.808,-0.01319806574162631
11.812,-0.01319984474180278
11.816,-0.013200950606777341
11.82,-0.013202970012383065
11.824,-0.013204412444958579
11.828,-0.013205037499074637
11.832,-0.013205638512647768
11.836,-0.01320669629653648
11.84,-0.013206960742508657
11.844,-0.013206720337079404
11.848,-0.013206936701965733
11.852,-0.013206600134364779
11.856,-0.013205374066675591
11.86,-0.013205422147761442
11.864,-0.013205085580160487
11.868,-0.01320359506649912
11.872,-0.013201647782522174
11.876,-0.013202609404239184
11.88,-0.013207802161511042
11.884,-0.013211624607836158
11.888,-0.013212466026838543
11.892,-0.01321222562140929
11.896,-0.01321126399969228
11.9,-0.013209460958972885
11.904,-0.013209533080601661
11.908,-0.013213427648555553
11.912,-0.013216552919135838
11.916,-0.013217875148996727
11.92,-0.013218764649084962
11.924,-0.013218139594968904
11.928,-0.013219870514059524
11.932,-0.013223717000927566
11.936,-0.01322643358227812
11.94,-0.013230159866431536
11.944,-0.013231938866608006
11.948,-0.013232251393666034
11.952,-0.013234318880357606
11.956,-0.013236867177907684
11.96,-0.013237059502251087
11.964,-0.013235737272390198
11.968,-0.013234847772301963
11.972,-0.013233741907327401
11.976,-0.013230712798918817
11.98,-0.013227972177025338
11.984,-0.013227731771596085
11.988,-0.013228332785169217
11.992,-0.013227034595851252
11.996,-0.01322496710915968
12.0,-0.013224318014500698
12.004,-0.013224991149702605
12.008000000000001,-0.013226818230964926
12.012,-0.013229174204171601
12.016,-0.013232539880181138
12.02,-0.013237900921253471
12.024000000000001,-0.013241050232376681
12.028,-0.013243261962325805
12.032,-0.013244463989472068
12.036,-0.013245786219332957
12.040000000000001,-0.013246267030191463
12.044,-0.013244800557073022
12.048,-0.013243286002868731
12.052,-0.01324237246223757
12.056000000000001,-0.013240713664775727
12.06,-0.013238333651026127
12.064,-0.013236290204877479
12.068,-0.013234895853387814
12.072000000000001,-0.013235641110218497
12.076,-0.01323729990768034
12.08,-0.013238501934826603
12.084,-0.013239655880887016
12.088000000000001,-0.013240785786404504
12.092,-0.01324191569192199
12.096,-0.013243358124497506
12.1,-0.013245930462590509
12.104000000000001,-0.013247324814080174
12.108,-0.0132473488546231
12.112,-0.01324775754385283
12.116,-0.01325069049008971
12.120000000000001,-0.013253118584925163
12.124,-0.01325460909858653
12.128,-0.013254921625644558
12.132,-0.013254176368813875
12.136000000000001,-0.013252565652437882
12.14,-0.013249608665658075
12.144,-0.013248358557425961
12.148,-0.013252084841579376
12.152000000000001,-0.013255258193245512
12.156,-0.013255666882475241
12.16,-0.013256051531162045
12.164,-0.013255041828359184
12.168000000000001,-0.013254897585101632
12.172,-0.013256147693333746
12.176,-0.013256364058220074
12.18,-0.013255474558131839
12.184000000000001,-0.013256219814962522
12.188,-0.01325749396373756
12.192,-0.013257974774596067
12.196,-0.013257542044823411
12.200000000000001,-0.013256099612247895
12.204,-0.01325424849044265
12.208,-0.013253527274154893
12.212,-0.013252757976781285
12.216000000000001,-0.013250714530632637
12.22,-0.013249608665658075
12.224,-0.013249103814256645
12.228,-0.013248406638511812
12.232000000000001,-0.013247973908739157
12.236,-0.013247829665481605
12.24,-0.013250113517059505
12.244,-0.01325460909858653
12.248000000000001,-0.013257878612424365
12.252,-0.01326018650454519
12.256,-0.013261292369519753
12.26,-0.013261580856034856
12.264000000000001,-0.013261076004633426
12.268,-0.013262037626350436
12.272,-0.013265860072675552
12.276,-0.01326891322162706
12.280000000000001,-0.01326968251900067
12.284,-0.013270283532573802
12.288,-0.013271028789404483
12.292,-0.013271942330035645
12.296,-0.013272831830123878
12.3,-0.013273312640982384
12.304,-0.013273625168040412
12.308,-0.013274658911386199
12.312,-0.013275332046588106
12.316,-0.013275596492560285
12.32,-0.013277928425224034
12.324,-0.013279875709200981
12.328,-0.013279130452370298
12.332,-0.013279250655084925
12.336,-0.013278938128026895
12.34,-0.013277663979251857
12.344,-0.013277111046764576
12.348,-0.013277327411650903
12.352,-0.013276990844049949
12.356,-0.013275524370931508
12.36,-0.013275308006045181
12.364,-0.01327689468187825
12.368,-0.013278289033367913
12.372,-0.013279178533456148
12.376,-0.01327927469562785
12.38,-0.013277808222509409
12.384,-0.013276918722421174
12.388,-0.013277808222509409
12.392,-0.013280645006574589
12.396,-0.01328302502032419
12.4,-0.013283818358240725
12.404,-0.013284587655614332
12.408,-0.01328444341235678
12.412,-0.013285861804389372
12.416,-0.013287688885651691
12.42,-0.013287761007280468
12.424,-0.013287159993707337
12.428,-0.013287280196421962
12.432,-0.013288698588454552
12.436,-0.013290141021030068
12.44,-0.01329165557523436
12.444,-0.01329343457541083
12.448,-0.013294684683642947
12.452,-0.013293843264640563
12.456,-0.01329247295369382
12.46,-0.013293001845638175
12.464,-0.013291992142835314
12.468,-0.013289107277684281
12.472,-0.013291078602204154
12.476,-0.01329446831875662
12.48,-0.013294949129615125
12.484,-0.013293771143011788
12.488,-0.01329247295369382
12.492,-0.013291559413062658
12.496,-0.013291270926547557
12.5,-0.013291102642747079
12.504,-0.013291944061749463
12.508000000000001,-0.013293674980840086
12.512,-0.013293867305183489
12.516,-0.013293073967266951
12.52,-0.01329170365632021
12.524000000000001,-0.013291871940120688
12.528,-0.013291607494148509
12.532,-0.013290982440032453
12.536,-0.013290597791345648
12.540000000000001,-0.01329028526428762
12.544,-0.013288698588454552
12.548,-0.013289035156055506
12.552,-0.013291126683290005
12.556000000000001,-0.013293073967266951
12.56,-0.013294179832241517
12.564,-0.013295117413415602
12.568,-0.013296127116218463
12.572000000000001,-0.013296006913503838
12.576,-0.013295165494501453
12.58,-0.013294732764728798
12.584,-0.013295069332329752
12.588000000000001,-0.013295069332329752
12.592,-0.013294324075499069
12.596,-0.013293867305183489
12.6,-0.013294131751155666
12.604000000000001,-0.013292953764552324
12.608,-0.013291102642747079
12.612,-0.013290549710259798
12.616,-0.013291463250890957
12.620000000000001,-0.013290934358946602
12.624,-0.013288482223568225
12.628,-0.01328658302067713
12.632,-0.013286366655790803
12.636000000000001,-0.013291294967090481
12.64,-0.013295405899930706
12.644,-0.013298194602910035
12.648,-0.013298290765081737
12.652000000000001,-0.013297449346079352
12.656,-0.01329735318390765
12.66,-0.013298314805624663
12.664,-0.013299733197657253
12.668000000000001,-0.013301175630232769
12.672,-0.013302545941179508
12.676,-0.013303267157467267
12.68,-0.013302762306065835
12.684000000000001,-0.013300935224803516
12.688,-0.013299252386798747
12.692,-0.013299468751685075
12.696,-0.01329903602191242
12.700000000000001,-0.013295526102645332
12.704,-0.013293987507898114
12.708,-0.013295934791875061
12.712,-0.013297833994766157
12.716000000000001,-0.013298459048882215
12.72,-0.01329812248128126
12.724,-0.013297040656849623
12.728,-0.013298362886710513
12.732000000000001,-0.01330127179240447
12.736,-0.013302906549323387
12.74,-0.013304132617012576
12.744,-0.013306825157820206
12.748000000000001,-0.013308387793110348
12.752,-0.013309012847226404
12.756,-0.01331086396903165
12.76,-0.013311753469119884
12.764000000000001,-0.01331237852323594
12.768,-0.013314085401783636
12.772,-0.01331680198313419
12.776,-0.013318124212995079
12.780000000000001,-0.013317402996707322
12.784,-0.013315960564131805
12.788,-0.01331314782060955
12.792,-0.01330995042840049
12.796000000000001,-0.01330995042840049
12.8,-0.013312114077263763
12.804,-0.01331415752341241
12.808,-0.013314590253185066
12.812,-0.013313412266581727
12.816,-0.013312210239435464
12.82,-0.013310431239258996
12.824,-0.013307618495736738
12.828,-0.01330629626587585
12.832,-0.013305142319815437
12.836,-0.013304733630585708
12.84,-0.01330461342787108
12.844,-0.013305526968502242
12.848,-0.013305046157643736
12.852,-0.01330533464415884
12.856,-0.01330730596867871
12.86,-0.013309854266228788
12.864,-0.013310335077087294
12.868,-0.013309469617541984
12.872,-0.013311152455546753
12.876,-0.013311777509662809
12.88,-0.013311705388034034
12.884,-0.013311849631291586
12.888,-0.013313700753096831
12.892,-0.013313580550382204
12.896,-0.013311753469119884
12.9,-0.013311248617718454
12.904,-0.01331269105029397
12.908,-0.013315720158702552
12.912,-0.013318124212995079
12.916,-0.013318869469825762
12.92,-0.013319470483398894
12.924,-0.013320287861858352
12.928,-0.013319710888828147
12.932,-0.013318845429282838
12.936,-0.013318580983310659
12.94,-0.013316994307477592
12.944,-0.013316056726303507
12.948,-0.013315215307301122
12.952,-0.013313917117983158
12.956,-0.013312546807036418
12.96,-0.01331213811780669
12.964,-0.01331406136124071
12.968,-0.013317090469649294
12.972,-0.013319518564484744
12.976,-0.013320600388916382
12.98,-0.013321297564661215
12.984,-0.013321105240317812
12.988,-0.013320023415886175
12.992,-0.013319085834712089
12.996,-0.013317643402136575
13.0,-0.013316441374990311
13.004,-0.01331502298295772
13.008000000000001,-0.013314301766669962
13.012,-0.01331588844250303
13.016,-0.013320191699686651
13.02,-0.013323485254067412
13.024000000000001,-0.013323365051352787
13.028,-0.013322812118865506
13.032,-0.01332456707849905
13.036,-0.013325648902930686
13.040000000000001,-0.01332548061913021
13.044,-0.013325600821844835
13.048,-0.013324230510898096
13.052,-0.013323725659496665
13.056000000000001,-0.013323365051352787
13.06,-0.013321970699863121
13.064,-0.013321778375519719
13.068,-0.013324038186554693
13.072000000000001,-0.013326971132791576
13.076,-0.013328702051882194
13.08,-0.01332913478165485
13.084,-0.013329807916856756
13.088000000000001,-0.013330625295316216
13.092,-0.013331226308889348
13.096,-0.013332236011692209
13.1,-0.013334063092954528
13.104000000000001,-0.013336250782360727
13.108,-0.013337717255479168
13.112,-0.013337260485163588
13.116,-0.013336322903989504
13.120000000000001,-0.013338799079910806
13.124,-0.013341611823433061
13.128,-0.013342645566778848
13.132,-0.013342405161349595
13.136000000000001,-0.013341155053117481
13.14,-0.013338702917739104
13.144,-0.01334009726922877
13.148,-0.013344328404783615
13.152000000000001,-0.013347645999707303
13.156,-0.013350001972913979
13.16,-0.013350530864858334
13.164,-0.013349761567484726
13.168000000000001,-0.013349473080969622
13.172,-0.013349136513368668
13.176,-0.01334781428350778
13.18,-0.013347141148305873
13.184000000000001,-0.013349449040426698
13.188,-0.01335156460820412
13.192,-0.013353223405665963
13.196,-0.013354233108468824
13.200000000000001,-0.013353367648923515
13.204,-0.013353127243494262
13.208,-0.013354377351726376
13.212,-0.013356228473531621
13.216000000000001,-0.013357574743935436
13.22,-0.013357190095248632
13.224,-0.013356757365475978
13.228,-0.013357117973619857
13.232000000000001,-0.013356468878960874
13.236,-0.013355146649099984
13.24,-0.013353151284037188
13.244,-0.01335298300023671
13.248000000000001,-0.013354545635526852
13.252,-0.01335339168946644
13.256,-0.01335243006774943
13.26,-0.013353535932723992
13.264000000000001,-0.013353992703039571
13.268,-0.013353007040779637
13.272,-0.013352213702863103
13.276,-0.013350963594630989
13.280000000000001,-0.013349521162055473
13.284,-0.013350651067572961
13.288,-0.01335394462195372
13.292,-0.013356853527647677
13.296000000000001,-0.013358680608909998
13.3,-0.013361108703745449
13.304,-0.013363416595866274
13.308,-0.013363753163467228
13.312000000000001,-0.013363464676952125
13.316,-0.013363753163467228
13.32,-0.013363464676952125
13.324,-0.013360964460487899
13.328,-0.013359209500854353
13.332,-0.013360555771258168
13.336,-0.01336202224437661
13.34,-0.013363104068808246
13.344,-0.013364594582469613
13.348,-0.013365916812330502
13.352,-0.013367239042191392
13.356,-0.013367791974678673
13.36,-0.01336759965033527
13.364,-0.01336750348816357
13.368,-0.013366565906989484
13.372,-0.013366421663731932
13.376,-0.01336608509613098
13.38,-0.013364931150070567
13.384,-0.013364474379754987
13.388,-0.013365964893416352
13.392,-0.013367287123277243
13.396,-0.013367455407077719
13.4,-0.013366373582646083
13.404,-0.013364113771611107
13.408,-0.013362791541750218
13.412,-0.013363152149894097
13.416,-0.013363416595866274
13.42,-0.01336512347441397
13.424,-0.013365796609615876
13.428,-0.013365460042014922
13.432,-0.01336654186644656
13.436,-0.013367575609792346
13.44,-0.013366686109704111
13.444,-0.013365027312242268
13.448,-0.013365027312242268
13.452,-0.013365988933959278
13.456,-0.01336704671784799
13.46,-0.013367118839476765
13.464,-0.013365243677128595
13.468,-0.013363632960752603
13.472,-0.013362767501207294
13.476,-0.013360555771258168
13.48,-0.013360483649629393
13.484,-0.013362551136320965
13.488,-0.013362863663378993
13.492,-0.013362551136320965
13.496,-0.013363921447267706
13.5,-0.013364522460840838
13.504,-0.013363104068808246
13.508000000000001,-0.013363272352608724
13.512,-0.013363248312065798
13.516,-0.013360916379402048
13.52,-0.013358344041309044
13.524000000000001,-0.013356829487104753
13.528,-0.013356468878960874
13.532,-0.013356060189731145
13.536,-0.013355290892357536
13.540000000000001,-0.013355266851814611
13.544,-0.013356877568190604
13.548,-0.013356108270816996
13.552,-0.013353608054352768
13.556000000000001,-0.013351949256890925
13.56,-0.013350530864858334
13.564,-0.013350795310830511
13.568,-0.01335416098684005
13.572000000000001,-0.013355988068102368
13.576,-0.013356829487104753
13.58,-0.013357142014162781
13.584,-0.013357142014162781
13.588000000000001,-0.013356276554617472
13.592,-0.01335521877072876
13.596,-0.013355050486928283
13.6,-0.013355891905930667
13.604000000000001,-0.013356156351902846
13.608,-0.01335608423027407
13.612,-0.013356733324933052
13.616,-0.013356565041132576
13.620000000000001,-0.013354545635526852
13.624,-0.013352093500148475
13.628,-0.013349256716083295
13.632,-0.0133474536753639
13.636000000000001,-0.013348295094366285
13.64,-0.013348607621424313
13.644,-0.013347958526765331
13.648,-0.013349112472825744
13.652000000000001,-0.013350530864858334
13.656,-0.013349497121512548
13.66,-0.013347165188848797
13.664,-0.013346155486045936
13.668000000000001,-0.01334781428350778
13.672,-0.013349184594454519
13.676,-0.013349497121512548
13.68,-0.013350338540514931
13.684000000000001,-0.013351396324403643
13.688,-0.013351252081146093
13.692,-0.013350939554088063
13.696,-0.01335009813508568
13.700000000000001,-0.01334932883771207
13.704,-0.01334932883771207
13.708,-0.013348679743053088
13.712,-0.013349352878254997
13.716000000000001,-0.013349953891828128
13.72,-0.013348343175452136
13.724,-0.013346684377990291
13.728,-0.013345338107586478
13.732000000000001,-0.013345698715730357
13.736,-0.013346996905048321
13.74,-0.013348559540338463
13.744,-0.01335009813508568
13.748000000000001,-0.013352141581234326
13.752,-0.013354569676069778
13.756,-0.013355507257243864
13.76,-0.01335389654086787
13.764000000000001,-0.0133520213785197
13.768,-0.01334932883771207
13.772,-0.013347093067220022
13.776,-0.013346203567131787
13.780000000000001,-0.013345530431929879
13.784,-0.01334690074287662
13.788,-0.013348896107939417
13.792,-0.013350218337800306
13.796000000000001,-0.01335110783788854
13.8,-0.013350915513545138
13.804,-0.013349905810742278
13.808,-0.013349449040426698
13.812000000000001,-0.013348848026853566
13.816,-0.01334932883771207
13.82,-0.013348920148482341
13.824,-0.01335009813508568
13.828,-0.013354088865211272
13.832,-0.013354834122041956
13.836,-0.013354617757155629
13.84,-0.013354617757155629
13.844,-0.013353535932723992
13.848,-0.01335247814883528
13.852,-0.013351732892004597
13.856,-0.013350122175628604
13.86,-0.013348222972737508
13.864,-0.013348295094366285
13.868,-0.013349449040426698
13.872,-0.013349593283684248
13.876,-0.013349689445855949
13.88,-0.013348655702510164
13.884,-0.013346684377990291
13.888,-0.013347525796992676
13.892,-0.013349497121512548
13.896,-0.013349761567484726
13.9,-0.013350266418886156
13.904,-0.013350891473002212
13.908,-0.013352670473178683
13.912,-0.01335517068964291
13.916,-0.013357430500677885
13.92,-0.013358392122394895
13.924,-0.013359546068455307
13.928,-0.013359017176510952
13.932,-0.013358295960223194
13.936,-0.013356396757332098
13.94,-0.013354689878784404
13.944,-0.01335384845978202
13.948,-0.01335288683806501
13.952,-0.013350627027030035
13.956,-0.013349473080969622
13.96,-0.013349857729656427
13.964,-0.013352790675893308
13.968,-0.013353968662496647
13.972,-0.013352454108292356
13.976,-0.013351155918974391
13.98,-0.013349617324227174
13.984,-0.013348607621424313
13.988,-0.013349977932371053
13.992,-0.01335105975680269
13.996,-0.013350963594630989
14.0,-0.013350482783772483
14.004,-0.013349376918797921
14.008000000000001,-0.013348655702510164
14.012,-0.013347982567308255
14.016,-0.0133473575131922
14.02,-0.013347525796992676
14.024000000000001,-0.013347044986134171
14.028,-0.013347141148305873
14.032,-0.013347237310477572
14.036,-0.013348439337623835
14.040000000000001,-0.01334932883771207
14.044,-0.013349905810742278
14.048,-0.013350578945944184
14.052,-0.01334932883771207
14.056000000000001,-0.013347597918621452
14.06,-0.013346612256361516
14.064,-0.013345434269758177
14.068,-0.013342934053293952
14.072000000000001,-0.013342381120806669
14.076,-0.01334416012098314
14.08,-0.013343847593925111
14.084,-0.013341131012574557
14.088000000000001,-0.013339977066514143
14.092,-0.013340962728774079
14.096,-0.013341323336917957
14.1,-0.013342669607321772
14.104000000000001,-0.01334476113455627
14.108,-0.013346299729303488
14.112,-0.013346972864505395
14.116,-0.013348679743053088
14.120000000000001,-0.013351083797345615
14.124,-0.013351780973090447
14.128,-0.013351276121689017
14.132,-0.013350386621600782
14.136000000000001,-0.01335060298648711
14.14,-0.013349809648570576
14.144,-0.0133474536753639
14.148,-0.013345241945414777
14.152000000000001,-0.013345891040073759
14.156,-0.013347694080793154
14.16,-0.0133473575131922
14.164,-0.01334608336441716
14.168000000000001,-0.013344520729127018
14.172,-0.013344520729127018
14.176,-0.01334466497238457
14.18,-0.013343895675010962
14.184000000000001,-0.013343390823609531
14.188,-0.01334379951283926
14.192,-0.013346035283331309
14.196,-0.013346756499619068
14.200000000000001,-0.013346612256361516
14.204,-0.01334658821581859
14.208,-0.013347044986134171
14.212,-0.013348126810565807
14.216000000000001,-0.013349521162055473
14.22,-0.013348463378166761
14.224,-0.013347573878078526
14.228,-0.013349905810742278
14.232000000000001,-0.013351444405489493
14.236,-0.013350723189201736
14.24,-0.013351083797345615
14.244,-0.013353175324580113
14.248000000000001,-0.013355915946473593
14.252,-0.013357406460134958
14.256,-0.013357574743935436
14.26,-0.01335791131153639
14.264000000000001,-0.013356901608733528
14.268,-0.013357334338506183
14.272,-0.013360627892886945
14.276,-0.01336247901469219
14.280000000000001,-0.013361829920033208
14.284,-0.013360339406371841
14.288,-0.013358512325109522
14.292,-0.013355290892357536
14.296000000000001,-0.01335197329743385
14.3,-0.013349304797169146
14.304,-0.013346756499619068
14.308,-0.013343871634468036
14.312000000000001,-0.013343270620894904
14.316,-0.013344087999354364
14.32,-0.013345314067043552
14.324,-0.013345025580528448
14.328000000000001,-0.01334512174270015
14.332,-0.013345602553558655
14.336,-0.013344472648041167
14.34,-0.013347044986134171
14.344,-0.01335101167571684
14.348,-0.013351324202774868
14.352,-0.013350723189201736
14.356,-0.013351853094719224
14.36,-0.013352790675893308
14.364,-0.013353223405665963
14.368,-0.013353247446208888
14.372,-0.01335298300023671
14.376,-0.013352838756979159
14.38,-0.01335288683806501
14.384,-0.013352646432635756
14.388,-0.013352766635350384
14.392,-0.013352261783948953
14.396,-0.01335252622992113
14.4,-0.013352574311006981
14.404,-0.013352790675893308
14.408,-0.013351612689289971
14.412,-0.013349473080969622
14.416,-0.013348992270111116
14.42,-0.0133497375269418
14.424,-0.013351732892004597
14.428,-0.01335252622992113
14.432,-0.013351179959517316
14.436,-0.013349689445855949
14.44,-0.013349184594454519
14.444,-0.013347694080793154
14.448,-0.013347790242964853
14.452,-0.013353175324580113
14.456,-0.013356252514074546
14.46,-0.013354497554441002
14.464,-0.013353127243494262
14.468,-0.013352406027206505
14.472,-0.013346756499619068
14.476,-0.013338943323168357
14.48,-0.013332572579293163
14.484,-0.013325120010986331
14.488,-0.013320672510545157
14.492,-0.01331959068611352
14.496,-0.013317667442679499
14.5,-0.013313820955811457
14.504,-0.013309902347314639
14.508000000000001,-0.013307666576822589
14.512,-0.013307017482163607
14.516,-0.013306224144247075
14.52,-0.013306272225332925
14.524000000000001,-0.013307931022794768
14.528,-0.01330781082008014
14.532,-0.013306176063161224
14.536,-0.013305310603615913
14.540000000000001,-0.013306272225332925
14.544,-0.013307498293022113
14.548,-0.013307498293022113
14.552,-0.013305935657731971
14.556000000000001,-0.013304901914386184
14.56,-0.013304493225156455
14.564,-0.013304252819727202
14.568,-0.013303483522353594
14.572000000000001,-0.013303988373755024
14.576,-0.01330533464415884
14.58,-0.013304204738641351
14.584,-0.013301295832947395
14.588000000000001,-0.013298459048882215
14.592,-0.013296439643276491
14.596,-0.01329675217033452
14.6,-0.013295982872960911
14.604000000000001,-0.013296415602733567
14.608,-0.013298002278566633
14.612,-0.013296728129791595
14.616,-0.013294997210700975
14.620000000000001,-0.013295405899930706
14.624,-0.013293939426812264
14.628,-0.013291847899577762
14.632,-0.013293049926724025
14.636000000000001,-0.013293843264640563
14.64,-0.013294155791698592
14.644,-0.013294251953870294
14.648,-0.013294107710612742
14.652000000000001,-0.013293723061925937
14.656,-0.013292400832065043
14.66,-0.013290669912974425
14.664,-0.013289203439855983
14.668000000000001,-0.0132861743314474
14.672,-0.0132839866420412
14.676,-0.013281822993177927
14.68,-0.013278938128026895
14.684000000000001,-0.013277327411650903
14.688,-0.013279418938885401
14.692,-0.01328206339860718
14.696,-0.01328348179063977
14.700000000000001,-0.013283217344667593
14.704,-0.013282784614894938
14.708,-0.01328155854720575
14.712,-0.013279635303771728
14.716000000000001,-0.013278769844226419
14.72,-0.01327790438468111
14.724,-0.013276389830476817
14.728,-0.013274490627585723
14.732000000000001,-0.013273000113924356
14.736,-0.013272110613836121
14.74,-0.01327348092478286
14.744,-0.013275764776360761
14.748000000000001,-0.013276293668305118
14.752,-0.0132771350873075
14.756,-0.013276029222332938
14.76,-0.013274009816727217
14.764000000000001,-0.013272206776007822
14.768,-0.013271221113747886
14.772,-0.0132725673841517
14.776,-0.013274418505956946
14.780000000000001,-0.013274971438444227
14.784,-0.013275524370931508
14.788,-0.013275332046588106
14.792,-0.013276365789933893
14.796000000000001,-0.013277760141423558
14.8,-0.013277543776537231
14.804,-0.01327617346559049
14.808,-0.013276798519706548
14.812000000000001,-0.013277928425224034
14.816,-0.013277327411650903
14.82,-0.013276245587219267
14.824,-0.013274923357358377
14.828000000000001,-0.013273937695098442
14.832,-0.013272206776007822
14.836,-0.01327114899211911
14.84,-0.013271701924606392
14.844000000000001,-0.013274274262699394
14.848,-0.013274779114100825
14.852,-0.013275187803330554
14.856,-0.01327658215482022
14.86,-0.013276269627762191
14.864,-0.013277736100880632
14.868,-0.013281822993177927
14.872,-0.0132861743314474
14.876,-0.013288530304654076
14.88,-0.013287472520765365
14.884,-0.013288193737053122
14.888,-0.013289924656143742
14.892,-0.013289588088542787
14.896,-0.013287256155879036
14.9,-0.013284251088013378
14.904,-0.013283674114983173
14.908,-0.013283674114983173
14.912,-0.013283265425753444
14.916,-0.013282327844579358
14.92,-0.013281077736347244
14.924,-0.01327927469562785
14.928,-0.013278529438797166
14.932,-0.013279394898342475
14.936,-0.013279130452370298
14.94,-0.01327612538450464
14.944,-0.013273096276096057
14.948,-0.013271389397548364
14.952,-0.013270067167687473
14.956,-0.013267783316109574
14.96,-0.013265138856387795
14.964,-0.013263095410239147
14.968,-0.013261989545264585
14.972,-0.013260835599204173
14.976,-0.013260306707259816
14.98,-0.013259248923371105
14.984,-0.013256388098762999
14.988,-0.013255162031073811
14.992,-0.013254729301301156
14.996,-0.013254464855328978
15.0,-0.01325480142292993
15.004,-0.013253671517412444
15.008000000000001,-0.013252132922665227
15.012,-0.013250233719774131
15.016,-0.013248647043941065
15.02,-0.0132472526924514
15.024000000000001,-0.013246868043764595
15.028,-0.013245906422047584
15.032,-0.013245233286845676
15.036,-0.013246411273449015
15.040000000000001,-0.013248887449370316
15.044,-0.013251628071263797
15.048,-0.013253719598498295
15.052,-0.013255474558131839
15.056000000000001,-0.013257061233964907
15.06,-0.013257590125909262
15.064,-0.013256892950164429
15.068,-0.013255763044646943
15.072000000000001,-0.013255162031073811
15.076,-0.013254825463472857
15.08,-0.013255162031073811
15.084,-0.013254825463472857
15.088000000000001,-0.01325383980121292
15.092,-0.013254008085013399
15.096,-0.013255498598674764
15.1,-0.013257638206995112
15.104000000000001,-0.01325912872065648
15.108,-0.013260354788345667
15.112,-0.013260691355946621
15.116,-0.0132610519640905
15.120000000000001,-0.013261701058749482
15.124,-0.013262975207524522
15.128,-0.013263407937297175
15.132,-0.013263311775125474
15.136000000000001,-0.013262638639923567
15.14,-0.013261412572234378
15.144,-0.013261388531691454
15.148,-0.013262710761552342
15.152000000000001,-0.013264994613130243
15.156,-0.01326470612661514
15.16,-0.013263191572410848
15.164,-0.013262205910150912
15.168000000000001,-0.01326054711268907
15.172,-0.013260739437032472
15.176,-0.013260450950517368
15.18,-0.013258383463825796
15.184000000000001,-0.013257205477222457
15.188,-0.013258623869255049
15.192,-0.013259393166628657
15.196,-0.013260474991060294
15.200000000000001,-0.013261628937120707
15.204,-0.013262181869607988
15.208,-0.013262302072322613
15.212,-0.013261460653320229
15.216000000000001,-0.013259657612600834
15.22,-0.013258623869255049
15.224,-0.013256412139305925
15.228,-0.013253166666011014
15.232000000000001,-0.01325064240900386
15.236,-0.01324968078728685
15.24,-0.013249464422400523
15.244,-0.013249392300771747
15.248000000000001,-0.01325045008466046
15.252,-0.01325136362529162
15.256,-0.01325237332809448
15.26,-0.013254392733700202
15.264000000000001,-0.01325653234202055
15.268,-0.013257205477222457
15.272,-0.013258094977310692
15.276,-0.013259272963914031
15.280000000000001,-0.013260258626173966
15.284,-0.013261292369519753
15.288,-0.013258503666540421
15.292,-0.013254272530985576
15.296000000000001,-0.013253623436326594
15.3,-0.01325501778781626
15.304,-0.013256724666363953
15.308,-0.013255859206818644
15.312000000000001,-0.01325480142292993
15.316,-0.013254440814786052
15.32,-0.013253719598498295
15.324,-0.01325456101750068
15.328000000000001,-0.013254969706730409
15.332,-0.013254849504015781
15.336,-0.01325552263921769
15.34,-0.013256291936591297
15.344000000000001,-0.013256652544735176
15.348,-0.013257686288080963
15.352,-0.013258864274684302
15.356,-0.0132587681125126
15.36,-0.01325785457188144
15.364,-0.013256003450076194
15.368,-0.013255258193245512
15.372,-0.013254777382387006
15.376,-0.013255306274331363
15.38,-0.013255162031073811
15.384,-0.013253527274154893
15.388,-0.013252613733523733
15.392,-0.013251820395607199
15.396,-0.01325018563868828
15.4,-0.013249849071087328
15.404,-0.01325136362529162
15.408,-0.013251940598321825
15.412,-0.013251075138776516
15.416,-0.013249007652084943
15.42,-0.013246747841049969
15.424,-0.013244223584042815
15.428,-0.013243261962325805
15.432,-0.01324597854367636
15.436,-0.013247685422224053
15.44,-0.013247973908739157
15.444,-0.01324730077353725
15.448,-0.013245882381504658
15.452,-0.013247396935708951
15.456,-0.013249849071087328
15.46,-0.013251315544205769
15.464,-0.013251604030720872
15.468,-0.013250714530632637
15.472,-0.013248647043941065
15.476,-0.013246339151820238
15.48,-0.013246002584219286
15.484,-0.013247445016794802
15.488,-0.013248887449370316
15.492,-0.013250474125203384
15.496,-0.013252253125379854
15.5,-0.013254128287728024
15.504,-0.013256171733876672
15.508000000000001,-0.013257878612424365
15.512,-0.01325922488282818
15.516,-0.013259561450429133
15.52,-0.013259825896401312
15.524000000000001,-0.013261027923547575
15.528,-0.013262085707436286
15.532,-0.013261196207348051
15.536,-0.013259753774772535
15.540000000000001,-0.013259705693686685
15.544,-0.013261652977663631
15.548,-0.013262181869607988
15.552,-0.013261027923547575
15.556000000000001,-0.013261076004633426
15.56,-0.013259946099115938
15.564,-0.013256580423106401
15.568,-0.013256604463649325
15.572000000000001,-0.013258503666540421
15.576,-0.013260066301830565
15.58,-0.013260667315403697
15.584,-0.013260306707259816
15.588000000000001,-0.013261268328976828
15.592,-0.013261821261464109
15.596,-0.013261484693863155
15.6,-0.013261172166805127
15.604000000000001,-0.01326009034237349
15.608,-0.013258816193598451
15.612,-0.013258335382739945
15.616,-0.013258599828712123
15.620000000000001,-0.01325840750436872
15.624,-0.013257109315050758
15.628,-0.013256772747449803
15.632,-0.013255763044646943
15.636000000000001,-0.013255402436503062
15.64,-0.013259537409886208
15.644,-0.01326328773458255
15.648,-0.01326424935629956
15.652000000000001,-0.013264153194127859
15.656,-0.013265499464531674
15.66,-0.01326598027539018
15.664,-0.013263960869784456
15.668000000000001,-0.013260979842461725
15.672,-0.013260066301830565
15.676,-0.01326110004517635
15.68,-0.013259561450429133
15.684000000000001,-0.01325749396373756
15.688,-0.013256051531162045
15.692,-0.013254416774243128
15.696,-0.013253094544382237
15.700000000000001,-0.013252036760493526
15.704,-0.01325095493606189
15.708,-0.013250714530632637
15.712,-0.013252541611894956
15.716000000000001,-0.013252950301124685
15.72,-0.013253527274154893
15.724,-0.013255162031073811
15.728,-0.013255763044646943
15.732000000000001,-0.013257421842108786
15.736,-0.013257469923194636
15.74,-0.013257421842108786
15.744,-0.013258984477398927
15.748000000000001,-0.013258527707083348
15.752,-0.013259417207171583
15.756,-0.01326206166689336
15.76,-0.013262951166981595
15.764000000000001,-0.01326155681549193
15.768,-0.013261701058749482
15.772,-0.013261965504721659
15.776,-0.013262157829065062
15.780000000000001,-0.013260450950517368
15.784,-0.013258383463825796
15.788,-0.013256412139305925
15.792,-0.01325424849044265
15.796000000000001,-0.013252012719950601
15.8,-0.013252084841579376
15.804,-0.013252902220038837
15.808,-0.013253479193069042
15.812000000000001,-0.013253887882298771
15.816,-0.013253431111983191
15.82,-0.013252589692980807
15.824,-0.013252854138952986
15.828000000000001,-0.013252974341667612
15.832,-0.013252493530809106
15.836,-0.013252637774066657
15.84,-0.013253863841755847
15.844000000000001,-0.013253262828182715
15.848,-0.013252253125379854
15.852,-0.013253719598498295
15.856,-0.01325506586890211
15.860000000000001,-0.013256364058220074
15.864,-0.013257421842108786
15.868,-0.013258046896224842
15.872,-0.013257662247538039
15.876,-0.013257277598851234
15.88,-0.013257253558308308
15.884,-0.013257542044823411
15.888,-0.013258599828712123
15.892,-0.01325917680174233
15.896,-0.013258984477398927
15.9,-0.01325821518002532
15.904,-0.013257806490795589
15.908,-0.013257686288080963
15.912,-0.013257614166452188
15.916,-0.013256147693333746
15.92,-0.013253166666011014
15.924,-0.013252637774066657
15.928,-0.013254897585101632
15.932,-0.013255089909445034
15.936,-0.013254056166099249
15.94,-0.01325557072030354
15.944,-0.013257926693510216
15.948,-0.013259609531514983
15.952,-0.01326054711268907
15.956,-0.013259849936944236
15.96,-0.01325790265296729
15.964,-0.013257373761022935
15.968,-0.013256099612247895
15.972,-0.01325480142292993
15.976,-0.013254633139129455
15.98,-0.013255402436503062
15.984,-0.013256123652790821
15.988,-0.013255811125732793
15.992,-0.01325480142292993
15.996,-0.013254488895871903
16.0,-0.01325552263921769
16.004,-0.01325607557170497
16.008,-0.013256652544735176
16.012,-0.013256171733876672
16.016000000000002,-0.013254152328270949
16.02,-0.013256123652790821
16.024,-0.013258503666540421
16.028,-0.013258623869255049
16.032,-0.013258094977310692
16.036,-0.01325744588265171
16.04,-0.013255089909445034
16.044,-0.013251748273978422
16.048000000000002,-0.013248935530456167
16.052,-0.013248791287198615
16.056,-0.013249608665658075
16.06,-0.01325095493606189
16.064,-0.013252541611894956
16.068,-0.013253166666011014
16.072,-0.013253887882298771
16.076,-0.013253407071440267
16.080000000000002,-0.01325196463886475
16.084,-0.013250762611718488
16.088,-0.013250257760317057
16.092,-0.013248911489913242
16.096,-0.013247685422224053
16.1,-0.013248046030367933
16.104,-0.013246146827476837
16.108,-0.013242636908209749
16.112000000000002,-0.013242035894636617
16.116,-0.013242059935179542
16.12,-0.013242228218980018
16.124,-0.01324410338132819
16.128,-0.013245786219332957
16.132,-0.013245401570646154
