0.0,-0.011759527734064386
0.004,-0.011759167125920508
0.008,-0.011764528166992841
0.012,-0.011766259086083461
0.016,-0.011766860099656593
0.02,-0.011771980735299675
0.024,-0.011775707019453092
0.028,-0.011777245614200307
0.032,-0.011777870668316365
0.036000000000000004,-0.01177748601962956
0.04,-0.01177510600587996
0.044,-0.01177186053258505
0.048,-0.011770754667610487
0.052000000000000005,-0.011771331640640693
0.056,-0.011768855464719391
0.06,-0.011768422734946736
0.064,-0.011768542937661363
0.068,-0.011770466181095384
0.07200000000000001,-0.011770874870325113
0.076,-0.011772245181271852
0.08,-0.011772557708329882
0.084,-0.011774144384162948
0.088,-0.01177505792479411
0.092,-0.011773399127332265
0.096,-0.01177149992444117
0.1,-0.011771331640640693
0.10400000000000001,-0.01177287023538791
0.108,-0.011771235478468992
0.112,-0.011773110640817163
0.116,-0.01177145184335532
0.12,-0.011771259519011918
0.124,-0.011773615492218593
0.128,-0.011771331640640693
0.132,-0.011768038086259931
0.136,-0.011769384356663746
0.14,-0.011772004775842601
0.14400000000000002,-0.011775634897824315
0.148,-0.011779000573833852
0.152,-0.011780827655096172
0.156,-0.01177748601962956
0.16,-0.01177282215430206
0.164,-0.011770345978380758
0.168,-0.01176774959974483
0.17200000000000001,-0.011765874437396656
0.176,-0.011768422734946736
0.18,-0.011769913248608103
0.184,-0.011771019113582665
0.188,-0.011772173059643077
0.192,-0.011772293262357703
0.196,-0.011773206802988864
0.2,-0.01176799000517408
0.20400000000000001,-0.011764576248078692
0.20800000000000002,-0.01176488877513672
0.212,-0.011765369585995226
0.216,-0.011766259086083461
0.22,-0.011766643734770264
0.224,-0.011763254018217803
0.228,-0.01176164330184181
0.232,-0.011761811585642287
0.23600000000000002,-0.011768230410603334
0.24,-0.011772197100186002
0.244,-0.011765634031967403
0.248,-0.011760080666551667
0.252,-0.011759720058407789
0.256,-0.011759191166463434
0.26,-0.011761499058584259
0.264,-0.011764792612965019
0.268,-0.011764504126449917
0.272,-0.011761667342384735
0.276,-0.011762677045187596
0.28,-0.01176159522075596
0.28400000000000003,-0.011762628964101745
0.28800000000000003,-0.011763181896589026
0.292,-0.011761667342384735
0.296,-0.011764864734593795
0.3,-0.011767413032143875
0.304,-0.011768134248431632
0.308,-0.011766739896941965
0.312,-0.011765225342737674
0.316,-0.011764167558848963
0.32,-0.011763830991248008
0.324,-0.011762364518129568
0.328,-0.011762340477586642
0.332,-0.011761426936955482
0.336,-0.011763494423647056
0.34,-0.011765417667081076
0.34400000000000003,-0.01177017769458028
0.34800000000000003,-0.011772677911044508
0.352,-0.011774192465248799
0.356,-0.011775394492395062
0.36,-0.0117630616938744
0.364,-0.011764912815679646
0.368,-0.011766451410426863
0.372,-0.01176926415394912
0.376,-0.011768735262004764
0.38,-0.011766739896941965
0.384,-0.011767172626714622
0.388,-0.011767653437573128
0.392,-0.011770562343267085
0.396,-0.011770490221638308
0.4,-0.011770273856751981
0.404,-0.011771019113582665
0.40800000000000003,-0.011772173059643077
0.41200000000000003,-0.011768999707976943
0.41600000000000004,-0.011770033451322728
0.42,-0.011768951626891093
0.424,-0.011766186964454684
0.428,-0.01176774959974483
0.432,-0.011767172626714622
0.436,-0.011766403329341013
0.44,-0.011765730194139104
0.444,-0.011767172626714622
0.448,-0.011769071829605718
0.452,-0.011766787978027816
0.456,-0.011765898477939582
0.46,-0.011762941491159773
0.464,-0.011760657639581874
0.468,-0.011764335842649439
0.47200000000000003,-0.011765441707624
0.47600000000000003,-0.011767869802459455
0.48,-0.011766427369883937
0.484,-0.011765225342737674
0.488,-0.011769192032320344
0.492,-0.011768831424176465
0.496,-0.011770153654037356
0.5,-0.011767100505085845
0.504,-0.011765826356310806
0.508,-0.011764792612965019
0.512,-0.011764456045364066
0.516,-0.011765513829252778
0.52,-0.0117673409105151
0.524,-0.01176661969422734
0.528,-0.011771379721726543
0.532,-0.011772629829958657
0.536,-0.011774601154478528
0.54,-0.01177606762759697
0.544,-0.011773206802988864
0.548,-0.011772076897471376
0.552,-0.011770345978380758
0.556,-0.011771163356840217
0.56,-0.011771355681183619
0.5640000000000001,-0.011771307600097768
0.5680000000000001,-0.011770850829782189
0.5720000000000001,-0.011769095870148644
0.5760000000000001,-0.011769312235034971
0.58,-0.011768566978204288
0.584,-0.011766908180742443
0.588,-0.011766066761740059
0.592,-0.0117673409105151
0.596,-0.01176260492355882
0.6,-0.011757316004115262
0.604,-0.011756041855340224
0.608,-0.011757099639228935
0.612,-0.011759527734064386
0.616,-0.011762196234329092
0.62,-0.011762917450616849
0.624,-0.011760393193609697
0.628,-0.011762172193786165
0.632,-0.011766787978027816
0.636,-0.011769143951234495
0.64,-0.011769696883721776
0.644,-0.011770562343267085
0.648,-0.01176825445114626
0.652,-0.011762869369530998
0.656,-0.011762172193786165
0.66,-0.011764504126449917
0.664,-0.011765465748166927
0.668,-0.011767100505085845
0.672,-0.011767172626714622
0.676,-0.011765033018394272
0.68,-0.011764047356134337
0.684,-0.011761330774783781
0.6880000000000001,-0.011762941491159773
0.6920000000000001,-0.011764119477763112
0.6960000000000001,-0.011762797247902223
0.7000000000000001,-0.011760128747637518
0.704,-0.011759696017864864
0.708,-0.011761931788356913
0.712,-0.01176118653152623
0.716,-0.011759888342208267
0.72,-0.011759671977321938
0.724,-0.011761330774783781
0.728,-0.011763638666904606
0.732,-0.011759840261122416
0.736,-0.011756474585112878
0.74,-0.011759431571892685
0.744,-0.01176159522075596
0.748,-0.011764407964278216
0.752,-0.0117652493832806
0.756,-0.011764335842649439
0.76,-0.011762316437043717
0.764,-0.011764095437220188
0.768,-0.011761955828899839
0.772,-0.011764456045364066
0.776,-0.011768398694403812
0.78,-0.011766331207712236
0.784,-0.011764311802106514
0.788,-0.011767941924088232
0.792,-0.011767701518658979
0.796,-0.011768278491689184
0.8,-0.011768182329517483
0.804,-0.011765369585995226
0.808,-0.011769600721550075
0.812,-0.011771427802812394
0.8160000000000001,-0.011769119910691569
0.8200000000000001,-0.011768735262004764
0.8240000000000001,-0.01176666777531319
0.8280000000000001,-0.011768615059290138
0.8320000000000001,-0.011770826789239262
0.836,-0.011770658505438786
0.84,-0.011770249816209057
0.844,-0.011771788410956273
0.848,-0.01176825445114626
0.852,-0.011770995073039739
0.856,-0.011773134681360087
0.86,-0.011771475883898245
0.864,-0.011773158721903014
0.868,-0.011770922951410964
0.872,-0.011766138883368834
0.876,-0.01176469645079332
0.88,-0.011765177261651823
0.884,-0.011766283126626385
0.888,-0.011766643734770264
0.892,-0.011767364951058025
0.896,-0.011764456045364066
0.9,-0.011763494423647056
0.904,-0.011764744531879168
0.908,-0.0117653455454523
0.912,-0.011765369585995226
0.916,-0.011764504126449917
0.92,-0.011764528166992841
0.924,-0.011766836059113666
0.928,-0.011766451410426863
0.932,-0.011769793045893475
0.936,-0.011770297897294908
0.9400000000000001,-0.01176825445114626
0.9440000000000001,-0.011764672410250393
0.9480000000000001,-0.01176666777531319
0.9520000000000001,-0.011769504559378374
0.9560000000000001,-0.011768975667434017
0.96,-0.011768422734946736
0.964,-0.011767965964631156
0.968,-0.011766571613141489
0.972,-0.011765730194139104
0.976,-0.011765850396853732
0.98,-0.011764960896765497
0.984,-0.011766235045540535
0.988,-0.011766860099656593
0.992,-0.011766138883368834
0.996,-0.011766331207712236
1.0,-0.01176774959974483
1.004,-0.011766956261828294
1.008,-0.011766283126626385
1.012,-0.011764335842649439
1.016,-0.011763133815503176
1.02,-0.011765730194139104
1.024,-0.011766812018570742
1.028,-0.011766090802282983
1.032,-0.011768350613317961
1.036,-0.011771115275754366
1.04,-0.011769552640464224
1.044,-0.011771427802812394
1.048,-0.011769817086436402
1.052,-0.011767965964631156
1.056,-0.011766932221285368
1.06,-0.01176707646454292
1.064,-0.011766138883368834
1.068,-0.011761931788356913
1.072,-0.011761571180213034
1.076,-0.01176825445114626
1.08,-0.011768975667434017
1.084,-0.011766090802282983
1.088,-0.011762917450616849
1.092,-0.011762893410073924
1.096,-0.011767677478116053
1.1,-0.011768542937661363
1.104,-0.011770514262181234
1.108,-0.011775370451852138
1.112,-0.011774360749049277
1.116,-0.01177383185710492
1.12,-0.011773399127332265
1.124,-0.011772028816385526
1.1280000000000001,-0.011772557708329882
1.1320000000000001,-0.01176875930254769
1.1360000000000001,-0.01176825445114626
1.1400000000000001,-0.011769576681007149
1.1440000000000001,-0.01176799000517408
1.1480000000000001,-0.011760801882839426
1.1520000000000001,-0.011756835193256758
1.156,-0.01175767661225914
1.16,-0.01176164330184181
1.164,-0.011762196234329092
1.168,-0.01176469645079332
1.172,-0.011766307167169312
1.176,-0.011768014045717007
1.18,-0.01176712454562877
1.184,-0.011765946559025431
1.188,-0.011765057058937198
1.192,-0.011764624329164542
1.196,-0.01176671585639904
1.2,-0.011763398261475355
1.204,-0.011761859666728137
1.208,-0.011762941491159773
1.212,-0.011764287761563588
1.216,-0.011759263288092209
1.22,-0.011753445476704295
1.224,-0.01175387820647695
1.228,-0.011759744098950715
1.232,-0.011762292396500793
1.236,-0.011763614626361682
1.24,-0.011762076031614464
1.244,-0.011760537436867247
1.248,-0.0117629655317027
1.252,-0.011764047356134337
1.256,-0.011758758436690778
1.26,-0.011756450544569953
1.264,-0.011756402463484103
1.268,-0.011756955395971384
1.272,-0.011756907314885533
1.276,-0.011753181030732118
1.28,-0.011753205071275042
1.284,-0.011758205504203497
1.288,-0.011759215207006358
1.292,-0.011758758436690778
1.296,-0.011759215207006358
1.3,-0.011763109774960251
1.304,-0.011765417667081076
1.308,-0.011764816653507945
1.312,-0.011762773207359297
1.316,-0.011759647936779014
1.32,-0.01175743620682989
1.324,-0.011755897612082672
1.328,-0.011758686315062003
1.332,-0.011761907747813988
1.336,-0.01176027299089507
1.34,-0.011762460680301269
1.344,-0.011764407964278216
1.348,-0.011766138883368834
1.352,-0.0117675332348585
1.356,-0.01176774959974483
1.36,-0.011767725559201903
1.364,-0.011764960896765497
1.368,-0.011762172193786165
1.372,-0.011761499058584259
1.3760000000000001,-0.011759287328635135
1.3800000000000001,-0.011761763504556436
1.3840000000000001,-0.011764095437220188
1.3880000000000001,-0.011763662707447532
1.3920000000000001,-0.011763638666904606
1.3960000000000001,-0.011765105140023048
1.4000000000000001,-0.011764359883192365
1.4040000000000001,-0.011763229977674877
1.408,-0.011759671977321938
1.412,-0.011760200869266295
1.416,-0.011757917017688394
1.42,-0.011754839828193961
1.424,-0.011756955395971384
1.428,-0.01175935945026391
1.432,-0.011758926720491255
1.436,-0.011759984504379966
1.44,-0.011762628964101745
1.444,-0.011764456045364066
1.448,-0.011767917883545306
1.452,-0.011765922518482507
1.456,-0.011767364951058025
1.46,-0.01176967284317885
1.464,-0.011769336275577896
1.468,-0.011768975667434017
1.472,-0.011767773640287754
1.476,-0.011766186964454684
1.48,-0.011764071396677261
1.484,-0.011763109774960251
1.488,-0.011760489355781398
1.492,-0.011759960463837042
1.496,-0.01175712367977186
1.5,-0.011756739031085057
1.504,-0.011758493990718601
1.508,-0.011760152788180444
1.512,-0.011759215207006358
1.516,-0.011759287328635135
1.52,-0.011761018247725753
1.524,-0.01175895076103418
1.528,-0.011755993774254373
1.532,-0.011756282260769477
1.536,-0.011759503693521462
1.54,-0.011756787112170907
1.544,-0.011752123246843405
1.548,-0.011750031719608908
1.552,-0.011756474585112878
1.556,-0.011762532801930044
1.56,-0.011765033018394272
1.564,-0.011766812018570742
1.568,-0.011766595653684413
1.572,-0.011768494856575513
1.576,-0.011769985370236878
1.58,-0.011768879505262316
1.584,-0.011768663140375989
1.588,-0.01176575423468203
1.592,-0.011764335842649439
1.596,-0.01176779768083068
1.6,-0.011769793045893475
1.604,-0.011768999707976943
1.608,-0.011767653437573128
1.612,-0.011771475883898245
1.616,-0.011772197100186002
1.62,-0.011768615059290138
1.624,-0.011765778275224955
1.6280000000000001,-0.01176438392373529
1.6320000000000001,-0.01176260492355882
1.6360000000000001,-0.0117630616938744
1.6400000000000001,-0.01176351846418998
1.6440000000000001,-0.011766884140199517
1.6480000000000001,-0.011767821721373604
1.6520000000000001,-0.011769023748519868
1.6560000000000001,-0.011768903545805242
1.6600000000000001,-0.011768615059290138
1.6640000000000001,-0.01177058638381001
1.668,-0.011771812451499199
1.672,-0.011771475883898245
1.676,-0.011772774073216209
1.68,-0.011773903978733697
1.684,-0.011773158721903014
1.688,-0.01177113931629729
1.692,-0.011766138883368834
1.696,-0.011762725126273446
1.7,-0.01176210007215739
1.704,-0.011762268355957867
1.708,-0.011758926720491255
1.712,-0.011755008111994437
1.716,-0.011754527301135931
1.72,-0.011756113976968999
1.724,-0.011756955395971384
1.728,-0.011755561044481718
1.732,-0.011753349314532594
1.736,-0.01175575336882512
1.74,-0.01176072976121065
1.744,-0.01176342230201828
1.748,-0.011763085734417325
1.752,-0.011762773207359297
1.756,-0.011762124112700315
1.76,-0.01176159522075596
1.764,-0.011762725126273446
1.768,-0.011763710788533383
1.772,-0.011764816653507945
1.776,-0.011763446342561205
1.78,-0.011760849963925277
1.784,-0.011760585517953098
1.788,-0.01176164330184181
1.792,-0.011761378855869632
1.796,-0.011760345112523846
1.8,-0.011759046923205882
1.804,-0.011760489355781398
1.808,-0.011758037220403021
1.812,-0.01175767661225914
1.816,-0.011754551341678857
1.82,-0.011754431138964232
1.824,-0.011754503260593007
1.828,-0.011754310936249604
1.832,-0.011755368720138316
1.836,-0.011752435773901435
1.84,-0.011750055760151833
1.844,-0.011750921219697142
1.848,-0.011754431138964232
1.852,-0.01175935945026391
1.856,-0.011763350180389504
1.86,-0.011764792612965019
1.864,-0.011762268355957867
1.868,-0.01175789297714547
1.872,-0.01175479174710811
1.8760000000000001,-0.011755897612082672
1.8800000000000001,-0.011756835193256758
1.8840000000000001,-0.011755969733711447
1.8880000000000001,-0.011756474585112878
1.8920000000000001,-0.011759239247549284
1.8960000000000001,-0.011761114409897454
1.9000000000000001,-0.011761330774783781
1.9040000000000001,-0.011758013179860095
1.9080000000000001,-0.011759215207006358
1.9120000000000001,-0.011757652571716216
1.9160000000000001,-0.011758493990718601
1.92,-0.01176072976121065
1.924,-0.011761258653155006
1.928,-0.011759119044834657
1.932,-0.011756402463484103
1.936,-0.011755512963395868
1.94,-0.011756138017511925
1.944,-0.011758638233976153
1.948,-0.011761523099127183
1.952,-0.0117630616938744
1.956,-0.01176032107198092
1.96,-0.011758518031261525
1.964,-0.011757772774430842
1.968,-0.011759263288092209
1.972,-0.011759479652978536
1.976,-0.011755993774254373
1.98,-0.011754190733534979
1.984,-0.011753445476704295
1.988,-0.011753445476704295
1.992,-0.011753589719961847
1.996,-0.011755344679595391
2.0,-0.011758037220403021
2.004,-0.011761042288268679
2.008,-0.01176347038310413
2.012,-0.0117653455454523
2.016,-0.011760104707094593
2.02,-0.011757340044658188
2.024,-0.011756931355428457
2.028,-0.011758518031261525
2.032,-0.011758566112347376
2.036,-0.0117562101391407
2.04,-0.011757316004115262
2.044,-0.011757219841943561
2.048,-0.01175762853117329
2.052,-0.011752916584759939
2.056,-0.011749743233093805
2.06,-0.011749959597980131
2.064,-0.011748685449205093
2.068,-0.011748228678889513
2.072,-0.011749743233093805
2.076,-0.01175260405770191
2.08,-0.011749719192550879
2.084,-0.011749286462778225
2.088,-0.011748781611376794
2.092,-0.011746353516541342
2.096,-0.011749382624949926
2.1,-0.011751834760328303
2.104,-0.011750079800694759
2.108,-0.011745271692109706
2.112,-0.01174474280016535
2.116,-0.011745536138081884
2.12,-0.011745488056996033
2.124,-0.01174839696268999
2.128,-0.011751618395441974
2.132,-0.011753685882133548
2.136,-0.011753084868560417
2.14,-0.011749430706035777
2.144,-0.011747146854457876
2.148,-0.011750873138611293
2.152,-0.01174885373300557
2.156,-0.011747795949116858
2.16,-0.011737170029143892
2.164,-0.011733347582818776
2.168,-0.011733732231505579
2.172,-0.011734164961278234
2.176,-0.011733924555848981
2.18,-0.011737290231858518
2.184,-0.011736328610141507
2.188,-0.01173753063728777
2.192,-0.01173880478606281
2.196,-0.011739045191492062
2.2,-0.011740343380810026
2.204,-0.01174286763781718
2.208,-0.011745632300253585
2.212,-0.01174423794876392
2.216,-0.011741809853928468
2.22,-0.011742026218814795
2.224,-0.011742146421529421
2.228,-0.011742627232387927
2.232,-0.011740968434926084
2.236,-0.011737819123802874
2.24,-0.011735775677654227
2.244,-0.01173611224525518
2.248,-0.0117424108675016
2.2520000000000002,-0.011742747435102553
2.2560000000000002,-0.011742627232387927
2.2600000000000002,-0.011742338745872823
2.2640000000000002,-0.011740655907868056
2.2680000000000002,-0.011742338745872823
2.2720000000000002,-0.011740848232211457
2.2760000000000002,-0.01173789124543165
2.2800000000000002,-0.011735030420823543
2.2840000000000003,-0.011734765974851366
2.2880000000000003,-0.011736136285798105
2.2920000000000003,-0.011739550042893492
2.2960000000000003,-0.011738107610317978
2.3000000000000003,-0.011737722961631173
2.3040000000000003,-0.0117379393265175
2.308,-0.01173753063728777
2.312,-0.011736544975027834
2.316,-0.01173459769105089
2.32,-0.011732313839472989
2.324,-0.011735342947881571
2.328,-0.011740247218638325
2.332,-0.011739141353663763
2.336,-0.011734092839649457
2.34,-0.011736304569598583
2.344,-0.011735847799283003
2.348,-0.011730270393324341
2.352,-0.011725125717138334
2.356,-0.011720125284209881
2.36,-0.011721014784298114
2.364,-0.011723154392618463
2.368,-0.011726303703741673
2.372,-0.011730847366354548
2.376,-0.011729597258122434
2.38,-0.011728106744461068
2.384,-0.01172363520347697
2.388,-0.0117242362170501
2.392,-0.011725750771254392
2.396,-0.01172459682519398
2.4,-0.011726520068628
2.404,-0.011729573217579508
2.408,-0.011728563514776648
2.412,-0.011729549177036584
2.416,-0.01173140029884183
2.42,-0.011733900515306057
2.424,-0.011733563947705103
2.428,-0.011733612028790953
2.432,-0.011734357285621637
2.436,-0.011733203339561224
2.44,-0.011731111812326726
2.444,-0.011730606960925295
2.448,-0.011733612028790953
2.452,-0.01173190515024326
2.456,-0.011728154825546918
2.46,-0.011729308771607331
2.464,-0.011729525136493658
2.468,-0.011732169596215437
2.472,-0.01173200131241496
2.476,-0.011730390596038968
2.48,-0.01172971746083706
2.484,-0.011727938460660592
2.488,-0.01172647198754215
2.492,-0.011729044325635153
2.496,-0.011732434042187614
2.5,-0.01173140029884183
2.504,-0.011732482123273465
2.508,-0.0117355593127679
2.512,-0.011735391028967422
2.516,-0.011737722961631173
2.52,-0.011738299934661378
2.524,-0.011736208407426882
2.528,-0.01173464577213674
2.532,-0.011731424339384754
2.536,-0.01173236192055884
2.54,-0.011734549609965039
2.544,-0.011734164961278234
2.548,-0.011738275894118454
2.552,-0.011740439542981727
2.556,-0.011737626799459472
2.56,-0.011733251420647075
2.564,-0.01173281869087442
2.568,-0.01173387647476313
2.572,-0.011733612028790953
2.576,-0.011735823758740077
2.58,-0.011735775677654227
2.584,-0.011734573650507963
2.588,-0.01173529486679572
2.592,-0.01173236192055884
2.596,-0.011733347582818776
2.6,-0.011735366988424497
2.604,-0.011732746569245644
2.608,-0.011730871406897473
2.612,-0.011730510798753594
2.616,-0.011731280096127202
2.62,-0.011732554244902242
2.624,-0.01173241000164469
2.628,-0.011732674447616867
2.632,-0.011731207974498427
2.636,-0.01173241000164469
2.64,-0.011733443744990477
2.644,-0.011733083136846597
2.648,-0.011735847799283003
2.652,-0.011734958299194768
2.656,-0.011736641137199536
2.66,-0.011735126582995244
2.664,-0.011734886177565991
2.668,-0.01173606416416933
2.672,-0.011735126582995244
2.676,-0.011736376691227358
2.68,-0.01173697770480049
2.684,-0.011736400731770284
2.688,-0.011737145988600966
2.692,-0.011735342947881571
2.696,-0.01173332354227585
2.7,-0.01173067908255407
2.704,-0.011730029987895088
2.708,-0.01173387647476313
2.712,-0.011734357285621637
2.716,-0.011732962934131971
2.72,-0.011732530204359316
2.724,-0.011731159893412576
2.728,-0.011728659676948349
2.732,-0.011726351784827524
2.736,-0.011726375825370448
2.74,-0.01172752977143086
2.744,-0.011729188568892705
2.748,-0.011728827960748825
2.7520000000000002,-0.011729044325635153
2.7560000000000002,-0.011729837663551687
2.7600000000000002,-0.011732482123273465
2.7640000000000002,-0.011734405366707487
2.7680000000000002,-0.011734213042364085
2.7720000000000002,-0.01173483809648014
2.7760000000000002,-0.011732073434043736
2.7800000000000002,-0.011729428974321957
2.7840000000000003,-0.011729188568892705
2.7880000000000003,-0.0117287077580342
2.7920000000000003,-0.011725967136140719
2.7960000000000003,-0.011723394798047716
2.8000000000000003,-0.011723515000762342
2.8040000000000003,-0.011724741068451531
2.8080000000000003,-0.011727866339031815
2.8120000000000003,-0.011731304136670128
2.816,-0.011730029987895088
2.82,-0.011726375825370448
2.824,-0.011725197838767111
2.828,-0.011724837230623232
2.832,-0.011727265325458683
2.836,-0.011726255622655822
2.84,-0.011725943095597794
2.844,-0.01172774613631719
2.848,-0.011729597258122434
2.852,-0.011727433609259161
2.856,-0.011726616230799701
2.86,-0.011726928757857729
2.864,-0.011730366555496042
2.868,-0.011732530204359316
2.872,-0.011732337880015913
2.876,-0.011736448812856135
2.88,-0.011738131650860902
2.884,-0.011735968001997629
2.888,-0.011733924555848981
2.892,-0.011731833028614483
2.896,-0.011733443744990477
2.9,-0.011731568582642305
2.904,-0.011730318474410192
2.908,-0.011735078501909394
2.912,-0.011737602758916547
2.916,-0.011736857502085864
2.92,-0.011735487191139123
2.924,-0.01173140029884183
2.928,-0.01172971746083706
2.932,-0.011729573217579508
2.936,-0.011727577852516711
2.94,-0.011728563514776648
2.944,-0.01172921260943563
2.948,-0.011731712825899857
2.952,-0.011731857069157409
2.956,-0.01173428516399286
2.96,-0.011738372056290155
2.964,-0.011737266191315593
2.968,-0.01173387647476313
2.972,-0.01173433324507871
2.976,-0.011734092839649457
2.98,-0.011733107177389523
2.984,-0.011731544542099381
2.988,-0.011729549177036584
2.992,-0.011725197838767111
2.996,-0.01172611137939827
3.0,-0.011730558879839445
3.004,-0.011728852001291751
3.008,-0.011728275028261544
3.012,-0.011724332379221802
3.016,-0.01172707300111528
3.02,-0.01173140029884183
3.024,-0.01172976554192291
3.028,-0.011728635636405424
3.032,-0.011731352217755979
3.036,-0.011732265758387138
3.04,-0.011728515433690797
3.044,-0.011726952798400655
3.048,-0.011727722095774263
3.052,-0.011726616230799701
3.056,-0.011725318041481737
3.06,-0.011729068366178078
3.064,-0.011732482123273465
3.068,-0.011731568582642305
3.072,-0.011734573650507963
3.076,-0.011735006380280619
3.08,-0.011736160326341031
3.084,-0.011739598123979343
3.088,-0.011739141353663763
3.092,-0.011742242583701122
3.096,-0.011744718759622425
3.1,-0.01174337248921861
3.104,-0.011740776110582682
3.108,-0.01173707386697219
3.112,-0.011734814055937216
3.116,-0.01173748255620192
3.12,-0.0117379393265175
3.124,-0.01173606416416933
3.128,-0.011739622164522269
3.132,-0.011740800151125606
3.136,-0.011739862569951522
3.14,-0.011737458515658996
3.144,-0.011734958299194768
3.148,-0.011734213042364085
3.152,-0.011738516299547707
3.156,-0.01173875670497696
3.16,-0.011738660542805259
3.164,-0.011742891678360104
3.168,-0.01174474280016535
3.172,-0.01174342057030446
3.176,-0.011743588854104937
3.18,-0.011742386826958674
3.184,-0.011740439542981727
3.188,-0.011738564380633558
3.192,-0.011735823758740077
3.196,-0.01173606416416933
3.2,-0.011740319340267102
3.204,-0.01173976640777982
3.208,-0.0117401270159237
3.212,-0.01173916539420669
3.216,-0.011740703988953905
3.22,-0.011741208840355337
3.224,-0.011737915285974575
3.228,-0.011738348015747229
3.232,-0.011741737732299692
3.236,-0.011739501961807642
3.24,-0.011738852867148661
3.244,-0.011740078934837849
3.248,-0.011741208840355337
3.2520000000000002,-0.011736496893941984
3.2560000000000002,-0.011733131217932447
3.2600000000000002,-0.011733587988248027
3.2640000000000002,-0.011734765974851366
3.2680000000000002,-0.011732313839472989
3.2720000000000002,-0.011733395663904626
3.2760000000000002,-0.01173433324507871
3.2800000000000002,-0.01173656901557076
3.2840000000000003,-0.01173798740760335
3.2880000000000003,-0.011739622164522269
3.2920000000000003,-0.011740848232211457
3.2960000000000003,-0.011740968434926084
3.3000000000000003,-0.011740872272754383
3.3040000000000003,-0.011742771475645479
3.3080000000000003,-0.011745271692109706
3.3120000000000003,-0.011743685016276638
3.3160000000000003,-0.011741569448499216
3.3200000000000003,-0.01173789124543165
3.3240000000000003,-0.011737819123802874
3.3280000000000003,-0.011738131650860902
3.332,-0.011736665177742462
3.336,-0.011738876907691586
3.34,-0.011738227813032603
3.344,-0.011738299934661378
3.348,-0.011737819123802874
3.352,-0.01173976640777982
3.356,-0.011739934691580297
3.36,-0.01174209834044357
3.364,-0.011740102975380773
3.368,-0.011736328610141507
3.372,-0.01173844417791893
3.376,-0.01173647285339906
3.38,-0.011737602758916547
3.384,-0.011735775677654227
3.388,-0.011737314272401444
3.392,-0.011737410434573145
3.396,-0.011735799718197153
3.4,-0.011737722961631173
3.404,-0.011736352650684434
3.408,-0.011733251420647075
3.412,-0.0117310877717838
3.416,-0.011733804353134356
3.42,-0.011734525569422113
3.424,-0.011733035055760746
3.428,-0.011733924555848981
3.432,-0.011736184366883956
3.436,-0.011735895880368852
3.44,-0.011733011015217822
3.444,-0.011733107177389523
3.448,-0.011734693853222589
3.452,-0.011734814055937216
3.456,-0.011731472420470604
3.46,-0.011729693420294136
3.464,-0.011730703123096996
3.468,-0.01173241000164469
3.472,-0.011731376258298903
3.476,-0.011728226947175693
3.48,-0.01172779421740304
3.484,-0.011728827960748825
3.488,-0.011733155258475373
3.492,-0.011733756272048505
3.496,-0.011735126582995244
3.5,-0.01173433324507871
3.504,-0.011734477488336262
3.508,-0.011735126582995244
3.512,-0.011734381326164561
3.516,-0.011732794650331495
3.52,-0.011731664744814007
3.524,-0.011729789582465837
3.528,-0.011730510798753594
3.532,-0.011734116880192384
3.536,-0.01173459769105089
3.54,-0.011731616663728156
3.544,-0.01173067908255407
3.548,-0.011728659676948349
3.552,-0.011729236649978556
3.556,-0.011733299501732925
3.56,-0.011735823758740077
3.564,-0.011739045191492062
3.568,-0.01173926155637839
3.572,-0.01173894902932036
3.576,-0.011735366988424497
3.58,-0.011734164961278234
3.584,-0.011733636069333878
3.588,-0.011733443744990477
3.592,-0.011733924555848981
3.596,-0.011735318907338647
3.6,-0.011734261123449935
3.604,-0.011734573650507963
3.608,-0.011737578718373621
3.612,-0.011738059529232127
3.616,-0.011733972636934832
3.62,-0.011729933825723387
3.624,-0.011726399865913374
3.628,-0.011724837230623232
3.632,-0.011727938460660592
3.636,-0.011730198271695566
3.64,-0.011728275028261544
3.644,-0.01173022231223849
3.648,-0.011730486758210668
3.652,-0.011730318474410192
3.656,-0.011730029987895088
3.66,-0.011728779879662974
3.664,-0.011726640271342627
3.668,-0.011728515433690797
3.672,-0.011728515433690797
3.676,-0.011729428974321957
3.68,-0.011730005947352164
3.684,-0.011731929190786184
3.688,-0.011733203339561224
3.692,-0.011731736866442782
3.696,-0.01172921260943563
3.7,-0.011730606960925295
3.704,-0.011728226947175693
3.708,-0.01172505359550956
3.712,-0.011726279663198747
3.716,-0.011723466919676491
3.72,-0.011726159460484121
3.724,-0.011726375825370448
3.728,-0.011724837230623232
3.732,-0.011725077636052484
3.736,-0.011721976406015126
3.74,-0.01172286590610336
3.744,-0.011723515000762342
3.748,-0.011725582487453916
3.7520000000000002,-0.011726880676771878
3.7560000000000002,-0.011727505730887936
3.7600000000000002,-0.011722673581759957
3.7640000000000002,-0.01172094266266934
3.7680000000000002,-0.01171998104095233
3.7720000000000002,-0.011720269527467431
3.7760000000000002,-0.011720389730182058
3.7800000000000002,-0.011719932959866479
3.7840000000000003,-0.011723490960219417
3.7880000000000003,-0.011724717027908605
3.7920000000000003,-0.011727938460660592
3.7960000000000003,-0.011728323109347395
3.8000000000000003,-0.01172774613631719
3.8040000000000003,-0.011725678649625615
3.8080000000000003,-0.01172053397343961
3.8120000000000003,-0.011719644473351375
3.8160000000000003,-0.011720101243666955
3.8200000000000003,-0.011719500230093823
3.8240000000000003,-0.01172002912203818
3.8280000000000003,-0.011719452149007973
3.8320000000000003,-0.01171971659498015
3.8360000000000003,-0.011716182635170137
3.84,-0.011714764243137547
3.844,-0.011714403634993667
3.848,-0.011714067067392715
3.852,-0.011716182635170137
3.856,-0.011716447081142315
3.86,-0.011721183068098592
3.864,-0.011721423473527845
3.868,-0.01171925982466457
3.872,-0.011719355986836271
3.876,-0.011717649108288578
3.88,-0.011718851135434841
3.884,-0.011718153959690008
3.888,-0.01172245721687363
3.892,-0.011726544109170926
3.896,-0.011723827527820372
3.9,-0.01172190428438635
3.904,-0.011722433176330706
3.908,-0.011721880243843425
3.912,-0.011720461851810833
3.916,-0.011720269527467431
3.92,-0.011716783648743269
3.924,-0.011714331513364892
3.928,-0.0117127207969889
3.932,-0.011715341216167753
3.936,-0.011716543243314016
3.94,-0.011713802621420535
3.944,-0.011712095742872842
3.948,-0.011711326445499234
3.952,-0.011713442013276657
3.956,-0.011712672715903049
3.96,-0.01171226402667332
3.964,-0.011711230283327533
3.968,-0.01171322564839033
3.972,-0.0117105331075827
3.976,-0.011709835931837867
3.98,-0.011711134121155832
3.984,-0.011710629269754401
3.988,-0.011709739769666166
3.992,-0.011710268661610523
3.996,-0.011710100377810045
4.0,-0.011709234918264736
4.0040000000000004,-0.011706277931484928
4.008,-0.011704378728593832
4.0120000000000005,-0.011705989444969825
4.016,-0.011706013485512751
4.0200000000000005,-0.011706590458542956
4.024,-0.011707624201888743
4.0280000000000005,-0.011707864607317996
4.032,-0.011706205809856153
4.0360000000000005,-0.011704522971851384
4.04,-0.011708032891118473
4.0440000000000005,-0.011704162363707506
4.048,-0.011702479525702737
4.0520000000000005,-0.011705244188139141
4.056,-0.011706902985600986
4.0600000000000005,-0.011707167431573164
4.064,-0.011706710661257584
4.0680000000000005,-0.01170454701239431
4.072,-0.011703032458190018
4.0760000000000005,-0.011705364390853769
4.08,-0.011707215512659014
4.0840000000000005,-0.011710509067039776
4.088,-0.011709715729123242
4.0920000000000005,-0.011711206242784608
4.096,-0.011709210877721811
4.1,-0.011704042160992878
4.104,-0.011702671850046139
4.108,-0.011703152660904645
4.112,-0.011702984377104167
4.116,-0.011700700525526268
4.12,-0.011702118917558858
4.124,-0.011702575687874438
4.128,-0.011706951066686837
4.132,-0.011707912688403847
4.136,-0.01170647025582833
4.14,-0.01170692702614391
4.144,-0.011705700958454723
4.148,-0.011703465187962673
4.152,-0.011707023188315612
4.156,-0.011708369458719427
4.16,-0.011708441580348202
4.164,-0.01170788864786092
4.168,-0.011707047228858536
4.172,-0.01170916279663596
4.176,-0.011712648675360123
4.18,-0.011712119783415768
4.184,-0.011712576553731348
4.188,-0.011712239986130394
4.192,-0.011709715729123242
4.196,-0.011709355120979363
4.2,-0.011711879377986515
4.204,-0.011712071702329917
4.208,-0.01170788864786092
4.212,-0.011706686620714658
4.216,-0.01170687894505806
4.22,-0.011707311674830715
4.224,-0.011707912688403847
4.228,-0.011709403202065214
4.232,-0.011708393499262351
4.236,-0.011707119350487313
4.24,-0.01170683086397221
4.244,-0.011704667215108936
4.248,-0.011706806823429285
4.252,-0.011710172499438821
4.256,-0.011711278364413383
4.26,-0.0117105331075827
4.264,-0.011712576553731348
4.268,-0.011709691688580316
4.272,-0.011706734701800508
4.276,-0.011706181769313227
4.28,-0.011711254323870457
4.284,-0.011716495162228165
4.288,-0.011717552946116877
4.292,-0.011717697189374428
4.296,-0.011714956567480948
4.3,-0.011713466053819583
4.304,-0.01171149472929971
4.308,-0.011711061999527057
4.312,-0.011712648675360123
4.316,-0.011713297770019105
4.32,-0.011712288067216244
4.324,-0.011707936728946771
4.328,-0.011705316309767918
4.332,-0.011708129053290174
4.336,-0.011708706026320381
4.34,-0.011710172499438821
4.344,-0.011709475323693989
4.348,-0.011703897917735328
4.352,-0.0116898822812099
4.356,-0.0116830307264762
4.36,-0.011667764981718657
4.364,-0.01168084303707
4.368,-0.011702455485159812
4.372,-0.01171103795898413
4.376,-0.011714379594450743
4.38,-0.01171596627028381
4.384,-0.011719476189550899
4.388,-0.011716543243314016
4.392,-0.011710292702153447
4.396,-0.01170728763428779
4.4,-0.011706638539628807
4.404,-0.01170495570162404
4.408,-0.011703801755563627
4.412,-0.01170495570162404
4.416,-0.011703417106876822
4.42,-0.011701686187786203
4.424,-0.011703489228505597
4.428,-0.011705196107053293
4.432,-0.011704090242078729
4.436,-0.011704522971851384
4.44,-0.011703633471763149
4.444,-0.011706686620714658
4.448,-0.011702335282445185
4.452,-0.01169774353874646
4.456,-0.01169952253892293
4.46,-0.011698272430690815
4.464,-0.011698176268519114
4.468,-0.01170134962018525
4.472,-0.011690459254240105
4.476,-0.011695579889883187
4.48,-0.011715461418882378
4.484,-0.011693007551790183
4.488,-0.01168170849661531
4.492,-0.011703633471763149
4.496,-0.011696253025085094
4.5,-0.011677886050290192
4.5040000000000004,-0.011676491698800527
4.508,-0.01169404129513597
4.5120000000000005,-0.011703753674477776
4.516,-0.011701109214755997
4.5200000000000005,-0.01171231210775917
4.524,-0.01171788951371783
4.5280000000000005,-0.01171829820294756
4.532,-0.011718562648919737
4.5360000000000005,-0.011714067067392715
4.54,-0.011711614932014338
4.5440000000000005,-0.01170860986414868
4.548,-0.011695652011511962
4.5520000000000005,-0.011698849403721023
4.556,-0.011661298075671761
4.5600000000000005,-0.01157665132403191
4.564,-0.011575160810370543
4.5680000000000005,-0.011641320384500867
4.572,-0.011709643607494465
4.5760000000000005,-0.011736761339914163
4.58,-0.011656802494144736
4.5840000000000005,-0.011629973248240144
4.588,-0.011702551647331513
4.5920000000000005,-0.01173281869087442
4.596,-0.011743396529761535
4.6000000000000005,-0.011747363219344203
4.604,-0.011733972636934832
4.6080000000000005,-0.011721231149184443
4.612,-0.01171221594558747
4.616,-0.011712239986130394
4.62,-0.011713297770019105
4.624,-0.011708321377633576
4.628,-0.011703849836649478
4.632,-0.011704787417823562
4.636,-0.011693055632876034
4.64,-0.011671899955101803
4.644,-0.011677813928661417
4.648,-0.011645527479512788
4.652,-0.011681588293900683
4.656,-0.011713369891647882
4.66,-0.011631704167330762
4.664,-0.011572804837163867
4.668,-0.011630333856384022
4.672,-0.011606004826943656
4.676,-0.011616582665830771
4.68,-0.011688752375692411
4.684,-0.011752411733358508
4.688,-0.011755224476880764
4.692,-0.011757412166286963
4.696,-0.011740078934837849
4.7,-0.011734573650507963
4.704,-0.011730462717667743
4.708,-0.01171464404042292
4.712,-0.011704522971851384
4.716,-0.011702503566245663
4.72,-0.011701085174213071
4.724,-0.011698993646978574
4.728,-0.011678583226035025
4.732,-0.011641007857442839
4.736,-0.01150614041163211
4.74,-0.01148157097676249
4.744,-0.011696108781827542
4.748,-0.011726640271342627
4.752,-0.011616702868545398
4.756,-0.011586027135772762
4.76,-0.011613409314164637
4.764,-0.011691565119214667
4.768,-0.01177474539773608
4.772,-0.011783087466131147
4.776,-0.011728924122920526
4.78,-0.011679953536981766
4.784,-0.011691444916500041
4.788,-0.01171007633726712
4.792,-0.01168993036229575
4.796,-0.011667644779004031
4.8,-0.011638243195006434
4.804,-0.011681179604670954
4.808,-0.011601653488674183
4.812,-0.011664279102994494
4.816,-0.011728467352604946
4.82,-0.011753036787474566
4.824,-0.011654470561480987
4.828,-0.011452169392764892
4.832,-0.011394351887029634
4.836,-0.01161648650365907
4.84,-0.011697455052231357
4.844,-0.011719115581407018
4.848,-0.011798233008174062
4.852,-0.01179936291369155
4.856,-0.011745464016453109
4.86,-0.011738732664434034
4.864,-0.011718057797518307
4.868,-0.01169541160608271
4.872,-0.011690315010982553
4.876,-0.011695435646625636
4.88,-0.011706350053113705
4.884,-0.01168819944320513
4.888,-0.011595643352942867
4.892,-0.011477243679035944
4.896,-0.011616606706373697
4.9,-0.011710292702153447
4.904,-0.011743516732476162
4.908,-0.011641801195359373
4.912,-0.011636848843516769
4.916,-0.011702142958101784
4.92,-0.0117081530938331
4.924,-0.011521285953675025
4.928,-0.01140223718510912
4.932,-0.01158811866300726
4.936,-0.01174342057030446
4.94,-0.011818234739887882
4.944,-0.01186321459570105
4.948,-0.011792775804930027
4.952,-0.011718153959690008
4.956,-0.011757195801400637
4.96,-0.011777510060172487
4.964,-0.011766547572598563
4.968,-0.011761523099127183
4.972,-0.01174743534097298
4.976,-0.011738780745519884
4.98,-0.011733275461189999
4.984,-0.011730751204182847
4.988,-0.011719091540864094
4.992,-0.011715389297253603
4.996,-0.01172875583912005
5.0,-0.011723827527820372
5.0040000000000004,-0.011717817392089056
5.008,-0.011715629702682856
5.0120000000000005,-0.011708393499262351
5.016,-0.011596484771945251
5.0200000000000005,-0.011445870770518472
5.024,-0.011698224349604965
5.0280000000000005,-0.011744454313650246
5.032,-0.01173291485304612
5.0360000000000005,-0.011787967696344975
5.04,-0.011726039257769496
5.0440000000000005,-0.011559149808782315
5.048,-0.011475416597773623
5.0520000000000005,-0.01169678191702945
5.056,-0.011813570874560381
5.0600000000000005,-0.011835519890251146
5.064,-0.011808161752402197
5.0680000000000005,-0.011764672410250393
5.072,-0.011739285596921315
5.0760000000000005,-0.011722769743931659
5.08,-0.011714547878251219
5.0840000000000005,-0.01171190341852944
5.088,-0.011714331513364892
5.0920000000000005,-0.011701782349957904
5.096,-0.011684929929367295
5.1000000000000005,-0.011620068544554935
5.104,-0.011670890252298942
5.1080000000000005,-0.011726135419941197
5.112,-0.011741329043069963
5.1160000000000005,-0.011742891678360104
5.12,-0.011723034189903838
5.124,-0.011633098518820427
5.128,-0.011636656519173366
5.132,-0.011674376131023104
5.136,-0.011673101982248066
5.14,-0.011775081965337034
5.144,-0.011792270953528597
5.148,-0.011720053162581104
5.152,-0.011707191472116088
5.156,-0.011754118611906202
5.16,-0.011756234179683626
5.164,-0.011743901381162965
5.168,-0.011749238381692374
5.172,-0.011700051430867286
5.176,-0.011672380765960307
5.18,-0.011661947170330743
5.184,-0.011701541944528653
5.188,-0.011700315876839463
5.192,-0.011688728335149487
5.196,-0.011670024792753631
5.2,-0.011689521673066021
5.204,-0.011571458566760052
5.208,-0.011671611468586699
5.212,-0.01181128702298248
5.216,-0.011823211132273411
5.22,-0.01179835321088869
5.224,-0.011777197533114457
5.228,-0.011762292396500793
5.232,-0.0117469785706574
5.236,-0.011732962934131971
5.24,-0.01172784229848889
5.244,-0.011726135419941197
5.248,-0.011721736000585873
5.252,-0.011717504865031026
5.256,-0.011714259391736115
5.26,-0.0117082492560048
5.264,-0.011709739769666166
5.268,-0.011711158161698758
5.272,-0.011695195241196383
5.276,-0.011723779446734521
5.28,-0.011752676179330688
5.284,-0.011692094011159023
5.288,-0.011633555289136007
5.292,-0.011637930667948404
5.296,-0.011708273296547726
5.3,-0.011689545713608945
5.304,-0.011506020208917484
5.308,-0.011550062483556566
5.312,-0.011707239553201939
5.316,-0.01179479521053575
5.32,-0.011775370451852138
5.324,-0.011755873571539746
5.328,-0.011749454746578701
5.332,-0.011750849098068367
5.336,-0.01174255511075915
5.34,-0.011729645339208285
5.344,-0.011722938027732136
5.348,-0.011711398567128009
5.352,-0.011704931661081113
5.356,-0.011705172066510366
5.36,-0.01170327286361927
5.364,-0.011691204511070788
5.368,-0.01166536092742613
5.372,-0.011673414509306094
5.376,-0.011697166565716254
5.38,-0.011630430018555724
5.384,-0.011583310554422207
5.388,-0.011492918113023215
5.392,-0.011507895371265654
5.396,-0.011666178305885589
5.4,-0.011713057364589852
5.404,-0.01173459769105089
5.408,-0.011769576681007149
5.412,-0.011750151922323534
5.416,-0.011710965837355355
5.42,-0.011694425943822773
5.424,-0.011693824930249641
5.428,-0.011671419144243297
5.432,-0.011678607266577951
5.436,-0.011697334849516731
5.44,-0.011687213780945194
5.444,-0.01167800625300482
5.448,-0.011648220020320418
5.452,-0.011611510111273541
5.456,-0.01166632254914314
5.46,-0.011675433914911815
5.464,-0.011678895753093053
5.468,-0.011684833767195594
5.472,-0.011612351530275926
5.476,-0.01154258587470681
5.48,-0.0115757858644866
5.484,-0.011687574389089074
5.488,-0.011725991176683645
5.492,-0.011733467785533401
5.496,-0.011730606960925295
5.5,-0.011714283432279041
5.5040000000000004,-0.011700676484983342
5.508,-0.011687670551260776
5.5120000000000005,-0.01168134788847143
5.516,-0.011676395536628826
5.5200000000000005,-0.011672909657904663
5.524,-0.011671419144243297
5.5280000000000005,-0.011668654481806892
5.532,-0.011666899522173348
5.5360000000000005,-0.011660648981012779
5.54,-0.011651297209814851
5.5440000000000005,-0.011670673887412613
5.548,-0.011679761212638364
5.5520000000000005,-0.0116854107402258
5.556,-0.01169185360572977
5.5600000000000005,-0.011685915591627231
5.564,-0.011671827833473026
5.5680000000000005,-0.011656874615773513
5.572,-0.01167891979363598
5.5760000000000005,-0.011658485332149505
5.58,-0.011632617707961921
5.5840000000000005,-0.011652306912617713
5.588,-0.011672981779533438
5.5920000000000005,-0.011696493430514347
5.596,-0.01169271906527508
5.6000000000000005,-0.011686348321399885
5.604,-0.011690771781298135
5.6080000000000005,-0.011692045930073173
5.612,-0.011689449551437244
5.6160000000000005,-0.011683199010276675
5.62,-0.011687574389089074
5.6240000000000006,-0.011686925294430092
5.628,-0.011683271131905452
5.632,-0.011678174536805296
5.636,-0.011656994818488139
5.64,-0.011651994385559684
5.644,-0.011614875787283077
5.648,-0.011654783088539015
5.652,-0.011690579456954732
5.656,-0.011676347455542977
5.66,-0.011673294306591468
5.664,-0.011701157295841848
5.668,-0.011665601332855383
5.672,-0.011627977883177347
5.676,-0.011686901253887166
5.68,-0.011724957433337858
5.684,-0.01173464577213674
5.688,-0.01175159435489905
5.692,-0.011750031719608908
5.696,-0.0117127207969889
5.7,-0.011685530942940427
5.704,-0.011695387565539785
5.708,-0.011695243322282233
5.712,-0.011690218848810852
5.716,-0.011687934997232953
5.72,-0.01168581942945553
5.724,-0.011687598429631999
5.728,-0.011689810159581123
5.732,-0.011693464322105763
5.736,-0.01169668575485775
5.74,-0.011693800889706717
5.744,-0.011688247524290981
5.748,-0.011681107483042179
5.752,-0.011650575993527094
5.756,-0.011647426682403884
5.76,-0.01168399234819321
5.764,-0.011701662147243278
5.768,-0.011708585823605754
5.772,-0.011730390596038968
5.776,-0.011730558879839445
5.78,-0.011718057797518307
5.784,-0.011692142092244874
5.788,-0.011690098646096226
5.792,-0.011705749039540574
5.796,-0.011706782782886359
5.8,-0.011712119783415768
5.804,-0.011719476189550899
5.808,-0.011720750338325937
5.812,-0.011716447081142315
5.816,-0.011688848537864113
5.82,-0.011680987280327551
5.824,-0.011665577292312457
5.828,-0.011642858979248084
5.832,-0.0116898822812099
5.836,-0.011722240851987304
5.84,-0.011713249688933254
5.844,-0.011742747435102553
5.848,-0.011730078068980939
5.852,-0.01170495570162404
5.856,-0.01171606243245551
5.86,-0.011717576986659803
5.864,-0.011695531808797337
5.868,-0.011685242456425323
5.872,-0.011705075904338665
5.876,-0.011709042593921333
5.88,-0.011704114282621655
5.884,-0.011703681552849
5.888,-0.011705316309767918
5.892,-0.011701421741814025
5.896,-0.011695627970969036
5.9,-0.011690218848810852
5.904,-0.01169134875432834
5.908,-0.011692863308532631
5.912,-0.01169303159233311
5.916,-0.01169271906527508
5.92,-0.011677910090833118
5.924,-0.01168774267288955
5.928,-0.011694522105994474
5.932,-0.011698945565892724
5.936,-0.011695387565539785
5.94,-0.011691565119214667
5.944,-0.011683295172448377
5.948,-0.011683487496791779
5.952,-0.011690363092068404
5.956,-0.011687526308003224
5.96,-0.011687838835061252
5.964,-0.011697214646802104
5.968,-0.011674111685050927
5.972,-0.011689641875780647
5.976,-0.011713658378162984
5.98,-0.011702046795930083
5.984,-0.011702142958101784
5.988,-0.011710821594097804
5.992,-0.011699378295665377
5.996,-0.011690242889353778
6.0,-0.011711278364413383
6.0040000000000004,-0.011717552946116877
6.008,-0.01172291398718921
6.0120000000000005,-0.011725005514423709
6.016,-0.011725534406368065
6.0200000000000005,-0.011723755406191595
6.024,-0.01172236105470193
6.0280000000000005,-0.011724741068451531
6.032,-0.011722625500674108
6.0360000000000005,-0.01172240913578778
6.04,-0.011716182635170137
6.0440000000000005,-0.011710845634640728
6.048,-0.011718971338149468
6.0520000000000005,-0.011691180470527864
6.056,-0.011686612767372062
6.0600000000000005,-0.011731280096127202
6.064,-0.011742338745872823
6.0680000000000005,-0.011730919487983323
6.072,-0.011725630568539766
6.0760000000000005,-0.011730558879839445
6.08,-0.011733732231505579
6.0840000000000005,-0.011733612028790953
6.088,-0.011730606960925295
6.0920000000000005,-0.011732265758387138
6.096,-0.011734982339737693
6.1000000000000005,-0.011736905583171715
6.104,-0.011735415069510348
6.1080000000000005,-0.011718466486748036
6.112,-0.011716543243314016
6.1160000000000005,-0.011709210877721811
6.12,-0.011730054028438014
6.1240000000000006,-0.011761907747813988
6.128,-0.011764335842649439
6.132000000000001,-0.011749142219520673
6.136,-0.011746305435455491
6.140000000000001,-0.011753950328105726
6.144,-0.011755849530996822
6.148,-0.01175524851742369
6.152,-0.011751498192727349
6.156,-0.011749743233093805
6.16,-0.011759623896236087
6.164,-0.011753950328105726
6.168,-0.01173464577213674
6.172,-0.01174337248921861
6.176,-0.011752435773901435
6.18,-0.011753445476704295
6.184,-0.011748421003232916
6.188,-0.0117172885001447
6.192,-0.011689305308179692
6.196,-0.01175397436864865
6.2,-0.011760753801753576
6.204,-0.011741761772842618
6.208,-0.011752387692815584
6.212,-0.01175762853117329
6.216,-0.011764239680477738
6.22,-0.011769937289151027
6.224,-0.011770033451322728
6.228,-0.011768735262004764
6.232,-0.011765561910338628
6.236,-0.011764456045364066
6.24,-0.011770394059466607
6.244,-0.011769817086436402
6.248,-0.011769961329693953
6.252,-0.011768494856575513
6.256,-0.011765489788709851
6.26,-0.011770706586524637
6.264,-0.011753373355075519
6.268,-0.01175666690945628
6.272,-0.011751810719785377
6.276,-0.01175255597661606
6.28,-0.011758926720491255
6.284,-0.011773711654390295
6.288,-0.011774120343620024
6.292,-0.011775875303253568
6.296,-0.01177652439791255
6.3,-0.011766475450969788
6.304,-0.01176210007215739
6.308,-0.011776163789768672
6.312,-0.011773663573304444
6.316,-0.011774721357193155
6.32,-0.011782798979616043
6.324,-0.011782438371472165
6.328,-0.011781524830841005
6.332,-0.011777726425058813
6.336,-0.011786068493453879
6.34,-0.011755561044481718
6.344,-0.011752748300959463
6.348,-0.01173880478606281
6.352,-0.011735126582995244
6.356,-0.01176173946401351
6.36,-0.011777558141258337
6.364,-0.011793400859046085
6.368,-0.011792799845472953
6.372,-0.011779240979263104
6.376,-0.011775851262710642
6.38,-0.011770778708153412
6.384,-0.011765970599568357
6.388,-0.011751882841414154
6.392,-0.011753565679418921
6.396,-0.011769985370236878
6.4,-0.011769937289151027
6.404,-0.011772437505615255
6.408,-0.011772052856928452
6.412,-0.011775322370766287
6.416,-0.011754671544393483
6.42,-0.011759455612435611
6.424,-0.011764095437220188
6.428,-0.011749358584407
6.432,-0.011748012314003185
6.436,-0.011754551341678857
6.44,-0.011768855464719391
6.444,-0.01178840042611763
6.448,-0.011791453575069138
6.452,-0.011783688479704279
6.456,-0.01178611657453973
6.46,-0.011788376385574706
6.464,-0.011781428668669304
6.468,-0.011773543370589817
6.472,-0.011775394492395062
6.476,-0.011777413898000785
6.48,-0.01177871208731875
6.484,-0.011778952492748001
6.488,-0.011777726425058813
6.492,-0.01177967370903576
6.496,-0.011785683844767076
6.5,-0.011790371750637501
6.5040000000000004,-0.011764287761563588
6.508,-0.0117539262875628
6.5120000000000005,-0.011752748300959463
6.516,-0.011773519330046892
6.5200000000000005,-0.011773952059819548
6.524,-0.011758253585289348
6.5280000000000005,-0.011778423600803646
6.532,-0.011785780006938777
6.5360000000000005,-0.01178205372278536
6.54,-0.011784890506850542
6.5440000000000005,-0.011777534100715411
6.548,-0.011774649235564379
6.5520000000000005,-0.011774312667963426
6.556,-0.011767316869972174
6.5600000000000005,-0.011761402896412558
6.564,-0.011752171327929255
6.5680000000000005,-0.011746666043599372
6.572,-0.011759287328635135
6.5760000000000005,-0.0117538301253911
6.58,-0.011718274162404636
6.5840000000000005,-0.011711326445499234
6.588,-0.011746377557084268
6.5920000000000005,-0.011777606222344186
6.596,-0.011790011142493622
6.6000000000000005,-0.011786332939426058
6.604,-0.011778038952116841
6.6080000000000005,-0.011769288194492045
6.612,-0.011764720491336244
6.6160000000000005,-0.01176871122146184
6.62,-0.011783616358075502
6.6240000000000006,-0.011762027950528614
6.628,-0.011757604490630366
6.632000000000001,-0.01175712367977186
6.636,-0.0117515462738132
6.640000000000001,-0.011747579584230531
6.644,-0.011761426936955482
6.648000000000001,-0.011767701518658979
6.652,-0.011765946559025431
6.656000000000001,-0.011770538302724159
6.66,-0.011771475883898245
6.664,-0.01177022577566613
6.668,-0.011771620127155796
6.672,-0.011772173059643077
6.676,-0.011770778708153412
6.68,-0.011771331640640693
6.684,-0.011770105572951505
6.688,-0.011750704854810815
6.692,-0.011729116447263929
6.696,-0.011743132083789357
6.7,-0.011756402463484103
6.704,-0.011760297031437996
6.708,-0.011760898045011127
6.712,-0.011776788843884728
6.716,-0.011784049087848157
6.72,-0.011779793911750385
6.724,-0.011779962195550863
6.728,-0.011770706586524637
6.732,-0.011762316437043717
6.736,-0.011757243882486487
6.74,-0.01171930790575042
6.744,-0.011737001745343416
6.748,-0.01176402331559141
6.752,-0.011786140615082655
6.756,-0.011802223738299656
6.76,-0.011798305129802839
6.764,-0.011789626493806818
6.768,-0.011782414330929239
6.772,-0.011777005208771054
6.776,-0.011777582181801262
6.78,-0.011776500357369624
6.784,-0.011772100938014302
6.788,-0.011776043587054044
6.792,-0.011775442573480913
6.796,-0.011776692681713026
6.8,-0.011773663573304444
6.804,-0.01176666777531319
6.808,-0.011764960896765497
6.812,-0.011766355248255162
6.816,-0.01176666777531319
6.82,-0.011760922085554052
6.824,-0.011761499058584259
6.828,-0.011772004775842601
6.832,-0.011777221573657383
6.836,-0.011768038086259931
6.84,-0.011766980302371218
6.844,-0.011767965964631156
6.848,-0.011782774939073119
6.852,-0.011767196667257548
6.856,-0.011758037220403021
6.86,-0.011779048654919702
6.864,-0.011780418965866443
6.868,-0.011784025047305233
6.872,-0.011786693547569936
6.876,-0.011784433736534962
6.88,-0.011777966830488066
6.884,-0.01177455307339268
6.888,-0.011772052856928452
6.892,-0.011764215639934813
6.896,-0.011749767273636729
6.9,-0.011757364085201113
6.904,-0.011770105572951505
6.908,-0.011789193764034164
6.912,-0.011798184927088212
6.916,-0.011776788843884728
6.92,-0.011768014045717007
6.924,-0.011772461546158181
6.928,-0.01177505792479411
6.932,-0.011775322370766287
6.936,-0.011774048221991247
6.94,-0.01177022577566613
6.944,-0.011769095870148644
6.948,-0.011764407964278216
6.952,-0.011764576248078692
6.956,-0.01175346951724722
6.96,-0.011737963367060426
6.964,-0.011764648369707469
6.968,-0.01177327892461764
6.972,-0.011772990438102536
6.976,-0.011772221140728928
6.98,-0.011771475883898245
6.984,-0.011778111073745618
6.988,-0.011790059223579473
6.992,-0.011772028816385526
6.996,-0.011772798113759133
7.0,-0.011779024614376778
7.0040000000000004,-0.011785683844767076
7.008,-0.01178520303390857
7.0120000000000005,-0.01177702924931398
7.016,-0.01176875930254769
7.0200000000000005,-0.011767893843002381
7.024,-0.011770057491865655
7.0280000000000005,-0.01177186053258505
7.032,-0.011771019113582665
7.0360000000000005,-0.011762532801930044
7.04,-0.01176921607286327
7.0440000000000005,-0.011780611290209844
7.048,-0.011780058357722563
7.0520000000000005,-0.01177332700570349
7.056,-0.011758758436690778
7.0600000000000005,-0.011757700652802067
7.064,-0.011772942357016685
7.0680000000000005,-0.011785082831193944
7.072,-0.011789265885662939
7.0760000000000005,-0.011789458210006341
7.08,-0.011787366682771843
7.0840000000000005,-0.01177597146542527
7.088,-0.011759287328635135
7.0920000000000005,-0.011765225342737674
7.096,-0.011776500357369624
7.1000000000000005,-0.01177871208731875
7.104,-0.011780563209123995
7.1080000000000005,-0.011777317735829084
7.112,-0.011776788843884728
7.1160000000000005,-0.011782342209300464
7.12,-0.011784890506850542
7.1240000000000006,-0.011784890506850542
7.128,-0.011780995938896649
7.132000000000001,-0.011780803614553246
7.136,-0.011782438371472165
7.140000000000001,-0.0117811401821542
7.144,-0.011777245614200307
7.148000000000001,-0.0117607778422965
7.152,-0.011778976533290927
7.156000000000001,-0.011784169290562784
7.16,-0.01178255857418679
7.164000000000001,-0.011787751331458648
7.168,-0.011788544669375182
7.172,-0.011781933520070734
7.176,-0.011767413032143875
7.18,-0.011757291963572338
7.184,-0.011784818385221765
7.188,-0.011794146115876768
7.192,-0.011792391156243224
7.196,-0.011791165088554035
7.2,-0.011790467912809202
7.204,-0.01178698203408504
7.208,-0.011785154952822719
7.212,-0.011794506724020647
7.216,-0.011788712953175658
7.22,-0.011794314399677245
7.224,-0.011798641697403791
7.228,-0.011797343508085829
7.232,-0.011795396224108882
7.236,-0.011795107737593779
7.24,-0.011795684710623984
7.244,-0.011789626493806818
7.248,-0.011781476749755155
7.252,-0.01178255857418679
7.256,-0.011784938587936392
7.26,-0.011791309331811587
7.264,-0.011801478481468973
7.268,-0.011798545535232092
7.272,-0.011797752197315558
7.276,-0.01179373742664704
7.28,-0.011795227940308404
7.284,-0.011795540467366434
7.288,-0.01179570875116691
7.292,-0.011801093832782168
7.296,-0.011800805346267066
7.3,-0.011804243143905378
7.304,-0.011807320333399813
7.308,-0.011805036481821912
7.312,-0.011799242710976923
7.316,-0.011794819251078675
7.32,-0.011797439670257528
7.324,-0.011787102236799666
7.328,-0.011788520628832256
7.332,-0.01179794452165896
7.336,-0.0117901794262941
7.34,-0.01177698116822813
7.344,-0.011799002305547672
7.348,-0.011806406792768653
7.352,-0.011801911211241628
7.356,-0.01179566067008106
7.36,-0.011798785940661343
7.364,-0.011804002738476127
7.368,-0.011799386954234475
7.372,-0.011789987101950698
7.376,-0.0117878955747162
7.38,-0.011761426936955482
7.384,-0.011764504126449917
7.388,-0.011782726857987268
7.392,-0.011779793911750385
7.396,-0.011775322370766287
7.4,-0.011784722223050065
7.404,-0.011788135980145453
7.408,-0.011783424033732101
7.412,-0.011777053289856905
7.416,-0.011777245614200307
7.42,-0.011775586816738464
7.424,-0.011771548005527021
7.428,-0.01176666777531319
7.432,-0.011762749166816373
7.436,-0.011761571180213034
7.44,-0.011762220274872016
7.444,-0.011763782910162158
7.448,-0.011759792180036565
7.452,-0.011755440841767092
7.456,-0.011744959165051676
7.46,-0.011745175529938005
7.464,-0.011747723827488083
7.468,-0.011734429407250412
7.472,-0.011740463583524654
7.476,-0.011747146854457876
7.48,-0.011751834760328303
7.484,-0.011761619261298885
7.488,-0.011739982772666148
7.492,-0.011740655907868056
7.496,-0.011739285596921315
7.5,-0.011727722095774263
7.5040000000000004,-0.01171555758105408
7.508,-0.011722337014159005
7.5120000000000005,-0.011730967569069174
7.516,-0.011736304569598583
7.5200000000000005,-0.01173849225900478
7.524,-0.011731808988071558
7.5280000000000005,-0.011722625500674108
7.532,-0.011716783648743269
7.5360000000000005,-0.011720149324752805
7.54,-0.01172784229848889
7.5440000000000005,-0.011742747435102553
7.548,-0.011737458515658996
7.5520000000000005,-0.011722144689815603
7.556,-0.011734717893765515
7.5600000000000005,-0.011740078934837849
7.564,-0.011736328610141507
7.5680000000000005,-0.01173697770480049
7.572,-0.011719428108465048
7.5760000000000005,-0.011720173365295732
7.58,-0.011745031286680453
7.5840000000000005,-0.01175351759833307
7.588,-0.01175798913931717
7.5920000000000005,-0.011753637801047698
7.596,-0.011747964232917334
7.6000000000000005,-0.01175159435489905
7.604,-0.011746666043599372
7.6080000000000005,-0.011740703988953905
7.612,-0.011753709922676473
7.6160000000000005,-0.01175767661225914
7.62,-0.011741833894471393
7.6240000000000006,-0.011747507462601755
7.628,-0.011749238381692374
7.632000000000001,-0.011737121948058041
7.636,-0.011749214341149448
7.640000000000001,-0.011755176395794913
7.644,-0.011751065462954693
7.648000000000001,-0.011751834760328303
7.652,-0.011750031719608908
7.656000000000001,-0.011734020718020682
7.66,-0.011735463150596199
7.664000000000001,-0.011747699786945157
7.668,-0.01173890094823451
7.672000000000001,-0.01175068081426789
7.676,-0.011758614193433227
7.68,-0.011756113976968999
7.684,-0.011746497759798894
7.688,-0.011742939759445955
7.692,-0.011742699354016702
7.696,-0.011742242583701122
7.7,-0.011743011881074732
7.704,-0.011749190300606524
7.708,-0.011751786679242452
7.712,-0.011751954963042929
7.716,-0.011750272125038161
7.72,-0.01172926069052148
7.724,-0.011738131650860902
7.728,-0.01174529573265263
7.732,-0.01174474280016535
7.736,-0.011739838529408596
7.74,-0.011726880676771878
7.744,-0.01173387647476313
7.748,-0.011712889080789376
7.752,-0.011719500230093823
7.756,-0.01175976813949364
7.76,-0.011763037653331474
7.764,-0.011763494423647056
7.768,-0.011765105140023048
7.772,-0.011758926720491255
7.776,-0.011762893410073924
7.78,-0.011762869369530998
7.784,-0.011745319773195557
7.788,-0.011748132516717812
7.792,-0.011747315138258352
7.796,-0.01175118566566932
7.8,-0.011759383490806834
7.804,-0.011767509194315576
7.808,-0.011761402896412558
7.812,-0.011751834760328303
7.816,-0.011752027084671705
7.82,-0.01176301361278855
7.824,-0.011769143951234495
7.828,-0.01176621100499761
7.832,-0.01176109036935453
7.836,-0.0117424108675016
7.84,-0.011761210572069155
7.844,-0.011774985803165333
7.848,-0.011774480951763902
7.852,-0.011769432437749597
7.856,-0.01174671412468522
7.86,-0.011752075165757556
7.864,-0.011754671544393483
7.868,-0.011739886610494446
7.872,-0.011752748300959463
7.876,-0.011763855031790935
7.88,-0.011764648369707469
7.884,-0.0117673409105151
7.888,-0.011765417667081076
7.892,-0.01176159522075596
7.896,-0.011754551341678857
7.9,-0.011746858367942772
7.904,-0.011744670678536575
7.908,-0.011746401597627193
7.912,-0.011743035921617656
7.916,-0.01174113671872656
7.92,-0.011736448812856135
7.924,-0.011728323109347395
7.928,-0.01172683259568603
7.932,-0.011751017381868843
7.936,-0.011736761339914163
7.94,-0.011730967569069174
7.944,-0.011725870973969018
7.948,-0.011727914420117665
7.952,-0.01172738552817331
7.956,-0.011722337014159005
7.96,-0.011726039257769496
7.964,-0.011719812757151851
7.968,-0.011712360188845021
7.972,-0.011720558013982535
7.976,-0.011723298635876015
7.98,-0.011717408702859325
7.984,-0.011694065335678894
7.988,-0.011724308338678876
7.992,-0.011739622164522269
7.996,-0.011730294433867267
8.0,-0.011728827960748825
8.004,-0.011729645339208285
8.008000000000001,-0.0117309916096121
8.012,-0.011713369891647882
8.016,-0.011716350918970614
8.02,-0.011713802621420535
8.024000000000001,-0.01171962043280845
8.028,-0.011725798852340243
8.032,-0.011722264892530228
8.036,-0.011728323109347395
8.040000000000001,-0.011734573650507963
8.044,-0.01173464577213674
8.048,-0.011722337014159005
8.052,-0.011704787417823562
8.056000000000001,-0.01171565374322578
8.06,-0.011734477488336262
8.064,-0.011745223611023856
8.068,-0.011739309637464241
8.072000000000001,-0.01173113585286965
8.076,-0.011727914420117665
8.08,-0.011725390163110513
8.084,-0.011727241284915759
8.088000000000001,-0.011728467352604946
8.092,-0.011729284731064405
8.096,-0.011731472420470604
8.1,-0.011738564380633558
8.104000000000001,-0.011743733097362489
8.108,-0.011715245053996052
8.112,-0.011715389297253603
8.116,-0.011727649974145488
8.120000000000001,-0.011745584219167734
8.124,-0.011753637801047698
8.128,-0.011748973935720197
8.132,-0.011736256488512732
8.136000000000001,-0.01172601521722657
8.14,-0.011734958299194768
8.144,-0.01175378204430525
8.148,-0.011750464449381562
8.152000000000001,-0.011744117746049294
8.156,-0.011743757137905413
8.16,-0.011741329043069963
8.164,-0.011737338312944368
8.168000000000001,-0.011719380027379198
8.172,-0.011703753674477776
8.176,-0.011729428974321957
8.18,-0.01175200304412878
8.184000000000001,-0.01176159522075596
8.188,-0.011750873138611293
8.192,-0.011743757137905413
8.196,-0.011740463583524654
8.2,-0.011728563514776648
8.204,-0.011725582487453916
8.208,-0.01174154540795629
8.212,-0.011744983205594603
8.216,-0.011741737732299692
8.22,-0.011745151489395079
8.224,-0.011747916151831484
8.228,-0.011746305435455491
8.232,-0.011743540773019086
8.236,-0.011745151489395079
8.24,-0.011746113111112089
8.244,-0.011744814921794126
8.248,-0.011747387259887129
8.252,-0.011748925854634346
8.256,-0.01174743534097298
8.26,-0.01174986343580843
8.264,-0.011763614626361682
8.268,-0.01173656901557076
8.272,-0.011728635636405424
8.276,-0.011741713691756767
8.28,-0.011755128314709063
8.284,-0.011764119477763112
8.288,-0.01174616119219794
8.292,-0.01173798740760335
8.296,-0.011756330341855326
8.3,-0.011764624329164542
8.304,-0.011762532801930044
8.308,-0.01175981622057949
8.312,-0.011748300800518289
8.316,-0.011760801882839426
8.32,-0.011763542504732905
8.324,-0.011744261989306845
8.328,-0.011762797247902223
8.332,-0.011775346411309211
8.336,-0.011773855897647846
8.34,-0.011777726425058813
8.344,-0.011779120776548479
8.348,-0.011774024181448323
8.352,-0.011773952059819548
8.356,-0.011774072262534173
8.36,-0.01177186053258505
8.364,-0.011774264586877576
8.368,-0.011775490654566763
8.372,-0.01177149992444117
8.376,-0.01176921607286327
8.38,-0.01177282215430206
8.384,-0.011778976533290927
8.388,-0.011786501223226534
8.392,-0.011788688912632734
8.396,-0.011791261250725736
8.4,-0.011789289926205865
8.404,-0.011784409695992036
8.408,-0.011783616358075502
8.412,-0.011785683844767076
8.416,-0.011793953791533366
8.42,-0.01177505792479411
8.424,-0.01177159608661287
8.428,-0.011761354815326707
8.432,-0.011777101370942756
8.436,-0.011791309331811587
8.44,-0.011797511791886305
8.444,-0.011799747562378355
8.448,-0.011774480951763902
8.452,-0.011779769871207461
8.456,-0.011801959292327479
8.46,-0.01180200737341333
8.464,-0.011799194629891074
8.468,-0.011801478481468973
8.472,-0.011802800711329864
8.476,-0.011805421130508717
8.48,-0.011801430400383122
8.484,-0.011800805346267066
8.488,-0.011804675873678033
8.492,-0.011804074860104902
8.496,-0.01178693395299919
8.5,-0.011791068926382334
8.504,-0.011789289926205865
8.508000000000001,-0.011804195062819527
8.512,-0.011814772901706645
8.516,-0.011816191293739235
8.52,-0.011819941618435576
8.524000000000001,-0.011819989699521426
8.528,-0.011818475145317133
8.532,-0.011815277753108075
8.536,-0.011809748428235263
8.540000000000001,-0.01181489310442127
8.544,-0.011804243143905378
8.548,-0.011818787672375163
8.552,-0.011830399254608066
8.556000000000001,-0.011840279917750348
8.56,-0.011829101065290101
8.564,-0.011826336402853695
8.568,-0.01181763372631475
8.572000000000001,-0.011817657766857675
8.576,-0.011833692808988825
8.58,-0.011835471809165296
8.584,-0.011834053417132706
8.588000000000001,-0.011831240673610448
8.592,-0.011828836619317922
8.596,-0.011829245308547653
8.6,-0.01182636044339662
8.604000000000001,-0.01183362068736005
8.608,-0.01183681807956911
8.612,-0.011841025174581032
8.616,-0.011844246607333016
8.620000000000001,-0.01184595348588071
8.624,-0.01183919809331871
8.628,-0.011845280350678803
8.632,-0.011845376512850505
8.636000000000001,-0.011849439364604874
8.64,-0.011857012135626331
8.644,-0.011854295554275777
8.648,-0.011817874131744002
8.652000000000001,-0.011807873265887094
8.656,-0.011818523226402984
8.66,-0.011848982594289294
8.664,-0.01185737274377021
8.668000000000001,-0.01185883921688865
8.672,-0.011857805473542865
8.676,-0.011851771297268623
8.68,-0.0118495595673195
8.684000000000001,-0.011854415756990403
8.688,-0.011852396351384681
8.692,-0.01184864602668834
8.696,-0.01184722763465575
8.700000000000001,-0.011845857323709009
8.704,-0.011840496282636675
8.708,-0.011832418660213787
8.712,-0.01184696318868357
8.716,-0.011869368974689919
8.72,-0.011842708012585799
8.724,-0.011834462106362435
8.728,-0.011834293822561957
8.732,-0.011845857323709009
8.736,-0.011856699608568303
8.74,-0.01185732466268436
8.744,-0.011854199392104076
8.748,-0.011847035310312348
8.752,-0.011832899471072291
8.756,-0.011854824446220132
8.76,-0.01185778143299994
8.764,-0.011856675568025377
8.768,-0.0118585988114594
8.772,-0.011858142041143818
8.776,-0.011844871661449074
8.78,-0.011835928579480876
8.784,-0.011848862391574667
8.788,-0.01185544950033619
8.792,-0.01185011249980678
8.796,-0.011835303525364818
8.8,-0.011838260512144627
8.804,-0.011850208661978482
8.808,-0.011856483243681975
8.812,-0.0118586949736311
8.816,-0.01185965659534811
8.82,-0.011859632554805185
8.824,-0.01185732466268436
8.828,-0.011859079622317904
8.832,-0.011860666298150972
8.836,-0.01186006528457784
8.84,-0.011846482377825067
8.844,-0.011830856024923645
8.848,-0.011855329297621562
8.852,-0.011861579838782131
8.856,-0.01186230105506989
8.86,-0.01185179533781155
8.864,-0.011842900336929202
8.868,-0.011846338134567515
8.872,-0.011860882663037298
8.876,-0.011859536392633483
8.88,-0.011865258041849697
8.884,-0.011863863690360032
8.888,-0.011862084690183562
8.892,-0.011866556231167663
8.896,-0.011870979691065911
8.9,-0.011865161879677996
8.904,-0.011864945514791668
8.908,-0.011869585339576246
8.912,-0.011874730015762253
8.916,-0.011874201123817896
8.92,-0.011861387514438729
8.924,-0.011869224731432367
8.928,-0.011879850651405333
8.932,-0.011874970421191506
8.936,-0.011876124367251918
8.94,-0.01187280677232823
8.944,-0.011868767961116787
8.948,-0.011861748122582607
8.952,-0.01185833436548722
8.956,-0.011865738852708203
8.96,-0.011869681501747947
8.964,-0.011873696272416466
8.968,-0.011876124367251918
8.972,-0.011868671798945086
8.976,-0.011862228933441113
8.98,-0.011864584906647789
8.984,-0.011871027772151762
8.988,-0.011879730448690708
8.992,-0.011878720745887847
8.996,-0.011869945947720124
9.0,-0.011860690338693896
9.004,-0.011843188823444305
9.008000000000001,-0.011857973757343342
9.012,-0.011850929878266239
9.016,-0.011855064851649385
9.02,-0.0118585988114594
9.024000000000001,-0.011861627919867982
9.028,-0.011858406487115997
9.032,-0.011853382013644616
9.036,-0.011850400986321884
9.040000000000001,-0.01185011249980678
9.044,-0.011848910472660517
9.048,-0.011840808809694703
9.052,-0.011817345239799647
9.056000000000001,-0.011824966091906955
9.06,-0.011841217498924434
9.064,-0.01183777970128612
9.068,-0.011839630823091366
9.072000000000001,-0.011832034011526982
9.076,-0.011812897739358473
9.08,-0.011818715550746386
9.084,-0.011833957254961005
9.088000000000001,-0.011828812578774998
9.092,-0.011821576375354493
9.096,-0.011786332939426058
9.1,-0.011773639532761518
9.104000000000001,-0.011769865167522252
9.108,-0.011770778708153412
9.112,-0.011765609991424479
9.116,-0.011762292396500793
9.120000000000001,-0.011762845328988074
9.124,-0.011761330774783781
9.128,-0.01175789297714547
9.132,-0.011747795949116858
9.136000000000001,-0.011743612894647863
9.14,-0.011711422607670935
9.144,-0.011718827094891917
9.148,-0.011745271692109706
9.152000000000001,-0.011745464016453109
9.156,-0.011744670678536575
9.16,-0.011738323975204305
9.164,-0.011728371190433245
9.168000000000001,-0.011728395230976171
9.172,-0.011735463150596199
9.176,-0.01171788951371783
9.18,-0.011729789582465837
9.184000000000001,-0.011727938460660592
9.188,-0.011718418405662187
9.192,-0.011728467352604946
9.196,-0.011743709056819563
9.200000000000001,-0.011744213908220995
9.204,-0.011742290664786973
9.208,-0.011739838529408596
9.212,-0.011732554244902242
9.216000000000001,-0.011721423473527845
9.22,-0.01171058118866855
9.224,-0.011713442013276657
9.228,-0.011745992908397463
9.232,-0.01175108950349762
9.236,-0.011734116880192384
9.24,-0.011734765974851366
9.244,-0.01174245894858745
9.248,-0.011752628098244837
9.252,-0.011760633599038948
9.256,-0.011752724260416536
9.26,-0.011753733963219399
9.264,-0.011757556409544515
9.268,-0.0117540224497345
9.272,-0.011756955395971384
9.276,-0.01175520043633784
9.28,-0.011740151056466624
9.284,-0.011753950328105726
9.288,-0.011767100505085845
9.292,-0.011770538302724159
9.296,-0.011771620127155796
9.3,-0.011768927586348166
9.304,-0.011762172193786165
9.308,-0.011761811585642287
9.312,-0.011758662274519077
9.316,-0.011759527734064386
9.32,-0.011753637801047698
9.324,-0.011761210572069155
9.328,-0.011767821721373604
9.332,-0.01176575423468203
9.336,-0.011761066328811604
9.34,-0.01175520043633784
9.344,-0.011737915285974575
9.348,-0.011721279230270294
9.352,-0.011732770609788569
9.356,-0.011758253585289348
9.36,-0.011760441274695548
9.364,-0.011767725559201903
9.368,-0.011747122813914952
9.372,-0.01173849225900478
9.376,-0.011748324841061215
9.38,-0.011752676179330688
9.384,-0.011752748300959463
9.388,-0.011757051558143085
9.392,-0.011737771042717024
9.396,-0.011736136285798105
9.4,-0.01174885373300557
9.404,-0.011758037220403021
9.408,-0.011757460247372814
9.412,-0.011746593921970595
9.416,-0.011748036354546111
9.42,-0.011752075165757556
9.424,-0.011750801016982516
9.428,-0.011718466486748036
9.432,-0.01172752977143086
9.436,-0.01175260405770191
9.44,-0.011758734396147852
9.444,-0.011754503260593007
9.448,-0.011731376258298903
9.452,-0.011721014784298114
9.456,-0.011730895447440399
9.46,-0.011732602325988092
9.464,-0.011733708190962654
9.468,-0.011737242150772667
9.472,-0.01171637495951354
9.476,-0.011718971338149468
9.48,-0.011726231582112898
9.484,-0.011728876041834676
9.488,-0.011729068366178078
9.492,-0.01172834714989032
9.496,-0.011734765974851366
9.5,-0.011731857069157409
9.504,-0.01172469298736568
9.508000000000001,-0.011723779446734521
9.512,-0.01175108950349762
9.516,-0.011764504126449917
9.52,-0.011762027950528614
9.524000000000001,-0.011744310070392694
9.528,-0.011768446775489662
9.532,-0.011779769871207461
9.536,-0.011784674141964215
9.540000000000001,-0.011789939020864847
9.544,-0.01179210266972812
9.548,-0.01177839956026072
9.552,-0.01176128269369793
9.556000000000001,-0.011778567844061198
9.56,-0.011794626926735273
9.564,-0.011796718453969771
9.568,-0.011793593183389487
9.572000000000001,-0.01178840042611763
9.576,-0.011773423167875191
9.58,-0.011777846627773439
9.584,-0.01178068341183862
9.588000000000001,-0.011775803181624791
9.592,-0.01177561085728139
9.596,-0.011775803181624791
9.6,-0.011768735262004764
9.604000000000001,-0.011795540467366434
9.608,-0.01179342489958901
9.612,-0.011793232575245607
9.616,-0.011794530764563571
9.620000000000001,-0.0118038825357615
9.624,-0.011810710049952274
9.628,-0.011811383185154182
9.632,-0.011817777969572302
9.636000000000001,-0.011816215334282159
9.64,-0.011817946253372779
9.644,-0.011829533795062755
9.648,-0.011835736255137473
9.652000000000001,-0.01183814030943
9.656,-0.011841818512497566
9.66,-0.011836168984910128
9.664,-0.011842227201727295
9.668000000000001,-0.011851458770210595
9.672,-0.011857685270828238
9.676,-0.011852901202786112
9.68,-0.011852035743240803
9.684000000000001,-0.011857180419426808
9.688,-0.011855858189565919
9.692,-0.01185732466268436
9.696,-0.01187037867749278
9.700000000000001,-0.011876244569966544
9.704,-0.011878792867516622
9.708,-0.01187215767766925
9.712,-0.011844799539820297
9.716000000000001,-0.011845833283166084
9.72,-0.011867998663743178
9.724,-0.011891462233638236
9.728,-0.011887543625141418
9.732,-0.0118904765713783
9.736,-0.011914300749417236
9.74,-0.011904732613332981
9.744,-0.011899203288460171
9.748,-0.01190271320772726
9.752,-0.011896558828738392
9.756,-0.011898578234344113
9.76,-0.01192646526413742
9.764,-0.011917762587598473
9.768,-0.01192112826360801
9.772,-0.011919878155375896
9.776,-0.011925527682963333
9.78,-0.01193021558883376
9.784,-0.011935095819047588
9.788,-0.011928821237344095
9.792,-0.01190660777568115
9.796,-0.011910742749064297
9.8,-0.011919180979631063
9.804,-0.011938100886913246
9.808,-0.011945385171419602
9.812,-0.011937788359855218
9.816,-0.011934975616332963
9.82,-0.011936634413794805
9.824,-0.011940120292518968
9.828,-0.011935360265019766
9.832,-0.011944615874045992
9.836,-0.011919878155375896
9.84,-0.011913699735844104
9.844,-0.011907112627082581
9.848,-0.011921488871751889
9.852,-0.011942812833326598
9.856,-0.011952164604524525
9.86,-0.011954208050673173
9.864,-0.011952525212668404
9.868,-0.011950529847605607
9.872,-0.011953727239814667
9.876,-0.01195858342948557
9.88,-0.011953102185698611
9.884,-0.011947596901368726
9.888,-0.011946274671507835
9.892,-0.011943437887442655
9.896,-0.011929061642773348
9.9,-0.011955265834561885
9.904,-0.011956323618450596
9.908,-0.011937908562569844
9.912,-0.01194564961739178
9.916,-0.011959160402515778
9.92,-0.01196036242966204
9.924,-0.01196223759201021
9.928,-0.011971324917235961
9.932,-0.011984667418559481
9.936,-0.01199380282487108
9.94,-0.011991278567863929
9.944,-0.011980099715403682
9.948,-0.011971829768637391
9.952,-0.011979787188345652
9.956,-0.01195853534839972
9.96,-0.011965555186933896
9.964,-0.011981181539835318
9.968,-0.012002818028468054
9.972,-0.011993322014012577
9.976,-0.011987528243167588
9.98,-0.011987359959367111
9.984,-0.01198553287810479
9.988,-0.011981902756123076
9.992,-0.011986975310680307
9.996,-0.011992144027409238
10.0,-0.011988345621627046
10.004,-0.011978416877398913
10.008000000000001,-0.01198086901277729
10.012,-0.01198644641873595
10.016,-0.01198310478326934
10.02,-0.011983465391413218
10.024000000000001,-0.011984090445529274
10.028,-0.011981518107436272
10.032,-0.011978008188169183
10.036,-0.01198036416137586
10.040000000000001,-0.011967382268196217
10.044,-0.011960073943146937
10.048,-0.011970315214433098
10.052,-0.011996880014365515
10.056000000000001,-0.011999524474087295
10.06,-0.011992672919353594
10.064,-0.011991110284063453
10.068,-0.011991014121891751
10.072000000000001,-0.011981109418206543
10.076,-0.011970555619862351
10.08,-0.011968343889913228
10.084,-0.011971541282122288
10.088000000000001,-0.011977984147626257
10.092,-0.011981061337120692
10.096,-0.011984859742902884
10.1,-0.01200188044729397
10.104000000000001,-0.01200005336603165
10.108,-0.011994620203330541
10.112,-0.012002938231182682
10.116,-0.012014597894501435
10.120000000000001,-0.012023228449411604
10.124,-0.012027123017365497
10.128,-0.012034960234359132
10.132,-0.012021040760005404
10.136000000000001,-0.012020487827518123
10.14,-0.012027483625509375
10.144,-0.012031907085407623
10.148,-0.012034575585672327
10.152000000000001,-0.012033517801783616
10.156,-0.01204075400520412
10.16,-0.012039672180772483
10.164,-0.012034984274902058
10.168000000000001,-0.012047653641023672
10.172,-0.01205445711467152
10.176,-0.012048495060026055
10.18,-0.01203431113970015
10.184000000000001,-0.012032460017894904
10.188,-0.012027916355282029
10.192,-0.01202801251745373
10.196,-0.012039600059143708
10.200000000000001,-0.012057558344708879
10.204,-0.012059986439544331
10.208,-0.012037484491366284
10.212,-0.012039167329371053
10.216000000000001,-0.012040128951088063
10.22,-0.012048951830341634
10.224,-0.012060154723344808
10.228,-0.012059145020541947
10.232000000000001,-0.012048062330253401
10.236,-0.012045081302930668
10.24,-0.012051524168434639
10.244,-0.012054673479557848
10.248,-0.012051740533320966
10.252,-0.012047124749079315
10.256,-0.012035993977704919
10.26,-0.012025416138817803
10.264,-0.012035897815533218
10.268,-0.012042292599951336
10.272,-0.012048350816768503
10.276,-0.012043518667640526
10.28,-0.012044167762299508
10.284,-0.01205811127719616
10.288,-0.01206705435916436
10.292,-0.012048254654596803
10.296,-0.01205426479032812
10.3,-0.012061284628862296
10.304,-0.012067607291651641
10.308,-0.012072463481322545
10.312,-0.012066116777990275
10.316,-0.012061597155920324
10.32,-0.012064746467043535
10.324,-0.012066645669934631
10.328,-0.01206695819699266
10.332,-0.012071958629921114
10.336,-0.012079555441485498
10.34,-0.01208568577993144
10.344,-0.012087272455764507
10.348,-0.012080276657773255
10.352,-0.012082680712065781
10.356,-0.012081286360576116
10.36,-0.012082752833694558
10.364,-0.01208162292817707
10.368,-0.012063520399354348
10.372,-0.012076910981763719
10.376,-0.012086262752961647
10.38,-0.012093763402354327
10.384,-0.012084435671699326
10.388,-0.01206873719716913
10.392,-0.01208710417196403
10.396,-0.01209491734841474
10.4,-0.01208796963150934
10.404,-0.012086983969249404
10.408,-0.012093547037468
10.412,-0.01209522987547277
10.416,-0.012089508226256556
10.42,-0.012079459279313797
10.424,-0.012080372819944956
10.428,-0.012083401928353539
10.432,-0.012086839725991852
10.436,-0.012087873469337639
10.44,-0.012099941821886121
10.444,-0.012098859997454484
10.448,-0.012097682010851147
10.452,-0.012090517929059418
10.456,-0.01209309026715242
10.46,-0.012098210902795501
10.464,-0.012101360213918711
10.468,-0.012097417564878967
10.472,-0.012095927051217602
10.476,-0.012099701416456868
10.48,-0.012087224374678657
10.484,-0.012054673479557848
10.488,-0.012097994537909175
10.492,-0.0121278048111365
10.496,-0.01213364666306734
10.5,-0.012128117338194529
10.504,-0.012115231607186588
10.508000000000001,-0.012108307930824113
10.512,-0.012117539499307413
10.516,-0.012131723419633318
10.52,-0.012127179757020445
10.524000000000001,-0.012110159052629358
10.528,-0.012111793809548275
10.532,-0.012115904742388495
10.536,-0.012114822917956859
10.540000000000001,-0.012115640296416317
10.544,-0.012112875633979912
10.548,-0.012111529363576097
10.552,-0.012112250579863855
10.556000000000001,-0.012111793809548275
10.56,-0.012103475781696134
10.564,-0.012106961660420298
10.568,-0.01210349982223906
10.572000000000001,-0.012090782375031596
10.576,-0.012102514159979124
10.58,-0.012109341674169898
10.584,-0.012103019011380554
10.588000000000001,-0.01209446057809916
10.592,-0.012092753699551467
10.596,-0.012084195266270073
10.6,-0.012095494321444947
10.604000000000001,-0.012089724591142884
10.608,-0.012093114307695345
10.612,-0.012108596417339216
10.616,-0.012100494754373402
10.620000000000001,-0.012089412064084855
10.624,-0.012086623361105525
10.628,-0.012093931686154805
10.632,-0.012090974699374998
10.636000000000001,-0.01208746478010791
10.64,-0.012082344144464827
10.644,-0.012075660873531605
10.648,-0.01208933994245608
10.652000000000001,-0.012105302862958455
10.656,-0.012114486350355905
10.66,-0.012111914012262902
10.664,-0.01210638468739009
10.668000000000001,-0.012094316334841608
10.672,-0.012077776441309028
10.676,-0.012089412064084855
10.68,-0.012096359780990256
10.684000000000001,-0.012096528064790734
10.688,-0.012086166590789945
10.692,-0.012097008875649238
10.696,-0.01210349982223906
10.700000000000001,-0.012109966728285956
10.704,-0.01211405362058325
10.708,-0.012116698080305029
10.712,-0.01211725101279231
10.716000000000001,-0.012113885336782773
10.72,-0.01211405362058325
10.724,-0.0121117216879195
10.728,-0.012105783673816959
10.732000000000001,-0.012095566443073722
10.736,-0.012092369050864664
10.74,-0.012099052321797886
10.744,-0.012082512428265305
10.748000000000001,-0.012096047253932228
10.752,-0.01211898193188293
10.756,-0.012129319365340792
10.76,-0.012099869700257344
10.764,-0.012115015242300261
10.768,-0.012129319365340792
10.772,-0.012125977729874182
10.776,-0.012121193661832053
10.78,-0.012102898808665928
10.784,-0.012096287659361481
10.788,-0.012105543268387708
10.792,-0.012119871431971165
10.796,-0.012131507054746991
10.8,-0.012141772366576079
10.804,-0.012142613785578463
10.808,-0.012136651730932998
10.812,-0.012115760499130945
10.816,-0.01212511227032887
10.82,-0.012131194527688963
10.824,-0.01212629025693221
10.828,-0.012130809879002159
10.832,-0.012134680406413125
10.836,-0.01212821350036623
10.84,-0.012096383821533182
10.844,-0.01210898106602602
10.848,-0.012150258678228696
10.852,-0.012149080691625359
10.856,-0.012149104732168283
10.86,-0.012145979461588
10.864,-0.012139055785225525
10.868,-0.012133310095466386
10.872,-0.012135137176728705
10.876,-0.01214182044766193
10.88,-0.012137084460705652
10.884,-0.012121530229433007
10.888,-0.012121145580746203
10.892,-0.012132997568408358
10.896,-0.012144104299239828
10.9,-0.012136603649847148
10.904,-0.012145811177787524
10.908,-0.012137998001336813
10.912,-0.012118212634509322
10.916,-0.012123116905266074
10.92,-0.012148527759138078
10.924,-0.012154153246182589
10.928,-0.012144104299239828
10.932,-0.012139248109568927
10.936,-0.012125665202816152
10.94,-0.012120881134774025
10.944,-0.01215182131351884
10.948,-0.01216013934137098
10.952,-0.012163216530865415
10.956,-0.012161245206345544
10.96,-0.012153191624465579
10.964,-0.012152302124377344
10.968,-0.012151076056688156
10.972,-0.012149561502483863
10.976,-0.012154105165096738
10.98,-0.012155283151700077
10.984,-0.012155884165273209
10.988,-0.012146388150817729
10.992,-0.012142421461235061
10.996,-0.01213095412225971
11.0,-0.012137589312107082
11.004,-0.012149489380855088
11.008000000000001,-0.012152855056864625
11.012,-0.012163000165979088
11.016,-0.012160259544085606
11.02,-0.012153600313695308
11.024000000000001,-0.012154778300298647
11.028,-0.012148888367281957
11.032,-0.012142565704492613
11.036,-0.012147253610363038
11.040000000000001,-0.012150859691801828
11.044,-0.012145138042585615
11.048,-0.012150955853973529
11.052,-0.012143359042409147
11.056000000000001,-0.012150835651258903
11.06,-0.012165452301357465
11.064,-0.012140281852914712
11.068,-0.012146388150817729
11.072000000000001,-0.012152734854149999
11.076,-0.01215227808383442
11.08,-0.01214785462393617
11.084,-0.01214694108330501
11.088000000000001,-0.012146652596789907
11.092,-0.012141772366576079
11.096,-0.012150475043115025
11.1,-0.012158432462823287
11.104000000000001,-0.01216456280126923
11.108,-0.012158985395310568
11.112,-0.01216506765267066
11.116,-0.012161197125259694
11.120000000000001,-0.012156701543732667
11.124,-0.012163625220095144
11.128,-0.01216725534207686
11.132,-0.012167543828591964
11.136000000000001,-0.012172159612833614
11.14,-0.012182016235432972
11.144,-0.012186175249359043
11.148,-0.01218744939813408
11.152000000000001,-0.012178746721595135
11.156,-0.012158793070967166
11.16,-0.012154369611068916
11.164,-0.012135089095642855
11.168000000000001,-0.012153576273152384
11.172,-0.012170020004513265
11.176,-0.012170621018086396
11.18,-0.012169515153111835
11.184000000000001,-0.012164851287784334
11.188,-0.012154561935412318
11.192,-0.012155355273328852
11.196,-0.01216461088235508
11.200000000000001,-0.012164683003983857
11.204,-0.012171462437088781
11.208,-0.01215638901667464
11.212,-0.012167063017733458
11.216000000000001,-0.01216456280126923
11.22,-0.01213689213636225
11.224,-0.012160379746800232
11.228,-0.012167591909677814
11.232000000000001,-0.012169370909854283
11.236,-0.012173217396722325
11.24,-0.012164418558011678
11.244,-0.012155283151700077
11.248000000000001,-0.01215186939460469
11.252,-0.012153383948808981
11.256,-0.012151989597319316
11.26,-0.01214278206937894
11.264,-0.012153768597495784
11.268,-0.01216501957158481
11.272,-0.012164538760726306
11.276,-0.012160740354944112
11.28,-0.012166654328503728
11.284,-0.01216191834154745
11.288,-0.012153480110980682
11.292,-0.012142397420692135
11.296,-0.012164009868781949
11.3,-0.012173746288666682
11.304,-0.01217603014024458
11.308,-0.012179347735168267
11.312,-0.012175405086128525
11.316,-0.012175741653729477
11.32,-0.012171991329033138
11.324,-0.012169154544967956
11.328,-0.012168000598907543
11.332,-0.012162735720006911
11.336,-0.012172351937177016
11.34,-0.012186776262932174
11.344,-0.012179299654082416
11.348,-0.012174996396898796
11.352,-0.012168577571937749
11.356,-0.012159754692684176
11.36,-0.01216725534207686
11.364,-0.01217050081537177
11.368,-0.012169923842341564
11.372,-0.012175549329386076
11.376,-0.012158456503366211
11.38,-0.01216100480091629
11.384,-0.012161076922545068
11.388,-0.012169250707139657
11.392,-0.012176871559246965
11.396,-0.012176847518704039
11.4,-0.012169707477455237
11.404,-0.012165043612127736
11.408,-0.012176583072731862
11.412,-0.012175236802328047
11.416,-0.012154826381384497
11.42,-0.01213698829853395
11.424,-0.012158071854679407
11.428,-0.01216826504487972
11.432,-0.01217867459996636
11.436,-0.012177640856620573
11.44,-0.012172424058805791
11.444,-0.012164081990410726
11.448,-0.012167904436735842
11.452,-0.012165211895928212
11.456,-0.012156701543732667
11.46,-0.012138310528394841
11.464,-0.012153263746094354
11.468,-0.01216355309846637
11.472,-0.012160187422456831
11.476,-0.012154561935412318
11.48,-0.012148864326739032
11.484,-0.01214547461018657
11.488,-0.012142661866664314
11.492,-0.012145979461588
11.496,-0.012151604948632511
11.5,-0.012144945718242213
11.504,-0.012133670703610265
11.508000000000001,-0.012147614218506918
11.512,-0.0121552110300713
11.516,-0.012158288219565735
11.52,-0.01214963362411264
11.524000000000001,-0.012142565704492613
11.528,-0.012139777001513282
11.532,-0.012129728054570521
11.536,-0.01212679510833364
11.540000000000001,-0.012131603216918693
11.544,-0.012115447972072915
11.548,-0.012109365714712824
11.552,-0.012136916176905176
11.556000000000001,-0.012151845354061764
11.56,-0.012136675771475923
11.564,-0.012129896338370999
11.568,-0.012146652596789907
11.572000000000001,-0.012142445501777985
11.576,-0.0121482633131659
11.58,-0.012145811177787524
11.584,-0.012142854191007716
11.588000000000001,-0.012148575840223929
11.592,-0.0121483594753376
11.596,-0.012140738623230292
11.6,-0.012135233338900406
11.604000000000001,-0.012136291122789118
11.608,-0.012133718784696115
11.612,-0.012126218135303433
11.616,-0.012115616255873393
11.620000000000001,-0.012126602783990238
11.624,-0.012134752528041902
11.628,-0.01212953573022712
11.632,-0.01212141002671838
11.636000000000001,-0.012130785838459234
11.64,-0.012143166718065744
11.644,-0.012154081124553814
11.648,-0.01213593051464524
11.652000000000001,-0.012133237973837611
11.656,-0.012134968892928229
11.66,-0.012132468676464002
11.664,-0.012131314730403589
11.668000000000001,-0.012128237540909156
11.672,-0.012126891270505341
11.676,-0.012123621756667506
11.68,-0.012119174256226332
11.684000000000001,-0.01212537671630105
11.688,-0.012108812782225543
11.692,-0.012088787009968798
11.696,-0.01211725101279231
11.700000000000001,-0.012129655932941746
11.704,-0.012108957025483095
11.708,-0.012097249281078491
11.712,-0.012117443337135712
11.716000000000001,-0.012110880268917115
11.72,-0.012117130810077684
11.724,-0.01211532776935829
11.728,-0.01210025434894415
11.732000000000001,-0.0121026824437796
11.736,-0.012101191930118235
11.74,-0.012097850294651623
11.744,-0.012094124010498208
11.748000000000001,-0.01209400380778358
11.752,-0.012092657537379765
11.756,-0.012097489686507744
11.76,-0.012098210902795501
11.764000000000001,-0.012089123577569753
11.768,-0.012063832926412376
11.772,-0.012084026982469596
11.776,-0.012111288958146844
11.78,-0.012118813648082453
11.784,-0.012115568174787542
11.788,-0.012111144714889293
11.792,-0.012104076795269265
11.796,-0.012094628861899638
11.8,-0.012082175860664351
11.804,-0.012109269552541123
11.808,-0.012106264484675465
11.812,-0.012092801780637317
11.816,-0.012103740227668313
11.82,-0.01210537498458723
11.824,-0.012110014809371806
11.828,-0.012109053187654796
11.832,-0.0121049662953575
11.836,-0.012105783673816959
11.84,-0.012105158619700903
11.844,-0.012100951524688982
11.848,-0.012090541969602343
11.852,-0.012081310401119042
11.856,-0.012087320536850358
11.86,-0.012094676942985489
11.864,-0.01208472415821443
11.868,-0.012085830023188991
11.872,-0.012086070428618244
11.876,-0.012085373252873411
11.88,-0.012082055657949725
11.884,-0.012086623361105525
11.888,-0.01208792155042349
11.892,-0.01208039686048788
11.896,-0.012087849428794713
11.9,-0.01209248925357929
11.904,-0.012096071294475153
11.908,-0.012073136616524453
11.912,-0.012069458413456887
11.916,-0.012071646102863086
11.92,-0.012070876805489477
11.924,-0.012065467683331292
11.928,-0.012057942993395684
11.932,-0.012071021048747028
11.936,-0.012077463914251
11.94,-0.01208573386101729
11.944,-0.012088402361281994
11.948,-0.012070636400060225
11.952,-0.01208106999568979
11.956,-0.012081045955146863
11.96,-0.012073280859782003
11.964,-0.012071958629921114
11.968,-0.01207614168439011
11.972,-0.012072679846208871
11.976,-0.012073064494895676
11.98,-0.012072054792092815
11.984,-0.012067439007851165
11.988,-0.012063664642611898
11.992,-0.012062246250579306
11.996,-0.0120503461818313
12.0,-0.012060443209859911
12.004,-0.012066837994278034
12.008000000000001,-0.01206467434541476
12.012,-0.012059866236829704
12.016,-0.012056909250049897
12.02,-0.012055538939103157
12.024000000000001,-0.012072343278607919
12.028,-0.012072343278607919
12.032,-0.012065876372561023
12.036,-0.012069001643141307
12.040000000000001,-0.012075372387016501
12.044,-0.01208020453614448
12.048,-0.012073665508468808
12.052,-0.012063977169669927
12.056000000000001,-0.01205856804751174
12.06,-0.012055034087701727
12.064,-0.012062438574922708
12.068,-0.012066693751020482
12.072000000000001,-0.012063616561526047
12.076,-0.012069891143229542
12.08,-0.012068520832282801
12.084,-0.012054144587613492
12.088000000000001,-0.012056668844620646
12.092,-0.012066982237535585
12.096,-0.012061981804607129
12.1,-0.012057317939279626
12.104000000000001,-0.012069578616171512
12.108,-0.012069434372913962
12.112,-0.012069362251285186
12.116,-0.012069602656714438
12.120000000000001,-0.01206340019663972
12.124,-0.012054336911956894
12.128,-0.01205299064155308
12.132,-0.012056139952676289
12.136000000000001,-0.012057366020365477
12.14,-0.012055947628332887
12.144,-0.012059193101627797
12.148,-0.012058495925882965
12.152000000000001,-0.012068689116083279
12.156,-0.012064409899442581
12.16,-0.01205166841169219
12.164,-0.012053976303813016
12.168000000000001,-0.0120571015743933
12.172,-0.012053303168611107
12.176,-0.012046163127362305
12.18,-0.012035681450646889
12.184000000000001,-0.012035657410103965
12.188,-0.01204669201930666
12.192,-0.012053231046982332
12.196,-0.012059145020541947
12.200000000000001,-0.012063111710124617
12.204,-0.012052654073952125
12.208,-0.012050225979116674
12.212,-0.012054889844444175
12.216000000000001,-0.012057005412221598
12.22,-0.012054986006615876
12.224,-0.012048206573510953
12.228,-0.012043470586554675
12.232000000000001,-0.012041306937691402
12.236,-0.012046499694963258
12.24,-0.012042244518865488
12.244,-0.01202421411167154
12.248000000000001,-0.012037244085937033
12.252,-0.012044913019130191
12.256,-0.012049023951970411
12.26,-0.012050250019659599
12.264000000000001,-0.012033469720697765
12.268,-0.01202705089573672
12.272,-0.01203604205879077
12.276,-0.012035849734447367
12.280000000000001,-0.012043735032526853
12.284,-0.012048543141111905
12.288,-0.012042508964837665
12.292,-0.01203709984267948
12.296,-0.012037532572452134
12.3,-0.012035441045217638
12.304,-0.012041355018777252
12.308,-0.01204380715415563
12.312,-0.012034503464043552
12.316,-0.012029599193286798
12.32,-0.012041258856605551
12.324,-0.012016232651420352
12.328,-0.012018252057026073
12.332,-0.012038590356340848
12.336,-0.01203613822096247
12.34,-0.012038638437426698
12.344,-0.01203344568015484
12.348,-0.01202837312559761
12.352,-0.012012362124009385
12.356,-0.012018877111142131
12.36,-0.012027363422794748
12.364,-0.01201928580037186
12.368,-0.012023492895383781
12.372,-0.012026642206506991
12.376,-0.012029310706771695
12.38,-0.01203476791001573
12.384,-0.01203202728812225
12.388,-0.01203294082875341
12.392,-0.01201928580037186
12.396,-0.012015246989160415
12.4,-0.012013347786269321
12.404,-0.012010919691433869
12.408,-0.012012842934867889
12.412,-0.012019646408515739
12.416,-0.012021834097921938
12.42,-0.012026449882163589
12.424,-0.01202878181482734
12.428,-0.012023973706242287
12.432,-0.012009453218315428
12.436,-0.01201060716437584
12.44,-0.012010174434603185
12.444,-0.012011905353693805
12.448,-0.012017074070422736
12.452,-0.01200589521796249
12.456,-0.011994620203330541
12.46,-0.01200964554265883
12.464,-0.01200426046104357
12.468,-0.012011688988807476
12.472,-0.01201156878609285
12.476,-0.012008299272255015
12.48,-0.012011520705007
12.484,-0.01201293909703959
12.488,-0.01201416516472878
12.492,-0.012007217447823378
12.496,-0.012003539244755813
12.5,-0.01200151983915009
12.504,-0.012000534176890156
12.508000000000001,-0.01198863410814215
12.512,-0.011980316080290009
12.516,-0.012000534176890156
12.52,-0.012013347786269321
12.524000000000001,-0.012016569219021306
12.528,-0.012002914190639756
12.532,-0.011991735338179509
12.536,-0.01200106306883451
12.540000000000001,-0.011999981244402875
12.544,-0.01199964467680192
12.548,-0.011998707095627835
12.552,-0.011994788487131017
12.556000000000001,-0.011990797757005423
12.56,-0.011992456554467266
12.564,-0.01199594243319143
12.568,-0.011993009486954547
12.572000000000001,-0.011989667851487936
12.576,-0.011989691892030861
12.58,-0.011995966473734356
12.584,-0.011999284068658042
12.588000000000001,-0.01199649536567871
12.592,-0.011988754310856777
12.596,-0.011974738674331348
12.6,-0.01197411362021529
12.604000000000001,-0.011997577190110348
12.608,-0.01200594329904834
12.612,-0.01199649536567871
12.616,-0.011990196743432291
12.620000000000001,-0.01198873027031385
12.624,-0.012003539244755813
12.628,-0.011986181972763773
12.632,-0.011972478863296374
12.636000000000001,-0.011968271768284452
12.64,-0.01195807857808414
12.644,-0.011975459890619105
12.648,-0.01198315286435519
12.652000000000001,-0.011979666985631026
12.656,-0.011984931864531659
12.66,-0.011991110284063453
12.664,-0.011984427013130228
12.668000000000001,-0.011977960107083333
12.672,-0.011981806593951375
12.676,-0.011985340553761388
12.68,-0.011971589363208138
12.684000000000001,-0.011983345188698593
12.688,-0.011989403405515757
12.692,-0.01198214316155233
12.696,-0.011989788054202562
12.700000000000001,-0.011989715932573787
12.704,-0.011977407174596052
12.708,-0.011997192541423543
12.712,-0.012001135190463287
12.716000000000001,-0.01199183150035121
12.72,-0.011979378499115923
12.724,-0.011984402972587304
12.728,-0.011991110284063453
12.732000000000001,-0.0119909660408059
12.736,-0.011990316946146919
12.74,-0.01198863410814215
12.744,-0.011984595296930705
12.748000000000001,-0.01196538690313342
12.752,-0.01197356068772801
12.756,-0.011986542580907651
12.76,-0.011986855107965681
12.764000000000001,-0.011990268865061068
12.768,-0.011984306810415603
12.772,-0.011961564456808304
12.776,-0.011963824267843278
12.780000000000001,-0.011977791823282857
12.784,-0.011977984147626257
12.788,-0.011977503336767753
12.792,-0.011975483931162031
12.796000000000001,-0.011976397471793191
12.8,-0.011979787188345652
12.804,-0.011979330418030072
12.808,-0.011973176039041205
12.812,-0.011969690160317042
12.816,-0.011965050335532466
12.82,-0.011970243092804323
12.824,-0.011971445119950587
12.828,-0.011967165903309889
12.832,-0.011967406308739142
12.836,-0.011964906092274914
12.84,-0.011977839904368707
12.844,-0.011976157066363938
12.848,-0.011968560254799554
12.852,-0.01197848899902769
12.856,-0.011978128390883809
12.86,-0.011971252795607184
12.864,-0.011969593998145341
12.868,-0.011970170971175547
12.872,-0.011970315214433098
12.876,-0.011983729837385396
12.88,-0.01197086814692038
12.884,-0.011954352293930725
12.888,-0.01195853534839972
12.892,-0.011956948672566652
12.896,-0.011953582996557115
12.9,-0.011949688428603224
12.904,-0.011960963443235172
12.908,-0.01197118067397841
12.912,-0.011964088713815456
12.916,-0.011946971847252668
12.92,-0.01196000182151816
12.924,-0.011976012823106386
12.928,-0.011969714200859967
12.932,-0.011958703632200198
12.936,-0.011958463226770945
12.94,-0.01195543411836236
12.944,-0.011951491469322619
12.948,-0.011942211819753466
12.952,-0.01192011856080515
12.956,-0.01194762094191165
12.96,-0.011967406308739142
12.964,-0.011979474661287624
12.968,-0.011971084511806708
12.972,-0.011964593565216886
12.976,-0.011965266700418795
12.98,-0.011960867281063471
12.984,-0.011955265834561885
12.988,-0.011956467861708148
12.992,-0.011955506239991137
12.996,-0.011951443388236768
13.0,-0.011944399509159665
13.004,-0.011947765185169202
13.008000000000001,-0.011961059605406874
13.012,-0.01195949697011673
13.016,-0.011951251063893366
13.02,-0.011951395307150918
13.024000000000001,-0.011948798928514989
13.028,-0.0119498567124037
13.032,-0.011950289442176356
13.036,-0.01195081833412071
13.040000000000001,-0.01195584280759209
13.044,-0.01195533795619066
13.048,-0.011935937238049973
13.052,-0.011940985752064278
13.056000000000001,-0.011950000955661252
13.06,-0.0119544244155595
13.064,-0.01195177995583772
13.068,-0.011942908995498299
13.072000000000001,-0.011939663522203388
13.076,-0.011945409211962526
13.08,-0.011942764752240747
13.084,-0.01195218864506745
13.088000000000001,-0.011958294942970467
13.092,-0.011955746645420389
13.096,-0.011954616739902902
13.1,-0.011952380969410852
13.104000000000001,-0.011951106820635814
13.108,-0.011950169239461728
13.112,-0.011948486401456961
13.116,-0.011942884954955374
13.120000000000001,-0.011949039333944242
13.124,-0.011946034266078584
13.128,-0.011932619643126287
13.132,-0.011931345494351247
13.136000000000001,-0.011929590534717703
13.14,-0.011943197482013402
13.144,-0.011950409644890981
13.148,-0.01195168379366602
13.152000000000001,-0.011954785023703379
13.156,-0.011953558956014191
13.16,-0.011950049036747103
13.164,-0.011947428617568248
13.168000000000001,-0.011947260333767772
13.172,-0.011941755049437886
13.176,-0.011923339993557134
13.18,-0.011943101319841701
13.184000000000001,-0.011955121591304333
13.188,-0.011947212252681921
13.192,-0.0119361536029363
13.196,-0.011920935939264608
13.200000000000001,-0.011935143900133439
13.204,-0.011952981982983984
13.208,-0.011934927535247112
13.212,-0.01195706887528128
13.216000000000001,-0.011969762281945817
13.22,-0.011963247294813071
13.224,-0.01195706887528128
13.228,-0.01194889509068669
13.232000000000001,-0.011944111022644562
13.236,-0.011939687562746314
13.24,-0.011929951142861581
13.244,-0.011941803130523737
13.248000000000001,-0.011947140131053146
13.252,-0.011939543319488762
13.256,-0.011934759251446634
13.26,-0.011939543319488762
13.264000000000001,-0.011940841508806727
13.268,-0.011940985752064278
13.272,-0.011943558090157281
13.276,-0.011946923766166817
13.280000000000001,-0.011946106387707359
13.284,-0.011942788792783673
13.288,-0.011940601103377474
13.292,-0.011943678292871908
13.296000000000001,-0.011943678292871908
13.3,-0.011940913630435502
13.304,-0.011941682927809111
13.308,-0.011942332022468093
13.312000000000001,-0.011953607037100042
13.316,-0.011933845710815474
13.32,-0.011932980251270165
13.324,-0.011926537385766194
13.328,-0.011929181845487974
13.332,-0.011938581697771752
13.336,-0.011939134630259033
13.34,-0.011932114791724856
13.344,-0.011948245996027708
13.348,-0.011953486834385414
13.352,-0.011929806899604031
13.356,-0.011927739412912457
13.36,-0.01194305323875585
13.364,-0.011949159536658868
13.368,-0.01195168379366602
13.372,-0.011946683360737566
13.376,-0.011944952441646946
13.38,-0.011950241361090505
13.384,-0.011932018629553155
13.388,-0.011937836440941069
13.392,-0.011939711603289238
13.396,-0.011944880320018171
13.4,-0.011952068442352824
13.404,-0.011952429050496703
13.408,-0.011948270036570632
13.412,-0.011946082347164435
13.416,-0.011952813699183508
13.42,-0.011952837739726432
13.424,-0.011934254400045204
13.428,-0.011936394008365553
13.432,-0.01194939994208812
13.436,-0.011948967212315465
13.44,-0.01195305410461276
13.444,-0.011950457725976832
13.448,-0.011943365765813879
13.452,-0.011942115657581765
13.456,-0.011944351428073815
13.46,-0.011947188212138997
13.464,-0.011941947373781289
13.468,-0.011936898859766983
13.472,-0.011939062508630256
13.476,-0.011940745346635025
13.48,-0.011921560993380665
13.484,-0.011926032534364764
13.488,-0.01192651334522327
13.492,-0.011933653386472072
13.496,-0.011946010225535658
13.5,-0.01195483310478923
13.504,-0.011948318117656483
13.508000000000001,-0.011935071778504664
13.512,-0.01194396677938701
13.516,-0.011948726806886212
13.52,-0.011950409644890981
13.524000000000001,-0.011951251063893366
13.528,-0.011951635712580169
13.532,-0.0119475728608258
13.536,-0.011942235860296392
13.540000000000001,-0.011939879887089716
13.544,-0.011937860481483993
13.548,-0.011937716238226441
13.552,-0.01193930291405951
13.556000000000001,-0.011939182711344884
13.56,-0.011935480467734393
13.564,-0.01194108191423598
13.568,-0.011934687129817859
13.572000000000001,-0.011923844844958566
13.576,-0.011927955777798786
13.58,-0.011913170843899748
13.584,-0.011919060776916438
13.588000000000001,-0.011940697265549175
13.592,-0.011947092049967295
13.596,-0.011941923333238362
13.6,-0.011938221089627873
13.604000000000001,-0.011930504075348862
13.608,-0.011928292345399738
13.612,-0.011925984453278913
13.616,-0.011935528548820244
13.620000000000001,-0.011942163738667615
13.624,-0.011940240495233595
13.628,-0.011931465697065874
13.632,-0.011934302481131054
13.636000000000001,-0.01194158676563741
13.64,-0.011926946074995923
13.644,-0.011942740711697823
13.648,-0.011951755915294796
13.652000000000001,-0.011952933901898133
13.656,-0.011945313049790825
13.66,-0.011932980251270165
13.664,-0.011928508710286067
13.668000000000001,-0.011947813266255053
13.672,-0.011949087415030092
13.676,-0.011946563158022939
13.68,-0.011943582130700207
13.684000000000001,-0.011940985752064278
13.688,-0.011948486401456961
13.692,-0.011949616306974447
13.696,-0.011947933468969678
13.700000000000001,-0.011944086982101637
13.704,-0.011942981117127075
13.708,-0.011942404144096868
13.712,-0.011935792994792421
13.716000000000001,-0.011935672792077795
13.72,-0.011928172142685113
13.724,-0.011931249332179546
13.728,-0.011940793427720876
13.732000000000001,-0.01192752304802613
13.736,-0.01193670653542358
13.74,-0.011945168806533273
13.744,-0.0119521405639816
13.748000000000001,-0.011954448456102426
13.752,-0.011949327820459344
13.756,-0.011942332022468093
13.76,-0.01194401486047286
13.764000000000001,-0.01194199545486714
13.768,-0.011942788792783673
13.772,-0.011946058306621508
13.776,-0.011938124927456172
13.780000000000001,-0.011937043103024535
13.784,-0.01194853448254281
13.788,-0.01194437546861674
13.792,-0.011951563590951394
13.796000000000001,-0.011953727239814667
13.8,-0.011948342158199409
13.804,-0.011926441223594493
13.808,-0.011939471197859987
13.812000000000001,-0.011952933901898133
13.816,-0.011957381402339307
13.82,-0.011953607037100042
13.824,-0.011950890455749487
13.828,-0.01195132318552214
13.832,-0.011951491469322619
13.836,-0.011947452658111174
13.84,-0.011951130861178738
13.844,-0.011955866848135016
13.848,-0.011960073943146937
13.852,-0.011960554754005441
13.856,-0.011953078145155685
13.86,-0.011938701900486378
13.864,-0.011951130861178738
13.868,-0.011963872348929129
13.872,-0.011959184443058702
13.876,-0.01195706887528128
13.88,-0.01194884700960084
13.884,-0.011944976482189871
13.888,-0.01195565048324869
13.892,-0.011963127092098446
13.896,-0.011935985319135823
13.9,-0.011938028765284471
13.904,-0.011950193280004654
13.908,-0.011966372565393357
13.912,-0.011969714200859967
13.916,-0.011962357794724836
13.92,-0.011958655551114347
13.924,-0.011956564023879849
13.928,-0.011950746212491935
13.932,-0.011946082347164435
13.936,-0.01194661123910879
13.94,-0.011943750414500683
13.944,-0.011957693929397335
13.948,-0.011960578794548368
13.952,-0.011953030064069834
13.956,-0.011954809064246305
13.96,-0.01195757372668271
13.964,-0.011961468294636603
13.968,-0.011950553888148533
13.972,-0.011931898426838528
13.976,-0.01195173187475187
13.98,-0.011962357794724836
13.984,-0.011962526078525314
13.988,-0.011961636578437079
13.992,-0.011957814132111963
13.996,-0.011951154901721665
14.0,-0.011957333321253457
14.004,-0.01196178082169463
14.008000000000001,-0.01195488118587508
14.012,-0.011948005590598455
14.016,-0.011953582996557115
14.02,-0.011955746645420389
14.024000000000001,-0.01195807857808414
14.028,-0.011947741144626278
14.032,-0.011946130428250283
14.036,-0.011952429050496703
14.040000000000001,-0.011957092915824204
14.044,-0.011961949105495107
14.048,-0.011968367930456152
14.052,-0.011938028765284471
14.056000000000001,-0.011941394441294008
14.06,-0.011957189077995905
14.064,-0.011963271335355997
14.068,-0.011967093781681114
14.072000000000001,-0.01196214142983851
14.076,-0.01196081919997762
14.08,-0.011951082780092888
14.084,-0.011942836873869524
14.088000000000001,-0.011942788792783673
14.092,-0.011934134197330578
14.096,-0.011930984886207368
14.1,-0.011957189077995905
14.104000000000001,-0.011981686391236748
14.108,-0.011979138093686672
14.112,-0.011967790957425947
14.116,-0.011964665686845663
14.120000000000001,-0.011968151565569825
14.124,-0.011973320282298756
14.128,-0.011958871916000674
14.132,-0.011967021660052339
14.136000000000001,-0.011966949538423562
14.14,-0.011965242659875868
14.144,-0.011964305078701783
14.148,-0.011960867281063471
14.152000000000001,-0.011961372132464902
14.156,-0.011959593132288431
14.16,-0.011952837739726432
14.164,-0.011948991252858391
14.168000000000001,-0.01195259733429718
14.172,-0.011953943604700994
14.176,-0.011953486834385414
14.18,-0.011956636145508624
14.184000000000001,-0.011952981982983984
14.188,-0.011945072644361572
14.192,-0.011946370833679536
14.196,-0.011947909428426754
14.200000000000001,-0.011942812833326598
14.204,-0.01195492926696093
14.208,-0.011956588064422773
14.212,-0.011950890455749487
14.216000000000001,-0.011966540849193833
14.22,-0.011963848308386203
14.224,-0.01194163484672326
14.228,-0.01194615446879321
14.232000000000001,-0.011950938536835336
14.236,-0.011960915362149322
14.24,-0.011966877416794787
14.244,-0.0119705075387765
14.248000000000001,-0.011971998052437868
14.252,-0.011969209349458537
14.256,-0.011965603268019747
14.26,-0.011966949538423562
14.264000000000001,-0.011961901024409256
14.268,-0.011951924199095272
14.272,-0.01194716417159607
14.276,-0.011946851644538042
14.280000000000001,-0.011959064240344076
14.284,-0.011961636578437079
14.288,-0.011962285673096061
14.292,-0.011974161701301141
14.296000000000001,-0.011952453091039629
14.3,-0.011951948239638199
14.304,-0.011953991685786845
14.308,-0.011954280172301948
14.312000000000001,-0.011959833537717684
14.316,-0.011969882484660445
14.32,-0.011971084511806708
14.324,-0.011967670754711321
14.328000000000001,-0.011967935200683498
14.332,-0.011966637011365534
14.336,-0.011967935200683498
14.34,-0.011968464092627853
14.344,-0.011965050335532466
14.348,-0.011961251929750274
14.352,-0.01195122702335044
14.356,-0.011955746645420389
14.36,-0.011965819632906076
14.364,-0.01195954505120258
14.368,-0.011953703199271743
14.372,-0.011970771984748678
14.376,-0.011971877849723242
14.38,-0.011969762281945817
14.384,-0.0119794506207447
14.388,-0.011978056269255034
14.392,-0.011977527377310677
14.396,-0.011973079876869505
14.4,-0.011968896822400509
14.404,-0.011966733173537235
14.408,-0.011969017025115134
14.412,-0.011968271768284452
14.416,-0.011970844106377455
14.42,-0.011978609201742315
14.424,-0.011974426147273318
14.428,-0.011965507105848046
14.432,-0.01196776691688302
14.436,-0.011965266700418795
14.44,-0.01197822455305551
14.444,-0.011978897688257419
14.448,-0.011977455255681902
14.452,-0.011984691459102406
14.456,-0.011966468727565058
14.46,-0.011964809930103213
14.464,-0.011972550984925149
14.468,-0.011973512606642159
14.472,-0.011973320282298756
14.476,-0.011972358660581746
14.48,-0.011980820931691439
14.484,-0.011977936066540408
14.488,-0.011967430349282068
14.492,-0.011968800660228807
14.496,-0.011967021660052339
14.5,-0.011954087847958546
14.504,-0.01197452230944502
14.508000000000001,-0.011986903189051532
14.512,-0.011992672919353594
14.516,-0.012001976609465672
14.52,-0.011984643378016555
14.524000000000001,-0.01196538690313342
14.528,-0.01197127683615011
14.532,-0.011969569957602415
14.536,-0.01196579559236315
14.540000000000001,-0.011963583862414025
14.544,-0.011970050768460921
14.548,-0.0119749790797606
14.552,-0.011969521876516566
14.556000000000001,-0.011972502903839298
14.56,-0.011973127957955356
14.564,-0.011971853809180316
14.568,-0.011975459890619105
14.572000000000001,-0.011980820931691439
14.576,-0.011979474661287624
14.58,-0.0119772629313385
14.584,-0.01197863324228524
14.588000000000001,-0.011977335052967277
14.592,-0.011972887552526103
14.596,-0.01197137299832181
14.6,-0.011973993417500665
14.604000000000001,-0.011968247727741526
14.608,-0.011965026294989542
14.612,-0.011986109851134998
14.616,-0.011983176904898115
14.620000000000001,-0.011957213118538831
14.624,-0.01197072390366283
14.628,-0.01197538776899033
14.632,-0.01196776691688302
14.636000000000001,-0.011966372565393357
14.64,-0.011980340120832935
14.644,-0.011983777918471246
14.648,-0.011975219485189852
14.652000000000001,-0.011978705363914016
14.656,-0.011989018756828954
14.66,-0.011992432513924341
14.664,-0.011992095946323387
14.668000000000001,-0.011985869445705745
14.672,-0.011968512173713704
14.676,-0.011976782120479994
14.68,-0.011984739540188256
14.684000000000001,-0.011981686391236748
14.688,-0.01197872940445694
14.692,-0.011977599498939454
14.696,-0.011980051634317831
14.700000000000001,-0.011979426580201773
14.704,-0.011955674523791614
14.708,-0.011970074809003847
14.712,-0.011974690593245498
14.716000000000001,-0.01197401745804359
14.72,-0.011967718835797172
14.724,-0.011971974011894941
14.728,-0.011978344755770138
14.732000000000001,-0.011981301742549945
14.736,-0.011973825133700187
14.74,-0.011972502903839298
14.744,-0.011981542147979198
14.748000000000001,-0.011983633675213694
14.752,-0.011981277702007019
14.756,-0.011978392836855988
14.76,-0.011974233822929918
14.764000000000001,-0.011974161701301141
14.768,-0.011965603268019747
14.772,-0.011974690593245498
14.776,-0.011979402539658849
14.780000000000001,-0.011990533311033245
14.784,-0.01198913895954358
14.788,-0.011967382268196217
14.792,-0.011965603268019747
14.796000000000001,-0.011953486834385414
14.8,-0.011959665253917208
14.804,-0.011972767349811475
14.808,-0.011971565322665212
14.812000000000001,-0.011984306810415603
14.816,-0.011987600364796363
14.82,-0.0119863021754784
14.824,-0.011983417310327368
14.828000000000001,-0.01198238356698158
14.832,-0.011981229620921168
14.836,-0.011982191242638178
14.84,-0.011971397038864736
14.844000000000001,-0.01198041224246171
14.848,-0.011979570823459325
14.852,-0.011990581392119096
14.856,-0.01197771970165408
14.86,-0.011983224985983965
14.864,-0.011980844972234365
14.868,-0.011969065106200985
14.872,-0.011975099282475227
14.876,-0.01197918617477252
14.88,-0.011978464958484763
14.884,-0.011977166769166799
14.888,-0.01196675721408016
14.892,-0.011968776619685883
14.896,-0.011977984147626257
14.9,-0.011977960107083333
14.904,-0.011979835269431503
14.908,-0.011974354025644543
14.912,-0.011975988782563462
14.916,-0.011982431648067431
14.92,-0.011976157066363938
14.924,-0.011973993417500665
14.928,-0.011973079876869505
14.932,-0.011970195011718473
14.936,-0.011972382701124672
14.94,-0.01198553287810479
14.944,-0.011971445119950587
14.948,-0.011970651782034053
14.952,-0.011968800660228807
14.956,-0.011962670321782866
14.96,-0.011966949538423562
14.964,-0.011971877849723242
14.968,-0.011963223254270147
14.972,-0.011970627741491128
14.976,-0.011986951270137382
14.98,-0.011992528676096043
14.984,-0.01199320181129795
14.988,-0.011986999351223231
14.992,-0.011980195877575383
14.996,-0.011973993417500665
15.0,-0.011972959674154878
15.004,-0.011978416877398913
15.008000000000001,-0.011974354025644543
15.012,-0.011969714200859967
15.016,-0.011981734472322599
15.02,-0.011969233390001463
15.024000000000001,-0.011974378066187468
15.028,-0.011976493633964892
15.032,-0.011979931431603204
15.036,-0.01198598964842037
15.040000000000001,-0.011986422378193026
15.044,-0.011982263364266955
15.048,-0.011974209782386992
15.052,-0.011969185308915612
15.056000000000001,-0.011968007322312273
15.06,-0.01197461847161672
15.064,-0.01197827263414136
15.068,-0.011974906958131824
15.072000000000001,-0.011969642079231192
15.076,-0.011955938969763791
15.08,-0.011939663522203388
15.084,-0.011953294510042014
15.088000000000001,-0.011963752146214502
15.092,-0.011977046566452173
15.096,-0.011977647580025305
15.1,-0.011960987483778097
15.104000000000001,-0.011961901024409256
15.108,-0.011964401240873484
15.112,-0.011968199646655676
15.116,-0.011967550551996694
15.120000000000001,-0.011965723470734374
15.124,-0.01196447336250226
15.128,-0.011960698997262993
15.132,-0.011959184443058702
15.136000000000001,-0.011946971847252668
15.14,-0.011948919131229615
15.144,-0.011955818767049166
15.148,-0.011974185741844067
15.152000000000001,-0.011967718835797172
15.156,-0.011962958808297968
15.16,-0.011971156633435483
15.164,-0.011968199646655676
15.168000000000001,-0.011968391970999078
15.172,-0.01196853621425663
15.176,-0.011967911160140572
15.18,-0.011965507105848046
15.184000000000001,-0.011968680457514182
15.188,-0.011952861780269358
15.192,-0.01194427930644504
15.196,-0.011951539550408468
15.200000000000001,-0.011953246428956163
15.204,-0.011953775320900518
15.208,-0.01195543411836236
15.212,-0.01194939994208812
15.216000000000001,-0.011931513778151725
15.22,-0.011947548820282875
15.224,-0.011965098416618317
15.228,-0.011973224120127055
15.232000000000001,-0.011977863944911632
15.236,-0.011979642945088102
15.24,-0.01197625322853564
15.244,-0.01196995460628922
15.248000000000001,-0.011967526511453769
15.252,-0.011965026294989542
15.256,-0.011965555186933896
15.26,-0.011974329985101619
15.264000000000001,-0.011951419347693842
15.268,-0.011950217320547579
15.272,-0.011952885820812283
15.276,-0.011957549686139783
15.280000000000001,-0.01196072303780592
15.284,-0.011955506239991137
15.288,-0.011951106820635814
15.292,-0.011951130861178738
15.296000000000001,-0.011943293644185103
15.3,-0.011947332455396547
15.304,-0.011950049036747103
15.308,-0.011951587631494318
15.312000000000001,-0.011951924199095272
15.316,-0.011959617172831357
15.32,-0.011960963443235172
15.324,-0.011961660618980005
15.328000000000001,-0.011946491036394164
15.332,-0.011947789225712128
15.336,-0.011955938969763791
15.34,-0.011955602402162839
15.344000000000001,-0.011955458158905287
15.348,-0.011953895523615145
15.352,-0.01195031348271928
15.356,-0.01195026540163343
15.36,-0.011954544618274126
15.364,-0.011953823401986368
15.368,-0.011954039766872695
15.372,-0.011954352293930725
15.376,-0.011945048603818648
15.38,-0.011931008926750294
15.384,-0.011937187346282086
15.388,-0.01194884700960084
15.392,-0.011942163738667615
15.396,-0.011935865116421198
15.4,-0.011932980251270165
15.404,-0.011939759684375089
15.408,-0.011937211386825011
15.412,-0.011935817035335347
15.416,-0.011940745346635025
15.42,-0.011942740711697823
15.424,-0.011945625576848853
15.428,-0.01194346192798558
15.432,-0.011940192414147744
15.436,-0.011941706968352036
15.44,-0.011946827603995116
15.444,-0.011946851644538042
15.448,-0.011944447590245516
15.452,-0.011938701900486378
15.456,-0.011937379670625489
15.46,-0.011935432386648542
15.464,-0.011949039333944242
15.468,-0.011948245996027708
15.472,-0.01193281196746969
15.476,-0.01193661037325188
15.48,-0.01194711609051022
15.484,-0.011937836440941069
15.488,-0.011925407480248708
15.492,-0.011926489304680344
15.496,-0.011935913197507047
15.5,-0.011937547954425965
15.504,-0.011939062508630256
15.508000000000001,-0.011948366198742334
15.512,-0.011951876118009422
15.516,-0.011951924199095272
15.52,-0.01195391956415807
15.524000000000001,-0.011943221522556327
15.528,-0.011931057007836145
15.532,-0.011940024130347268
15.536,-0.01193798068419862
15.540000000000001,-0.011935071778504664
15.544,-0.011934663089274935
15.548,-0.011937908562569844
15.552,-0.011935504508277317
15.556000000000001,-0.011929542453631852
15.56,-0.0119338697513584
15.564,-0.011945096684904498
15.568,-0.011931802264666827
15.572000000000001,-0.011925335358619931
15.576,-0.011929879021232806
15.58,-0.011921032101436309
15.584,-0.011914709438646965
15.588000000000001,-0.011925167074819455
15.592,-0.011932932170184315
15.596,-0.01192752304802613
15.6,-0.011941202116950605
15.604000000000001,-0.011944327387530889
15.608,-0.011921753317724068
15.612,-0.011927955777798786
15.616,-0.011943437887442655
15.620000000000001,-0.01194427930644504
15.624,-0.01194300515767
15.628,-0.01194807771222723
15.632,-0.011946370833679536
15.636000000000001,-0.01194204353595299
15.64,-0.011944880320018171
15.644,-0.011939423116774137
15.648,-0.011927739412912457
15.652000000000001,-0.011936418048908479
15.656,-0.011938221089627873
15.66,-0.011936898859766983
15.664,-0.011932908129641389
15.668000000000001,-0.011928412548114366
15.672,-0.011923796763872715
15.676,-0.011925840210021361
15.68,-0.011933076413441867
15.684000000000001,-0.011926922034452999
15.688,-0.011915839344164453
15.692,-0.011942067576495914
15.696,-0.011950289442176356
15.700000000000001,-0.011944207184816263
15.704,-0.011942908995498299
15.708,-0.011941033833150129
15.712,-0.011937908562569844
15.716000000000001,-0.011953222388413237
15.72,-0.011945793860649331
15.724,-0.011935985319135823
15.728,-0.011941514644008633
15.732000000000001,-0.011933437021585745
15.736,-0.011931778224123902
15.74,-0.011937764319312292
15.744,-0.011938269170713724
15.748000000000001,-0.011949712469146148
15.752,-0.01195305410461276
15.756,-0.011947236293224847
15.76,-0.011936538251623104
15.764000000000001,-0.011933653386472072
15.768,-0.011944135063187488
15.772,-0.011943365765813879
15.776,-0.011944952441646946
15.780000000000001,-0.011943942738844086
15.784,-0.01194254838735442
15.788,-0.011941658887266185
15.792,-0.011939976049261418
15.796000000000001,-0.01194843832037111
15.8,-0.011934302481131054
15.804,-0.011928244264313888
15.808,-0.01194031261686237
15.812000000000001,-0.011945409211962526
15.816,-0.011940553022291623
15.82,-0.011933941872987176
15.824,-0.011933340859414044
15.828000000000001,-0.011936514211080178
15.832,-0.011934350562216905
15.836,-0.01193478329198956
15.84,-0.011936682494880656
15.844000000000001,-0.011927234561511027
15.848,-0.011928628913000693
15.852,-0.011938076846370322
15.856,-0.011939110589716107
15.860000000000001,-0.011940000089804342
15.864,-0.011940048170890193
15.868,-0.011931730143038052
15.872,-0.011926657588480822
15.876,-0.011924133331473668
15.88,-0.011925335358619931
15.884,-0.011935865116421198
15.888,-0.011934542886560307
15.892,-0.011918604006600858
15.896,-0.011925768088392586
15.9,-0.01193209075118193
15.904,-0.011937620076054742
15.908,-0.011940384738491147
15.912,-0.01193665845433773
15.916,-0.01193574491370657
15.92,-0.01193117721055077
15.924,-0.011916127830679555
15.928,-0.011924517980160473
15.932,-0.011925936372193063
15.936,-0.011920887858178757
15.94,-0.011928027899427561
15.944,-0.011934999656875887
15.948,-0.011918988655287663
15.952,-0.011930816602406892
15.956,-0.011929975183404508
15.96,-0.011922787061069853
15.964,-0.01192331595301421
15.968,-0.011929879021232806
15.972,-0.011934975616332963
15.976,-0.011933268737785269
15.98,-0.011932715805297988
15.984,-0.011930287710462536
15.988,-0.011927763453455384
15.992,-0.011916921168596089
15.996,-0.011916199952308332
16.0,-0.01193213883226778
16.004,-0.01193281196746969
16.008,-0.011931682061952201
16.012,-0.011935841075878272
16.016000000000002,-0.01193701906248161
16.02,-0.01193112912946492
16.024,-0.01192600849382184
16.028,-0.011921849479895769
16.032,-0.011938245130170798
16.036,-0.011931057007836145
16.04,-0.011933701467557923
16.044,-0.011936898859766983
16.048000000000002,-0.011939062508630256
16.052,-0.011938581697771752
16.056,-0.011930335791548386
16.06,-0.011928196183228037
16.064,-0.011935143900133439
16.068,-0.011935023697418813
16.072,-0.011935216021762216
16.076,-0.011924301615274146
16.080000000000002,-0.011909612843546809
16.084,-0.011925167074819455
16.088,-0.011932980251270165
16.092,-0.011935865116421198
16.096,-0.011941562725094484
16.1,-0.011939759684375089
16.104,-0.011936105521850449
16.108,-0.011931032967293219
16.112000000000002,-0.011915526817106423
16.116,-0.011932691764755062
16.12,-0.011942163738667615
16.124,-0.011943942738844086
16.128,-0.011939519278945836
16.132,-0.011934013994615952
16.136,-0.011921152304150936
