time,channel1
0.0,-0.005628419990748563
0.004,-0.0056245735038805205
0.008,-0.005622530057731874
0.012,-0.005621496314386087
0.016,-0.005607913407633313
0.02,-0.005601494582672268
0.024,-0.005606759461572901
0.028,-0.005605148745196908
0.032,-0.00559031573021202
0.036000000000000004,-0.005606951785916303
0.04,-0.005635920640141245
0.044,-0.005634886896795459
0.048,-0.0056235397605347345
0.052000000000000005,-0.00561726517883124
0.056,-0.005609548164552231
0.06,-0.005591686041158761
0.064,-0.005585651864884519
0.068,-0.005605918042570516
0.07200000000000001,-0.005616159313856678
0.076,-0.005629285450293872
0.08,-0.005627290085231076
0.084,-0.005617193057202465
0.088,-0.005608057650890865
0.092,-0.00560401883967942
0.096,-0.005593681406221558
0.1,-0.005607120069716779
0.10400000000000001,-0.005612240705359861
0.108,-0.005601951352987848
0.112,-0.00559615758214286
0.116,-0.005610605948440943
0.12,-0.005612577272960814
0.124,-0.005603826515336019
0.128,-0.00559483535228197
0.132,-0.005607937448176239
0.136,-0.005610678070069718
0.14,-0.005601638825929819
0.14400000000000002,-0.005591085027585629
0.148,-0.005590868662699301
0.152,-0.005601831150273222
0.156,-0.005594883433367821
0.16,-0.005590363811297871
0.164,-0.005592936149390874
0.168,-0.005599114568922667
0.17200000000000001,-0.005607312394060182
0.176,-0.005598369312091984
0.18,-0.005580987999557018
0.184,-0.005576372215315367
0.188,-0.005584233472851928
0.192,-0.0055918302844163124
0.196,-0.005597047082231094
0.2,-0.0056075287589465094
0.20400000000000001,-0.005600989731270838
0.20800000000000002,-0.005596734555173066
0.212,-0.005599451136523621
0.216,-0.00559707112277402
0.22,-0.005589522392295487
0.224,-0.005583223770049067
0.228,-0.0055850027702255365
0.232,-0.005606278650714396
0.23600000000000002,-0.005594162217080063
0.24,-0.0055679580252915245
0.244,-0.005575554836855908
0.248,-0.005595652730741429
0.252,-0.005601518623215194
0.256,-0.005600388717697706
0.26,-0.00559625374431456
0.264,-0.005585507621626967
0.268,-0.005574424931338421
0.272,-0.005585579743255743
0.276,-0.005594715149567344
0.28,-0.005583752661993423
0.28400000000000003,-0.005581444769872598
0.28800000000000003,-0.005574160485366243
0.292,-0.005562284457161163
0.296,-0.0055741364448233174
0.3,-0.005582238107789132
0.304,-0.005578006972234285
0.308,-0.005577934850605509
0.312,-0.005576901107259722
0.316,-0.005574641296224748
0.32,-0.0055744489718813454
0.324,-0.005570506322841603
0.328,-0.005565097200683418
0.332,-0.00557067460664208
0.336,-0.005580435067069737
0.34,-0.0055681984307207775
0.34400000000000003,-0.005551971064246225
0.34800000000000003,-0.005566731957602336
0.352,-0.0055907965410705255
0.356,-0.005584065189051451
0.36,-0.005553245213021264
0.364,-0.00556839075506418
0.368,-0.005561010308386124
0.372,-0.005562116173360686
0.376,-0.005562188294989462
0.38,-0.005549182361266895
0.384,-0.005538436238579301
0.388,-0.005533051156964042
0.392,-0.00552829112946484
0.396,-0.005521968466675496
0.4,-0.005556683010659576
0.404,-0.005559832321782786
0.40800000000000003,-0.0055487736720371645
0.41200000000000003,-0.005539686346811415
0.41600000000000004,-0.005548196699006958
0.42,-0.0055482207395498835
0.424,-0.0055463936582875635
0.428,-0.005539109373781209
0.432,-0.0055575003891190355
0.436,-0.005574929782739851
0.44,-0.005573607552878962
0.444,-0.005571540066187389
0.448,-0.005563678808650828
0.452,-0.005557115740432231
0.456,-0.005543436671507756
0.46,-0.005506846965175506
0.464,-0.005498601058952141
0.468,-0.005516655506689013
0.47200000000000003,-0.005543797279651635
0.47600000000000003,-0.005542475049790746
0.48,-0.00554240292816197
0.484,-0.0055626450653050415
0.488,-0.005556154118715221
0.492,-0.005542162522732717
0.496,-0.005540720090157202
0.5,-0.005525262021056257
0.504,-0.00551865087175181
0.508,-0.005558029281063391
0.512,-0.005560409294812992
0.516,-0.005546537901545115
0.52,-0.005538796846723181
0.524,-0.005547211036747023
0.528,-0.005550384388413158
0.532,-0.005546778306974368
0.536,-0.00554240292816197
0.54,-0.005534012778681053
0.544,-0.0055511536857867656
0.548,-0.005557668672919512
0.552,-0.00553559945451412
0.556,-0.005505909384001421
0.56,-0.005509178897839256
0.5640000000000001,-0.005542499090333671
0.5680000000000001,-0.00555382218605147
0.5720000000000001,-0.005550071861355129
0.5760000000000001,-0.00553559945451412
0.58,-0.0055375948195769175
0.584,-0.005540888373957678
0.588,-0.005512520533305868
0.592,-0.005543196266078503
0.596,-0.005554495321253378
0.6,-0.005542547171419522
0.604,-0.00554701871240362
0.608,-0.005539830590068967
0.612,-0.0055341810624815295
0.616,-0.005533796413794726
0.62,-0.005532281859590434
0.624,-0.0055242763587963215
0.628,-0.0055092991005538825
0.632,-0.005513794682080906
0.636,-0.0055442540499672155
0.64,-0.005568054187463226
0.644,-0.005561827686845582
0.648,-0.005547691847605528
0.652,-0.005524781210197752
0.656,-0.005528170926750214
0.66,-0.00553326752185037
0.664,-0.0055154775200856754
0.668,-0.005501822491704125
0.672,-0.005485090273828141
0.676,-0.005472228583363125
0.68,-0.005510140519556266
0.684,-0.005557187862061007
0.6880000000000001,-0.005556707051202502
0.6920000000000001,-0.0055423548470761195
0.6960000000000001,-0.00552865173760872
0.7000000000000001,-0.005514275492939412
0.704,-0.0055083374788368715
0.708,-0.005516847831032415
0.712,-0.005520646236814607
0.716,-0.005509707789783612
0.72,-0.005518073898721603
0.724,-0.005521319372016514
0.728,-0.005501269559216844
0.732,-0.005500764707815414
0.736,-0.005538364116950526
0.74,-0.005540455644185024
0.744,-0.005516968033747041
0.748,-0.005493240017879807
0.752,-0.00549078788250143
0.756,-0.005505500694771691
0.76,-0.005531512562216826
0.764,-0.005526800615803474
0.768,-0.005523122412735909
0.772,-0.005536272589716028
0.776,-0.0055218242234179446
0.78,-0.005516126614744658
0.784,-0.005516246817459283
0.788,-0.005506101708344822
0.792,-0.005496004680316212
0.796,-0.0055194442096683435
0.8,-0.005543893441823336
0.804,-0.00553007012964131
0.808,-0.005517809452749426
0.812,-0.005515669844429077
0.8160000000000001,-0.0055162708580022085
0.8200000000000001,-0.0055316568054743775
0.8240000000000001,-0.005520141385413176
0.8280000000000001,-0.005483383395280448
0.8320000000000001,-0.005490403233814625
0.836,-0.0055490140774664175
0.84,-0.005549230442352744
0.844,-0.005524108074995844
0.848,-0.005513818722623832
0.852,-0.005509347181639733
0.856,-0.005506582519203327
0.86,-0.005518602790665959
0.864,-0.005513193668507775
0.868,-0.005513914884795533
0.872,-0.0055222088721047485
0.876,-0.005508698086980751
0.88,-0.005498817423838467
0.884,-0.005494105477425116
0.888,-0.005488071301150874
0.892,-0.005480907219359146
0.896,-0.005512208006247839
0.9,-0.005535960062658
0.904,-0.005533459846193772
0.908,-0.005523002210021282
0.912,-0.00550088491053004
0.916,-0.005487878976807472
0.92,-0.005528146886207289
0.924,-0.005527954561863887
0.928,-0.00551271285764927
0.932,-0.005509226978925107
0.936,-0.00550449099196883
0.9400000000000001,-0.005495836396515735
0.9440000000000001,-0.0054879510984362475
0.9480000000000001,-0.005471675650875844
0.9520000000000001,-0.005488624233638155
0.9560000000000001,-0.005527810318606335
0.96,-0.005439389201727215
0.964,-0.005472036259019724
0.968,-0.0054965335722605676
0.972,-0.005463573987910031
0.976,-0.005459222649640558
0.98,-0.005470617866987133
0.984,-0.005457059000777285
0.988,-0.0054833593547375225
0.992,-0.00548727796323434
0.996,-0.005462684487821796
1.0,-0.005457948500865519
1.004,-0.00545667435209048
1.008,-0.005450640175816239
1.012,-0.005466963704462493
1.016,-0.005472877678022107
1.02,-0.00546895906952529
1.024,-0.005459222649640558
1.028,-0.005463742271710507
1.032,-0.00546302105542275
1.036,-0.005451673919162026
1.04,-0.005451986446220054
1.044,-0.005468742704638962
1.048,-0.005461314176875056
1.052,-0.00544799571609446
1.056,-0.005444557918456147
1.06,-0.0054548953519140105
1.064,-0.005479344584069004
1.068,-0.005474752840370278
1.072,-0.005495187301856753
1.076,-0.005484393098083309
1.08,-0.005484657544055487
1.084,-0.0054628287310793475
1.088,-0.005439100715212111
1.092,-0.005421887686477623
1.096,-0.005451265229932296
1.1,-0.0054713871643607415
1.104,-0.005465112582657247
1.108,-0.005462900852708123
1.112,-0.005462420041849618
1.116,-0.005457203244034836
1.12,-0.005455015554628637
1.124,-0.005454438581598431
1.1280000000000001,-0.005439942134214496
1.1320000000000001,-0.005392750548452204
1.1360000000000001,-0.005445808026688261
1.1400000000000001,-0.005469752407441823
1.1440000000000001,-0.0054668675422907915
1.1480000000000001,-0.005482325611391736
1.1520000000000001,-0.005466506934146913
1.156,-0.0054530682706516904
1.16,-0.005433186741652497
1.164,-0.005419147064584143
1.168,-0.005445567621259009
1.172,-0.005479777313841658
1.176,-0.0054782868001802916
1.18,-0.005460472757872672
1.184,-0.005462299839134992
1.188,-0.005471603529247068
1.192,-0.0054565541493758534
1.196,-0.005439990215300347
1.2,-0.005449005418897321
1.204,-0.0054931198151651804
1.208,-0.0054809793409879215
1.212,-0.005465905920573781
1.216,-0.005474608597112726
1.22,-0.005469079272239916
1.224,-0.0054775655838925335
1.228,-0.005448765013468068
1.232,-0.005424003254255046
1.236,-0.005416502604862364
1.24,-0.005413954307312286
1.244,-0.005430349957587316
1.248,-0.005453092311194616
1.252,-0.005447514905235954
1.256,-0.005450928662331342
1.26,-0.005443355891309884
1.264,-0.0054281622681811165
1.268,-0.0054312634982184756
1.272,-0.005428979646640576
1.276,-0.005442442350678724
1.28,-0.005452851905765364
1.284,-0.00543667262037666
1.288,-0.0054420577019919205
1.292,-0.005435999485174752
1.296,-0.005436047566260603
1.3,-0.0054527557435936624
1.304,-0.005434484930970461
1.308,-0.005430662484645344
1.312,-0.00547494516471368
1.316,-0.0054729738401938085
1.32,-0.00545256341925026
1.324,-0.005412271469307518
1.328,-0.0053900820481875
1.332,-0.005428787322297173
1.336,-0.005433114620023721
1.34,-0.005447250459263777
1.344,-0.005456337784489527
1.348,-0.0054438847832542405
1.352,-0.0054342685660841335
1.356,-0.005433210782195422
1.36,-0.005426575592348049
1.364,-0.00542530144357301
1.368,-0.0054127041990801724
1.372,-0.005424604267828178
1.3760000000000001,-0.0054626604472788705
1.3800000000000001,-0.005468670583010186
1.3840000000000001,-0.005452611500336111
1.3880000000000001,-0.005432225119935487
1.3920000000000001,-0.00542530144357301
1.3960000000000001,-0.005429700862928334
1.4000000000000001,-0.005441721134390966
1.4040000000000001,-0.005441240323532461
1.408,-0.005435879282460127
1.412,-0.00542936429532738
1.416,-0.005430926930617522
1.42,-0.0054291238898981275
1.424,-0.005420661618788435
1.428,-0.005417392104950599
1.432,-0.005436937066348838
1.436,-0.005445928229402887
1.44,-0.00543890839086871
1.444,-0.005420036564672378
1.448,-0.005395947940661264
1.452,-0.005420445253902107
1.456,-0.005447298540349628
1.46,-0.005434292606627059
1.464,-0.005414098550569838
1.468,-0.005415997753460934
1.472,-0.00543890839086871
1.476,-0.005442562553393351
1.48,-0.005432345322650113
1.484,-0.005425181240858384
1.488,-0.005417584429294001
1.492,-0.005416743010291616
1.496,-0.005415877550746307
1.5,-0.005442586593936276
1.504,-0.005451505635361549
1.508,-0.005438139093495101
1.512,-0.005430133592700988
1.516,-0.0054280180249235655
1.52,-0.0054182575644959085
1.524,-0.005413064807224052
1.528,-0.005419002821326592
1.532,-0.005425734173345666
1.536,-0.005429460457499081
1.54,-0.005430878849531672
1.544,-0.005409987617729618
1.548,-0.005388904061584162
1.552,-0.005400443522188289
1.556,-0.005415925631832158
1.56,-0.005422416578421979
1.564,-0.0054188104969831894
1.568,-0.005407295076921988
1.572,-0.005415420780430728
1.576,-0.005418834537526115
1.58,-0.005409987617729618
1.584,-0.005403472630596872
1.588,-0.005401188779018971
1.592,-0.0053995540221000535
1.596,-0.005403688995483199
1.6,-0.0054085932662399526
1.604,-0.0054089057932979814
1.608,-0.0054041457657987785
1.612,-0.0054027273737661885
1.616,-0.005401597468248701
1.62,-0.005387846277695451
1.624,-0.00538921658864219
1.6280000000000001,-0.00540332838733932
1.6320000000000001,-0.005393640048540439
1.6360000000000001,-0.00540880963112628
1.6400000000000001,-0.005414459158713717
1.6440000000000001,-0.005415613104774129
1.6480000000000001,-0.00541936342947047
1.6520000000000001,-0.005411670455734386
1.6560000000000001,-0.005408737509497504
1.6600000000000001,-0.00540332838733932
1.6640000000000001,-0.0054049391037153125
1.668,-0.005397630778666032
1.672,-0.005381667858163658
1.676,-0.005353155774254295
1.68,-0.00534094317844826
1.684,-0.005369479302900549
1.688,-0.005392558224108802
1.692,-0.0053870288992359915
1.696,-0.005383663223226455
1.7,-0.005375874087318669
1.704,-0.0053833747367113514
1.708,-0.005392630345737578
1.712,-0.005393976616141392
1.716,-0.005406405576833754
1.72,-0.005406501739005455
1.724,-0.005402535049422786
1.728,-0.005400780089789242
1.732,-0.005397222089436303
1.736,-0.005393471764739962
1.74,-0.005388351129096881
1.744,-0.005389985886015799
1.748,-0.005391933169992745
1.752,-0.005389432953528518
1.756,-0.005389601237328995
1.76,-0.005391476399677166
1.764,-0.005392942872795606
1.768,-0.005395779656860787
1.772,-0.005391716805106418
1.776,-0.005385249899059522
1.78,-0.005386259601862383
1.784,-0.005384624844943465
1.788,-0.005377773290209765
1.792,-0.005360656423646978
1.796,-0.005343371273283714
1.8,-0.005355006896059541
1.804,-0.0053900820481875
1.808,-0.0053801292634164406
1.812,-0.005371114059819467
1.816,-0.005397750981380659
1.82,-0.00539880876526937
1.824,-0.005398592400383043
1.828,-0.005391716805106418
1.832,-0.005395443089259834
1.836,-0.005391644683477642
1.84,-0.005384937372001493
1.844,-0.0053739508438846485
1.848,-0.005363204721197056
1.852,-0.005360343896588949
1.856,-0.005376811668492755
1.86,-0.005385346061231223
1.864,-0.005375104789945061
1.868,-0.005378254101068271
1.872,-0.005367892627067482
1.8760000000000001,-0.005377725209123914
1.8800000000000001,-0.005391788926735194
1.8840000000000001,-0.005397005724549975
1.8880000000000001,-0.00539323135931071
1.8920000000000001,-0.005384456561142988
1.8960000000000001,-0.005373566195197844
1.9000000000000001,-0.005364334626714543
1.9040000000000001,-0.005374022965513424
1.9080000000000001,-0.005375946208947445
1.9120000000000001,-0.005359502477586565
1.9160000000000001,-0.0053758500467757445
1.92,-0.005381571695991957
1.924,-0.005390947507732809
1.928,-0.005410732874560301
1.932,-0.005404121725255853
1.936,-0.005405275671316267
1.94,-0.0054062132524903515
1.944,-0.005400058873501484
1.948,-0.005384528682771764
1.952,-0.005391812967278119
1.956,-0.005407727806694643
1.96,-0.0053986885625547446
1.964,-0.005393808332340916
1.968,-0.0053889281021270875
1.972,-0.0053859951558902055
1.976,-0.005382701601509444
1.98,-0.005389120426470489
1.984,-0.00538921658864219
1.988,-0.005387317385751094
1.992,-0.005394457426999898
1.996,-0.005393351562025335
2.0,-0.0053902022509021265
2.004,-0.005388351129096881
2.008,-0.005378037736181943
2.012,-0.005372388208594506
2.016,-0.005377028033379082
2.02,-0.005375249033202613
2.024,-0.00538546626394585
2.028,-0.0053944814675428235
2.032,-0.005387413547922795
2.036,-0.005384336358428362
2.04,-0.00538775011552375
2.044,-0.005371979519364777
2.048,-0.005368685964984015
2.052,-0.005390274372530902
2.056,-0.005387533750637422
2.06,-0.005390562859046005
2.064,-0.005392750548452204
2.068,-0.00538505757471612
2.072,-0.005379768655272562
2.076,-0.005380513912103245
2.08,-0.005376523181977651
2.084,-0.005373470033026143
2.088,-0.005381619777077807
2.092,-0.005380249466131067
2.096,-0.005378181979439495
2.1,-0.005379239763328206
2.104,-0.005371282343619944
2.108,-0.005370464965160485
2.112,-0.0053575311530666934
2.116,-0.005363036437396579
2.12,-0.005371186181448243
2.124,-0.005354333760857633
2.128,-0.005360824707447455
2.132,-0.005362435423823447
2.136,-0.005364935640287675
2.14,-0.005375801965689894
2.144,-0.005377003992836157
2.148,-0.005381643817620733
2.152,-0.00538190826359291
2.156,-0.0053779896550960925
2.16,-0.005381884223049985
2.164,-0.005380297547216918
2.168,-0.005374455695286079
2.172,-0.0053809226013329745
2.176,-0.005372243965336955
2.18,-0.005357603274695469
2.184,-0.005352290314708986
2.188,-0.005370320721902934
2.192,-0.005371210221991168
2.196,-0.005371306384162869
2.2,-0.005384576763857615
2.204,-0.005377124195550783
2.208,-0.005366666559378294
2.212,-0.005365127964631076
2.216,-0.005366426153949041
2.22,-0.005360247734417248
2.224,-0.005353420220226474
2.228,-0.005353035571539669
2.232,-0.0053548386122590635
2.236,-0.005366979086436322
2.24,-0.005363348964454607
2.244,-0.005346640787121549
2.248,-0.005349838179330609
2.2520000000000002,-0.00537820601998242
2.2560000000000002,-0.005383879588112782
2.2600000000000002,-0.005383663223226455
2.2640000000000002,-0.0053667386810070696
2.2680000000000002,-0.005360848747990379
2.2720000000000002,-0.005346520584406923
2.2760000000000002,-0.005343587638170041
2.2800000000000002,-0.005349116963042851
2.2840000000000003,-0.005347794733181962
2.2880000000000003,-0.005344429057172425
2.2920000000000003,-0.0053395247864156704
2.2960000000000003,-0.005341736516364794
2.3000000000000003,-0.005343515516541265
2.3040000000000003,-0.00535039111181789
2.308,-0.0053397651918449225
2.312,-0.005330894231505501
2.316,-0.005347818773724887
2.32,-0.005342025002879899
2.324,-0.005343058746225685
2.328,-0.0053601515722455475
2.332,-0.005360247734417248
2.336,-0.005360295815503098
2.34,-0.005359550558672416
2.344,-0.005359574599215341
2.348,-0.005371282343619944
2.352,-0.005372340127508655
2.356,-0.0053668108026358454
2.36,-0.00536455099160087
2.364,-0.005360367937131874
2.368,-0.005345150273460183
2.372,-0.005334788799459394
2.376,-0.0053232733793981924
2.38,-0.0053338992993711585
2.384,-0.005351376774077826
2.388,-0.0053486601927272715
2.392,-0.005350150706388637
2.396,-0.005352915368825043
2.4,-0.005353396179683548
2.404,-0.005349573733358431
2.408,-0.005348924638699449
2.412,-0.00534947757118673
2.416,-0.0053454868410611365
2.42,-0.005334860921088169
2.424,-0.005338226597097706
2.428,-0.005360127531702622
2.432,-0.005354934774430765
2.436,-0.005339861354016624
2.44,-0.005330677866619173
2.444,-0.005345390678889435
2.448,-0.00536130551830596
2.452,-0.005354165477057157
2.456,-0.005346256138434745
2.46,-0.005335846583348105
2.464,-0.005338034272754304
2.468,-0.005349717976615983
2.472,-0.005349501611729655
2.476,-0.005360175612788473
2.48,-0.0053526990039387155
2.484,-0.0053357985022622545
2.488,-0.0053219271089943775
2.492,-0.005338010232211378
2.496,-0.005353564463484025
2.5,-0.005364070180742365
2.504,-0.005364623113229646
2.508,-0.00535765135578132
2.512,-0.005345703205947464
2.516,-0.005337048610494368
2.52,-0.005349044841414075
2.524,-0.005348684233270197
2.528,-0.00534536663834651
2.532,-0.00533728901592362
2.536,-0.00532988452870264
2.54,-0.005343275111112013
2.544,-0.005346159976263044
2.548,-0.005334933042716945
2.552,-0.005350126665845712
2.556,-0.00535724266655159
2.56,-0.005351328692991975
2.564,-0.0053421211650516
2.568,-0.005343683800341742
2.572,-0.0053439001652280695
2.576,-0.005340678732476083
2.58,-0.0053312788801923045
2.584,-0.005337745786239201
2.588,-0.005338563164698659
2.592,-0.005328490177212974
2.596,-0.005334812840002319
2.6,-0.005342265408309151
2.604,-0.00533034129901822
2.608,-0.005332721312767821
2.612,-0.005343804003056368
2.616,-0.005342505813738404
2.62,-0.005342409651566703
2.624,-0.0053338992993711585
2.628,-0.005325124501203438
2.632,-0.005324787933602484
2.636,-0.005327264109523786
2.64,-0.005324186920029352
2.644,-0.005323369541569894
2.648,-0.005327095825723309
2.652,-0.0053222396360524055
2.656,-0.005318849919499944
2.66,-0.0053136812027710124
2.664,-0.00530485832351744
2.668,-0.0053141620136295175
2.672,-0.005323465703741594
2.676,-0.005320436595333011
2.68,-0.005316566067922044
2.684,-0.005322792568539687
2.688,-0.0053167824328083715
2.692,-0.005306709445322686
2.696,-0.005321518419764648
2.7,-0.005329163312414882
2.704,-0.005318609514070692
2.708,-0.005306276715550031
2.712,-0.005302117701623961
2.716,-0.005328610379927601
2.72,-0.00533906801610009
2.724,-0.005328922906985629
2.728,-0.005306517120979284
2.732,-0.00530343993148485
2.736,-0.005314738986659724
2.74,-0.005313585040599311
2.744,-0.00531070017544828
2.748,-0.005312286851281347
2.7520000000000002,-0.005314738986659724
2.7560000000000002,-0.005316421824664492
2.7600000000000002,-0.005313008067569105
2.7640000000000002,-0.005308969256357661
2.7680000000000002,-0.005315436162404557
2.7720000000000002,-0.005320556798047637
2.7760000000000002,-0.00531805658158341
2.7800000000000002,-0.005306733485865611
2.7840000000000003,-0.00528622690275036
2.7880000000000003,-0.0052735575366287465
2.7920000000000003,-0.0052860105378640335
2.7960000000000003,-0.005312262810738422
2.8000000000000003,-0.005325388947175615
2.8040000000000003,-0.005318417189727289
2.8080000000000003,-0.00531120502684971
2.8120000000000003,-0.005306565202065135
2.816,-0.005305074688403768
2.82,-0.005304185188315534
2.824,-0.005309690472645418
2.828,-0.005312551297253525
2.832,-0.0052984635390993205
2.836,-0.005282957388912525
2.84,-0.005307382580524593
2.844,-0.0053126474594252255
2.848,-0.005291443700565143
2.852,-0.005296107565892645
2.856,-0.005294833417117606
2.86,-0.0052861547811215845
2.864,-0.00530303124225512
2.868,-0.005306877729123163
2.872,-0.005300074255475313
2.876,-0.0053001223365611635
2.88,-0.005295698876662916
2.884,-0.005293991998115222
2.888,-0.005296396052407748
2.892,-0.005292285119567527
2.896,-0.005273653698800448
2.9,-0.005280817780592176
2.904,-0.005306132472292479
2.908,-0.0053062286344641805
2.912,-0.005300458904162118
2.916,-0.005301468606964978
2.92,-0.005293991998115222
2.924,-0.005288486713785335
2.928,-0.00529745383629646
2.932,-0.005294689173860054
2.936,-0.005283582443028582
2.94,-0.0052952901874331855
2.944,-0.005302310025967363
2.948,-0.00529298229531236
2.952,-0.005293511187256716
2.956,-0.0052929101736835845
2.96,-0.005276033712550049
2.964,-0.005262811413941154
2.968,-0.005295987363178018
2.972,-0.005302093661081035
2.976,-0.005295602714491214
2.98,-0.005299304958101705
2.984,-0.005301324363707427
2.988,-0.005295434430690737
2.992,-0.005286948119038118
2.996,-0.005284568105288517
3.0,-0.005286250943293286
3.004,-0.00527745210458264
3.008,-0.005305291053290096
3.012,-0.005317864257240008
3.016,-0.005311517553907738
3.02,-0.005301997498909334
3.024,-0.005302766796282943
3.028,-0.005309281783415689
3.032,-0.005303247607141448
3.036,-0.0052818034428521125
3.04,-0.005274471077259907
3.044,-0.0052751442124618145
3.048,-0.00528069757787755
3.052,-0.005274374915088206
3.056,-0.0052650712249761285
3.06,-0.0052669704278672244
3.064,-0.005279014739872781
3.068,-0.005279591712902988
3.072,-0.005278582010100127
3.076,-0.0052861547811215845
3.08,-0.005278485847928426
3.084,-0.005270023576818733
3.088,-0.0052890156057296914
3.092,-0.005284688308003144
3.096,-0.005273100766313167
3.1,-0.005278846456072304
3.104,-0.005293415025085015
3.108,-0.0052791109020444826
3.112,-0.005279255145302034
3.116,-0.005294280484630325
3.12,-0.005295338268519036
3.124,-0.005285962456778183
3.128,-0.005284568105288517
3.132,-0.005284159416058788
3.136,-0.005282332334796468
3.14,-0.005283654564657357
3.144,-0.005272067022967381
3.148,-0.005273749860972149
3.152,-0.0052815630374228595
3.156,-0.005278437766842575
3.16,-0.005274855725946711
3.164,-0.005277067455895835
3.168,-0.005287837619126354
3.172,-0.005282404456425244
3.176,-0.005283462240313955
3.18,-0.00528805398401268
3.184,-0.005280409091362447
3.188,-0.005266633860266271
3.192,-0.005264686576289325
3.196,-0.005275600982777394
3.2,-0.005289063686815541
3.204,-0.0052903618761335055
3.208,-0.005282692942940347
3.212,-0.00527334117174242
3.216,-0.0052586524000150835
3.22,-0.005273677739343373
3.224,-0.0053021898232527365
3.228,-0.005292645727711406
3.232,-0.005272716117626363
3.236,-0.005275384617891067
3.24,-0.005286803875780567
3.244,-0.005281178388736056
3.248,-0.005281538996879934
3.2520000000000002,-0.005294785336031755
3.2560000000000002,-0.005290458038305207
3.2600000000000002,-0.005280192726476119
3.2640000000000002,-0.005277355942410938
3.2680000000000002,-0.005282091929367215
3.2720000000000002,-0.005283245875427628
3.2760000000000002,-0.005279399388559586
3.2800000000000002,-0.005277596347840191
3.2840000000000003,-0.005268845590215395
3.2880000000000003,-0.005264325968145446
3.2920000000000003,-0.005275192293547665
3.2960000000000003,-0.005268412860442741
3.3000000000000003,-0.0052626912112265275
3.3040000000000003,-0.005247064858325106
3.3080000000000003,-0.005274206631287729
3.3120000000000003,-0.005273461374457045
3.3160000000000003,-0.005272740158169288
3.3200000000000003,-0.005272740158169288
3.3240000000000003,-0.005271321766136697
3.3280000000000003,-0.005271778536452277
3.332,-0.005264325968145446
3.336,-0.0052631720220850334
3.34,-0.0052693504416168255
3.344,-0.005261729589509517
3.348,-0.005270384184962612
3.352,-0.0052906022815627585
3.356,-0.005294112200829848
3.36,-0.0053011079988211
3.364,-0.005303512053113626
3.368,-0.0052938717954005956
3.372,-0.00529298229531236
3.376,-0.005294689173860054
3.38,-0.005291924511423648
3.384,-0.005282765064569123
3.388,-0.005282861226740824
3.392,-0.005296299890236047
3.396,-0.00529257360608263
3.4,-0.005291611984365619
3.404,-0.005286058618949883
3.408,-0.005280361010276596
3.412,-0.005280072523761493
3.416,-0.005283342037599329
3.42,-0.005276153915264675
3.424,-0.005263917278915716
3.428,-0.0052852171999475
3.432,-0.005290962889706637
3.436,-0.0052874289298966235
3.44,-0.0052858422540635564
3.444,-0.005287501051525399
3.448,-0.005288102065098531
3.452,-0.005286539429808389
3.456,-0.005281082226564354
3.46,-0.0052665857791804205
3.464,-0.0052450214121764595
3.468,-0.005277187658610461
3.472,-0.005289544497674047
3.476,-0.005276322199065152
3.48,-0.005275793307120797
3.484,-0.005274422996174056
3.488,-0.005270672671477715
3.492,-0.005269061955101723
3.496,-0.005270840955278192
3.5,-0.005264181724887894
3.504,-0.005260575643449105
3.508,-0.005274182590744803
3.512,-0.005274471077259907
3.516,-0.005272307428396633
3.52,-0.005277596347840191
3.524,-0.005278197361413323
3.528,-0.005267787806326684
3.532,-0.005254108737402209
3.536,-0.005248699615244025
3.54,-0.0052858422540635564
3.544,-0.0052858422540635564
3.548,-0.005278557969557202
3.552,-0.005274951888118412
3.556,-0.005268460941528591
3.56,-0.005264686576289325
3.564,-0.0052634845491430615
3.568,-0.005266008806150214
3.572,-0.005263003738284556
3.576,-0.005251632561480907
3.58,-0.005258844724358486
3.584,-0.005275312496262291
3.588,-0.005266874265695523
3.592,-0.0052562723862654825
3.596,-0.005252113372339412
3.6,-0.00526105645430761
3.604,-0.005267619522526207
3.608,-0.005263051819370407
3.612,-0.005257017643096166
3.616,-0.005249132345016679
3.62,-0.00524187210105325
3.624,-0.005251656602023832
3.628,-0.0052512719533370274
3.632,-0.005247569709726538
3.636,-0.00524603111497932
3.64,-0.005243410695800466
3.644,-0.005244684844575505
3.648,-0.005239852695447527
3.652,-0.005251897007453084
3.656,-0.005261537265166115
3.66,-0.00525059881813512
3.664,-0.005241319168565969
3.668,-0.005247281223211434
3.672,-0.005257113805267867
3.676,-0.005265047184433203
3.68,-0.005261777670595368
3.684,-0.00525151235876628
3.688,-0.005249781439675662
3.692,-0.005248074561127968
3.696,-0.00524004501979093
3.7,-0.005236775505953094
3.704,-0.005241824019967399
3.708,-0.005232207802797294
3.712,-0.0052283613159292515
3.716,-0.005213360017143887
3.72,-0.005200330042878395
3.724,-0.005213961030717019
3.728,-0.005248795777415725
3.732,-0.0052560319808362295
3.736,-0.005246728290724153
3.74,-0.005253459642743227
3.744,-0.005253411561657376
3.748,-0.005235453276092205
3.7520000000000002,-0.005228120910499999
3.7560000000000002,-0.005237520762783777
3.7600000000000002,-0.005236607222152617
3.7640000000000002,-0.005238987235902218
3.7680000000000002,-0.005235044586862475
3.7720000000000002,-0.005236414897809215
3.7760000000000002,-0.005245285858148637
3.7800000000000002,-0.005249949723476139
3.7840000000000003,-0.005243050087656588
3.7880000000000003,-0.005236799546496019
3.7920000000000003,-0.005228842126787757
3.7960000000000003,-0.005225452410235295
3.8000000000000003,-0.005242521195712232
3.8040000000000003,-0.005243458776886317
3.8080000000000003,-0.0052362946950945885
3.8120000000000003,-0.005226822721182035
3.8160000000000003,-0.0052187691393020715
3.8200000000000003,-0.0052347080192615214
3.8240000000000003,-0.00525009396673369
3.8280000000000003,-0.005235717722064382
3.8320000000000003,-0.0052229041126852175
3.8360000000000003,-0.005224755234490462
3.84,-0.005231775073024639
3.844,-0.005236078330208262
3.848,-0.005227640099641494
3.852,-0.005213335976600962
3.856,-0.005228721924073131
3.86,-0.005236054289665336
3.864,-0.005246295560951499
3.868,-0.005242064425396652
3.872,-0.005240982600965015
3.876,-0.005240670073906987
3.88,-0.005239684411647051
3.884,-0.0052401892630484816
3.888,-0.005234395492203493
3.892,-0.005225452410235295
3.896,-0.00523095769456518
3.9,-0.005235453276092205
3.904,-0.0052283613159292515
3.908,-0.005224082099288555
3.912,-0.005222375220740861
3.916,-0.005197853866957093
3.92,-0.005208455746387134
3.924,-0.005245382020320338
3.928,-0.005237352478983301
3.932,-0.0052296354647042905
3.936,-0.005217807517585061
3.94,-0.005220211571877588
3.944,-0.0052194903555898295
3.948,-0.005217735395956285
3.952,-0.0052248033155763126
3.956,-0.005225380288606519
3.96,-0.005212302233255176
3.964,-0.0051965797181820535
3.968,-0.00523095769456518
3.972,-0.005252161453425263
3.976,-0.005225909180550875
3.98,-0.005212855165742457
3.984,-0.005220692382736093
3.988,-0.005227567978012718
3.992,-0.005231847194653415
3.996,-0.005220692382736093
4.0,-0.005216701652610499
4.0040000000000004,-0.005209705854619248
4.008,-0.005209249084303667
4.0120000000000005,-0.005211869503482521
4.016,-0.0052077585706423015
4.0200000000000005,-0.005207013313811618
4.024,-0.005200570448307648
4.0280000000000005,-0.0051987193265024025
4.032,-0.005200834894279825
4.0360000000000005,-0.005196772042525456
4.04,-0.005196772042525456
4.0440000000000005,-0.005202565813370444
4.048,-0.005222639666713039
4.0520000000000005,-0.005220139450248812
4.056,-0.005210258787106529
4.0600000000000005,-0.005220788544907794
4.064,-0.005231366383794909
4.0680000000000005,-0.005228433437558027
4.072,-0.005224226342546106
4.0760000000000005,-0.0052149707335198804
4.08,-0.005202998543143099
4.0840000000000005,-0.005201844597082687
4.088,-0.005204633300062017
4.0920000000000005,-0.00521537942274961
4.096,-0.005220139450248812
4.1,-0.005214850530805254
4.104,-0.005198262556186823
4.108,-0.005196171028952324
4.112,-0.005209273124846593
4.116,-0.005206027651551683
4.12,-0.0052016522727392845
4.124,-0.005196675880353755
4.128,-0.005199945394191591
4.132,-0.005191963933940402
4.136,-0.005179631135419742
4.14,-0.005210186665477753
4.144,-0.005215788111979339
4.148,-0.005193935258460274
4.152,-0.005188790582274267
4.156,-0.005210210706020678
4.16,-0.005210090503306052
4.164,-0.0052018926781685374
4.168,-0.0051979259885858685
4.172,-0.005198502961616075
4.176,-0.005192180298826729
4.18,-0.005204104408117661
4.184,-0.005205354516349775
4.188,-0.005201267624052481
4.192,-0.00519898377247458
4.196,-0.005199416502247235
4.2,-0.005197421137184438
4.204,-0.005194608393662183
4.208,-0.005199152056275057
4.212,-0.005200786813193975
4.216,-0.0051911705960238684
4.22,-0.005174726864662989
4.224,-0.005183597825002411
4.228,-0.005206484421867262
4.232,-0.005215139017320357
4.236,-0.005213528300944364
4.24,-0.005192925555657413
4.244,-0.005174750905205913
4.248,-0.005198839529217029
4.252,-0.005209465449189995
4.256,-0.005201508029481733
4.26,-0.00519802215075757
4.264,-0.005199921353648666
4.268,-0.0052021330835977896
4.272,-0.005194295866604154
4.276,-0.005186170163095413
4.28,-0.00517989558139192
4.284,-0.00518268428437125
4.288,-0.0051846796494340475
4.292,-0.0051811937707098845
4.296,-0.005176626067554084
4.3,-0.005174270094347408
4.304,-0.0051809533652806316
4.308,-0.00517898204076076
4.312,-0.005181073567995258
4.316,-0.005179270527275863
4.32,-0.005199464583333086
4.324,-0.005198214475100972
4.328,-0.005179703257048518
4.332,-0.005176914554069188
4.336,-0.005193286163801292
4.34,-0.005194920920720211
4.344,-0.00519126675819557
4.348,-0.005190208974306858
4.352,-0.005182467919484924
4.356,-0.005180881243651856
4.36,-0.005187636636213855
4.364,-0.005189199271503997
4.368,-0.005171481391368078
4.372,-0.005153619267974608
4.376,-0.005152128754313241
4.38,-0.005151263294767932
4.384,-0.005149820862192416
4.388,-0.005168788850560448
4.392,-0.005165759742151865
4.396,-0.005151046929881604
4.4,-0.0051616007282257945
4.404,-0.00516979855336331
4.408,-0.005161023755195588
4.412,-0.005165976107038193
4.416,-0.005166817526040577
4.42,-0.005157441714299724
4.424,-0.005141791320855377
4.428,-0.005149147726990508
4.432,-0.005175568283665373
4.436,-0.00516984663444916
4.44,-0.005169461985762356
4.444,-0.005168139755901466
4.448,-0.005163067201344236
4.452,-0.0051628748770008335
4.456,-0.005164485593376827
4.46,-0.005159437079362521
4.464,-0.0051379688745302595
4.468,-0.005151599862368885
4.472,-0.005170062999335487
4.476,-0.0051735729186025755
4.48,-0.005173669080774277
4.484,-0.005167586823414185
4.488,-0.005162682552657432
4.492,-0.005158162930587482
4.496,-0.005153763511232159
4.5,-0.0051419355641129285
4.5040000000000004,-0.005152465321914195
4.508,-0.005159605363162998
4.5120000000000005,-0.005172178567112911
4.516,-0.0051652548907504345
4.5200000000000005,-0.0051612882011677665
4.524,-0.005153955835575561
4.5280000000000005,-0.0051516960245405865
4.532,-0.005147200443013562
4.5360000000000005,-0.005148258226902274
4.54,-0.005160278498364906
4.5440000000000005,-0.005158715863074763
4.548,-0.005165639539437239
4.5520000000000005,-0.0051620094174555245
4.556,-0.005143979010261575
4.5600000000000005,-0.005152633605714671
4.564,-0.005161192038996065
4.5680000000000005,-0.005169341783047729
4.572,-0.005172947864486519
4.5760000000000005,-0.005165903985409417
4.58,-0.005160855471395112
4.5840000000000005,-0.00516162476876872
4.588,-0.005164173066318798
4.5920000000000005,-0.005164798120434855
4.596,-0.005159437079362521
4.6000000000000005,-0.005146839834869683
4.604,-0.0051500372270787435
4.6080000000000005,-0.005147609132243292
4.612,-0.0051494842945914625
4.616,-0.005151744105626437
4.62,-0.005154701092406244
4.624,-0.005151311375853782
4.628,-0.005138642009732167
4.632,-0.00513426663091977
4.636,-0.005152152794856166
4.64,-0.005168620566759972
4.644,-0.0051695341073911315
4.648,-0.005166697323325951
4.652,-0.005158211011673333
4.656,-0.005141334550539797
4.66,-0.005137536144757605
4.664,-0.005160086174021503
4.668,-0.005150926727166978
4.672,-0.005139459388191626
4.676,-0.005147801456586693
4.68,-0.005166240553010371
4.684,-0.005159821728049325
4.688,-0.005150734402823575
4.692,-0.00514385880754695
4.696,-0.00514436365894838
4.7,-0.005148113983644722
4.704,-0.005146815794326758
4.708,-0.005150301673050921
4.712,-0.005150566119023099
4.716,-0.00514482042926396
4.72,-0.005141358591082722
4.724,-0.00514436365894838
4.728,-0.005152801889515148
4.732,-0.005141815361398302
4.736,-0.005147344686271114
4.74,-0.005167226215270306
4.744,-0.00516071122813756
4.748,-0.00514116626673932
4.752,-0.005144940631978586
4.756,-0.005149147726990508
4.76,-0.005150782483909426
4.764,-0.005137295739328353
4.768,-0.005134242590376844
4.772,-0.005146479226725805
4.776,-0.005138593928646316
4.78,-0.005139243023305299
4.784,-0.005142175969542181
4.788,-0.005151431578568408
4.792,-0.005148979443190031
4.796,-0.0051430414290874905
4.8,-0.005139892117964281
4.804,-0.005136406239240118
4.808,-0.005138089077244886
4.812,-0.005153571186888757
4.816,-0.005151671983997661
4.82,-0.00513888241516142
4.824,-0.005132535711829151
4.828,-0.005146238821296552
4.832,-0.0051452050779507656
4.836,-0.005139771915249654
4.84,-0.005133954103861741
4.844,-0.005120948170139174
4.848,-0.005126741940984162
4.852,-0.005138473725931691
4.856,-0.005135108049922153
4.86,-0.0051336175362607876
4.864,-0.005153450984174131
4.868,-0.005150950767709903
4.872,-0.005145325280665391
4.876,-0.005143810726461099
4.88,-0.00514299334800164
4.884,-0.0051481380241876476
4.888,-0.0051459022536955975
4.892,-0.00514349819940307
4.896,-0.005139435347648701
4.9,-0.0051366226041264455
4.904,-0.005139363226019925
4.908,-0.005144171334604978
4.912,-0.0051486909566749285
4.916,-0.005145830132066822
4.92,-0.005128544981703557
4.924,-0.0051105386150525345
4.928,-0.005132463590200375
4.932,-0.005142897185829939
4.936,-0.005136286036525491
4.94,-0.005130348022422951
4.944,-0.005120226953851416
4.948,-0.005112966709887986
4.952,-0.005099407843678138
4.956,-0.0051177507779301135
4.96,-0.005114529345178128
4.964,-0.005114889953322007
4.968,-0.005116861277841879
4.972,-0.005128593062789407
4.976,-0.005131862576627243
4.98,-0.005131021157624859
4.984,-0.005122823332487344
4.988,-0.0051149861154937085
4.992,-0.005114168737034249
4.996,-0.005116236223725822
5.0,-0.0051211645350255006
5.0040000000000004,-0.005125612035466675
5.008,-0.0051174382508720855
5.0120000000000005,-0.005108591331075588
5.016,-0.005101066641139981
5.0200000000000005,-0.005127150630213891
5.024,-0.005137776550186858
5.0280000000000005,-0.005137872712358559
5.032,-0.005132391468571599
5.0360000000000005,-0.005114409142463502
5.04,-0.005094912262151113
5.0440000000000005,-0.005108014358045382
5.048,-0.005116284304811673
5.0520000000000005,-0.005110202047451581
5.056,-0.005110827101567638
5.0600000000000005,-0.005109384668992122
5.064,-0.005115947737210719
5.0680000000000005,-0.005122462724343465
5.072,-0.005117606534672562
5.0760000000000005,-0.005124746575921365
5.08,-0.005126068805782254
5.0840000000000005,-0.005115755412867316
5.088,-0.005122871413573195
5.0920000000000005,-0.0051294104412488665
5.096,-0.0051214049404547535
5.1000000000000005,-0.005114288939748876
5.104,-0.0051019801817711406
5.1080000000000005,-0.005089262734563677
5.112,-0.0051118848854563494
5.1160000000000005,-0.005129194076362539
5.12,-0.00512102029176795
5.124,-0.00511654875078385
5.128,-0.0051208520079674726
5.132,-0.00511924129159148
5.136,-0.005119553818649508
5.14,-0.005122703129772718
5.144,-0.005123087778459522
5.148,-0.005116524710240925
5.152,-0.005111043466453965
5.156,-0.0051126061017441075
5.16,-0.005125347589494496
5.164,-0.0051219578729420345
5.168,-0.005114000453233772
5.172,-0.00512294353520197
5.176,-0.005120034629508013
5.18,-0.005110514574509609
5.184,-0.005108062439131232
5.188,-0.0051176786563013376
5.192,-0.005106307479497688
5.196,-0.005107870114787831
5.2,-0.0051262370895827315
5.204,-0.005135156131008004
5.208,-0.005129194076362539
5.212,-0.005126381332840283
5.216,-0.005128232454645529
5.22,-0.0051256841570954505
5.224,-0.005124938900264767
5.228,-0.005126982346413415
5.232,-0.005127679522158248
5.236,-0.00511604389938242
5.24,-0.005114168737034249
5.244,-0.005100850276253653
5.248,-0.005089358896735377
5.252,-0.005127054468042191
5.256,-0.005139194942219448
5.26,-0.005119938467336312
5.264,-0.005113976412690847
5.268,-0.005109793358221851
5.272,-0.005102509073715496
5.276,-0.00511700552109943
5.28,-0.005124458089406262
5.284,-0.00512202999457081
5.288,-0.005120731805252846
5.292,-0.005118087345531068
5.296,-0.005117606534672562
5.3,-0.005106932533613745
5.304,-0.005094719937807711
5.308,-0.005116500669698
5.312,-0.005140132523393534
5.316,-0.005135420576980182
5.32,-0.005124530211035038
5.324,-0.005125323548951572
5.328,-0.0051206837241669955
5.332,-0.005099479965306914
5.336,-0.00510960103387845
5.34,-0.005123664751489728
5.344,-0.005107148898500073
5.348,-0.005103182208917404
5.352,-0.005106595966012792
5.356,-0.0051070527363283715
5.36,-0.005101355127655084
5.364,-0.005092003356457157
5.368,-0.005104576560407069
5.372,-0.00512294353520197
5.376,-0.005120010588965088
5.38,-0.00511517843983711
5.384,-0.0051126061017441075
5.388,-0.005102100384485767
5.392,-0.0050910417347401465
5.396,-0.005111115588082741
5.4,-0.00511604389938242
5.404,-0.0051046727225787705
5.408,-0.005119313413220256
5.412,-0.005114938034407858
5.416,-0.0051118127638275735
5.42,-0.005125948603067628
5.424,-0.005121044332310875
5.428,-0.005111981047628051
5.432,-0.005106115155154286
5.436,-0.005108110520217083
5.44,-0.005114769750607381
5.444,-0.005107870114787831
5.448,-0.005089671423793406
5.452,-0.005088277072303741
5.456,-0.005100657951910252
5.46,-0.005106115155154286
5.464,-0.0051030139251169275
5.468,-0.0051079181958736805
5.472,-0.005108471128360962
5.476,-0.0051087115337902144
5.48,-0.005106115155154286
5.484,-0.005089431018364153
5.488,-0.005091161937454772
5.492,-0.005112461858486556
5.496,-0.005116356426440448
5.5,-0.005108615371618513
5.5040000000000004,-0.005096378735269555
5.508,-0.005086930801899926
5.5120000000000005,-0.00508863768044762
5.516,-0.00511376004780452
5.5200000000000005,-0.005117630575215487
5.524,-0.005112726304458733
5.5280000000000005,-0.005111764682741723
5.532,-0.0051176786563013376
5.5360000000000005,-0.005101066641139981
5.54,-0.00509553731626717
5.5440000000000005,-0.005107341222843474
5.548,-0.005110923263739338
5.5520000000000005,-0.0051121252908856015
5.556,-0.0051123656963148545
5.5600000000000005,-0.00510101856005413
5.564,-0.005075583665639202
5.5680000000000005,-0.005085272004438083
5.572,-0.005102989884574002
5.5760000000000005,-0.0051059468713538095
5.58,-0.005100994519511205
5.5840000000000005,-0.005101859979056515
5.588,-0.005104384236063667
5.5920000000000005,-0.005106067074068436
5.596,-0.005094383370206758
5.6000000000000005,-0.005082194814943649
5.604,-0.005089262734563677
5.6080000000000005,-0.00510010501942297
5.612,-0.005095729640610573
5.6160000000000005,-0.0050870750451574775
5.62,-0.0050977730867592195
5.6240000000000006,-0.005101787857427739
5.628,-0.00510142724928386
5.632,-0.005100657951910252
5.636,-0.005090368599538239
5.64,-0.005077915598302952
5.644,-0.00507036686782442
5.648,-0.005080151368795002
5.652,-0.0050737565843768815
5.656,-0.0050705111110819715
5.66,-0.005078973382191664
5.664,-0.0050830362339460335
5.668,-0.005075415381838725
5.672,-0.005077891557760027
5.676,-0.005093301545775121
5.68,-0.005088541518275919
5.684,-0.005081425517570041
5.688,-0.005076978017128867
5.692,-0.005085223923352232
5.696,-0.0050887338426193205
5.7,-0.005084430585435699
5.704,-0.005086305747783869
5.708,-0.0050890944507632
5.712,-0.005086161504526318
5.716,-0.005084598869236175
5.72,-0.005076665490070838
5.724,-0.005088854045333947
5.728,-0.005082843909602631
5.732,-0.005061327623684521
5.736,-0.005063996123949225
5.74,-0.005064116326663851
5.744,-0.005076569327899138
5.748,-0.005078468530790233
5.752,-0.0050609189344547915
5.756,-0.005062505610287859
5.76,-0.0050876279776447585
5.764,-0.0050819303689714716
5.768,-0.005071400611170206
5.772,-0.005083757450233792
5.776,-0.00508274774743093
5.78,-0.005075583665639202
5.784,-0.005070294746195644
5.788,-0.00506762624593094
5.792,-0.005063827840148748
5.796,-0.005081978450057322
5.8,-0.005086546153213122
5.804,-0.0050706553543395224
5.808,-0.005065991489012022
5.812,-0.005086906761357
5.816,-0.005098975113905483
5.82,-0.0050920754780859325
5.824,-0.005079261868706767
5.828,-0.0050724824356018425
5.832,-0.005078708936219486
5.836,-0.0050825554230875284
5.84,-0.0050763770035557355
5.844,-0.005075247098038248
5.848,-0.00507950227413602
5.852,-0.005081473598655891
5.856,-0.005073684462748106
5.86,-0.00507680973332839
5.864,-0.005088926166962723
5.868,-0.005081714004085144
5.872,-0.005066640583671004
5.876,-0.005070775557054149
5.88,-0.0050865221126701965
5.884,-0.005082218855486574
5.888,-0.0050754875034675
5.892,-0.005069886056965915
5.896,-0.005075271138581174
5.9,-0.00508092066616861
5.904,-0.005074886489894369
5.908,-0.005062938340060513
5.912,-0.005069693732622512
5.916,-0.005086329788326794
5.92,-0.005085344126066859
5.924,-0.00507498265206607
5.928,-0.005068251300046996
5.932,-0.005067001191814883
5.936,-0.0050833487610040615
5.94,-0.00508274774743093
5.944,-0.005081161071597863
5.948,-0.0050812091526837135
5.952,-0.005071352530084355
5.956,-0.005069116759592306
5.96,-0.005053875055377689
5.964,-0.005065606840325218
5.968,-0.005077819436131252
5.972,-0.0050726507194023196
5.976,-0.00505990923165193
5.98,-0.005057384974644778
5.984,-0.005065077948380862
5.988,-0.005068876354163053
5.992,-0.0050801032877091515
5.996,-0.005072049705829188
6.0,-0.005059356299164649
6.0040000000000004,-0.005084743112493727
6.008,-0.0050828679501455564
6.0120000000000005,-0.005075703868353828
6.016,-0.0050743095168641625
6.0200000000000005,-0.00507224203017259
6.024,-0.005067145435072434
6.0280000000000005,-0.005060630447939688
6.032,-0.005060630447939688
6.0360000000000005,-0.005062385407573232
6.04,-0.005068275340589921
6.0440000000000005,-0.005061183380426969
6.048,-0.005044859851780714
6.0520000000000005,-0.00505534152849613
6.056,-0.005068227259504072
6.0600000000000005,-0.005071208286826804
6.064,-0.0050697177731654375
6.0680000000000005,-0.005063082583318065
6.072,-0.005067482002673388
6.0760000000000005,-0.005069261002849858
6.08,-0.005046542689785482
6.0840000000000005,-0.005057072447586749
6.088,-0.005069381205564484
6.0920000000000005,-0.005054980920352252
6.096,-0.005063082583318065
6.1000000000000005,-0.0050766174089849885
6.104,-0.005072217989629665
6.1080000000000005,-0.005064188448292627
6.112,-0.005066015529554947
6.1160000000000005,-0.005069693732622512
6.12,-0.005063419150919019
6.1240000000000006,-0.005063491272547794
6.128,-0.005063515313090719
6.132000000000001,-0.005055149204152728
6.136,-0.005053105758004081
6.140000000000001,-0.0050571205286726
6.144,-0.005056832042157496
6.148,-0.005045965716755276
6.152,-0.0050283199582481335
6.156,-0.005044451162550985
6.16,-0.005092219721343484
6.164,-0.005089623342707556
6.168,-0.005064068245578
6.172,-0.005045172378838743
6.176,-0.005043826108434928
6.18,-0.0050394988107083805
6.184,-0.005047480270959569
6.188,-0.00506772240810264
6.192,-0.005063899961777524
6.196,-0.005053995258092315
6.2,-0.005049619879279917
6.204,-0.005054187582435718
6.208,-0.005056615677271169
6.212,-0.005055053041981027
6.216,-0.005046037838384052
6.22,-0.005047768757474673
6.224,-0.0050532980823474825
6.228,-0.005038513148448445
6.232,-0.00503620525632762
6.236,-0.005062673894088336
6.24,-0.0050651981510954885
6.244,-0.005060390042510436
6.248,-0.005053250001261632
6.252,-0.0050408450811121955
6.256,-0.005043441459748124
6.26,-0.005057601339531105
6.264,-0.005058803366677368
6.268,-0.00505300959583238
6.272,-0.005046542689785482
6.276,-0.0050402921486249145
6.28,-0.005038681432248921
6.284,-0.005043729946263227
6.288,-0.0050382246619333415
6.292,-0.005038825675506473
6.296,-0.00505666375835702
6.3,-0.005046470568156707
6.304,-0.005047840879103448
6.308,-0.00506493370512331
6.312,-0.0050527451498602015
6.316,-0.00505214413628707
6.32,-0.005064500975350656
6.324,-0.005062673894088336
6.328,-0.005056495474556543
6.332,-0.00504986028470917
6.336,-0.005034233931807748
6.34,-0.00503671010772905
6.344,-0.00503630141849932
6.348,-0.005040220026996139
6.352,-0.00503945072962253
6.356,-0.005039546891794231
6.36,-0.005057240731387226
6.364,-0.005057673461159881
6.368,-0.005046446527613782
6.372,-0.005035219594067684
6.376,-0.0050379121348753135
6.38,-0.005036493742842723
6.384,-0.005040748918940494
6.388,-0.005057409015187703
6.392,-0.005021732849486611
6.396,-0.0050131744162052174
6.4,-0.005046590770871335
6.404,-0.0050582985152759375
6.408,-0.005064597137522357
6.412,-0.005064525015893581
6.416,-0.005057577298988179
6.42,-0.005036109094155919
6.424,-0.005056110825869739
6.428,-0.0050489467440780105
6.432,-0.00504031618916784
6.436,-0.005059428420793425
6.44,-0.005051663325428565
6.444,-0.005017838281532718
6.448,-0.004991345603229077
6.452,-0.005021877092744162
6.456,-0.0050291854177934425
6.46,-0.005032815539775157
6.464,-0.00501711706524496
6.468,-0.004971752560744988
6.472,-0.004950644964056607
6.476,-0.005030531688197257
6.48,-0.005056062744783888
6.484,-0.0050389458782210995
6.488,-0.005038657391705997
6.492,-0.004990047413911113
6.496,-0.004983316061892039
6.5,-0.005043874189520779
6.5040000000000004,-0.005039835378309335
6.508,-0.005046999460101064
6.5120000000000005,-0.005075775989982604
6.516,-0.005055221325781504
6.5200000000000005,-0.00502072314668375
6.524,-0.005012717645889638
6.5280000000000005,-0.005030291282768004
6.532,-0.005018126768047822
6.5360000000000005,-0.005020338497996946
6.54,-0.005007693172418257
6.5440000000000005,-0.004995552698240998
6.548,-0.005022910836089949
6.5520000000000005,-0.005018559497820476
6.556,-0.005018463335648775
6.5600000000000005,-0.0050259399444985324
6.564,-0.005029017133992966
6.5680000000000005,-0.00502844016096276
6.572,-0.005018006565333195
6.5760000000000005,-0.005007717212961183
6.58,-0.0050123810782886835
6.5840000000000005,-0.005011371375485823
6.588,-0.0049860566837855195
6.5920000000000005,-0.00494687059881734
6.596,-0.00497783481810508
6.6000000000000005,-0.005052937474203604
6.604,-0.005026589039157515
6.6080000000000005,-0.0050024042529747
6.612,-0.00503985941885226
6.6160000000000005,-0.005019328795194085
6.62,-0.004999495347280743
6.6240000000000006,-0.0050016830366869415
6.628,-0.005031589472085969
6.632000000000001,-0.0050306999719977345
6.636,-0.004989181954365804
6.640000000000001,-0.004972714182461998
6.644,-0.005001033942027959
6.648000000000001,-0.005013510983806171
6.652,-0.005043177013775946
6.656000000000001,-0.005015025538010463
6.66,-0.00499483148195324
6.664,-0.004983195859177413
6.668,-0.005006226699299816
6.672,-0.004998173117419853
6.676,-0.004971968925631315
6.68,-0.0049406200576567715
6.684,-0.004994398752180586
6.688,-0.004977858858648004
6.692,-0.004960621789370591
6.696,-0.005021925173830013
6.7,-0.005030988458512837
6.704,-0.005016636254386455
6.708,-0.00501711706524496
6.712,-0.005009784699652756
6.716,-0.004992739954718743
6.72,-0.0049825708050613565
6.724,-0.0049629056409484906
6.728,-0.004970550533598725
6.732,-0.004957881167477111
6.736,-0.004953337504864236
6.74,-0.004942615422719569
6.744,-0.004966103033157551
6.748,-0.005021925173830013
6.752,-0.005008270145448464
6.756,-0.004988124170477092
6.76,-0.00498016675076883
6.764,-0.0049828833321193845
6.768,-0.0049487938422513615
6.772,-0.004889029052539156
6.776,-0.004957183991732278
6.78,-0.005036469702299797
6.784,-0.004991081157256899
6.788,-0.004964997168182989
6.792,-0.005013318659462769
6.796,-0.004995889265841952
6.8,-0.004955837721328463
6.804,-0.0049825708050613565
6.808,-0.004991706211372956
6.812,-0.004974493182638468
6.816,-0.0049746374258960195
6.82,-0.004973098831148802
6.824,-0.004973098831148802
6.828,-0.004973219033863429
6.832,-0.004977450169418275
6.836,-0.00497148811477281
6.84,-0.004966583844016056
6.844,-0.004976608750415891
6.848,-0.00497377196635071
6.852,-0.004953481748121788
6.856,-0.00493590811124342
6.86,-0.0049522797209755245
6.864,-0.004995336333354671
6.868,-0.004971872763459614
6.872,-0.004952616288576478
6.876,-0.004982666967233057
6.88,-0.004970646695770425
6.884,-0.0049805033183697835
6.888,-0.004975046115125749
6.892,-0.004963314330178221
6.896,-0.004973675804179008
6.9,-0.004973699844721934
6.904,-0.00497418065558044
6.908,-0.004966391519672654
6.912,-0.0049650452492688395
6.916,-0.0049778828991909295
6.92,-0.004999158779679789
6.924,-0.004982763129404758
6.928,-0.004947014842074892
6.932,-0.00494869768007966
6.936,-0.00496422787080938
6.94,-0.004963554735607473
6.944,-0.0049581456134492885
6.948,-0.004938841057480302
6.952,-0.00492814301587856
6.956,-0.0049696369929675644
6.96,-0.004981488980629719
6.964,-0.004965381816869793
6.968,-0.00494184612534596
6.972,-0.004964516357324484
6.976,-0.004984830616096331
6.98,-0.004963073924748968
6.984,-0.004949923747768849
6.988,-0.004954803977982677
6.992,-0.004967809911705244
6.996,-0.004971271749886482
7.0,-0.004987138508217156
7.0040000000000004,-0.0049705264930558
7.008,-0.0049523518426043
7.0120000000000005,-0.004946221504158358
7.016,-0.004952375883147226
7.0200000000000005,-0.0049605256271988895
7.024,-0.004949491017996194
7.0280000000000005,-0.004959852491996982
7.032,-0.004967112735960412
7.0360000000000005,-0.004968434965821301
7.04,-0.004963410492349922
7.0440000000000005,-0.0049554530726416595
7.048,-0.004961054519143245
7.0520000000000005,-0.004968386884735451
7.056,-0.004965429897955643
7.0600000000000005,-0.0049600448163403844
7.064,-0.004961343005658349
7.0680000000000005,-0.004964660600582035
7.072,-0.0049557655996996875
7.0760000000000005,-0.0049428558281488216
7.08,-0.00494001904408364
7.0840000000000005,-0.004939418030510508
7.088,-0.004951414261430215
7.0920000000000005,-0.004969180222651985
7.096,-0.004973435398749756
7.1000000000000005,-0.004975382682726703
7.104,-0.004959564005481879
7.1080000000000005,-0.004956943586303025
7.112,-0.004948096666506529
7.1160000000000005,-0.004948361112478707
7.12,-0.004955645396985061
7.1240000000000006,-0.004953193261606685
7.128,-0.004951654666859468
7.132000000000001,-0.0049524480047760016
7.136,-0.004951197896543888
7.140000000000001,-0.004940547936027996
7.144,-0.004953529829207638
7.148000000000001,-0.004956246410558193
7.152,-0.0049376149897911135
7.156000000000001,-0.004937663070876964
7.16,-0.0049778107775621545
7.164000000000001,-0.004974324898837991
7.168,-0.004964876965468362
7.172,-0.004952496085861852
7.176,-0.004945259882441348
7.18,-0.004949370815281568
7.184,-0.004948481315193333
7.188,-0.004935739827442944
7.192,-0.004922277123404796
7.196,-0.0049104251357426415
7.2,-0.004932638597405585
7.204,-0.004937783273591591
7.208,-0.004950596882970756
7.212,-0.004941798044260109
7.216,-0.0049402354089699676
7.22,-0.004950332436998578
7.224,-0.004927590083391279
7.228,-0.004920233677256148
7.232,-0.0049403075305987434
7.236,-0.004964107668094754
7.24,-0.004941966328060586
7.244,-0.004928719988908766
7.248,-0.004934297394867428
7.252,-0.004941245111772828
7.256,-0.004939418030510508
7.26,-0.004933287692064567
7.264,-0.004927373718504951
7.268,-0.004935619624728317
7.272,-0.004962328667918284
7.276,-0.004956102167300642
7.28,-0.004956823383588399
7.284,-0.004953289423778385
7.288,-0.004947351409675845
7.292,-0.004943841490408757
7.296,-0.0049448271526686925
7.3,-0.004950548801884906
7.304,-0.004940716219828473
7.308,-0.00491941629879669
7.312,-0.0049365812464453275
7.316,-0.0049448271526686925
7.32,-0.0049216039882028885
7.324,-0.004921267420601935
7.328,-0.0049365812464453275
7.332,-0.00491626698767348
7.336,-0.004928888272709243
7.34,-0.0049546597347251255
7.344,-0.004958313897249766
7.348,-0.004947111004246593
7.352,-0.0049410287468865015
7.356,-0.004943913612037533
7.36,-0.004944803112125767
7.364,-0.0049415816793737825
7.368,-0.004936244678844374
7.372,-0.004931268286458844
7.376,-0.004925546637242632
7.38,-0.004926556340045493
7.384,-0.0049269890698181475
7.388,-0.004929825853883328
7.392,-0.004919031650109885
7.396,-0.004911146352030399
7.4,-0.00492864786727999
7.404,-0.004927205434704475
7.408,-0.004942543301090793
7.412,-0.004953433667035937
7.416,-0.0049343695164962035
7.42,-0.004932422232519257
7.424,-0.004937951557392068
7.428,-0.004936437003187776
7.432,-0.004932374151433406
7.436,-0.004930450907999385
7.44,-0.0049285036240224395
7.444,-0.00492307046132133
7.448,-0.004932758800120211
7.452,-0.004937663070876964
7.456,-0.004942206733489839
7.46,-0.0049418942064318105
7.464,-0.004932470313605108
7.468,-0.004922517528834049
7.472,-0.004920594285400028
7.476,-0.004916675676903209
7.48,-0.004908862500452499
7.484,-0.004943312598464401
7.488,-0.004944947355383319
7.492,-0.00493819196282132
7.496,-0.004934177192152801
7.5,-0.004927974732078083
7.5040000000000004,-0.00493129232700177
7.508,-0.00492535431289923
7.5120000000000005,-0.004912492622434214
7.516,-0.004914151419896057
7.5200000000000005,-0.004919824988026419
7.524,-0.004925426434528006
7.5280000000000005,-0.004925955326472361
7.532,-0.0049376149897911135
7.5360000000000005,-0.004948481315193333
7.54,-0.004953818315722741
7.5440000000000005,-0.0049472071664182935
7.548,-0.004939418030510508
7.5520000000000005,-0.00492357531272276
7.556,-0.004914920717269665
7.5600000000000005,-0.004903164891779212
7.564,-0.00492535431289923
7.5680000000000005,-0.004944706949954067
7.572,-0.004936725489702879
7.5760000000000005,-0.004934778205725933
7.58,-0.004934153151609876
7.5840000000000005,-0.004920930853000981
7.588,-0.004909848162712435
7.5920000000000005,-0.004926844826560596
7.596,-0.004926652502217194
7.6000000000000005,-0.00490845381122277
7.604,-0.0049162910282164055
7.6080000000000005,-0.004920618325942953
7.612,-0.004921724190917515
7.6160000000000005,-0.004927349677962027
7.62,-0.0049392016656241815
7.6240000000000006,-0.004935571543642467
7.628,-0.004924873502040725
7.632000000000001,-0.0049285757456512145
7.636,-0.004923623393808611
7.640000000000001,-0.004919344177167914
7.644,-0.004926965029275222
7.648000000000001,-0.004928936353795094
7.652,-0.004930691313428638
7.656000000000001,-0.004924753299326098
7.66,-0.004916940122875388
7.664000000000001,-0.004916627595817359
7.668,-0.004925570677785557
7.672000000000001,-0.0049143918253253096
7.676,-0.004911627162888905
7.68,-0.004918695082508932
7.684,-0.004943144314663924
7.688,-0.004939153584538331
7.692,-0.004938336206078872
7.696,-0.004928527664565365
7.7,-0.004931508691888097
7.704,-0.004951029612743411
7.708,-0.004931941421660752
7.712,-0.0049266044211313436
7.716,-0.004929657570082852
7.72,-0.004930138380941357
7.724,-0.004932710719034361
7.728,-0.004927758367191756
7.732,-0.00492352723163691
7.736,-0.004925017745298276
7.74,-0.004936220638301449
7.744,-0.004934105070524025
7.748,-0.00493266263794851
7.752,-0.004916002541701302
7.756,-0.004907468148962834
7.76,-0.0049317490973173495
7.764,-0.00492174823146044
7.768,-0.004905448743357112
7.772,-0.0049271573536186246
7.776,-0.004942350976747391
7.78,-0.0049306432323427875
7.784,-0.0049376871114198894
7.788,-0.004937927516849142
7.792,-0.00493266263794851
7.796,-0.0049227098531774505
7.8,-0.0049308836377720405
7.804,-0.0049266044211313436
7.808,-0.004921147217887309
7.812,-0.00491987306911227
7.816,-0.0049179498256782484
7.82,-0.004911170392573324
7.824,-0.004898332742651233
7.828,-0.004917108406675865
7.832,-0.004920401961056625
7.836,-0.004917853663506547
7.84,-0.004912132014290335
7.844,-0.004912925352206869
7.848,-0.004922253082861871
7.852,-0.0049109059466011466
7.856,-0.004895544039671902
7.86,-0.00488530276838574
7.864,-0.004888307836251398
7.868,-0.004899053958938992
7.872,-0.004903741864809418
7.876,-0.004878475254194966
7.88,-0.004878427173109115
7.884,-0.00490068871585791
7.888,-0.004888235714622622
7.892,-0.004881768808575726
7.896,-0.004894269890896863
7.9,-0.0048948709044699945
7.904,-0.004896433539760137
7.908,-0.004896289296502585
7.912,-0.004903188932322137
7.916,-0.004900063661741853
7.92,-0.004901890743004173
7.924,-0.004902756202549482
7.928,-0.004887153890190985
7.932,-0.004870037023628198
7.936,-0.004853112481408813
7.94,-0.004863618198667152
7.944,-0.004896193134330884
7.948,-0.004885014281870637
7.952,-0.004878715659624218
7.956,-0.00490758835167746
7.96,-0.004916098703873003
7.964,-0.004899775175226749
7.968,-0.004888620363309427
7.972,-0.004884605592640907
7.976,-0.0048828987140932135
7.98,-0.004867657009878597
7.984,-0.004859771711799111
7.988,-0.004855877143845218
7.992,-0.004866286698931857
7.996,-0.004887009646933433
8.0,-0.004869796618198945
8.004,-0.0048972509182195955
8.008000000000001,-0.004892995742121824
8.012,-0.0048833074033229435
8.016,-0.004873498861809436
8.02,-0.004877128983791151
8.024000000000001,-0.004886697119875405
8.028,-0.004880398497628986
8.032,-0.004883042957350765
8.036,-0.004878595456909591
8.040000000000001,-0.004859363022569381
8.044,-0.00486470002309879
8.048,-0.0048786194974525165
8.052,-0.004874628767326923
8.056000000000001,-0.004878475254194966
8.06,-0.004875349983614681
8.064,-0.004876407767503393
8.068,-0.004878523335280816
8.072000000000001,-0.0048626084958642915
8.076,-0.0048519585353484
8.08,-0.00486703195576254
8.084,-0.004879292632654424
8.088000000000001,-0.004866815590876213
8.092,-0.004874893213299101
8.096,-0.004878186767679862
8.1,-0.004878162727136937
8.104000000000001,-0.004877489591935029
8.108,-0.004872152591405621
8.112,-0.004870349550686226
8.116,-0.004870157226342824
8.120000000000001,-0.004863690320295928
8.124,-0.004848160129566207
8.128,-0.004866238617846006
8.132,-0.004873691186152838
8.136000000000001,-0.00485921877931183
8.14,-0.004858737968453324
8.144,-0.004859579387455708
8.148,-0.004874628767326923
8.152000000000001,-0.004877465551392104
8.156,-0.004867464685535195
8.16,-0.004868378226166354
8.164,-0.00486429133386906
8.168000000000001,-0.004853593292267318
8.172,-0.004850564183858735
8.176,-0.0048623680904350385
8.18,-0.004869484091140917
8.184000000000001,-0.004869339847883365
8.188,-0.004856117549274471
8.192,-0.004855732900587666
8.196,-0.004841356655918358
8.2,-0.004836211979732352
8.204,-0.0048699889425423476
8.208,-0.004865974171873828
8.212,-0.004857079170991481
8.216,-0.004846837899705318
8.22,-0.004848063967394506
8.224,-0.004855372292443787
8.228,-0.004851405602861119
8.232,-0.004845756075273681
8.236,-0.004844433845412791
8.24,-0.0048388083583682795
8.244,-0.004845587791473204
8.248,-0.004849626602684648
8.252,-0.004852078738063027
8.256,-0.004856550279047125
8.26,-0.004854050062582898
8.264,-0.0048397699800852905
8.268,-0.004839193007055084
8.272,-0.004840346953115497
8.276,-0.004852391265121055
8.28,-0.0048572955358778085
8.284,-0.004853352886838065
8.288,-0.004848929426939816
8.292,-0.004843183737180678
8.296,-0.004833567520010572
8.3,-0.004829841235857156
8.304,-0.004827990114051911
8.308,-0.004826355357132993
8.312,-0.004834408939012957
8.316,-0.004837822696108344
8.32,-0.004820777951174332
8.324,-0.004808805760797551
8.328,-0.004817989248195002
8.332,-0.004866671347618661
8.336,-0.00485739169804951
8.34,-0.00483287034426574
8.344,-0.004838664115110729
8.348,-0.004835130155300715
8.352,-0.004822148262121072
8.356,-0.004820946234974809
8.36,-0.004828086276223612
8.364,-0.004827990114051911
8.368,-0.004825033127272104
8.372,-0.004822701194608353
8.376,-0.00482368685686829
8.38,-0.0048243119109843465
8.384,-0.004822917559494681
8.388,-0.004823109883838083
8.392,-0.004822917559494681
8.396,-0.004820297140315827
8.4,-0.0048133734639533516
8.404,-0.004800896422175139
8.408,-0.004819359559141742
8.412,-0.004833759844353975
8.416,-0.00480683443627768
8.42,-0.004788275137139376
8.424,-0.004801257030319019
8.428,-0.004835130155300715
8.432,-0.004837726533936643
8.436,-0.00482515332998673
8.44,-0.0048097193014287115
8.444,-0.004802338854750655
8.448,-0.004815440950644924
8.452,-0.004819816329457322
8.456,-0.004818229653624255
8.46,-0.004829023857397698
8.464,-0.004825009086729178
8.468,-0.004815897720960504
8.472,-0.004815705396617102
8.476,-0.004816330450733159
8.48,-0.004819455721313443
8.484,-0.0048283507221957905
8.488,-0.004829360424998651
8.492,-0.004827749708622659
8.496,-0.004827966073508986
8.5,-0.004818902788826162
8.504,-0.004813397504496277
8.508000000000001,-0.004813974477526483
8.512,-0.004806281503790399
8.516,-0.004810176071744291
8.52,-0.0048286632492538185
8.524000000000001,-0.004828615168167968
8.528,-0.004829023857397698
8.532,-0.004826547681476396
8.536,-0.004813782153183081
8.540000000000001,-0.00479729034073635
8.544,-0.004816066004760981
8.548,-0.004842390399264144
8.552,-0.004828278600567015
8.556000000000001,-0.00482419170826972
8.56,-0.004824215748812645
8.564,-0.004819359559141742
8.568,-0.004814407207299138
8.572000000000001,-0.004803757246783246
8.576,-0.004812291639521715
8.58,-0.004815320747930297
8.584,-0.004808228787767345
8.588000000000001,-0.004809070206769729
8.592,-0.004823230086552709
8.596,-0.004816642977791187
8.6,-0.004808781720254626
8.604000000000001,-0.004811522342148106
8.608,-0.004808276868853195
8.612,-0.004801737841177524
8.616,-0.004792386069979597
8.620000000000001,-0.004796785489334919
8.624,-0.004822845437865905
8.628,-0.004810127990658441
8.632,-0.0047915686915201375
8.636000000000001,-0.004811330017804704
8.64,-0.004803420679182292
8.644,-0.004795895989246685
8.648,-0.004803973611669573
8.652000000000001,-0.004800367530230784
8.656,-0.00479769902996608
8.66,-0.004793636178211711
8.664,-0.004807243125507409
8.668000000000001,-0.004802290773664805
8.672,-0.004792001421292792
8.676,-0.004813661950468454
8.68,-0.004809430814913608
8.684000000000001,-0.004785221988187868
8.688,-0.004778827203769748
8.692,-0.0047851498665590925
8.696,-0.004785895123389775
8.700000000000001,-0.0047884674614827785
8.704,-0.004787097150536038
8.708,-0.004785246028730794
8.712,-0.004794116989070216
8.716,-0.004786712501849234
8.72,-0.004780606203946217
8.724,-0.004801737841177524
8.728,-0.0047899820156870705
8.732,-0.004801184908690243
8.736,-0.004806041098361146
8.74,-0.004796208516304713
8.744,-0.004790655150888978
8.748,-0.004788972312884209
8.752,-0.0047857027990463735
8.756,-0.004784885420586914
8.76,-0.0047879145289954975
8.764,-0.004790246461659248
8.768,-0.004786520177505832
8.772,-0.004771639081435094
8.776,-0.004771807365235571
8.78,-0.004788251096596452
8.784,-0.004787770285737946
8.788,-0.004785606636874672
8.792,-0.004788419380396928
8.796,-0.004787505839765768
8.8,-0.0047716631219780195
8.804,-0.004771783324692646
8.808,-0.004788779988540807
8.812,-0.004780654285032068
8.816,-0.00476760027022365
8.82,-0.004776543352191848
8.824,-0.004784308447556708
8.828,-0.004785943204475626
8.832,-0.004788900191255433
8.836,-0.004776831838706952
8.84,-0.004780245595802339
8.844,-0.004784236325927932
8.848,-0.004778827203769748
8.852,-0.0047790435686560755
8.856,-0.004778298311825392
8.86,-0.004782890055524117
8.864,-0.004777024163050353
8.868,-0.004761085283090904
8.872,-0.004753680795869923
8.876,-0.004777553054994709
8.88,-0.004780630244489143
8.884,-0.004774115257356396
8.888,-0.004775100919616332
8.892,-0.004782240960865136
8.896,-0.004785798961218075
8.9,-0.004784116123213306
8.904,-0.004780918731004246
8.908,-0.004775774054818239
8.912,-0.004769908162344475
8.916,-0.004764474999643366
8.92,-0.004768465729768959
8.924,-0.004770509175917607
8.928,-0.00476481156724432
8.932,-0.004770965946233187
8.936,-0.004770028365059102
8.94,-0.0047673839053373225
8.944,-0.004765220256474049
8.948,-0.004755507877132243
8.952,-0.004747213889823026
8.956,-0.004755555958218093
8.96,-0.004761085283090904
8.964,-0.004778418514540019
8.968,-0.004771687162520945
8.972,-0.004757166674594086
8.976,-0.004762527715666419
8.98,-0.0047538490796704
8.984,-0.00474846399805514
8.988,-0.004752887457953389
8.992,-0.00476440287801459
8.996,-0.004760315985717295
9.0,-0.0047569262691648335
9.004,-0.004754522214872307
9.008000000000001,-0.004750940173976441
9.012,-0.004748295714254663
9.016,-0.004747189849280101
9.02,-0.0047491371332570465
9.024000000000001,-0.004754426052700606
9.028,-0.004737838078082173
9.032,-0.004734712807501889
9.036,-0.004760532350603623
9.040000000000001,-0.004757527282737965
9.044,-0.004750363200946235
9.048,-0.004744353065214919
9.052,-0.004750819971261816
9.056000000000001,-0.00476029194517437
9.06,-0.004751469065920799
9.064,-0.0047447857949875745
9.068,-0.004751132498319844
9.072000000000001,-0.004753151903925567
9.076,-0.004745386808560706
9.08,-0.004744184781414443
9.084,-0.004752190282208557
9.088000000000001,-0.004745410849103631
9.092,-0.00474074698377613
9.096,-0.0047442328625002935
9.1,-0.004734207956100458
9.104000000000001,-0.00475074784963304
9.108,-0.0047591379991139575
9.112,-0.004741035470291233
9.116,-0.004729592171858808
9.120000000000001,-0.0047117300484653376
9.124,-0.0047243272929581755
9.128,-0.00474846399805514
9.132,-0.004744881957159275
9.136000000000001,-0.004726659225621926
9.14,-0.004721586671064695
9.144,-0.004742285578523347
9.148,-0.004734568564244338
9.152000000000001,-0.0047270198337658045
9.156,-0.004720889495319862
9.16,-0.004741251835177561
9.164,-0.004741492240606813
9.168000000000001,-0.004733655023613177
9.172,-0.004736010996819853
9.176,-0.00473435219935801
9.18,-0.0047237743604708945
9.184000000000001,-0.004733727145241953
9.188,-0.004740170010745923
9.192,-0.004731515415292829
9.196,-0.004722692536039257
9.200000000000001,-0.00471653815705039
9.204,-0.004718509481570261
9.208,-0.004715312089361202
9.212,-0.004712331062038469
9.216000000000001,-0.004718461400484411
9.22,-0.004723101225268987
9.224,-0.004721226062920816
9.228,-0.0047235339550416415
9.232,-0.004711489643036085
9.236,-0.004710672264576625
9.24,-0.0047261543742204955
9.244,-0.004724447495672801
9.248,-0.004721851117036873
9.252,-0.004721442427807143
9.256,-0.004717139170623522
9.26,-0.004740001726945447
9.264,-0.004741804767664842
9.268,-0.004730361469232417
9.272,-0.004728943077199826
9.276,-0.004725481239018588
9.28,-0.004721009698034489
9.284,-0.004728582469055947
9.288,-0.004726250536392196
9.292,-0.0047274285229955346
9.296,-0.004740170010745923
9.3,-0.004740698902690279
9.304,-0.004733630983070252
9.308,-0.004732693401896167
9.312,-0.004723197387440688
9.316,-0.004718461400484411
9.32,-0.004723365671241164
9.324,-0.00472430325241525
9.328,-0.00472293294146851
9.332,-0.004721730914322247
9.336,-0.004722163644094901
9.34,-0.004717884427454204
9.344,-0.004714086021672013
9.348,-0.004710528021319074
9.352,-0.004704782331559936
9.356,-0.0047187739275424394
9.36,-0.004723750319927969
9.364,-0.00472064908989061
9.368,-0.004709927007745943
9.372,-0.00471060014294785
9.376,-0.004703964953100478
9.38,-0.0046953824792761575
9.384,-0.004709037507657708
9.388,-0.0047270198337658045
9.392,-0.004715239967732426
9.396,-0.004718653724827813
9.4,-0.004719879792517001
9.404,-0.004712162778237992
9.408,-0.004706441129021779
9.412,-0.004705359304590142
9.416,-0.004724110928071848
9.42,-0.004726298617478046
9.424,-0.004706994061509061
9.428,-0.004714542791987593
9.432,-0.004730265307060715
9.436,-0.004723654157756268
9.44,-0.004718196954512233
9.444,-0.00471201853498044
9.448,-0.004699373209401752
9.452,-0.004694901668417652
9.456,-0.0046969451145663
9.46,-0.004690910938292059
9.464,-0.004679323396602082
9.468,-0.004684996964732444
9.472,-0.004701608979893801
9.476,-0.004708148007569473
9.48,-0.0047064892101076295
9.484,-0.004698387547141815
9.488,-0.004697017236195076
9.492,-0.0047043496017872815
9.496,-0.004691776397837368
9.5,-0.004679467639859634
9.504,-0.004700094425689509
9.508000000000001,-0.004709999129374719
9.512,-0.004705359304590142
9.516,-0.0047009358446918935
9.52,-0.004696776830765823
9.524000000000001,-0.004692569735753902
9.528,-0.004697257641624328
9.532,-0.004695430560362008
9.536,-0.004690934978834984
9.540000000000001,-0.0046874491001108205
9.544,-0.004688675167800009
9.548,-0.00468918001920144
9.552,-0.004677929045112416
9.556000000000001,-0.004691535992408116
9.56,-0.004714134102757864
9.564,-0.0047087971022284555
9.568,-0.004692858222269005
9.572000000000001,-0.004689612748974095
9.576,-0.004697738452482833
9.58,-0.00469968573645978
9.584,-0.004701633020436726
9.588000000000001,-0.004695021871132279
9.592,-0.004686463437850885
9.596,-0.004682592910439918
9.6,-0.004681390883293655
9.604000000000001,-0.004681847653609235
9.608,-0.004684636356588565
9.612,-0.004700046344603658
9.616,-0.004695045911675204
9.620000000000001,-0.0046918966005519945
9.624,-0.004690838816663283
9.628,-0.004683554532156928
9.632,-0.004677520355882687
9.636000000000001,-0.0046923774114105
9.64,-0.00468831455965613
9.644,-0.0046857903026489775
9.648,-0.004703508182784897
9.652000000000001,-0.004709325994172811
9.656,-0.004690646492319881
9.66,-0.004681270680579028
9.664,-0.004662230570582219
9.668000000000001,-0.0046711976930933425
9.672,-0.004700262709489986
9.676,-0.004689252140830215
9.68,-0.004696223898278542
9.684000000000001,-0.004686559600022586
9.688,-0.004678794504657726
9.692,-0.004687833748797625
9.696,-0.004691608114036892
9.700000000000001,-0.004692040843809546
9.704,-0.0046865836405655115
9.708,-0.004678241572170445
9.712,-0.004676414490908125
9.716000000000001,-0.0046892040597443655
9.72,-0.00468511716744707
9.724,-0.004679275315516231
9.728,-0.004685333532333398
9.732,-0.004688050113683952
9.736,-0.0046921370059812475
9.74,-0.0046913436680647135
9.744,-0.0046825448293540675
9.748,-0.004677448234253911
9.752,-0.004666245341250739
9.756,-0.004669611017260275
9.76,-0.004680188856147392
9.764,-0.004694805506245951
9.768,-0.004691319627521788
9.772,-0.004683314126727675
9.776,-0.004703988993643403
9.78,-0.0046992289661442
9.784,-0.004689300221916066
9.788,-0.004690021438203824
9.792,-0.004695695006334186
9.796,-0.004698387547141815
9.8,-0.004690189722004301
9.804,-0.004687280816310344
9.808,-0.004700358871661687
9.812,-0.004704998696446264
9.816,-0.004706633453365181
9.82,-0.004696800871308748
9.824,-0.0046911753842642364
9.828,-0.004678481977599697
9.832,-0.004680741788634673
9.836,-0.004689877194946272
9.84,-0.004688795370514635
9.844,-0.004697738452482833
9.848,-0.004695021871132279
9.852,-0.004692738019554379
9.856,-0.004686848086537689
9.86,-0.00468831455965613
9.864,-0.004706465169564704
9.868,-0.00470694598042321
9.872,-0.004693940046700642
9.876,-0.004691415789693489
9.88,-0.0046934111547562865
9.884,-0.004697185519995552
9.888,-0.004699589574288079
9.892,-0.004701921506951829
9.896,-0.004698579871485218
9.9,-0.004688290519113205
9.904,-0.004693771762900165
9.908,-0.004683987261929583
9.912,-0.004682472707725292
9.916,-0.004705912237077423
9.92,-0.004703940912557552
9.924,-0.004702714844868364
9.928,-0.004698339466055965
9.932,-0.004687929910969326
9.936,-0.004698171182255489
9.94,-0.0047065613317364054
9.944,-0.004704734250474085
9.948,-0.004701536858265025
9.952,-0.004699974222974883
9.956,-0.004698147141712563
9.96,-0.004693699641271389
9.964,-0.004695190154932756
9.968,-0.004697305722710179
9.972,-0.00469785865519746
9.976,-0.004686727883823063
9.98,-0.0046921370059812475
9.984,-0.004713989859500312
9.988,-0.004701152209578221
9.992,-0.004696368141536094
9.996,-0.004690333965261853
10.0,-0.0046963441009931686
10.004,-0.004704517885587759
10.008000000000001,-0.004693699641271389
10.012,-0.0046857903026489775
10.016,-0.004689540627345319
10.02,-0.004700358871661687
10.024000000000001,-0.004704469804501908
10.028,-0.004704565966673609
10.032,-0.004705263142418441
10.036,-0.004699854020260257
10.040000000000001,-0.0047001425067753596
10.044,-0.0047032437368127195
10.048,-0.004706320926307153
10.052,-0.0047078354805114445
10.056000000000001,-0.004702666763782513
10.06,-0.0047091096292864836
10.064,-0.0047086288184279785
10.068,-0.004706104561420826
10.072000000000001,-0.004702185952924008
10.076,-0.004696007533392214
10.08,-0.004690934978834984
10.084,-0.004680789869720523
10.088000000000001,-0.004667663733283329
10.092,-0.004697065317280926
10.096,-0.004707114264223686
10.1,-0.004699589574288079
10.104000000000001,-0.0046876895055400734
10.108,-0.004684588275502714
10.112,-0.004689973357117973
10.116,-0.004686679802737213
10.120000000000001,-0.004682665032068693
10.124,-0.004685646059391426
10.128,-0.004683818978129106
10.132,-0.004681631288722907
10.136000000000001,-0.004685357572876323
10.14,-0.004683145842927199
10.144,-0.004682905437497946
10.148,-0.004674587409645805
10.152000000000001,-0.004662446935468547
10.156,-0.004652710515583815
10.16,-0.004665355841162504
10.164,-0.004704758291017011
10.168000000000001,-0.004709085588743558
10.172,-0.004694084289958193
10.176,-0.0046896848706028706
10.18,-0.004692497614125126
10.184000000000001,-0.004693363073670436
10.188,-0.004682737153697469
10.192,-0.004668240706313535
10.196,-0.004658143678284925
10.200000000000001,-0.004649609285546455
10.204,-0.004649921812604484
10.208,-0.004649176555773801
10.212,-0.004653311529156947
10.216000000000001,-0.004656484880823082
10.22,-0.00465684548896696
10.224,-0.004661196827236433
10.228,-0.0046567012457094095
10.232000000000001,-0.004649801609889858
10.236,-0.004656316597022605
10.24,-0.0046662934223365895
10.244,-0.004667206962967749
10.248,-0.004676101963850096
10.252,-0.004676943382852481
10.256,-0.004675500950276965
10.26,-0.0046730247743556625
10.264,-0.004658071556656149
10.268,-0.004651099799207822
10.272,-0.004656581042994783
10.276,-0.004652518191240412
10.28,-0.004657783070141046
10.284,-0.004659057218916085
10.288,-0.004657638826883494
10.292,-0.004659465908145814
10.296,-0.004656268515936754
10.3,-0.004649561204460605
10.304,-0.004653167285899395
10.308,-0.004659225502716561
10.312,-0.004649344839574278
10.316,-0.004635713851735653
10.32,-0.004661148746150583
10.324,-0.004678506018142623
10.328,-0.004669178287487621
10.332,-0.004663240273385081
10.336,-0.004667231003510674
10.34,-0.004664730787046447
10.344,-0.00466461058433182
10.348,-0.004665403922248354
10.352,-0.004658311962085402
10.356,-0.00465309516427062
10.36,-0.004652013339838982
10.364,-0.004643478947100513
10.368,-0.004649849690975708
10.372,-0.004654225069788107
10.376,-0.004651628691152178
10.38,-0.0046543212319598085
10.384,-0.004653455772414499
10.388,-0.004648984231430398
10.392,-0.004650138177490811
10.396,-0.004651099799207822
10.4,-0.004648647663829445
10.404,-0.004649176555773801
10.408,-0.004649561204460605
10.412,-0.004639464176431994
10.416,-0.004629799878176038
10.42,-0.00464131529823724
10.424,-0.004640185392719752
10.428,-0.0046441520823024204
10.432,-0.004647541798854883
10.436,-0.004644945420218954
10.44,-0.004641074892807987
10.444,-0.004638791041230087
10.448,-0.004636170622051234
10.452,-0.004639199730459817
10.456,-0.004633117473099725
10.46,-0.004628381486143448
10.464,-0.004631098067494003
10.468,-0.004640810446835809
10.472,-0.004638959325030564
10.476,-0.004637228405939945
10.48,-0.004635906176079055
10.484,-0.0046330934325568
10.488,-0.0046310740269510774
10.492,-0.00462903058080243
10.496,-0.0046326607027841445
10.5,-0.004624534999275406
10.504,-0.004608187430086227
10.508000000000001,-0.004598739496716598
10.512,-0.004618212336486061
10.516,-0.004635810013907354
10.52,-0.004627467945512288
10.524000000000001,-0.004628429567229298
10.528,-0.004630304729577469
10.532,-0.0046212414448946445
10.536,-0.004632059689211013
10.540000000000001,-0.004635641730106877
10.544,-0.004643094298413709
10.548,-0.004642853892984456
10.552,-0.004625809148050445
10.556000000000001,-0.004632516459526594
10.56,-0.004637685176255525
10.564,-0.004625592783164117
10.568,-0.004628814215916103
10.572000000000001,-0.004628718053744402
10.576,-0.004631578878352508
10.58,-0.0046326607027841445
10.584,-0.004630977864779376
10.588000000000001,-0.004628213202342971
10.592,-0.004626386121080651
10.596,-0.004623453174843769
10.6,-0.004611120376323109
10.604000000000001,-0.004612298362926447
10.608,-0.004625664904792893
10.612,-0.004627924715827868
10.616,-0.004631194229665704
10.620000000000001,-0.004631626959438358
10.624,-0.004621289525980495
10.628,-0.004617731525627556
10.632,-0.004621938620639477
10.636000000000001,-0.004612298362926447
10.64,-0.004616048687622788
10.644,-0.004629054621345355
10.648,-0.004643478947100513
10.652000000000001,-0.004633237675814351
10.656,-0.004622443472040908
10.66,-0.004619606687975727
10.664,-0.004614389890160945
10.668000000000001,-0.004606696916424861
10.672,-0.004607201767826291
10.676,-0.0046087163220305824
10.68,-0.004611456943924063
10.684000000000001,-0.004610519362749977
10.688,-0.0046007108212364695
10.692,-0.004607201767826291
10.696,-0.004622780039641862
10.700000000000001,-0.004628790175373178
10.704,-0.004619318201460624
10.708,-0.00461172138989624
10.712,-0.004634247378617212
10.716000000000001,-0.0046329011082133975
10.72,-0.004622419431497982
10.724,-0.00462217902606873
10.728,-0.004622419431497982
10.732000000000001,-0.004599220307575103
10.736,-0.004590926320265887
10.74,-0.004619534566346951
10.744,-0.00463684375725314
10.748000000000001,-0.004628165121257121
10.752,-0.0046251360128485375
10.756,-0.0046182363770289865
10.76,-0.004614101403645841
10.764,-0.0046174430391124534
10.768,-0.004621001039465392
10.772,-0.004619534566346951
10.776,-0.004614942822648226
10.78,-0.00460482175407669
10.784,-0.004600903145579872
10.788,-0.004622082863897029
10.792,-0.004639944987290499
10.796,-0.004639752662947098
10.8,-0.004626987134653783
10.804,-0.0046173709174836776
10.808,-0.004627972796913718
10.812,-0.004616024647079863
10.816,-0.004605350646021046
10.82,-0.004619414363632324
10.824,-0.004608548038230106
10.828,-0.00460025405092089
10.832,-0.004596912415454278
10.836,-0.004599532834633132
10.84,-0.004616769903910546
10.844,-0.004621289525980495
10.848,-0.004633333837986052
10.852,-0.004631675040524209
10.856,-0.004623573377558396
10.86,-0.004607947024656975
10.864,-0.004607249848912142
10.868,-0.004617827687799257
10.872,-0.004607466213798469
10.876,-0.004602321537612462
10.88,-0.004606216105566355
10.884,-0.0046115050250099135
10.888,-0.004614846660476525
10.892,-0.004609653903204668
10.896,-0.004599220307575103
10.9,-0.004593402496187189
10.904,-0.0045958786721084915
10.908,-0.004599653037347758
10.912,-0.0046041245783318575
10.916,-0.004612827254870802
10.92,-0.004620231742091784
10.924,-0.004617467079655379
10.928,-0.004610519362749977
10.932,-0.004605975700137103
10.936,-0.004606456510995608
10.94,-0.004602345578155387
10.944,-0.00459431603681835
10.948,-0.00458888287411724
10.952,-0.004566477088110895
10.956,-0.004573641169902623
10.96,-0.004595373820707061
10.964,-0.0046030908349860705
10.968,-0.0046015041591530035
10.972,-0.004595445942335837
10.976,-0.0045938111854169185
10.98,-0.004580348481378772
10.984,-0.004584122846618038
10.988,-0.004605567010907373
10.992,-0.0046022974970695366
10.996,-0.004596720091110876
11.0,-0.0045948449287627055
11.004,-0.004596215239709445
11.008000000000001,-0.004595301699078285
11.012,-0.0045929457258716095
11.016,-0.004593474617815965
11.02,-0.004610591484378753
11.024000000000001,-0.004609918349176846
11.028,-0.004589147320089418
11.032,-0.00459212834741215
11.036,-0.004608307632800853
11.040000000000001,-0.0045988116183453736
11.044,-0.00459477280713393
11.048,-0.004604196699960633
11.052,-0.004594027550303246
11.056000000000001,-0.004606047821765879
11.06,-0.004600061726577487
11.064,-0.004604244781046484
11.068,-0.004605350646021046
11.072000000000001,-0.00460395629453138
11.076,-0.004598859699431224
11.08,-0.004595806550479716
11.084,-0.004600686780693544
11.088000000000001,-0.004599292429203879
11.092,-0.004591551374381944
11.096,-0.004595998874823118
11.1,-0.004608307632800853
11.104000000000001,-0.004606432470452683
11.108,-0.004602513861955864
11.112,-0.004589556009319148
11.116,-0.004580276359749996
11.120000000000001,-0.004600422334721366
11.124,-0.004609966430262696
11.128,-0.0046099904708056215
11.132,-0.004609052889631537
11.136000000000001,-0.004602561943041715
11.14,-0.004599484753547281
11.144,-0.004589075198460642
11.148,-0.004584074765532188
11.152000000000001,-0.004609509659947116
11.156,-0.004616721822824695
11.16,-0.0045994366724614304
11.164,-0.0045948449287627055
11.168000000000001,-0.004594868969305631
11.172,-0.004584868103448721
11.176,-0.004571213075067171
11.18,-0.004592248550126777
11.184000000000001,-0.004614149484731692
11.188,-0.004609918349176846
11.192,-0.004609341376146639
11.196,-0.004608620159858881
11.200000000000001,-0.0046044371053898855
11.204,-0.0046018166862110315
11.208,-0.0045969845370830535
11.212,-0.004591310968952692
11.216000000000001,-0.004593426536730115
11.22,-0.004595638266679239
11.224,-0.004605470848735672
11.228,-0.0046034033620440985
11.232000000000001,-0.0046033312404153235
11.236,-0.00460482175407669
11.24,-0.004594123712474947
11.244,-0.004589916617463026
11.248000000000001,-0.0045951574558207335
11.252,-0.0045927774420711324
11.256,-0.004586959630683219
11.26,-0.004586911549597368
11.264,-0.004579338778575911
11.268,-0.004593138050215012
11.272,-0.004606336308280981
11.276,-0.004600085767120413
11.28,-0.004596407564052847
11.284,-0.004594556442247602
11.288,-0.004589195401175268
11.292,-0.004580540805722174
11.296,-0.004585300833221376
11.3,-0.0045870798333978455
11.304,-0.004581935157211839
11.308,-0.0045923927933843285
11.312,-0.004581598589610885
11.316,-0.0045578946142865754
11.32,-0.004583233346529803
11.324,-0.004591575414924869
11.328,-0.004596960496540128
11.332,-0.004604749632447914
11.336,-0.0046023696186983125
11.34,-0.004591310968952692
11.344,-0.004590613793207859
11.348,-0.004591262887866841
11.352,-0.004588954995746016
11.356,-0.004583834360102935
11.36,-0.004583834360102935
11.364,-0.004598042320971765
11.368,-0.004592344712298478
11.372,-0.004585709522451105
11.376,-0.004584026684446337
11.38,-0.004579651305633939
11.384,-0.004557702289943174
11.388,-0.004559505330662569
11.392,-0.004598210604772242
11.396,-0.004587704887513902
11.4,-0.004575492291707868
11.404,-0.004581430305810408
11.408,-0.004581045657123604
11.412,-0.004586911549597368
11.416,-0.0045919119825258235
11.42,-0.004584627698019469
11.424,-0.004582440008613269
11.428,-0.004582151522098166
11.432,-0.004584074765532188
11.436,-0.004580829292237277
11.44,-0.004570467818236488
11.444,-0.004564553844676873
11.448,-0.004561308371381963
11.452,-0.004565202939335856
11.456,-0.00457015529117846
11.46,-0.004576646237768281
11.464,-0.004577872305457469
11.468,-0.004577223210798487
11.472,-0.004569145588375598
11.476,-0.004565154858250005
11.48,-0.004589628130947923
11.484,-0.004593354415101339
11.488,-0.004579507062376387
11.492,-0.004558351384602155
11.496,-0.0045738094537031
11.5,-0.004583233346529803
11.504,-0.004580468684093398
11.508000000000001,-0.00457477107542011
11.512,-0.004571886210269079
11.516,-0.004572054494069556
11.52,-0.004573496926645071
11.524000000000001,-0.004569914885749207
11.528,-0.0045861182116808345
11.532,-0.00458619033330961
11.536,-0.004580492724636323
11.540000000000001,-0.004575564413336644
11.544,-0.004575684616051271
11.548,-0.004578088670343797
11.552,-0.004568472453173692
11.556000000000001,-0.004568809020774645
11.56,-0.0045684484126307665
11.564,-0.0045724872238422105
11.568,-0.004585781644079881
11.572000000000001,-0.004577175129712637
11.576,-0.004578689683916929
11.58,-0.004581334143638707
11.584,-0.004573977737503576
11.588000000000001,-0.004573833494246025
11.592,-0.004558663911660184
11.596,-0.004555418438365273
11.6,-0.004576742399939982
11.604000000000001,-0.0045826323329566715
11.608,-0.0045735209671879965
11.612,-0.004576261589081477
11.616,-0.004574001778046502
11.620000000000001,-0.0045665492097396706
11.624,-0.0045636162635027885
11.628,-0.004570756304751592
11.632,-0.004564024952732518
11.636000000000001,-0.004562221912013123
11.64,-0.0045866711441681154
11.644,-0.004587608725342201
11.648,-0.004582055359926465
11.652000000000001,-0.00457659815668243
11.656,-0.004571597723753975
11.66,-0.0045630633310155076
11.664,-0.004556596424968611
11.668000000000001,-0.004560851601066383
11.672,-0.004551259424439203
11.676,-0.004545225248164962
11.68,-0.0045441193831904
11.684000000000001,-0.004540320977408208
11.688,-0.004542003815412976
11.692,-0.004572607426556837
11.696,-0.00457842523794475
11.700000000000001,-0.004572631467099762
11.704,-0.0045702754938930865
11.708,-0.004566188601595791
11.712,-0.0045476773835433386
11.716000000000001,-0.004550081437835865
11.72,-0.00457294399415779
11.724,-0.004572078534612481
11.728,-0.004565707790737286
11.732000000000001,-0.004553182667873223
11.736,-0.004551595992040156
11.74,-0.004567198304398653
11.744,-0.004573160359044118
11.748000000000001,-0.0045661405205099405
11.752,-0.004565900115080688
11.756,-0.004558760073831885
11.76,-0.004542845234415361
11.764000000000001,-0.004553879843618056
11.768,-0.004564650006848575
11.772,-0.004557630168314398
11.776,-0.004569770642491655
11.78,-0.004574362386190381
11.784,-0.004566765574625997
11.788,-0.004556139654653031
11.792,-0.004550177600007565
11.796,-0.004560707357808832
11.8,-0.004549720829691985
11.804,-0.0045543366139336365
11.808,-0.004578857967717405
11.812,-0.004578545440659377
11.816,-0.004566765574625997
11.82,-0.004563832628389115
11.824,-0.004559914019892298
11.828,-0.0045570291547412664
11.832,-0.004555755005966227
11.836,-0.004563784547303265
11.84,-0.00456700598005525
11.844,-0.004554697222077516
11.848,-0.0045669578989694
11.852,-0.004580685048979725
11.856,-0.004566597290825521
11.86,-0.004574338345647456
11.864,-0.004573929656417727
11.868,-0.004566741534083072
11.872,-0.004572270858955883
11.876,-0.004562438276899451
11.88,-0.0045715256021252
11.884,-0.004574506629447933
11.888,-0.0045626546417857775
11.892,-0.004555394397822348
11.896,-0.004572607426556837
11.9,-0.0045729680347007156
11.904,-0.004564914452820753
11.908,-0.004568087804486887
11.912,-0.004566789615168923
11.916,-0.0045615487768112155
11.92,-0.004563135452644283
11.924,-0.004576982805369234
11.928,-0.00456878498023172
11.932,-0.004566453047567969
11.936,-0.004564505763591023
11.94,-0.004568232047744439
11.944,-0.004570011047920908
11.948,-0.004561116047038561
11.952,-0.004560226546950326
11.956,-0.004568400331544916
11.96,-0.004560466952379579
11.964,-0.0045623901958136
11.968,-0.0045586158305743335
11.972,-0.0045382294501737095
11.976,-0.004544239585905025
11.98,-0.00456188534441217
11.984,-0.004559817857720597
11.988,-0.004563183533730133
11.992,-0.004566356885396268
11.996,-0.0045588562360035865
12.0,-0.004544383829162577
12.004,-0.00455787057374365
12.008000000000001,-0.004566597290825521
12.012,-0.004568352250459065
12.016,-0.004565371223136333
12.02,-0.004573689250988474
12.024000000000001,-0.0045726555076426876
12.028,-0.004562678682328703
12.032,-0.004555466519451124
12.036,-0.004553134586787373
12.040000000000001,-0.004549600626977359
12.044,-0.004537388031171326
12.048,-0.004535512868823155
12.052,-0.00455462510044874
12.056000000000001,-0.0045634479797023115
12.06,-0.004561957466040945
12.064,-0.004565395263679258
12.068,-0.004552605694843017
12.072000000000001,-0.004547893748429665
12.076,-0.004558711992746035
12.08,-0.004550418005436818
12.084,-0.004553399032759551
12.088000000000001,-0.004552004681269885
12.092,-0.004548013951144292
12.096,-0.004560466952379579
12.1,-0.004560587155094205
12.104000000000001,-0.0045583033035163055
12.108,-0.004563423939159386
12.112,-0.004567174263855727
12.116,-0.004564385560876396
12.120000000000001,-0.004565563547479734
12.124,-0.004555730965423302
12.128,-0.004553783681446355
12.132,-0.004554288532847786
12.136000000000001,-0.004555226114021872
12.14,-0.004555971370852554
12.144,-0.004553134586787373
12.148,-0.004552413370499615
12.152000000000001,-0.004558255222430455
12.156,-0.004557966735915351
12.16,-0.00455193255964111
12.164,-0.0045504420459797435
12.168000000000001,-0.004547557180828712
12.172,-0.004555971370852554
12.176,-0.004563520101331087
12.18,-0.004565395263679258
12.184000000000001,-0.004568929223489272
12.188,-0.00455645218171106
12.192,-0.004548422640374021
12.196,-0.004557990776458277
12.200000000000001,-0.004572535304928061
12.204,-0.004569578318148254
12.208,-0.00456421727707592
12.212,-0.004563904750017891
12.216000000000001,-0.004567366588199129
12.22,-0.004564986574449528
12.224,-0.004561741101154618
12.228,-0.0045660683988811655
12.232000000000001,-0.004560779479437607
12.236,-0.004549841032406612
12.24,-0.004547220613227758
12.244,-0.004542773112786585
12.248000000000001,-0.004546763842912178
12.252,-0.004563472020245237
12.256,-0.004567150223312802
12.26,-0.004566477088110895
12.264000000000001,-0.004555418438365273
12.268,-0.0045530624651585975
12.272,-0.004553158627330298
12.276,-0.004548711126889125
12.280000000000001,-0.00454462423459183
12.284,-0.004551764275840633
12.288,-0.004555947330309629
12.292,-0.0045528220597293445
12.296,-0.004556572384425686
12.3,-0.004553447113845401
12.304,-0.0045451290859932604
12.308,-0.004552798019186419
12.312,-0.004553951965246832
12.316,-0.004545706059023467
12.32,-0.004552004681269885
12.324,-0.004555827127595003
12.328,-0.004561308371381963
12.332,-0.004563423939159386
12.336,-0.00455787057374365
12.34,-0.004545513734680064
12.344,-0.004524646543420936
12.348,-0.004533493463217433
12.352,-0.004564337479790546
12.356,-0.00456604435833824
12.36,-0.004563087371558433
12.364,-0.004554673181534591
12.368,-0.004552461451585466
12.372,-0.004554072167961458
12.376,-0.004560010182063999
12.38,-0.004556067533024255
12.384,-0.004544720396763531
12.388,-0.004527242922056865
12.392,-0.00453183466575559
12.396,-0.004540585423380385
12.4,-0.00454051330175161
12.404,-0.004541619166726172
12.408,-0.004543326045273866
12.412,-0.0045352243823080516
12.416,-0.004530680719695177
12.42,-0.004548470721459872
12.424,-0.004547052329427282
12.428,-0.0045429894776729115
12.432,-0.004542268261385154
12.436,-0.004536065801310436
12.44,-0.004548158194401844
12.444,-0.004544047261561624
12.448,-0.004527098678799313
12.452,-0.00452640150305448
12.456,-0.004553447113845401
12.46,-0.0045448165589352316
12.464,-0.004532387598242871
12.468,-0.004559264925233316
12.472,-0.004562558479614076
12.476,-0.004550273762179266
12.48,-0.004533781949732536
12.484,-0.004521593394469428
12.488,-0.004531329814354159
12.492,-0.004543686653417744
12.496,-0.004552341248870839
12.5,-0.004548903451232527
12.504,-0.004543205842559239
12.508000000000001,-0.004539239152976571
12.512,-0.004531642341412187
12.516,-0.004528997881690409
12.52,-0.004531305773811234
12.524000000000001,-0.00453000758449327
12.528,-0.004523781083875626
12.532,-0.004529983543950344
12.536,-0.004536714895969418
12.540000000000001,-0.004544479991334278
12.544,-0.00453695530139867
12.548,-0.00453183466575559
12.552,-0.004530368192637148
12.556000000000001,-0.004530079706122046
12.56,-0.004529334449291362
12.564,-0.004518347921174517
12.568,-0.004530824962952729
12.572000000000001,-0.004534070436247639
12.576,-0.0045269784760846865
12.58,-0.0045323635576999454
12.584,-0.004544600194048905
12.588000000000001,-0.004548639005260349
12.592,-0.004543951099389923
12.596,-0.004534479125477369
12.6,-0.004513419609874838
12.604000000000001,-0.004516857407513151
12.608,-0.004525199475908217
12.612,-0.004520631772752417
12.616,-0.004528060300516323
12.620000000000001,-0.004526786151741284
12.624,-0.004520126921350986
12.628,-0.004521328948497249
12.632,-0.004523564718989299
12.636000000000001,-0.004527339084228565
12.64,-0.004509885650064824
12.644,-0.004511496366440817
12.648,-0.004534839733621248
12.652000000000001,-0.00452361280007515
12.656,-0.004510630906895507
12.66,-0.004515463056023485
12.664,-0.004528517070831903
12.668000000000001,-0.004528613233003604
12.672,-0.004522410772928887
12.676,-0.0045190450969193495
12.68,-0.004515463056023485
12.684000000000001,-0.004511616569155444
12.688,-0.004518396002260367
12.692,-0.004526762111198359
12.696,-0.004526930394998836
12.700000000000001,-0.004522074205327933
12.704,-0.004520247124065613
12.708,-0.004519141259091051
12.712,-0.004511808893498845
12.716000000000001,-0.00450671229839869
12.72,-0.004507649879572775
12.724,-0.004510198177122853
12.728,-0.004510342420380405
12.732000000000001,-0.00450853937966101
12.736,-0.00449548536485259
12.74,-0.004487335620800927
12.744,-0.0045218337998986806
12.748000000000001,-0.004527507368029042
12.752,-0.004521954002613306
12.756,-0.0045232521919312705
12.76,-0.004521737637726979
12.764000000000001,-0.004521016421439221
12.768,-0.0045232521919312705
12.772,-0.004513708096389941
12.776,-0.004508250893145906
12.780000000000001,-0.004509092312148291
12.784,-0.004501856108727786
12.788,-0.004504596730621265
12.792,-0.0045091403932341415
12.796000000000001,-0.004513563853132389
12.8,-0.004512914758473407
12.804,-0.004490484931924136
12.808,-0.0044969999190568825
12.812,-0.004519910556464659
12.816,-0.004521401070126025
12.82,-0.0045136600153040905
12.824,-0.004510606866352582
12.828,-0.0045088999878048885
12.832,-0.004505245825280248
12.836,-0.004508371095860533
12.84,-0.004508707663461486
12.844,-0.00450671229839869
12.848,-0.0045037312710759555
12.852,-0.004504019757591059
12.856,-0.004498730838147501
12.86,-0.004490196445409033
12.864,-0.004489379066949573
12.868,-0.004497889419145117
12.872,-0.004505005419850996
12.876,-0.004507818163373252
12.88,-0.00450361106836133
12.884,-0.004498562554347024
12.888,-0.004503322581846226
12.892,-0.0045002453923517925
12.896,-0.004479498403807291
12.9,-0.0044874077424297025
12.904,-0.004503803392704731
12.908,-0.004499716500407437
12.912,-0.004500149230180091
12.916,-0.004494427580963879
12.92,-0.00449082149952509
12.924,-0.004492215851014755
12.928,-0.004492215851014755
12.932,-0.0044869269315711965
12.936,-0.0044919273644996515
12.94,-0.004502120554699963
12.944,-0.004495389202680889
12.948,-0.00449680759471348
12.952,-0.0044959661757110955
12.956,-0.004491542715812848
12.96,-0.004490028161608556
12.964,-0.004481974579728593
12.968,-0.004487311580258001
12.972,-0.004491903323956726
12.976,-0.004490508972467061
12.98,-0.004487095215371674
12.984,-0.00448406610696309
12.988,-0.004478320417203953
12.992,-0.00447533938988122
12.996,-0.004465434686196011
13.0,-0.0044778155658025225
13.004,-0.004493393837618093
13.008000000000001,-0.004486638445056094
13.012,-0.0044842343907635675
13.016,-0.004495172837794562
13.02,-0.004497600932630014
13.024000000000001,-0.004479089714577561
13.028,-0.0044847152016220726
13.032,-0.004489859877808079
13.036,-0.004471853511157057
13.040000000000001,-0.004471252497583926
13.044,-0.004477094349514764
13.048,-0.00447670970082796
13.052,-0.004473824835676928
13.056000000000001,-0.0044610112262977635
13.06,-0.004464016294163421
13.064,-0.004478632944261981
13.068,-0.004485292174652279
13.072000000000001,-0.004484330552935269
13.076,-0.004482960241988528
13.08,-0.004484186309677717
13.084,-0.004483657417733361
13.088000000000001,-0.004488705931747666
13.092,-0.004500365595066419
13.096,-0.004498923162490903
13.1,-0.004487335620800927
13.104000000000001,-0.0044613237533557915
13.108,-0.004446634981628455
13.112,-0.004470266835323989
13.116,-0.004487047134285823
13.120000000000001,-0.004480387903895525
13.124,-0.0044657712537969655
13.128,-0.004469136929806502
13.132,-0.004479209917292187
13.136000000000001,-0.004477959809060073
13.14,-0.004478320417203953
13.144,-0.00448173417429934
13.148,-0.004476877984628437
13.152000000000001,-0.004465194280766759
13.156,-0.004465194280766759
13.16,-0.004475531714224622
13.164,-0.004481205282354984
13.168000000000001,-0.004481373566155461
13.172,-0.004483705498819212
13.176,-0.004480051336294572
13.18,-0.004479330120006814
13.184000000000001,-0.004477863646888373
13.188,-0.004474353727621284
13.192,-0.004472767051788217
13.196,-0.004477719403630821
13.200000000000001,-0.0044764692953987075
13.204,-0.004476397173769932
13.208,-0.004476204849426529
13.212,-0.004473488268075975
13.216000000000001,-0.004481157201269134
13.22,-0.0044828881203597525
13.224,-0.004475940403454352
13.228,-0.004478344457746878
13.232000000000001,-0.0044751951466236685
13.236,-0.00446483367262288
13.24,-0.004469713902836708
13.244,-0.004491518675269922
13.248000000000001,-0.004486494201798542
13.252,-0.004470699565096644
13.256,-0.00447077168672542
13.26,-0.004475844241282651
13.264000000000001,-0.004469160970349427
13.268,-0.00445985728023735
13.272,-0.004465867415968666
13.276,-0.00447396907893448
13.280000000000001,-0.004466997321486154
13.284,-0.004466107821397919
13.288,-0.004478104052317625
13.292,-0.004481878417556892
13.296000000000001,-0.004484162269134792
13.3,-0.004478753146976607
13.304,-0.004478224255032252
13.308,-0.004481085079640358
13.312000000000001,-0.004471589065184879
13.316,-0.004466300145741321
13.32,-0.004454616441879643
13.324,-0.0044575253475736
13.328,-0.004472839173416993
13.332,-0.004471108254326374
13.336,-0.0044754355520529214
13.34,-0.004478007890145924
13.344,-0.004466131861940844
13.348,-0.004449447725150711
13.352,-0.004446634981628455
13.356,-0.004454856847308895
13.36,-0.004458366766575984
13.364,-0.004470867848897121
13.368,-0.004469064808177726
13.372,-0.004470026429894737
13.376,-0.0044625979021308305
13.38,-0.004446562859999679
13.384,-0.004454135631021137
13.388,-0.0044591120234066675
13.392,-0.004462261334529876
13.396,-0.0044709159299829715
13.4,-0.004467237726915406
13.404,-0.004456804131285842
13.408,-0.004466853078228602
13.412,-0.004471516943556103
13.416,-0.004457260901601422
13.42,-0.004455481901424952
13.424,-0.004455554023053728
13.428,-0.004442908697475039
13.432,-0.004441394143270748
13.436,-0.004453198049847052
13.44,-0.004450313184696021
13.444,-0.004449279441350234
13.448,-0.00444564931936852
13.452,-0.004435408048082358
13.456,-0.004459616874808098
13.46,-0.004464112456335122
13.464,-0.004455097252738148
13.468,-0.004450553590125273
13.472,-0.0044488707521205045
13.476,-0.00444980833329459
13.48,-0.0044518036983573865
13.484,-0.004452308549758817
13.488,-0.004452621076816846
13.492,-0.0044512507658701055
13.496,-0.004446442657285053
13.5,-0.004440095953952784
13.504,-0.004455481901424952
13.508000000000001,-0.004465458726738937
13.512,-0.0044499766170950665
13.516,-0.004454953009480596
13.52,-0.004454063509392362
13.524000000000001,-0.004467069443114929
13.528,-0.0044689446054631
13.532,-0.004466179943026695
13.536,-0.004463896091448795
13.540000000000001,-0.004460290010010005
13.544,-0.004459376469378845
13.548,-0.00446072273978266
13.552,-0.004464064375249271
13.556000000000001,-0.004457693631374077
13.56,-0.004460842942497286
13.564,-0.004455313617624475
13.568,-0.004444543454393957
13.572000000000001,-0.004444062643535452
13.576,-0.004444519413851032
13.58,-0.004451923901072013
13.584,-0.004453582698533856
13.588000000000001,-0.004450361265781871
13.592,-0.004461804564214297
13.596,-0.004462501739959129
13.6,-0.004464352861764375
13.604000000000001,-0.0044706034029249435
13.608,-0.004465627010539414
13.612,-0.004464208618506823
13.616,-0.004465314483481385
13.620000000000001,-0.00446351144276199
13.624,-0.00445574634739713
13.628,-0.004453678860705557
13.632,-0.004455962712283458
13.636000000000001,-0.004451875819986162
13.64,-0.004444158805707153
13.644,-0.004449591968408263
13.648,-0.004455866550111757
13.652000000000001,-0.004451851779443237
13.656,-0.004454327955364539
13.66,-0.004460145766752454
13.664,-0.004455890590654682
13.668000000000001,-0.0044560107933693084
13.672,-0.004450361265781871
13.676,-0.0044470436708581845
13.68,-0.0044344464263653465
13.684000000000001,-0.004447163873572811
13.688,-0.0044514911712993585
13.692,-0.004440119994495709
13.696,-0.004452645117359771
13.700000000000001,-0.0044525970362739205
13.704,-0.00444889479266343
13.708,-0.004447500441173764
13.712,-0.004449159238635608
13.716000000000001,-0.004444807900366135
13.72,-0.0044416585892429255
13.724,-0.004451034400983779
13.728,-0.004454616441879643
13.732000000000001,-0.0044422115217302065
13.736,-0.004441610508157075
13.74,-0.004449712171122889
13.744,-0.004445985886969473
13.748000000000001,-0.004465506807824787
13.752,-0.00446387205090587
13.756,-0.004454784725680119
13.76,-0.004453847144506034
13.764000000000001,-0.004446803265428932
13.768,-0.004440745048611766
13.772,-0.004438292913233389
13.776,-0.004444711738194434
13.780000000000001,-0.004456659888028291
13.784,-0.004451106522612554
13.788,-0.004445673359911444
13.792,-0.004443509711048171
13.796000000000001,-0.004461948807471848
13.8,-0.004477959809060073
13.804,-0.004474161403277882
13.808,-0.00446524236185261
13.812000000000001,-0.004444711738194434
13.816,-0.0044230271684758465
13.82,-0.004416584302971876
13.824,-0.004418892195092701
13.828,-0.0044246859659376895
13.832,-0.004440432521553737
13.836,-0.004443149102904292
13.84,-0.004443437589419395
13.844,-0.004448269738547373
13.848,-0.004449736211665814
13.852,-0.004448029333118121
13.856,-0.0044393506971221
13.86,-0.0044181950193478686
13.864,-0.004439062210606997
13.868,-0.004459160104492518
13.872,-0.004448029333118121
13.876,-0.004440456562096662
13.88,-0.004439543021465503
13.884,-0.0044553376581674
13.888,-0.004461516077699194
13.892,-0.0044589437396061905
13.896,-0.0044549770500235215
13.9,-0.004448365900719074
13.904,-0.004447644684431316
13.908,-0.004447837008774718
13.912,-0.004436826440114948
13.916,-0.004432547223474251
13.92,-0.004442331724444833
13.924,-0.004439639183637204
13.928,-0.004435816737312087
13.932,-0.00444250000824531
13.936,-0.004440841210783467
13.94,-0.004442283643358982
13.944,-0.004447235995201587
13.948,-0.004452572995730995
13.952,-0.004447500441173764
13.956,-0.004442932738017965
13.96,-0.004438773724091894
13.964,-0.004435840777855012
13.968,-0.004442259602816057
13.972,-0.004437499575316855
13.976,-0.004439855548523531
13.98,-0.004434109858764393
13.984,-0.004445553157196819
13.988,-0.004456852212371692
13.992,-0.004453101887675351
13.996,-0.004439470899836727
14.0,-0.004425118695710345
14.004,-0.004419228762693655
14.008000000000001,-0.0044214404926427794
14.012,-0.004431249034156286
14.016,-0.004441249900013196
14.02,-0.004442259602816057
14.024000000000001,-0.004438052507804136
14.028,-0.0044368985617437235
14.032,-0.004424060911821633
14.036,-0.004418098857176167
14.040000000000001,-0.00442194534404421
14.044,-0.004428364169005255
14.048,-0.004431970250444044
14.052,-0.0044403844404678865
14.056000000000001,-0.004434590669622898
14.06,-0.00443153752067139
14.064,-0.004431128831441661
14.068,-0.004424084952364558
14.072000000000001,-0.004420719276355021
14.076,-0.004423123330647548
14.08,-0.004432571264017176
14.084,-0.0044284122500911054
14.088000000000001,-0.004415694802883641
14.092,-0.004414060045964723
14.096,-0.004432667426188877
14.1,-0.004423195452276324
14.104000000000001,-0.00441925280323658
14.108,-0.004416728546229428
14.112,-0.004408170112948034
14.116,-0.004407641221003678
14.120000000000001,-0.004404876558567273
14.124,-0.004399924206724668
14.128,-0.004401006031156305
14.132,-0.004399082787722284
14.136000000000001,-0.0043963902469146545
14.14,-0.004395957517142
14.144,-0.004397616314603843
14.148,-0.004398121166005273
14.152000000000001,-0.004395068017053765
14.156,-0.004378576204607035
14.16,-0.00437225354181769
14.164,-0.004392038908645182
14.168000000000001,-0.004391485976157901
14.172,-0.00439372174664995
14.176,-0.004397856720033095
14.18,-0.0043803792453264295
14.184000000000001,-0.004378167515377305
14.188,-0.004390187786839936
14.192,-0.004391005165299396
14.196,-0.004399227030979835
14.200000000000001,-0.004401438760928959
14.204,-0.004402232098845493
14.208,-0.0043924956789607615
14.212,-0.004377013569316892
14.216000000000001,-0.004371315960643605
14.22,-0.004382326529303375
14.224,-0.004391269611271573
14.228,-0.004389851219238983
14.232000000000001,-0.004389586773266805
14.236,-0.004385427759340734
14.24,-0.004378792569493362
14.244,-0.00437864832623581
14.248000000000001,-0.004388312624491766
14.252,-0.004392519719503687
14.256,-0.00437585962325648
14.26,-0.004371219798471904
14.264000000000001,-0.004397231665917038
14.268,-0.0043932890168772954
14.272,-0.004395572868455195
14.276,-0.004392519719503687
14.280000000000001,-0.004384850786310528
14.284,-0.004377830947776351
14.288,-0.004375474974569676
14.292,-0.004372638190504494
14.296000000000001,-0.0043641278383089515
14.3,-0.004374224866337562
14.304,-0.0043846344214242
14.308,-0.004373119001363
14.312000000000001,-0.0043775905423470984
14.316,-0.004387471205489382
14.32,-0.004373046879734224
14.324,-0.00435677143217382
14.328000000000001,-0.004365377946541064
14.332,-0.004363863392336773
14.336,-0.004372277582360615
14.34,-0.0043884568677493175
14.344,-0.004383817042964742
14.348,-0.004385187353911482
14.352,-0.004373840217650757
14.356,-0.004366628054773178
14.36,-0.00437042646055537
14.364,-0.004362252675960781
14.368,-0.004359896702754105
14.372,-0.004373046879734224
14.376,-0.004376220231400358
14.38,-0.004367902203548217
14.384,-0.0043631662165919405
14.388,-0.0043610266082715924
14.392,-0.004365762595227869
14.396,-0.004370354338926594
14.4,-0.004364728851882083
14.404,-0.004360858324471115
14.408,-0.004363382581478268
14.412,-0.004361531459673023
14.416,-0.004371989095845512
14.42,-0.004369777365896388
14.424,-0.004364584608624531
14.428,-0.00436677229803073
14.432,-0.0043671329061746094
14.436,-0.004368743622550602
14.44,-0.004374152744708786
14.444,-0.00436083428392819
14.448,-0.004347996634006098
14.452,-0.004353333634535507
14.456,-0.004361050648814518
14.46,-0.00436220459487493
14.464,-0.0043617959056452
14.468,-0.0043525402966189735
14.472,-0.004349871796354269
14.476,-0.004361483378587172
14.48,-0.004357011837603072
14.484,-0.0043577811349766815
14.488,-0.004378912772207988
14.492,-0.0043817976373590195
14.496,-0.004375282650226273
14.5,-0.004371628487701633
14.504,-0.004359151445923422
14.508000000000001,-0.004356314661858239
14.512,-0.004364392284281129
14.516,-0.004367180987260459
14.52,-0.004365666433056168
14.524000000000001,-0.004367661798118965
14.528,-0.004366700176401954
14.532,-0.004367733919747741
14.536,-0.004369873528068089
14.540000000000001,-0.004364368243738204
14.544,-0.004338452538464769
14.548,-0.004321023144843953
14.552,-0.004339173754752527
14.556000000000001,-0.0043512661478439345
14.56,-0.004350977661328831
14.564,-0.004355809810456809
14.568,-0.004359728418953628
14.572000000000001,-0.00435763689171913
14.576,-0.004357444567375728
14.58,-0.004351121904586383
14.584,-0.004361892067816901
14.588000000000001,-0.004377109731488593
14.592,-0.0043744171906809634
14.596,-0.004372686271590345
14.6,-0.004369729284810537
14.604000000000001,-0.0043639595545084744
14.608,-0.004364776932967933
14.612,-0.004363863392336773
14.616,-0.004360425594698461
14.620000000000001,-0.004348717850293856
14.624,-0.004346458039258882
14.628,-0.004351482512730261
14.632,-0.004363671067993371
14.636000000000001,-0.004366459770972702
14.64,-0.0043565791078304175
14.644,-0.004356915675431371
14.648,-0.004355016472540276
14.652000000000001,-0.004355136675254901
14.656,-0.004353069188563329
14.66,-0.004362252675960781
14.664,-0.004371147676843128
14.668000000000001,-0.0043734796095068786
14.672,-0.004370522622727071
14.676,-0.004368022406262844
14.68,-0.004361531459673023
14.684000000000001,-0.0043613391353296204
14.688,-0.004362565203018809
14.692,-0.004358694675607842
14.696,-0.0043575407295474294
14.700000000000001,-0.004359584175696076
14.704,-0.004360690040670638
14.708,-0.004358911040494169
14.712,-0.004360690040670638
14.716000000000001,-0.0043583340674639625
14.72,-0.004351674837073664
14.724,-0.004347660066405145
14.728,-0.004362493081390033
14.732000000000001,-0.004372349703989391
14.736,-0.004366579973687328
14.74,-0.00436677229803073
14.744,-0.004367854122462367
14.748000000000001,-0.004364416324824054
14.752,-0.0043599207432970305
14.756,-0.004368503217121349
14.76,-0.00437951378578112
14.764000000000001,-0.004370522622727071
14.768,-0.004360185189269208
14.772,-0.0043583340674639625
14.776,-0.004360690040670638
14.780000000000001,-0.004354655864396396
14.784,-0.004337779403262861
14.788,-0.004332754929791482
14.792,-0.00435544920231293
14.796000000000001,-0.004366940581831207
14.8,-0.004362108432703229
14.804,-0.004351169985672233
14.808,-0.004343549133564925
14.812000000000001,-0.0043577811349766815
14.816,-0.004371315960643605
14.82,-0.0043665078520585526
14.824,-0.0043588869999512435
14.828000000000001,-0.0043532374723638054
14.832,-0.0043631662165919405
14.836,-0.004361242973157919
14.84,-0.004350352607212774
14.844000000000001,-0.004347323498804191
14.848,-0.004336481213944897
14.852,-0.004344390552567309
14.856,-0.004364224000480652
14.86,-0.004361074689357443
14.864,-0.004354126972452041
14.868,-0.0043457127824281985
14.872,-0.004344751160711188
14.876,-0.00434535217428432
14.88,-0.004341096998186548
14.884,-0.004346938850117387
14.888,-0.004354271215709592
14.892,-0.00434814087726365
14.896,-0.004335832119285915
14.9,-0.004348693809750931
14.904,-0.004371147676843128
14.908,-0.0043610266082715924
14.912,-0.004355377080684154
14.916,-0.004348357242149978
14.92,-0.004335952322000541
14.924,-0.004339125673666676
14.928,-0.004358430229635664
14.932,-0.004364007635594325
14.936,-0.004352564337161899
14.94,-0.004346409958173031
14.944,-0.004347467742061743
14.948,-0.004346409958173031
14.952,-0.004353598080507685
14.956,-0.004358598513436141
14.96,-0.004354872229282724
14.964,-0.004343693376822476
14.968,-0.0043216962800458605
14.972,-0.004329557537582422
14.976,-0.004341265281987024
14.98,-0.004353694242679386
14.984,-0.004349655431467941
14.988,-0.004348958255723109
14.992,-0.0043477802691197715
14.996,-0.004341722052302605
15.0,-0.0043414335657875015
15.004,-0.004344390552567309
15.008000000000001,-0.0043467465257739845
15.012,-0.004345760863514049
15.016,-0.004338596781722321
15.02,-0.004337010105889253
15.024000000000001,-0.0043478523907485465
15.028,-0.004350352607212774
15.032,-0.004335519592227887
15.036,-0.004328427632064934
15.040000000000001,-0.0043435010524790745
15.044,-0.00434946310712454
15.048,-0.004338885268237423
15.052,-0.004333235740649987
15.056000000000001,-0.0043400872953836865
15.06,-0.004338668903351097
15.064,-0.004339894971040285
15.068,-0.004337875565434563
15.072000000000001,-0.004331673105359844
15.076,-0.00432758621306255
15.08,-0.004325230239855874
15.084,-0.004324148415424237
15.088000000000001,-0.004324220537053013
15.092,-0.004326961158946493
15.096,-0.004332754929791482
15.1,-0.0043334280649933886
15.104000000000001,-0.0043299181457263
15.108,-0.004327946821206429
15.112,-0.004324581145196892
15.116,-0.004333331902821688
15.120000000000001,-0.004335928281457616
15.124,-0.00432845167260786
15.128,-0.004325085996598322
15.132,-0.004323859928909134
15.136000000000001,-0.004318787374351904
15.14,-0.004328692078037112
15.144,-0.004337442835661908
15.148,-0.004319700914983063
15.152000000000001,-0.004321239509730281
15.156,-0.004322032847646814
15.16,-0.00431301764404984
15.164,-0.0043176574688344165
15.168000000000001,-0.004327754496863027
15.172,-0.004327441969804998
15.176,-0.00432443690193934
15.18,-0.004313522495451271
15.184000000000001,-0.00431068571138609
15.188,-0.004316816049832032
15.192,-0.004311647333103101
15.196,-0.004315061090198488
15.200000000000001,-0.0043129695629639895
15.204,-0.004307295994833627
15.208,-0.004308834589580844
15.212,-0.004313402292736645
15.216000000000001,-0.004310613589757314
15.22,-0.004303449507965585
15.224,-0.004303665872851912
15.228,-0.004296910480289914
15.232000000000001,-0.004306526697460019
15.236,-0.004313522495451271
15.24,-0.004308353778722339
15.244,-0.004310301062699286
15.248000000000001,-0.004309916414012482
15.252,-0.004305829521715186
15.256,-0.0043102770221563605
15.26,-0.004318306563493399
15.264000000000001,-0.0043171766579759106
15.268,-0.00430844994089404
15.272,-0.004296453709974333
15.276,-0.004300708886072105
15.280000000000001,-0.004318090198607071
15.284,-0.004307151751576076
15.288,-0.0042911647905307755
15.292,-0.004281644735532371
15.296000000000001,-0.004275490356543504
15.3,-0.004291525398674655
15.304,-0.004305637197371784
15.308,-0.004306887305603898
15.312000000000001,-0.004307872967863833
15.316,-0.004304579413483073
15.32,-0.004284361316882926
15.324,-0.004280803316529987
15.328000000000001,-0.004306791143432197
15.332,-0.004307007508318524
15.336,-0.004304555372940147
15.34,-0.004305276589227905
15.344000000000001,-0.00430438708913967
15.348,-0.0042980644263503264
15.352,-0.004292895709621394
15.356,-0.004311358846587997
15.36,-0.004313330171107869
15.364,-0.004305228508142055
15.368,-0.004294025615138882
15.372,-0.004301285859102311
15.376,-0.004306093967687364
15.38,-0.004303641832308987
15.384,-0.0042983769534083545
15.388,-0.0042940977367676575
15.392,-0.0042865249657462
15.396,-0.0042888088173241
15.4,-0.004296982601918689
15.404,-0.004293761169166704
15.408,-0.00428748658746321
15.412,-0.004293063993421871
15.416,-0.004302752332220753
15.42,-0.004293496723194526
15.424,-0.004282245749105503
15.428,-0.004294434304368612
15.432,-0.004291645601389281
15.436,-0.004297463412777195
15.44,-0.004297247047890867
15.444,-0.004300155953584824
15.448,-0.004307632562434581
15.452,-0.004300011710327272
15.456,-0.004299194331867814
15.46,-0.0042990981696961125
15.464,-0.004299458777839991
15.468,-0.004302319602448098
15.472,-0.004298280791236653
15.476,-0.004294554507083238
15.48,-0.004292222574419487
15.484,-0.004294602588169088
15.488,-0.00429068397967227
15.492,-0.004287342344205659
15.496,-0.004283543938423467
15.5,-0.004278615627123788
15.504,-0.004288616492980697
15.508000000000001,-0.004281308167931418
15.512,-0.004277341478348749
15.516,-0.00428515465479946
15.52,-0.004278471383866236
15.524000000000001,-0.004289241547096754
15.528,-0.004285322938599937
15.532,-0.004283976668196122
15.536,-0.004285587384572114
15.540000000000001,-0.004281115843588016
15.544,-0.00428748658746321
15.548,-0.004280875438158763
15.552,-0.004278206937894059
15.556000000000001,-0.004279312802868621
15.56,-0.004277052991833646
15.564,-0.004269023450496608
15.568,-0.004265826058287548
15.572000000000001,-0.004258277327809015
15.576,-0.004270706288501376
15.58,-0.004279312802868621
15.584,-0.0042807071543582865
15.588000000000001,-0.004281163924673866
15.592,-0.004284673843940955
15.596,-0.004288135682122192
15.6,-0.004281716857161147
15.604000000000001,-0.004278495424409162
15.608,-0.0042756345998010556
15.612,-0.004281067762502165
15.616,-0.004283039087022037
15.620000000000001,-0.004278279059522835
15.624,-0.004268446477466402
15.628,-0.00427149962641791
15.632,-0.004277870370293105
15.636000000000001,-0.004279745532641275
15.64,-0.0042664270718606795
15.644,-0.004263013314765292
15.648,-0.004262652706621414
15.652000000000001,-0.004271403464246209
15.656,-0.0042724612481349206
15.66,-0.004272268923791519
15.664,-0.0042614025983893
15.668000000000001,-0.004260465017215214
15.672,-0.004276956829661945
15.676,-0.004287606790177837
15.68,-0.004280514830014884
15.684000000000001,-0.004279865735355902
15.688,-0.004282726559964008
15.692,-0.004280803316529987
15.696,-0.004275009545684999
15.700000000000001,-0.004267773342264494
15.704,-0.004267220409777213
15.708,-0.00427373539690996
15.712,-0.004270778410130152
15.716000000000001,-0.004271475585874985
15.72,-0.0042650086798280895
15.724,-0.004256233881660368
15.728,-0.00427830310006576
15.732000000000001,-0.004281837059875774
15.736,-0.00426734061249184
15.74,-0.00426962446406974
15.744,-0.004274721059169896
15.748000000000001,-0.004274817221341596
15.752,-0.004269840828956067
15.756,-0.0042604890577581395
15.76,-0.004257604192607107
15.764000000000001,-0.004270850531758928
15.768,-0.004279505127212023
15.772,-0.004275273991657177
15.776,-0.004273158423879753
15.780000000000001,-0.004270898612844779
15.784,-0.00426688384217626
15.788,-0.004275778843058607
15.792,-0.004274817221341596
15.796000000000001,-0.004274023883425063
15.8,-0.00427972149209835
15.804,-0.00426693192326211
15.808,-0.004271331342617433
15.812000000000001,-0.004278783910924265
15.816,-0.00427921664069692
15.82,-0.004273230545508529
15.824,-0.0042686628423527296
15.828000000000001,-0.004260633301015691
15.832,-0.004264095139196929
15.836,-0.004265802017744623
15.84,-0.004266739598918708
15.844000000000001,-0.004263926855396452
15.848,-0.0042597678414703815
15.852,-0.004252675881307429
15.856,-0.004265176963628566
15.860000000000001,-0.004275346113285952
15.864,-0.004271139018274031
15.868,-0.004278110775722358
15.872,-0.004284361316882926
15.876,-0.004274865302427447
15.88,-0.004267893544979121
15.884,-0.004259431273869428
15.888,-0.004244694421056241
15.892,-0.004268542639638103
15.896,-0.004281212005759717
15.9,-0.0042719804372764155
15.904,-0.004271259220988657
15.908,-0.004266499193489455
15.912,-0.00426089774698787
15.916,-0.004260633301015691
15.92,-0.0042610419902454205
15.924,-0.004260657341558617
15.928,-0.004265128882542715
15.932,-0.004269335977554636
15.936,-0.0042692157748400105
15.94,-0.00427012931547117
15.944,-0.004271547707503761
15.948,-0.004278279059522835
15.952,-0.004276115410659561
15.956,-0.0042653212068861175
15.96,-0.004251714259590418
15.964,-0.004245439677886925
15.968,-0.004246329177975159
15.972,-0.0042600082468996344
15.976,-0.004257411868263706
15.98,-0.004264119179739854
15.984,-0.004258637935952894
15.988,-0.004252627800221578
15.992,-0.004257483989892482
15.996,-0.0042692157748400105
16.0,-0.004265705855572922
16.004,-0.004266451112403605
16.008,-0.004264575950055434
16.012,-0.0042679416260649715
