time,channel1
0.0,-0.009036022707147127
0.004,-0.009034676436743312
0.008,-0.009029315395670978
0.012,-0.009026526692691647
0.016,-0.009030950152589897
0.02,-0.009032993598738543
0.024,-0.009021406057048566
0.028,-0.008977267620237782
0.032,-0.008987821418581971
0.036000000000000004,-0.009000586946875286
0.04,-0.009011861961507238
0.044,-0.009027608517123285
0.048,-0.009000346541446033
0.052000000000000005,-0.008891226517108263
0.056,-0.008967266754380872
0.06,-0.009074487575827548
0.064,-0.009079488008756003
0.068,-0.009071746953934067
0.07200000000000001,-0.00906047193930212
0.076,-0.00904686499200642
0.08,-0.009016213299776709
0.084,-0.008976955093179752
0.088,-0.008979888039416635
0.092,-0.009000683109046987
0.096,-0.009007414461066062
0.1,-0.00902443516545715
0.10400000000000001,-0.009032056017564459
0.108,-0.009034291788056507
0.112,-0.009028473976668594
0.116,-0.009023233138310887
0.12,-0.009018136543210731
0.124,-0.009014626623943643
0.128,-0.009002678474109784
0.132,-0.008946736130722697
0.136,-0.008875744407464393
0.14,-0.008919618398303
0.14400000000000002,-0.008959958429331592
0.148,-0.0089880377834683
0.152,-0.009025516989888786
0.156,-0.009077973454551712
0.16,-0.009066193588518331
0.164,-0.009040013437272721
0.168,-0.009030228936302138
0.17200000000000001,-0.009024867895229804
0.176,-0.009019098164927741
0.18,-0.009007630825952389
0.184,-0.008989480216043814
0.188,-0.008988710918670206
0.192,-0.009000707149589914
0.196,-0.00901539592131725
0.2,-0.00899214871630852
0.20400000000000001,-0.008908271262042274
0.20800000000000002,-0.008957241847981037
0.212,-0.009021213732705164
0.216,-0.009025709314232189
0.22,-0.009025276584459533
0.224,-0.009001236041534268
0.228,-0.00894154337345084
0.232,-0.00899580287883316
0.23600000000000002,-0.009029435598385604
0.24,-0.009001115838819643
0.244,-0.008997389554666226
0.248,-0.008981041985477048
0.252,-0.00896854090315591
0.256,-0.008972796079253682
0.26,-0.008948707455242568
0.264,-0.008930364520990592
0.268,-0.008976858931008051
0.272,-0.00896717059220917
0.276,-0.00889586634189284
0.28,-0.008892692990226703
0.28400000000000003,-0.008952986671883266
0.28800000000000003,-0.009001115838819643
0.292,-0.009014001569827585
0.296,-0.009011573474992134
0.3,-0.00900178897402155
0.304,-0.009002822717367336
0.308,-0.00898580201297625
0.312,-0.00895940549684431
0.316,-0.008949572914787879
0.32,-0.009001067757733792
0.324,-0.008991980432508042
0.328,-0.00888692325992464
0.332,-0.008792780493829309
0.336,-0.00894382722502874
0.34,-0.009011453272277507
0.34400000000000003,-0.008999793608958752
0.34800000000000003,-0.009020612719132032
0.352,-0.009009481947757634
0.356,-0.008938778711014434
0.36,-0.008864108784688567
0.364,-0.008945942792806163
0.368,-0.008987124242837138
0.372,-0.009002558271395159
0.376,-0.009000514825246511
0.38,-0.008972988403597084
0.384,-0.00893017219664719
0.388,-0.008938418102870556
0.392,-0.008978637931184521
0.396,-0.008978157120326015
0.4,-0.008967362916552573
0.404,-0.008931999277909511
0.40800000000000003,-0.008919858803732252
0.41200000000000003,-0.008978806214984997
0.41600000000000004,-0.00899169194599294
0.42,-0.008956087901920625
0.424,-0.008954044455771977
0.428,-0.008930196237190116
0.432,-0.008902189004682183
0.436,-0.008947192901038277
0.44,-0.00894839492818454
0.444,-0.008957049523637635
0.448,-0.008939283562415865
0.452,-0.008886514570694911
0.456,-0.00882297541574344
0.46,-0.008951832725822853
0.464,-0.00901246297508037
0.468,-0.008975921349833967
0.47200000000000003,-0.00899356710834111
0.47600000000000003,-0.008986282823834756
0.48,-0.008970247781703604
0.484,-0.008946591887465145
0.488,-0.00891565170872033
0.492,-0.008959693983359414
0.496,-0.008951832725822853
0.5,-0.008867907190470757
0.504,-0.008791842912655223
0.508,-0.008780063046621845
0.512,-0.008881514137766456
0.516,-0.009014314096885615
0.52,-0.009032897436566843
0.524,-0.00898758101315272
0.528,-0.0089630115782831
0.532,-0.008970223741160679
0.536,-0.00896027095638962
0.54,-0.008943490657427786
0.544,-0.008938370021784705
0.548,-0.00892267154725451
0.552,-0.008908872275615405
0.556,-0.008898174234013664
0.56,-0.00890783853226962
0.5640000000000001,-0.008920147290247355
0.5680000000000001,-0.008941687616708391
0.5720000000000001,-0.008933441710485027
0.5760000000000001,-0.008883749908258506
0.58,-0.008817157604355527
0.584,-0.008823912996917526
0.588,-0.00889682796360985
0.592,-0.008974911647031106
0.596,-0.00899036971613205
0.6,-0.008912358154339571
0.604,-0.008894832598547052
0.608,-0.008876080975065348
0.612,-0.008907477924125742
0.616,-0.008944668644031125
0.62,-0.00895209717179503
0.624,-0.008907189437610638
0.628,-0.008861897054739441
0.632,-0.008861848973653592
0.636,-0.008922262858024778
0.64,-0.0089311338183642
0.644,-0.008919594357760074
0.648,-0.008907237518696489
0.652,-0.008929643304702835
0.656,-0.008881658381024008
0.66,-0.008814609306805448
0.664,-0.008887716597841175
0.668,-0.008949164225558148
0.672,-0.008938971035357837
0.676,-0.008931686750851483
0.68,-0.0089264699530367
0.684,-0.008904953667118588
0.6880000000000001,-0.008782755587429475
0.6920000000000001,-0.008729746190279268
0.6960000000000001,-0.00884535716120686
0.7000000000000001,-0.008720129973109163
0.704,-0.00889879928812972
0.708,-0.009029724084900707
0.712,-0.009056096560489722
0.716,-0.008849131526446128
0.72,-0.008862834635913527
0.724,-0.008947048657780725
0.728,-0.008943490657427786
0.732,-0.00892245518236818
0.736,-0.008913151492256103
0.74,-0.008897933828584411
0.744,-0.00889175540905262
0.748,-0.00888733194915437
0.752,-0.00889153904416629
0.756,-0.008900962936992994
0.76,-0.008898534842157543
0.764,-0.008891082273850711
0.768,-0.00888504809757647
0.772,-0.008882644043283944
0.776,-0.008881129489079652
0.78,-0.008881033326907952
0.784,-0.008884591327260891
0.788,-0.008874253893803027
0.792,-0.00880278135968622
0.796,-0.008695464376067842
0.8,-0.008667529265188685
0.804,-0.00874212706988578
0.808,-0.008876585826466778
0.812,-0.008963324105341128
0.8160000000000001,-0.008945870671177388
0.8200000000000001,-0.008869565987932601
0.8240000000000001,-0.008843121390714812
0.8280000000000001,-0.008892164098282349
0.8320000000000001,-0.008913512100399984
0.836,-0.008934715859260065
0.84,-0.00888444708400334
0.844,-0.008824129361803853
0.848,-0.008762874058430282
0.852,-0.008750685503167172
0.856,-0.008843578161030392
0.86,-0.008893774814658341
0.864,-0.008886730935581238
0.868,-0.008855382067606695
0.872,-0.00878374124968941
0.876,-0.008798670426845998
0.88,-0.008695969227469272
0.884,-0.00883840944430146
0.888,-0.008914281397773591
0.892,-0.008874301974888877
0.896,-0.008827663321613867
0.9,-0.008882067070253737
0.904,-0.008568866877023403
0.908,-0.008745324462094839
0.912,-0.008947553509182155
0.916,-0.008905843167206823
0.92,-0.008811387874053462
0.924,-0.00856112582220147
0.928,-0.008430753957917765
0.932,-0.008688636861877066
0.936,-0.008941302968021588
0.9400000000000001,-0.00900695769075048
0.9440000000000001,-0.008977556106752884
0.9480000000000001,-0.008907093275438937
0.9520000000000001,-0.008854636810776013
0.9560000000000001,-0.008839563390361873
0.96,-0.008825691997093996
0.964,-0.008824538051033583
0.968,-0.008825523713293518
0.972,-0.008815234360921506
0.976,-0.008809921400935021
0.98,-0.008805425819407997
0.984,-0.008718807743248274
0.988,-0.008628126815334178
0.992,-0.008660004575253078
0.996,-0.008737847853245082
1.0,-0.008871056501593966
1.004,-0.008683997037092491
1.008,-0.0087646049775209
1.012,-0.008934355251116187
1.016,-0.008904785383318112
1.02,-0.008812710103914352
1.024,-0.008739795137222029
1.028,-0.008778981222190207
1.032,-0.008812637982285576
1.036,-0.008804416116605136
1.04,-0.008691521727028098
1.044,-0.008324446677102249
1.048,-0.008615265124869162
1.052,-0.00882689402424026
1.056,-0.008786001060724385
1.06,-0.008995899041004861
1.064,-0.008972747998167831
1.068,-0.00892240710128233
1.072,-0.008866368595723541
1.076,-0.008823552388773647
1.08,-0.008606249921272189
1.084,-0.008570790120457425
1.088,-0.008583459486579039
1.092,-0.008840957741851537
1.096,-0.009014097731999286
1.1,-0.008908511667471527
1.104,-0.008602523637118772
1.108,-0.008770639153795142
1.112,-0.008824826537548685
1.116,-0.008815691131237086
1.12,-0.00883612559272356
1.124,-0.008811940806540743
1.1280000000000001,-0.008783813371318186
1.1320000000000001,-0.008772201789085284
1.1360000000000001,-0.00876785045081581
1.1400000000000001,-0.008765230031636958
1.1440000000000001,-0.008762200923228373
1.1480000000000001,-0.008761479706940616
1.1520000000000001,-0.008748017002902468
1.156,-0.008712701445345255
1.16,-0.008707268282644145
1.164,-0.008612091773203026
1.168,-0.008668803413963724
1.172,-0.008762369207028851
1.176,-0.008766311856068593
1.18,-0.008792083318084476
1.184,-0.008794463331834076
1.188,-0.008790881290938213
1.192,-0.008825475632207667
1.196,-0.008801867819055058
1.2,-0.008757681301158424
1.204,-0.008724601514093263
1.208,-0.008681689144971666
1.212,-0.008708975161191838
1.216,-0.00874496385395096
1.22,-0.0087371987585861
1.224,-0.008693901740777698
1.228,-0.008766720545298324
1.232,-0.008698301160133022
1.236,-0.00874496385395096
1.24,-0.0088010504405956
1.244,-0.008799295480962055
1.248,-0.00877597615432455
1.252,-0.008771480572797526
1.256,-0.00875739281464332
1.26,-0.008744987894493886
1.264,-0.00872065886505352
1.268,-0.008668635130163247
1.272,-0.0086163469493008
1.276,-0.008701041782026502
1.28,-0.00877506261369339
1.284,-0.008798141534901643
1.288,-0.008804584400405614
1.292,-0.008776769492241083
1.296,-0.008755613814466852
1.3,-0.00874253575911551
1.304,-0.008734337933977994
1.308,-0.00873431389343507
1.312,-0.008733015704117105
1.316,-0.00872354373020455
1.32,-0.008676400225528107
1.324,-0.008687074226586924
1.328,-0.008733183987917581
1.332,-0.008746021637839671
1.336,-0.008747295786614711
1.34,-0.008739915339936654
1.344,-0.008709744458565448
1.348,-0.008675943455212528
1.352,-0.00867349131983415
1.356,-0.008655196466668026
1.36,-0.008677169522901715
1.364,-0.008716571972756224
1.368,-0.008713711148148116
1.372,-0.008701498552342082
1.3760000000000001,-0.008741646259027274
1.3800000000000001,-0.00872212533817196
1.3840000000000001,-0.008656759101958168
1.3880000000000001,-0.008523742777952684
1.3920000000000001,-0.008681232374656084
1.3960000000000001,-0.008755036841436645
1.4000000000000001,-0.008765831045210089
1.4040000000000001,-0.008774990492064615
1.408,-0.008755830179353179
1.412,-0.008729145176706136
1.416,-0.008713927513034443
1.42,-0.008710417593767355
1.424,-0.00870765293133095
1.428,-0.00870911940444939
1.432,-0.00871186002634287
1.436,-0.008707172120472444
1.44,-0.00870810970164653
1.444,-0.008707821215131426
1.448,-0.00871318225620376
1.452,-0.008711980229057496
1.456,-0.008626251652986009
1.46,-0.0086141592598946
1.464,-0.008676015576841303
1.468,-0.008705537363553527
1.472,-0.008696161551812675
1.476,-0.008692795875803136
1.48,-0.00863598807287074
1.484,-0.008659547804937499
1.488,-0.008741958786085302
1.492,-0.008757464936272098
1.496,-0.008740324029166385
1.5,-0.00872308695988897
1.504,-0.008710489715396131
1.508,-0.00870226784971569
1.512,-0.00869796459253207
1.516,-0.008693517092090895
1.52,-0.008695007605752262
1.524,-0.008697363578958938
1.528,-0.008695921146383422
1.532,-0.00869815691687547
1.536,-0.008695680740954169
1.54,-0.008680847725969281
1.544,-0.008644690749409685
1.548,-0.008606177799643412
1.552,-0.008582377662147402
1.556,-0.008621203138971703
1.56,-0.00868161702334289
1.564,-0.00871979340550821
1.568,-0.00872390433834843
1.572,-0.008712364877744301
1.576,-0.008711980229057496
1.58,-0.008710129107252251
1.584,-0.008709311728792793
1.588,-0.008710032945080552
1.592,-0.008707725052959725
1.596,-0.008697916511446219
1.6,-0.00869039182151061
1.604,-0.008685751996726035
1.608,-0.00868491057772365
1.612,-0.008681496820628264
1.616,-0.008682410361259423
1.62,-0.008677938820275325
1.624,-0.008629473085737993
1.6280000000000001,-0.008617597057532914
1.6320000000000001,-0.008655605155897755
1.6360000000000001,-0.008651133614913657
1.6400000000000001,-0.00867079877902652
1.6440000000000001,-0.0086573601155313
1.6480000000000001,-0.008713879431948592
1.6520000000000001,-0.008725923743954152
1.6560000000000001,-0.00870140239017038
1.6600000000000001,-0.008679717820451793
1.6640000000000001,-0.00859781169070542
1.668,-0.008631732896772968
1.672,-0.008674044252321432
1.676,-0.008676159820098854
1.68,-0.0087054171608389
1.684,-0.008675222238924769
1.688,-0.00868938211870775
1.692,-0.008696353876156075
1.696,-0.008692483348745108
1.7,-0.00869019949716721
1.704,-0.008690992835083742
1.708,-0.008685727956183109
1.712,-0.008681809347686292
1.716,-0.00867796286081825
1.72,-0.008673875968520955
1.724,-0.008672890306261019
1.728,-0.008673010508975645
1.732,-0.00867664063095736
1.736,-0.008673082630604421
1.74,-0.008638464248792043
1.744,-0.008614784314010656
1.748,-0.008680030347509821
1.752,-0.008669885238395361
1.756,-0.008615337246497937
1.76,-0.008639017181279324
1.764,-0.008665245413610785
1.768,-0.008665581981211739
1.772,-0.008624689017695867
1.776,-0.00864548408732622
1.78,-0.00869125728105592
1.784,-0.008700056119766566
1.788,-0.008704407458036039
1.792,-0.008694070024578176
1.796,-0.008676616590414434
1.8,-0.008669813116766584
1.804,-0.008668514927448622
1.808,-0.008667481184102835
1.812,-0.008665461778497113
1.816,-0.008664067427007448
1.82,-0.00866197589977295
1.824,-0.00866303368366166
1.828,-0.008656518696528915
1.832,-0.008646806317187108
1.836,-0.008580839067400184
1.84,-0.008568626471594152
1.844,-0.008646012979270574
1.848,-0.008675294360553545
1.852,-0.008689646564679927
1.856,-0.008677217603987566
1.86,-0.008663274089090914
1.864,-0.00866522137306786
1.868,-0.008672890306261019
1.872,-0.008689718686308703
1.8760000000000001,-0.00867892448253526
1.8800000000000001,-0.0086506047229693
1.8840000000000001,-0.008637358383817479
1.8880000000000001,-0.008667721589532088
1.8920000000000001,-0.008666952292158478
1.8960000000000001,-0.008651157655456581
1.9000000000000001,-0.008668731292334949
1.9040000000000001,-0.008671760400743531
1.9080000000000001,-0.00866791391387549
1.9120000000000001,-0.00866466844058058
1.9160000000000001,-0.008662504791717306
1.92,-0.008660413264482808
1.924,-0.00865690334521572
1.928,-0.008643031951947842
1.932,-0.008642190532945458
1.936,-0.008650220074282495
1.94,-0.008650123912110794
1.944,-0.008628078734248328
1.948,-0.008597162596046438
1.952,-0.008602523637118772
1.956,-0.008636468883729246
1.96,-0.0086231985040345
1.964,-0.008637574748703808
1.968,-0.008662769237689483
1.972,-0.008675246279467695
1.976,-0.008663201967462137
1.98,-0.00864654187121493
1.984,-0.008619520300966934
1.988,-0.008626131450271381
1.992,-0.008645387925154518
1.996,-0.008654427169294416
2.0,-0.00865425888549394
2.004,-0.008643128114119544
2.008,-0.008628559545106834
2.012,-0.008622164760688713
2.016,-0.008629905815510649
2.02,-0.008638103640648162
2.024,-0.00864430610072288
2.028,-0.008635194734954206
2.032,-0.008573674985608456
2.036,-0.008550115253541699
2.04,-0.00857624732370146
2.044,-0.008640074965168035
2.048,-0.008663009643118736
2.052,-0.008655605155897755
2.056,-0.00864476287103846
2.06,-0.00859680198790256
2.064,-0.008577401269761873
2.068,-0.008627285396331794
2.072,-0.008634209072694271
2.076,-0.008632598356318277
2.08,-0.008646061060356425
2.084,-0.008639065262365174
2.088,-0.008629352883023368
2.092,-0.008613822692293646
2.096,-0.00861045701628411
2.1,-0.008603316975035306
2.104,-0.008611851367773775
2.108,-0.008639666275938306
2.112,-0.008629905815510649
2.116,-0.008627838328819075
2.12,-0.008641998208602055
2.124,-0.008638007478476461
2.128,-0.008625049625839746
2.132,-0.008602932326348503
2.136,-0.008617020084502706
2.14,-0.00860562486715613
2.144,-0.008593893082208603
2.148,-0.008614303503152152
2.152,-0.008601441812687136
2.156,-0.008597667447447868
2.16,-0.00859999938011162
2.164,-0.008607740434933555
2.168,-0.008603052529063128
2.172,-0.008580478459256306
2.176,-0.008553384767379534
2.18,-0.00857817056713548
2.184,-0.00859487874446854
2.188,-0.00861456794912433
2.192,-0.008623799517607632
2.196,-0.008609856002710978
2.2,-0.008637598789246732
2.204,-0.008639065262365174
2.208,-0.008631204004828613
2.212,-0.008623126382405723
2.216,-0.008613774611207796
2.22,-0.00860872609719349
2.224,-0.008605961434757085
2.228,-0.008602956366891427
2.232,-0.008599278163823863
2.236,-0.008599398366538488
2.24,-0.008593820960579828
2.244,-0.008585863540871565
2.248,-0.008563025025092565
2.2520000000000002,-0.008563025025092565
2.2560000000000002,-0.008564852106354885
2.2600000000000002,-0.008578459053650584
2.2640000000000002,-0.008601393731601285
2.2680000000000002,-0.00858136795934454
2.2720000000000002,-0.008555524375699883
2.2760000000000002,-0.0085799014862261
2.2800000000000002,-0.008578675418536911
2.2840000000000003,-0.008559202578767447
2.2880000000000003,-0.00856016420048446
2.2920000000000003,-0.008558240957050437
2.2960000000000003,-0.008592402568547236
2.3000000000000003,-0.00861776534133339
2.3040000000000003,-0.00862187627417361
2.308,-0.008614135219351674
2.312,-0.008594950866097314
2.316,-0.008581993013460597
2.32,-0.008578266729307182
2.324,-0.00856264037640576
2.328,-0.008578915823966164
2.332,-0.008594181568723706
2.336,-0.008596874109531336
2.34,-0.008572785485520222
2.344,-0.008552735672720552
2.348,-0.008546028361244403
2.352,-0.008573867309951858
2.356,-0.008588676284393821
2.36,-0.008590166798055188
2.364,-0.008559971876141057
2.368,-0.008556726402846146
2.372,-0.008581800689117196
2.376,-0.008587882946477287
2.38,-0.008588339716792867
2.384,-0.008582209378346925
2.388,-0.008574804891125944
2.392,-0.008561606633059974
2.396,-0.008524824602384322
2.4,-0.00852960867042645
2.404,-0.008517684561135518
2.408,-0.008532060805804825
2.412,-0.008562976944006715
2.416,-0.008602138988431969
2.42,-0.008615914219528144
2.424,-0.008556678321760295
2.428,-0.008546413009931208
2.432,-0.008588508000593345
2.436,-0.008584108581238021
2.44,-0.00859223428474676
2.444,-0.008598917555679982
2.448,-0.008586536676073472
2.452,-0.008581151594458214
2.456,-0.008575910756100506
2.46,-0.008575718431757104
2.464,-0.008574612566782542
2.468,-0.008577761877905751
2.472,-0.008559058335509897
2.476,-0.008551317280687962
2.48,-0.008552110618604496
2.484,-0.008575838634471731
2.488,-0.008566174336215775
2.492,-0.008547639077620397
2.496,-0.008539537414654583
2.5,-0.008496937572591016
2.504,-0.008516218088017077
2.508,-0.008528430683823111
2.512,-0.008547350591105294
2.516,-0.008576631972388263
2.52,-0.008620866571370749
2.524,-0.008581416040430391
2.528,-0.008555548416242807
2.532,-0.008578771580708612
2.536,-0.008580238053827053
2.54,-0.008575766512842954
2.544,-0.008564203011695902
2.548,-0.008554851240497976
2.552,-0.00854884110476666
2.556,-0.008552519307834225
2.56,-0.008559178538224523
2.564,-0.008547951604678425
2.568,-0.008518958709910558
2.572,-0.008515809398787346
2.576,-0.00852782967024998
2.58,-0.008528430683823111
2.584,-0.008553721334980488
2.588,-0.008582642108119579
2.592,-0.008578362891478883
2.596,-0.008559611267997178
2.6,-0.00854198955003296
2.604,-0.008530666454315161
2.608,-0.008529416346083047
2.612,-0.008523117723836628
2.616,-0.008489412882655407
2.62,-0.008532012724718976
2.624,-0.00856396260626665
2.628,-0.008555716700043285
2.632,-0.008553192443036131
2.636,-0.008543335820436775
2.64,-0.008526242994416912
2.644,-0.008535907292672867
2.648,-0.008552038496975719
2.652,-0.008554081943124367
2.656,-0.008545499469300048
2.66,-0.008547398672191144
2.664,-0.008558721767908943
2.668,-0.008535450522357288
2.672,-0.00852198781831914
2.676,-0.008526315116045688
2.68,-0.008534969711498783
2.684,-0.008552471226748374
2.688,-0.008537998819907366
2.692,-0.008532589697749181
2.696,-0.008512251398434407
2.7,-0.008543215617722148
2.704,-0.008554009821495592
2.708,-0.008564972309069512
2.712,-0.00857172770163151
2.716,-0.008557447619133903
2.72,-0.00854610048287318
2.724,-0.008540571158000368
2.728,-0.008519944372170494
2.732,-0.008548600699337407
2.736,-0.00855797651107826
2.74,-0.008550547983314354
2.744,-0.008552807794349328
2.748,-0.008547182307304816
2.7520000000000002,-0.008537974779364441
2.7560000000000002,-0.008549874848112446
2.7600000000000002,-0.008491239963917728
2.7640000000000002,-0.008481215057517894
2.7680000000000002,-0.008524872683470172
2.7720000000000002,-0.008535210116928035
2.7760000000000002,-0.008559322781482075
2.7800000000000002,-0.008587281932904155
2.7840000000000003,-0.008578555215822285
2.7880000000000003,-0.008571703661088585
2.7920000000000003,-0.008552783753806402
2.7960000000000003,-0.008557880348906559
2.8000000000000003,-0.008551365361773812
2.8040000000000003,-0.008533695562723743
2.8080000000000003,-0.00855985167342643
2.8120000000000003,-0.008565356957756315
2.816,-0.008558577524651391
2.82,-0.008556678321760295
2.824,-0.008560861376229292
2.828,-0.008559346822024999
2.832,-0.008555860943300837
2.836,-0.008557183173161726
2.84,-0.008534128292496399
2.844,-0.00853513799529926
2.848,-0.008539537414654583
2.852,-0.00854518694224202
2.856,-0.008554178105296068
2.86,-0.008559130457138672
2.864,-0.00854655725318876
2.868,-0.008549658483226119
2.872,-0.008538311346965394
2.876,-0.008565573322642643
2.88,-0.008578843702337389
2.884,-0.008565933930786522
2.888,-0.008575333783070299
2.892,-0.008576415607501936
2.896,-0.008565813728071895
2.9,-0.008559226619310373
2.904,-0.008537782455021039
2.908,-0.008545739874729301
2.912,-0.00856665514707428
2.916,-0.008558841970623569
2.92,-0.008548624739880332
2.924,-0.008542374198719763
2.928,-0.008555163767556004
2.932,-0.008560837335686366
2.936,-0.008554009821495592
2.94,-0.008540402874199892
2.944,-0.008539537414654583
2.948,-0.008538311346965394
2.952,-0.008549874848112446
2.956,-0.008513333222866045
2.96,-0.0084680889210807
2.964,-0.008480734246659388
2.968,-0.00855624559198764
2.972,-0.008571439215116407
2.976,-0.008557327416419278
2.98,-0.008554274267467769
2.984,-0.008546629374817535
2.988,-0.008530402008342982
2.992,-0.008525305413242827
2.996,-0.008544946536812767
3.0,-0.00854706210459019
3.004,-0.00855533205135648
3.008,-0.008566847471417682
3.012,-0.008558793889537718
3.016,-0.008551870213175243
3.02,-0.008545860077443927
3.024,-0.008550355658970952
3.028,-0.008539008522710227
3.032,-0.008531219386802442
3.036,-0.008532084846347751
3.04,-0.00852376681849561
3.044,-0.008518501939594978
3.048,-0.008522901358950301
3.052,-0.00853756609013471
3.056,-0.008544297442153785
3.06,-0.008540811563429621
3.064,-0.008534897589870007
3.068,-0.008535498603443138
3.072,-0.008529728873141075
3.076,-0.008524079345553638
3.08,-0.008521867615604514
3.084,-0.008521002156059205
3.088,-0.00850645762758942
3.092,-0.00846905054279771
3.096,-0.008484412449726954
3.1,-0.008477320489564
3.104,-0.008502322654206274
3.108,-0.008543215617722148
3.112,-0.008552038496975719
3.116,-0.008525762183558407
3.12,-0.008516290209645852
3.124,-0.008536989117104505
3.128,-0.008517347993534563
3.132,-0.008486936706734106
3.136,-0.008488114693337443
3.14,-0.008520737710087026
3.144,-0.008532084846347751
3.148,-0.008525930467358884
3.152,-0.008517732642221368
3.156,-0.008512780290378764
3.16,-0.008510376236086237
3.164,-0.008508404911566366
3.168,-0.00852427166989704
3.172,-0.008538407509137095
3.176,-0.008508813600796096
3.18,-0.008514847777070336
3.184,-0.008488571463653024
3.188,-0.008458689068796921
3.192,-0.008496552923904211
3.196,-0.008516698898875581
3.2,-0.008518021128736472
3.204,-0.008512972614722166
3.208,-0.008507972181793711
3.212,-0.008499557991769869
3.216,-0.0084954951400155
3.22,-0.008494894126442368
3.224,-0.008497394342906596
3.228,-0.008502226492034573
3.232,-0.008506818235733299
3.236,-0.008516266169102928
3.24,-0.008499798397199122
3.244,-0.008503644884067164
3.248,-0.008505039235556828
3.2520000000000002,-0.008516746979961432
3.2560000000000002,-0.0084864558958756
3.2600000000000002,-0.008484965382214235
3.2640000000000002,-0.008493091085722973
3.2680000000000002,-0.00849097551794555
3.2720000000000002,-0.00850381316786764
3.2760000000000002,-0.008508140465594187
3.2800000000000002,-0.008486215490446349
3.2840000000000003,-0.008450851851803285
3.2880000000000003,-0.008482729611722185
3.2920000000000003,-0.008510183911742835
3.2960000000000003,-0.008505616208587035
3.3000000000000003,-0.0085047267084988
3.3040000000000003,-0.008509054006225349
3.3080000000000003,-0.008514703533812784
3.3120000000000003,-0.008487489639221387
3.3160000000000003,-0.00846001129865781
3.3200000000000003,-0.008455635919845413
3.3240000000000003,-0.00847676755707672
3.3280000000000003,-0.008505760451844587
3.332,-0.008492898761379571
3.336,-0.008497947275393877
3.34,-0.008511890790290529
3.344,-0.008512395641691959
3.348,-0.00851153018214665
3.352,-0.008505616208587035
3.356,-0.008491576531518682
3.36,-0.008463376974667348
3.364,-0.00848239304412123
3.368,-0.008497298180734894
3.372,-0.00851112149291692
3.376,-0.008519054872082259
3.38,-0.008504245897640296
3.384,-0.008505159438271456
3.388,-0.008518093250365249
3.392,-0.008516410412360478
3.396,-0.008505423884243633
3.4,-0.00849508645078577
3.404,-0.008495663423815976
3.408,-0.008496985653676866
3.412,-0.008498956978196737
3.416,-0.008478426354538562
3.42,-0.00848143142240422
3.424,-0.008512227357891483
3.428,-0.00852463227804092
3.432,-0.008522997521122002
3.436,-0.008487826206822341
3.44,-0.008496697167161763
3.444,-0.008507755816907384
3.448,-0.008474147137897866
3.452,-0.008480085152000405
3.456,-0.008543239658265074
3.46,-0.008549153631824688
3.464,-0.008542590563606092
3.468,-0.008538119022621991
3.472,-0.008532373332862855
3.476,-0.008526940170161744
3.48,-0.008514967979784963
3.484,-0.008486888625648255
3.488,-0.008499630113398644
3.492,-0.00851198695246223
3.496,-0.008524488034783367
3.5,-0.008534440819554427
3.504,-0.00851761243950674
3.508,-0.008497634748335849
3.512,-0.00852331004818003
3.516,-0.008523911061753162
3.52,-0.008519006790996408
3.524,-0.008520737710087026
3.528,-0.008537037198190356
3.532,-0.008536003454844569
3.536,-0.008529368264997197
3.54,-0.00853417637358225
3.544,-0.008502226492034573
3.548,-0.008499341626883542
3.552,-0.008538695995652199
3.556,-0.00853934509031118
3.56,-0.008538407509137095
3.564,-0.008534777387155381
3.568,-0.008518309615251575
3.572,-0.008519415480226137
3.576,-0.00849746646453537
3.58,-0.008511554222689574
3.584,-0.008527589264820726
3.588,-0.008555115686470154
3.592,-0.00853665254950355
3.596,-0.008521242561488456
3.6,-0.008547278469476517
3.604,-0.008550788388743605
3.608,-0.008551076875258709
3.612,-0.008551100915801635
3.616,-0.008547783320877947
3.62,-0.008537854576649814
3.624,-0.008529897156941552
3.628,-0.008520449223571924
3.632,-0.008520353061400223
3.636,-0.0085295605893406
3.64,-0.008545307144956646
3.644,-0.00855893813279527
3.648,-0.00856158259251705
3.652,-0.008553504970094161
3.656,-0.008551798091546468
3.66,-0.008540474995828667
3.664,-0.00849737030236367
3.668,-0.00851371787155285
3.672,-0.00853472930606953
3.676,-0.008534921630412933
3.68,-0.008531676157118022
3.684,-0.008515568993358095
3.688,-0.00848321042258069
3.692,-0.008490134098943166
3.696,-0.008553721334980488
3.7,-0.008568217782364421
3.704,-0.008580959270114812
3.708,-0.008564659782011482
3.712,-0.008548865145309585
3.716,-0.008539369130854105
3.72,-0.008531676157118022
3.724,-0.008516386371817553
3.728,-0.008525738143015481
3.732,-0.008550547983314354
3.736,-0.008542013590575884
3.74,-0.008525882386273033
3.744,-0.008533695562723743
3.748,-0.008538431549680021
3.7520000000000002,-0.00851518434467129
3.7560000000000002,-0.008532132927433602
3.7600000000000002,-0.00854076348234377
3.7640000000000002,-0.008545475428757122
3.7680000000000002,-0.008558793889537718
3.7720000000000002,-0.00854518694224202
3.7760000000000002,-0.00854340794206555
3.7800000000000002,-0.008522108021033767
3.7840000000000003,-0.008500447491858104
3.7880000000000003,-0.008508813600796096
3.7920000000000003,-0.008519030831539333
3.7960000000000003,-0.008534536981726128
3.8000000000000003,-0.008558625605737242
3.8040000000000003,-0.00855949106528255
3.8080000000000003,-0.008550307577885101
3.8120000000000003,-0.008538094982079067
3.8160000000000003,-0.008523622575238058
3.8200000000000003,-0.00852230034537717
3.8240000000000003,-0.008497706869964624
3.8280000000000003,-0.008520881953344578
3.8320000000000003,-0.008535378400728513
3.8360000000000003,-0.008530089481284954
3.84,-0.008541821266232482
3.844,-0.008530017359656179
3.848,-0.008522204183205468
3.852,-0.008526122791702286
3.856,-0.008495350896757948
3.86,-0.008484220125383551
3.864,-0.008508573195366843
3.868,-0.008515040101413738
3.872,-0.008509679060341405
3.876,-0.008511890790290529
3.88,-0.008515304547385916
3.884,-0.008508452992652217
3.888,-0.008508452992652217
3.892,-0.008505399843700709
3.896,-0.008474339462241267
3.9,-0.008481239098060818
3.904,-0.008508813600796096
3.908,-0.008520497304657775
3.912,-0.008502106289319947
3.916,-0.008503043870494033
3.92,-0.008499317586340616
3.924,-0.008506481668132344
3.928,-0.008511193614545696
3.932,-0.008504029532753967
3.936,-0.00849453351829849
3.94,-0.008460540190602167
3.944,-0.008440129769658617
3.948,-0.008484676895699131
3.952,-0.008501505275746815
3.956,-0.008494942207528219
3.96,-0.00848042171960136
3.964,-0.008499582032312793
3.968,-0.008507635614192757
3.972,-0.008486359733703899
3.976,-0.008487826206822341
3.98,-0.00849970223502742
3.984,-0.008463833744982928
3.988,-0.008454554095413775
3.992,-0.008489172477226156
3.996,-0.008508717438624394
4.0,-0.008500760018916132
4.0040000000000004,-0.008504462262526623
4.008,-0.008495398977843798
4.0120000000000005,-0.008484220125383551
4.016,-0.008515328587928842
4.0200000000000005,-0.00853030584617128
4.024,-0.008527276737762698
4.0280000000000005,-0.00851756435842089
4.032,-0.008509198249482899
4.0360000000000005,-0.008509366533283377
4.04,-0.008515544952815169
4.0440000000000005,-0.008511217655088622
4.048,-0.008510929168573518
4.0520000000000005,-0.008505784492387512
4.056,-0.008476070381331887
4.0600000000000005,-0.00846950731311329
4.064,-0.008504245897640296
4.0680000000000005,-0.00849782707267925
4.072,-0.008467343664250017
4.0760000000000005,-0.008514030398610878
4.08,-0.00855295203760688
4.0840000000000005,-0.008544706131383514
4.088,-0.008537950738821515
4.0920000000000005,-0.00853706123873328
4.096,-0.008515568993358095
4.1,-0.008514895858156186
4.104,-0.008517804763850145
4.108,-0.008518574061223753
4.112,-0.008516314250188776
4.116,-0.008510784925315967
4.12,-0.008519992453256344
4.124,-0.008513237060694344
4.128,-0.008508645316995618
4.132,-0.008471863286319966
4.136,-0.00848046980068721
4.14,-0.008540450955285743
4.144,-0.008549922929198296
4.148,-0.008550860510372382
4.152,-0.008548192010107678
4.156,-0.008547206347847742
4.16,-0.008541292374288127
4.164,-0.008539609536283358
4.168,-0.008541773185146631
4.172,-0.008528478764908962
4.176,-0.008501457194660965
4.18,-0.008500952343259534
4.184,-0.008502563059635527
4.188,-0.008535210116928035
4.192,-0.008565380998299241
4.196,-0.00855533205135648
4.2,-0.008535979414301644
4.204,-0.00851787688547892
4.208,-0.008551004753629934
4.212,-0.008543960874552831
4.216,-0.008546028361244403
4.22,-0.008556389835245192
4.224,-0.008544970577355692
4.228,-0.008548624739880332
4.232,-0.008550187375170474
4.236,-0.0085456437125576
4.24,-0.008541364495916902
4.244,-0.008524151467182415
4.248,-0.008514823736527411
4.252,-0.008547687158706246
4.256,-0.008558000551621184
4.26,-0.008551990415889868
4.264,-0.00853655638733185
4.268,-0.00851381403372455
4.272,-0.00850102446488831
4.276,-0.008530185643456655
4.28,-0.008562375930433583
4.284,-0.00855624559198764
4.288,-0.008539056603796077
4.292,-0.008558841970623569
4.296,-0.008546196645044881
4.3,-0.008537686292849338
4.304,-0.00851203503354808
4.308,-0.008517251831362862
4.312,-0.00853609961701627
4.316,-0.00856386644409495
4.32,-0.008566078174044074
4.324,-0.008557736105649007
4.328,-0.008541749144603707
4.332,-0.008535666887243614
4.336,-0.008531796359832648
4.34,-0.008538143063164918
4.344,-0.008566775349788907
4.348,-0.008566510903816727
4.352,-0.008562159565547255
4.356,-0.008566486863273803
4.36,-0.008571198809687154
4.364,-0.008568386066164899
4.368,-0.008560380565370786
4.372,-0.008547350591105294
4.376,-0.008540234590399416
4.38,-0.008534921630412933
4.384,-0.008519896291084643
4.388,-0.008545355226042496
4.392,-0.008566871511960608
4.396,-0.008563337552150593
4.4,-0.008559803592340579
4.404,-0.008547134226218965
4.408,-0.008539152765967778
4.412,-0.008554995483755526
4.416,-0.00852879129196699
4.42,-0.008500423451315178
4.424,-0.008545715834186375
4.428,-0.008573362458550428
4.432,-0.008571439215116407
4.436,-0.00857259316117682
4.44,-0.008565933930786522
4.444,-0.008552591429463
4.448,-0.00854797564522135
4.452,-0.008566102214586998
4.456,-0.008536772752218178
4.46,-0.008544585928668889
4.464,-0.008558409240850915
4.468,-0.008555764781129136
4.472,-0.008550692226571904
4.476,-0.008546388969388283
4.48,-0.008541196212116426
4.484,-0.008547927564135499
4.488,-0.008557159132618801
4.492,-0.008546220685587805
4.496,-0.008502635181264302
4.5,-0.00852102619660213
4.5040000000000004,-0.008537277603619609
4.508,-0.00856304906563549
4.5120000000000005,-0.008593099744292069
4.516,-0.00859045528457029
4.5200000000000005,-0.008575357823613225
4.524,-0.008573242255835802
4.5280000000000005,-0.008558457321936766
4.532,-0.008556485997416893
4.5360000000000005,-0.00856396260626665
4.54,-0.008569828498740415
4.5440000000000005,-0.008550644145486055
4.548,-0.008545355226042496
4.5520000000000005,-0.008551365361773812
4.556,-0.00855162980774599
4.5600000000000005,-0.008563890484637874
4.564,-0.008563385633236444
4.5680000000000005,-0.008546485131559983
4.572,-0.008528238359479709
4.5760000000000005,-0.008521290642574307
4.58,-0.008566727268703056
4.5840000000000005,-0.00857985340514025
4.588,-0.00856583776861482
4.5920000000000005,-0.008581896851288897
4.596,-0.008573723066694306
4.6000000000000005,-0.00856304906563549
4.604,-0.008567953336392244
4.6080000000000005,-0.008572665282805595
4.612,-0.008573626904522605
4.616,-0.008572665282805595
4.62,-0.008567785052591767
4.624,-0.008557880348906559
4.628,-0.008544465725954261
4.632,-0.008562808660206237
4.636,-0.008582377662147402
4.64,-0.00858406050015217
4.644,-0.008573386499093354
4.648,-0.008574708728954243
4.652,-0.00857218447194709
4.656,-0.008576127120986833
4.66,-0.008582185337804
4.664,-0.008576535810216562
4.668,-0.008550596064400205
4.672,-0.008538455590222946
4.676,-0.008548817064223734
4.68,-0.008560813295143441
4.684,-0.008573194174749952
4.688,-0.008604711326524971
4.692,-0.008609014583708594
4.696,-0.008596585623016233
4.7,-0.008587089608560753
4.704,-0.00858720981127538
4.708,-0.008577521472476498
4.712,-0.008542710766320717
4.716,-0.00856528483612754
4.72,-0.008589421541224504
4.724,-0.008608581853935938
4.728,-0.008603437177749933
4.732,-0.008563073106178416
4.736,-0.008581055432286513
4.74,-0.008590094676426411
4.744,-0.008594830663382689
4.748,-0.00860360546155041
4.752,-0.008601033123457407
4.756,-0.008591657311716553
4.76,-0.008583579689293665
4.764,-0.008578915823966164
4.768,-0.008582041094546447
4.772,-0.008594397933610033
4.776,-0.008573314377464577
4.78,-0.00855386557823804
4.784,-0.008591152460315122
4.788,-0.008607740434933555
4.792,-0.008580454418713381
4.796,-0.008585791419242789
4.8,-0.008572160431404165
4.804,-0.008580117851112427
4.808,-0.008593869041665678
4.812,-0.008613053394920038
4.816,-0.008624640936610016
4.82,-0.008618606760335774
4.824,-0.008608028921448657
4.828,-0.008597114514960588
4.832,-0.008587882946477287
4.836,-0.008565549282099717
4.84,-0.008595672082385073
4.844,-0.008620145355082992
4.848,-0.008610336813569482
4.852,-0.008603821826436736
4.856,-0.008605095975211776
4.86,-0.008565453119928016
4.864,-0.008536340022445523
4.868,-0.008555163767556004
4.872,-0.008604422840009868
4.876,-0.008633415734777737
4.88,-0.008636396762100469
4.884,-0.008604519002181569
4.888,-0.008568337985079048
4.892,-0.008593508433521798
4.896,-0.008604999813040075
4.9,-0.008608413570135462
4.904,-0.008616659476358828
4.908,-0.008615193003240386
4.912,-0.008613438043606841
4.916,-0.008599710893596516
4.92,-0.008582377662147402
4.924,-0.008595191271526567
4.928,-0.008608052961991583
4.932,-0.008605696988784908
4.936,-0.008591224581943899
4.94,-0.008563361592693518
4.944,-0.00853052221105761
4.948,-0.00855701488936125
4.952,-0.008621395463315105
4.956,-0.008599807055768217
4.96,-0.008601802420831015
4.964,-0.008598004015048823
4.968,-0.00860593739421416
4.972,-0.008620241517254693
4.976,-0.008620746368656123
4.98,-0.008617044125045633
4.984,-0.00861045701628411
4.988,-0.00860598547530001
4.992,-0.008605408502269804
4.996,-0.008603533339921634
5.0,-0.008600384028798425
5.0040000000000004,-0.008593292068635471
5.008,-0.008590022554797636
5.0120000000000005,-0.008585454851641836
5.016,-0.008595503798584595
5.0200000000000005,-0.008583916256894619
5.024,-0.008581175635001138
5.0280000000000005,-0.008592402568547236
5.032,-0.008597835731248346
5.0360000000000005,-0.008583820094722918
5.04,-0.00855244718620545
5.0440000000000005,-0.00854158086080323
5.048,-0.008547590996534547
5.0520000000000005,-0.008495230694043322
5.056,-0.00857396347212356
5.0600000000000005,-0.008644907114296012
5.064,-0.008626468017872336
5.0680000000000005,-0.008610865705513839
5.072,-0.008552807794349328
5.0760000000000005,-0.008581848770203047
5.08,-0.008614375624780927
5.0840000000000005,-0.008601033123457407
5.088,-0.008595503798584595
5.0920000000000005,-0.008592859338862816
5.096,-0.008576968539989217
5.1000000000000005,-0.008584300905581424
5.104,-0.008591705392802403
5.1080000000000005,-0.008594950866097314
5.112,-0.008591633271173628
5.1160000000000005,-0.008586248189558368
5.12,-0.008578218648221331
5.124,-0.008568097579649795
5.128,-0.00857218447194709
5.132,-0.008579877445683174
5.136,-0.00857528570198445
5.14,-0.008567352322819112
5.144,-0.00855949106528255
5.148,-0.00858223341888985
5.152,-0.008589301338509877
5.156,-0.008553841537695114
5.16,-0.008536340022445523
5.164,-0.00855578882167206
5.168,-0.00859365267677935
5.172,-0.008605264259012252
5.176,-0.008603124650691903
5.18,-0.008596922190617187
5.184,-0.008590383162941514
5.188,-0.008581440080973316
5.192,-0.00857985340514025
5.196,-0.008539777820083836
5.2,-0.00852239650754887
5.204,-0.008592522771261863
5.208,-0.008603557380464559
5.212,-0.008599879177396994
5.216,-0.008603725664265035
5.22,-0.00861137055691527
5.224,-0.008584613432639452
5.228,-0.008572881647691924
5.232,-0.00857807440496378
5.236,-0.008580093810569503
5.24,-0.008575838634471731
5.244,-0.008570717998828649
5.248,-0.00855701488936125
5.252,-0.008586560716616398
5.256,-0.008589974473711785
5.26,-0.008583315243321487
5.264,-0.008573723066694306
5.268,-0.00852828644056556
5.272,-0.008521386804746008
5.276,-0.008572713363891446
5.28,-0.008567761012048841
5.284,-0.00859314782537792
5.288,-0.008602163028974893
5.292,-0.008600985042371556
5.296,-0.008596753906816709
5.3,-0.008590094676426411
5.304,-0.008561871079032153
5.308,-0.008548768983137884
5.312,-0.008579637040253921
5.316,-0.00860146585323006
5.32,-0.008591464987373152
5.324,-0.008584445148838974
5.328,-0.008581488162059166
5.332,-0.008581175635001138
5.336,-0.008580839067400184
5.34,-0.008581968972917672
5.344,-0.008563842403552024
5.348,-0.008550235456256324
5.352,-0.00856934768788191
5.356,-0.008583339283864412
5.36,-0.008577184904875544
5.364,-0.008586488594987621
5.368,-0.00857720894541847
5.372,-0.008571391134030557
5.376,-0.00857350670180798
5.38,-0.00853340707620864
5.384,-0.008531820400375574
5.388,-0.008590142757512262
5.392,-0.008577858040077452
5.396,-0.008578963905052014
5.4,-0.008567857174220542
5.404,-0.008561005619486842
5.408,-0.008577641675191126
5.412,-0.008586584757159323
5.416,-0.008576583891302413
5.42,-0.008569588093311162
5.424,-0.00856720807956156
5.428,-0.008578531175279359
5.432,-0.008556894686646622
5.436,-0.008553673253894637
5.44,-0.008559707430168878
5.444,-0.008554442551268245
5.448,-0.008552206780776197
5.452,-0.008549586361597342
5.456,-0.008539321049768255
5.46,-0.008510664722601341
5.464,-0.008535979414301644
5.468,-0.008563914525180799
5.472,-0.008567809093134692
5.476,-0.008574540445153767
5.48,-0.008575646310128329
5.484,-0.00852645935930324
5.488,-0.00854441764486841
5.492,-0.008570669917742798
5.496,-0.008569515971682385
5.5,-0.008558769848994794
5.5040000000000004,-0.008564996349612436
5.508,-0.008572376796290491
5.5120000000000005,-0.008565573322642643
5.516,-0.008562808660206237
5.5200000000000005,-0.008568241822907347
5.524,-0.008569540012225312
5.5280000000000005,-0.008565116552327062
5.532,-0.008550836469829456
5.5360000000000005,-0.008550547983314354
5.54,-0.008563986646809576
5.5440000000000005,-0.008538527711851722
5.548,-0.008511097452373995
5.5520000000000005,-0.008551485564488438
5.556,-0.008570237187970144
5.5600000000000005,-0.008570261228513069
5.564,-0.008581079472829437
5.5680000000000005,-0.008552254861862047
5.572,-0.008528142197308007
5.5760000000000005,-0.00853340707620864
5.58,-0.008554033862038516
5.5840000000000005,-0.008579492796996371
5.588,-0.00857593479664343
5.5920000000000005,-0.008548913226395435
5.596,-0.008546220685587805
5.6000000000000005,-0.008572400836833418
5.604,-0.008549273834539314
5.6080000000000005,-0.008535210116928035
5.612,-0.00857030930959892
5.6160000000000005,-0.008564707863097333
5.62,-0.00853934509031118
5.6240000000000006,-0.008507755816907384
5.628,-0.00849229774780644
5.632,-0.008559563186911328
5.636,-0.008581199675544065
5.64,-0.008597883812334197
5.644,-0.00859584036618555
5.648,-0.00857396347212356
5.652,-0.00856898707973803
5.656,-0.008564707863097333
5.66,-0.00856071713297174
5.664,-0.008559106416595746
5.668,-0.0085594429841967
5.672,-0.008550115253541699
5.676,-0.008535522643986064
5.68,-0.008536700630589401
5.684,-0.008559923795055206
5.688,-0.008559971876141057
5.692,-0.008538768117280974
5.696,-0.008530377967800058
5.7,-0.008570453552856471
5.704,-0.008582497864862029
5.708,-0.008584180702866796
5.712,-0.008553288605207833
5.716,-0.008554899321583825
5.72,-0.008565933930786522
5.724,-0.008567376363362038
5.728,-0.008572040228689539
5.732,-0.008544658050297664
5.736,-0.008524656318583845
5.74,-0.008528815332509916
5.744,-0.008536580427874776
5.748,-0.008561919160118003
5.752,-0.0086005523125989
5.756,-0.008591897717145806
5.76,-0.008564948268526586
5.764,-0.008550187375170474
5.768,-0.008547278469476517
5.772,-0.008565549282099717
5.776,-0.008576559850759488
5.78,-0.008557928429992409
5.784,-0.00856090945731514
5.788,-0.00858492595969748
5.792,-0.008577329148133096
5.796,-0.008564707863097333
5.8,-0.008555884983843761
5.804,-0.008552783753806402
5.808,-0.008541749144603707
5.812,-0.008520208818142671
5.816,-0.008549321915625165
5.82,-0.008559659349083029
5.824,-0.00856030844374201
5.828,-0.008559539146368401
5.832,-0.008557038929904174
5.836,-0.008566510903816727
5.84,-0.008564419376582231
5.844,-0.008564635741468558
5.848,-0.008522781156235674
5.852,-0.00852924806228257
5.856,-0.008554586794525797
5.86,-0.008551245159059187
5.864,-0.008564852106354885
5.868,-0.00856624645784455
5.872,-0.008566871511960608
5.876,-0.008557928429992409
5.88,-0.008558264997593363
5.884,-0.008546677455903385
5.888,-0.008558769848994794
5.892,-0.008571751742174435
5.896,-0.008565861809157745
5.9,-0.008557808227277783
5.904,-0.008555115686470154
5.908,-0.008555884983843761
5.912,-0.008519920331627568
5.916,-0.008514847777070336
5.92,-0.008526194913331061
5.924,-0.008567328282276188
5.928,-0.008572496999005119
5.932,-0.008552326983490822
5.936,-0.008563529876493996
5.94,-0.00857451640461084
5.944,-0.008570381431227696
5.948,-0.008566054133501148
5.952,-0.008557375497505128
5.956,-0.008558289038136288
5.96,-0.008570141025798443
5.964,-0.008565453119928016
5.968,-0.008549129591281762
5.972,-0.00854463400975474
5.976,-0.008548408374994005
5.98,-0.008514342925668906
5.984,-0.00852888745413869
5.988,-0.008567015755218158
5.992,-0.008568674552680003
5.996,-0.008562015322289705
6.0,-0.00855655811904567
6.0040000000000004,-0.00855244718620545
6.008,-0.00855939490311085
6.0120000000000005,-0.008566775349788907
6.016,-0.008558240957050437
6.0200000000000005,-0.008561246024916095
6.024,-0.008560596930257113
6.0280000000000005,-0.00855340880792246
6.032,-0.008543071374464596
6.0360000000000005,-0.008550547983314354
6.04,-0.008547182307304816
6.0440000000000005,-0.008546268766673656
6.048,-0.00857030930959892
6.0520000000000005,-0.008570838201543276
6.056,-0.008566222417301626
6.0600000000000005,-0.008565140592869988
6.064,-0.008546749577532162
6.0680000000000005,-0.008550788388743605
6.072,-0.008567063836304008
6.0760000000000005,-0.0085662945389304
6.08,-0.00856309714672134
6.0840000000000005,-0.008568698593222927
6.088,-0.008544658050297664
6.0920000000000005,-0.008527348859391473
6.096,-0.008547663118163322
6.1000000000000005,-0.008552879915978103
6.104,-0.00857903602668079
6.1080000000000005,-0.008567232120104486
6.112,-0.008529945238027402
6.1160000000000005,-0.008533575360009118
6.12,-0.008569515971682385
6.1240000000000006,-0.008584853838068705
6.128,-0.008572785485520222
6.132000000000001,-0.008574636607325468
6.136,-0.008578050364420855
6.140000000000001,-0.008567736971505917
6.144,-0.008565212714498763
6.148,-0.008568265863450272
6.152,-0.00856771293096299
6.156,-0.008564539579296856
6.16,-0.008563770281923249
6.164,-0.008523334088722955
6.168,-0.008500784059459057
6.172,-0.008521507007460636
6.176,-0.008534080211410548
6.18,-0.008550740307657755
6.184,-0.008549081510195912
6.188,-0.00856725616064741
6.192,-0.008569155363538507
6.196,-0.008555476294614032
6.2,-0.00854934595616809
6.204,-0.008557495700219754
6.208,-0.008559034294966971
6.212,-0.008553288605207833
6.216,-0.00854482633409814
6.22,-0.008543576225866026
6.224,-0.008552759713263478
6.228,-0.008540547117457444
6.232,-0.008538503671308796
6.236,-0.008529272102825496
6.24,-0.008504991154470978
6.244,-0.008568193741821497
6.248,-0.008587305973447082
6.252,-0.008553961740409741
6.256,-0.008559467024739626
6.26,-0.00856254421423406
6.264,-0.008552759713263478
6.268,-0.008567280201190337
6.272,-0.00856816970127857
6.276,-0.008555380132442331
6.28,-0.008547687158706246
6.284,-0.00853335899512279
6.288,-0.008490903396316774
6.292,-0.008502707302893079
6.296,-0.008564106849524201
6.3,-0.008568914958109254
6.304,-0.008563626038665697
6.308,-0.008568073539106871
6.312,-0.008565525241556793
6.316,-0.00855583690275791
6.32,-0.00854482633409814
6.324,-0.008543480063694325
6.328,-0.008554971443212602
6.332,-0.008560741173514665
6.336,-0.008558769848994794
6.34,-0.008554562753982873
6.344,-0.008543528144780176
6.348,-0.008526627643103716
6.352,-0.00849066299088752
6.356,-0.008482681530636334
6.36,-0.008493788261467806
6.364,-0.008539128725424854
6.368,-0.008560885416772216
6.372,-0.008572400836833418
6.376,-0.008567761012048841
6.38,-0.008573578823436755
6.384,-0.00858716173018953
6.388,-0.008577593594105275
6.392,-0.008565260795584614
6.396,-0.008566991714675233
6.4,-0.008566462822730877
6.404,-0.008571463255659332
6.408,-0.00856939576896776
6.412,-0.00856405876843835
6.416,-0.008563337552150593
6.42,-0.008570141025798443
6.424,-0.008542855009578269
6.428,-0.008502587100178451
6.432,-0.008495735545444753
6.436,-0.008543792590752355
6.44,-0.008561654714145824
6.444,-0.00855583690275791
6.448,-0.008570285269055995
6.452,-0.00856675130924598
6.456,-0.008533623441094968
6.46,-0.008542253996005137
6.464,-0.00857446832352499
6.468,-0.008571968107060762
6.472,-0.008554394470182395
6.476,-0.008537205481990832
6.48,-0.008537229522533758
6.484,-0.008548865145309585
6.488,-0.008577641675191126
6.492,-0.00855605326764424
6.496,-0.008536965076561579
6.5,-0.008520304980314372
6.5040000000000004,-0.008524752480755547
6.508,-0.008558841970623569
6.5120000000000005,-0.008579612999710997
6.516,-0.008563770281923249
6.5200000000000005,-0.008572352755747567
6.524,-0.008562856741292087
6.5280000000000005,-0.008536965076561579
6.532,-0.008513838074267475
6.5360000000000005,-0.008551557686117215
6.54,-0.00855852944356554
6.5440000000000005,-0.008552326983490822
6.548,-0.008546196645044881
6.5520000000000005,-0.008514967979784963
6.556,-0.008534080211410548
6.5600000000000005,-0.008546028361244403
6.564,-0.00855711105153295
6.5680000000000005,-0.008566006052415297
6.572,-0.008553673253894637
6.5760000000000005,-0.008534897589870007
6.58,-0.008547711199249172
6.5840000000000005,-0.00855300011869273
6.588,-0.008560693092428814
6.5920000000000005,-0.008556005186558389
6.596,-0.008561510470888272
6.6000000000000005,-0.00853970569845506
6.604,-0.008484436490269878
6.6080000000000005,-0.00851655465561803
6.612,-0.008563289471064743
6.6160000000000005,-0.008562688457491611
6.62,-0.008541749144603707
6.6240000000000006,-0.008544032996181608
6.628,-0.008564539579296856
6.632000000000001,-0.008561005619486842
6.636,-0.008564755944183183
6.640000000000001,-0.008570453552856471
6.644,-0.008551028794172858
6.648000000000001,-0.008534416779011502
6.652,-0.008536388103531373
6.656000000000001,-0.00852422358881119
6.66,-0.008534008089781771
6.664,-0.008534368697925652
6.668,-0.008552687591634701
6.672,-0.008543431982608476
6.676,-0.008531291508431217
6.68,-0.008568866877023403
6.684,-0.008577858040077452
6.688,-0.00856893899865218
6.692,-0.008535113954756333
6.696,-0.008536436184617224
6.7,-0.008563722200837398
6.704,-0.00855071626711483
6.708,-0.008541292374288127
6.712,-0.008551148996887485
6.716,-0.008554923362126751
6.72,-0.00854391279346698
6.724,-0.008495278775129171
6.728,-0.008487970450079893
6.732,-0.008520016493799269
6.736,-0.008503668924610089
6.74,-0.008550475861685577
6.744,-0.008590214879141038
6.748,-0.008576151161529759
6.752,-0.008552278902404972
6.756,-0.008553721334980488
6.76,-0.008553841537695114
6.764,-0.008554731037783349
6.768,-0.008550956672544083
6.772,-0.008543119455550446
6.776,-0.008544706131383514
6.78,-0.008543696428580654
6.784,-0.008527709467535354
6.788,-0.008546124523416104
6.792,-0.008453832879126018
6.796,-0.008406833617707126
6.8,-0.008551100915801635
6.804,-0.008589878311540084
6.808,-0.008587257892361231
6.812,-0.008586969405846127
6.816,-0.008564852106354885
6.82,-0.008549442118339792
6.824,-0.008546941901875564
6.828,-0.008546220685587805
6.832,-0.00855162980774599
6.836,-0.008550043131912924
6.84,-0.0085411721715735
6.844,-0.008537181441447907
6.848,-0.00853335899512279
6.852,-0.008523093683293702
6.856,-0.008524512075326294
6.86,-0.00852198781831914
6.864,-0.008520377101943147
6.868,-0.008519992453256344
6.872,-0.008527757548621204
6.876,-0.008546701496446311
6.88,-0.008534056170867622
6.884,-0.00853513799529926
6.888,-0.008543071374464596
6.892,-0.008521098318230906
6.896,-0.008498476167338231
6.9,-0.008524439953697517
6.904,-0.008532541616663331
6.908,-0.008516626777246806
6.912,-0.008519391439683213
6.916,-0.008533142630236462
6.92,-0.008542686725777793
6.924,-0.00852244458863472
6.928,-0.00851467949326986
6.932,-0.00852828644056556
6.936,-0.008540354793114041
6.94,-0.008537614171220561
6.944,-0.008539537414654583
6.948,-0.008550355658970952
6.952,-0.00856026036265616
6.956,-0.008554562753982873
6.96,-0.0085366044684177
6.964,-0.00850960693871263
6.968,-0.00851253988494951
6.972,-0.008514775655441561
6.976,-0.008514078479696728
6.98,-0.008523622575238058
6.984,-0.008539609536283358
6.988,-0.008547951604678425
6.992,-0.008548648780423258
6.996,-0.008552038496975719
7.0,-0.008525401575414529
7.0040000000000004,-0.008516795061047282
7.008,-0.008521098318230906
7.0120000000000005,-0.008498860816025036
7.016,-0.008497057775305641
7.0200000000000005,-0.008521819534518664
7.024,-0.008517636480049667
7.0280000000000005,-0.008502082248777021
7.032,-0.008498620410595783
7.0360000000000005,-0.008536460225160148
7.04,-0.008541003887773024
7.0440000000000005,-0.008520473264114849
7.048,-0.008522636912978122
7.0520000000000005,-0.008524968845641873
7.056,-0.008525738143015481
7.0600000000000005,-0.00853299838697891
7.064,-0.008530281805628356
7.0680000000000005,-0.00850792410070786
7.072,-0.008514511209469382
7.0760000000000005,-0.00851665081778973
7.08,-0.00852883937305284
7.0840000000000005,-0.008522829237321524
7.088,-0.008485446193072739
7.0920000000000005,-0.008506673992475747
7.096,-0.008519175074796884
7.1000000000000005,-0.008523430250894656
7.104,-0.008542013590575884
7.1080000000000005,-0.00856304906563549
7.112,-0.008556005186558389
7.1160000000000005,-0.008538094982079067
7.12,-0.008520016493799269
7.1240000000000006,-0.00851910295316811
7.128,-0.008505399843700709
7.132000000000001,-0.008509967546856508
7.136,-0.008534248495211024
7.140000000000001,-0.00850371700569594
7.144,-0.008491504409889905
7.148000000000001,-0.008517732642221368
7.152,-0.008534416779011502
7.156000000000001,-0.008555644578414508
7.16,-0.008545475428757122
7.164000000000001,-0.008533334954579865
7.168,-0.008523911061753162
7.172,-0.008524800561841397
7.176,-0.00853701315764743
7.18,-0.008528406643280187
7.184,-0.008528550886537737
7.188,-0.008523237926551254
7.192,-0.008505039235556828
7.196,-0.008449337297598994
7.2,-0.008450034473343826
7.204,-0.008550235456256324
7.208,-0.008569155363538507
7.212,-0.00854153277971738
7.216,-0.008527108453962222
7.22,-0.008541508739174454
7.224,-0.008555091645927227
7.228,-0.008552375064576673
7.232,-0.008539441252482882
7.236,-0.008535041833127558
7.24,-0.008541749144603707
7.244,-0.008514799695984485
7.248,-0.008513525547209447
7.252,-0.00854934595616809
7.256,-0.008541100049944725
7.26,-0.00850203416769117
7.264,-0.008523790859038535
7.268,-0.008550547983314354
7.272,-0.008539898022798462
7.276,-0.00852203589940499
7.28,-0.008504149735468595
7.284,-0.008494052707439984
7.288,-0.008534561022269052
7.292,-0.008540018225513087
7.296,-0.008553793456609263
7.3,-0.008553529010637086
7.304,-0.008548961307481286
7.308,-0.00854701402350434
7.312,-0.008538479630765872
7.316,-0.008502226492034573
7.32,-0.008528430683823111
7.324,-0.008550355658970952
7.328,-0.00852179549397574
7.332,-0.008529151900110868
7.336,-0.008543263698807998
7.34,-0.008545235023327871
7.344,-0.008547590996534547
7.348,-0.008541917428404183
7.352,-0.008543239658265074
7.356,-0.008531387670602918
7.36,-0.008532685859920883
7.364,-0.008519631845112464
7.368,-0.00849426907232631
7.372,-0.008484340328098177
7.376,-0.008510400276629162
7.38,-0.008562496133148209
7.384,-0.00855295203760688
7.388,-0.00851655465561803
7.392,-0.008522516710263496
7.396,-0.008530426048885908
7.4,-0.008531243427345367
7.404,-0.008526363197131539
7.408,-0.00853609961701627
7.412,-0.008539849941712611
7.416,-0.00853970569845506
7.42,-0.008538022860450292
7.424,-0.008557639943477306
7.428,-0.00854848049662278
7.432,-0.008524007223924863
7.436,-0.008514487168926457
7.44,-0.0085434560231514
7.444,-0.008548576658794481
7.448,-0.008531459792231693
7.452,-0.00852422358881119
7.456,-0.00852696421070467
7.46,-0.008520473264114849
7.464,-0.008530954940830263
7.468,-0.008552567388920075
7.472,-0.008541388536459828
7.476,-0.008521266602031383
7.48,-0.008489244598854931
7.484,-0.008506577830304046
7.488,-0.008539056603796077
7.492,-0.008531339589517068
7.496,-0.00851742011516334
7.5,-0.008511193614545696
7.5040000000000004,-0.008515905560959047
7.508,-0.008479339895169722
7.5120000000000005,-0.008508452992652217
7.516,-0.008551269199602111
7.5200000000000005,-0.008549442118339792
7.524,-0.008531772319289723
7.5280000000000005,-0.008549634442683193
7.532,-0.008540859644515472
7.5360000000000005,-0.008534368697925652
7.54,-0.00853564284670069
7.5440000000000005,-0.008527228656676848
7.548,-0.008519391439683213
7.5520000000000005,-0.008506698033018671
7.556,-0.008502514978549676
7.5600000000000005,-0.008517083547562386
7.564,-0.008527997954050456
7.5680000000000005,-0.008531916562547275
7.572,-0.008504149735468595
7.5760000000000005,-0.008474195218983717
7.58,-0.00843159537692015
7.5840000000000005,-0.008510664722601341
7.588,-0.008531844440918498
7.5920000000000005,-0.008501505275746815
7.596,-0.008532830103178434
7.6000000000000005,-0.008557159132618801
7.604,-0.008539176806510704
7.6080000000000005,-0.008530402008342982
7.612,-0.008532229089605303
7.6160000000000005,-0.008528454724366035
7.62,-0.00852321388600833
7.6240000000000006,-0.008517949007107697
7.628,-0.008501673559547292
7.632000000000001,-0.00849188905857671
7.636,-0.008507178843877177
7.640000000000001,-0.00849554322110135
7.644,-0.008465925272217425
7.648000000000001,-0.008516530615075105
7.652,-0.008506361465417719
7.656000000000001,-0.008507491370935205
7.66,-0.008533527278923267
7.664000000000001,-0.008523959142839013
7.668,-0.008494509477755563
7.672000000000001,-0.008502563059635527
7.676,-0.008518141331451099
7.68,-0.008529993319113253
7.684,-0.008499365667426467
7.688,-0.008477633016622028
7.692,-0.008506673992475747
7.696,-0.008504293978726145
7.7,-0.008465612745159397
7.704,-0.008423854322098214
7.708,-0.00849650484281836
7.712,-0.008560572889714188
7.716,-0.008555428213528182
7.72,-0.008557038929904174
7.724,-0.008545787955815152
7.728,-0.008504125694925669
7.732,-0.00850381316786764
7.736,-0.008511337857803248
7.74,-0.0085183336557945
7.744,-0.00852463227804092
7.748,-0.008511650384861276
7.752,-0.008523021561664927
7.756,-0.008523838940124385
7.76,-0.008506625911389896
7.764,-0.008492682396493244
7.768,-0.008510977249659369
7.772,-0.008516506574532179
7.776,-0.008518069209822322
7.78,-0.0085161459663883
7.784,-0.008516698898875581
7.788,-0.008510496438800863
7.792,-0.008490903396316774
7.796,-0.00850330831646621
7.8,-0.00850568833021581
7.804,-0.008499846478284973
7.808,-0.008514871817613262
7.812,-0.008506914397905
7.816,-0.008518982750453482
7.82,-0.008522949440036152
7.824,-0.008502250532577499
7.828,-0.008446813040591842
7.832,-0.008439288350656235
7.836,-0.008469266907684037
7.84,-0.008469146704969411
7.844,-0.008475733813730933
7.848,-0.008548240091193529
7.852,-0.0085661983767587
7.856,-0.008551942334804018
7.86,-0.008532325251777004
7.864,-0.008521867615604514
7.868,-0.008516795061047282
7.872,-0.008510135830656984
7.876,-0.008482128598149053
7.88,-0.00847818594910931
7.884,-0.008514487168926457
7.888,-0.008526627643103716
7.892,-0.008527733508078278
7.896,-0.008529488467711822
7.9,-0.008523502372523433
7.904,-0.008519415480226137
7.908,-0.008514102520239653
7.912,-0.008503404478637911
7.916,-0.008519415480226137
7.92,-0.008518550020680828
7.924,-0.008516506574532179
7.928,-0.00851701142593361
7.932,-0.008514703533812784
7.936,-0.008488018531165743
7.94,-0.008460155541915362
7.944,-0.008452919338494859
7.948,-0.008431403052576747
7.952,-0.008506553789761121
7.956,-0.00855629367307349
7.96,-0.008556534078502744
7.964,-0.008520905993887504
7.968,-0.008513309182323119
7.972,-0.008534921630412933
7.976,-0.008532132927433602
7.98,-0.00853148383277462
7.984,-0.008529728873141075
7.988,-0.008521314683117233
7.992,-0.008516458493446328
7.996,-0.00851910295316811
8.0,-0.008509318452197526
8.004,-0.008510760884773042
8.008000000000001,-0.008514607371641083
8.012,-0.008504005492211043
8.016,-0.008481912233262726
8.02,-0.008506481668132344
8.024000000000001,-0.00852234842646302
8.028,-0.008511506141603724
8.032,-0.00852564198084378
8.036,-0.008535306279099736
8.040000000000001,-0.008517636480049667
8.044,-0.008488595504195949
8.048,-0.008494918166985293
8.052,-0.008530353927257131
8.056000000000001,-0.008536315981902597
8.06,-0.008518574061223753
8.064,-0.008510135830656984
8.068,-0.008499533951226943
8.072000000000001,-0.008467535988593419
8.076,-0.008473065313466229
8.08,-0.00850979926305603
8.084,-0.008554562753982873
8.088000000000001,-0.008539777820083836
8.092,-0.008533094549150612
8.096,-0.008519944372170494
8.1,-0.008506553789761121
8.104000000000001,-0.008532613738292108
8.108,-0.008544706131383514
8.112,-0.008528166237850934
8.116,-0.008516578696160956
8.120000000000001,-0.0085115782632325
8.124,-0.008493595937124404
8.128,-0.00850203416769117
8.132,-0.00852239650754887
8.136000000000001,-0.008525065007813575
8.14,-0.008524584196955069
8.144,-0.008502154370405798
8.148,-0.008480998692631565
8.152000000000001,-0.008495206653500396
8.156,-0.008531844440918498
8.16,-0.00854391279346698
8.164,-0.008529921197484478
8.168000000000001,-0.008504005492211043
8.172,-0.008482873854979736
8.176,-0.008484724976784982
8.18,-0.008542830969035345
8.184000000000001,-0.008546004320701479
8.188,-0.008531555954403395
8.192,-0.008528118156765083
8.196,-0.008530185643456655
8.2,-0.008524439953697517
8.204,-0.00851244372277781
8.208,-0.008492946842465422
8.212,-0.008443904134897885
8.216,-0.008488162774423293
8.22,-0.008510760884773042
8.224,-0.008524944805098947
8.228,-0.008510544519886714
8.232,-0.008497995356479727
8.236,-0.00853838346859417
8.24,-0.008550740307657755
8.244,-0.008530474129971759
8.248,-0.008528502805451886
8.252,-0.008540378833656968
8.256,-0.00853148383277462
8.26,-0.00852463227804092
8.264,-0.008518117290908173
8.268,-0.008520737710087026
8.272,-0.008535859211587017
8.276,-0.008541148131030575
8.28,-0.008539080644339003
8.284,-0.008533118589693538
8.288,-0.008529031697396243
8.292,-0.008514607371641083
8.296,-0.008517492236792115
8.3,-0.008538167103707842
8.304,-0.008549995050827073
8.308,-0.008559467024739626
8.312,-0.008534152333039323
8.316,-0.008484652855156205
8.32,-0.008492562193778617
8.324,-0.008538623874023423
8.328,-0.008553288605207833
8.332,-0.008561077741115619
8.336,-0.008545427347671272
8.34,-0.008542061671661735
8.344,-0.008523286007637104
8.348,-0.008529368264997197
8.352,-0.008557639943477306
8.356,-0.008565693525357269
8.36,-0.008551846172632318
8.364,-0.008564539579296856
8.368,-0.008554057902581442
8.372,-0.008544754212469365
8.376,-0.008547759280335023
8.38,-0.008537085279276206
8.384,-0.008560380565370786
8.388,-0.008570958404257902
8.392,-0.008553793456609263
8.396,-0.008520641547915325
8.4,-0.008508236627765889
8.404,-0.00854477825301229
8.408,-0.008546749577532162
8.412,-0.008548817064223734
8.416,-0.008576511769673638
8.42,-0.008567520606619588
8.424,-0.008584180702866796
8.428,-0.008589661946653757
8.432,-0.008577689756276976
8.436,-0.00856304906563549
8.44,-0.008564707863097333
8.444,-0.00857446832352499
8.448,-0.008584132621780946
8.452,-0.008568794755394628
8.456,-0.008571799823260286
8.46,-0.008563145227807191
8.464,-0.008549874848112446
8.468,-0.008552206780776197
8.472,-0.008546533212645833
8.476,-0.0085752376208986
8.48,-0.008584733635354077
8.484,-0.00856934768788191
8.488,-0.008574492364067916
8.492,-0.008566318579473325
8.496,-0.008505760451844587
8.5,-0.008570068904169666
8.504,-0.008626011247556756
8.508000000000001,-0.008593412271350097
8.512,-0.008585310608384284
8.516,-0.008575646310128329
8.52,-0.008592883379405742
8.524000000000001,-0.00861004832705438
8.528,-0.008598364623192701
8.532,-0.008584613432639452
8.536,-0.008599518569253114
8.540000000000001,-0.008582065135089374
8.544,-0.008576511769673638
8.548,-0.008616467152015425
8.552,-0.008607908718734032
8.556000000000001,-0.00858300271626346
8.56,-0.008556774483931997
8.564,-0.008549971010284147
8.568,-0.00857401155320941
8.572000000000001,-0.008596441379758681
8.576,-0.008614543908581403
8.58,-0.008635723626898562
8.584,-0.008627117112531318
8.588000000000001,-0.008615818057356443
8.592,-0.008601033123457407
8.596,-0.00858223341888985
8.6,-0.00858634435173007
8.604000000000001,-0.008595720163470924
8.608,-0.008580622702513857
8.612,-0.008544585928668889
8.616,-0.00852792583242168
8.620000000000001,-0.008595575920213372
8.624,-0.008638584451506668
8.628,-0.008617500895361212
8.632,-0.008622525368832592
8.636000000000001,-0.008620722328113197
8.64,-0.008582906554091758
8.644,-0.008581175635001138
8.648,-0.008571439215116407
8.652000000000001,-0.008563577957579846
8.656,-0.008590238919683963
8.66,-0.008619448179338159
8.664,-0.008619664544224486
8.668000000000001,-0.008624280328466136
8.672,-0.008616274827672025
8.676,-0.008612933192205411
8.68,-0.008599686853053592
8.684000000000001,-0.008591224581943899
8.688,-0.00862315042294865
8.692,-0.008620289598340544
8.696,-0.008589974473711785
8.700000000000001,-0.008547879483049648
8.704,-0.008613750570664871
8.708,-0.008671351711513802
8.712,-0.008660629629369134
8.716,-0.00865425888549394
8.72,-0.008640435573311914
8.724,-0.008644955195381863
8.728,-0.008651734628486788
8.732,-0.008662384589002679
8.736,-0.008665966629898544
8.74,-0.008663418332348466
8.744,-0.008667216738130657
8.748,-0.008671351711513802
8.752,-0.008669164022107604
8.756,-0.00866425975135085
8.76,-0.00866303368366166
8.764,-0.008652864534004275
8.768,-0.008636829491873124
8.772,-0.008655965764041634
8.776,-0.008665053089267382
8.78,-0.008661711453800772
8.784,-0.008691377483770546
8.788,-0.008696017308555123
8.792,-0.008689502321422377
8.796,-0.008689911010652106
8.8,-0.008703397755233178
8.804,-0.00868491057772365
8.808,-0.008688757064591693
8.812,-0.008690007172823807
8.816,-0.008677289725616343
8.82,-0.00869673852484288
8.824,-0.008658297696705385
8.828,-0.00861831827382067
8.832,-0.008633055126633859
8.836,-0.00864695056044466
8.84,-0.008669067859935903
8.844,-0.008682770969403302
8.848,-0.008711547499284843
8.852,-0.008701979363200588
8.856,-0.008680775604340505
8.86,-0.008691064956712518
8.864,-0.00868079964488343
8.868,-0.008692483348745108
8.872,-0.008699238741307107
8.876,-0.008690560105311088
8.88,-0.008681544901714114
8.884,-0.008687386753644952
8.888,-0.008694286389464503
8.892,-0.008672121008887411
8.896,-0.008657720723675178
8.9,-0.008678443671676755
8.904,-0.008673635563091702
8.908,-0.008662865399861185
8.912,-0.008673803846892179
8.916,-0.008669765035680736
8.92,-0.00866060558882621
8.924,-0.008655436872097277
8.928,-0.008661663372714921
8.932,-0.008644907114296012
8.936,-0.008645604290040845
8.94,-0.008680318834024925
8.944,-0.00868385279383494
8.948,-0.008647503492931941
8.952,-0.008661254683485192
8.956,-0.00867019776545339
8.96,-0.008674140414493133
8.964,-0.008669476549165632
8.968,-0.008668923616678351
8.972,-0.008645460046783293
8.976,-0.008636132316128291
8.98,-0.008655508993726054
8.984,-0.008655004142324623
8.988,-0.008626732463844513
8.992,-0.008621227179514628
8.996,-0.008688300294276113
9.0,-0.008681304496284861
9.004,-0.008671784441286457
9.008000000000001,-0.008680102469138598
9.012,-0.008678131144618727
9.016,-0.00866841876527692
9.02,-0.008646565911757855
9.024000000000001,-0.008638512329877893
9.028,-0.008646205303613977
9.032,-0.00865019603373957
9.036,-0.008649450776908887
9.040000000000001,-0.008657336074988373
9.044,-0.008627165193617168
9.048,-0.008637935356847686
9.052,-0.00865324918269108
9.056000000000001,-0.008620626165941496
9.06,-0.00865695142630157
9.064,-0.00869089667291204
9.068,-0.008682867131575003
9.072000000000001,-0.008677025279644163
9.076,-0.008679597617737168
9.08,-0.00868531926695338
9.084,-0.008673515360377075
9.088000000000001,-0.008670606454683118
9.092,-0.008676832955300763
9.096,-0.008683660469491537
9.1,-0.00868262672614575
9.104000000000001,-0.008667529265188685
9.108,-0.008657143750644972
9.112,-0.008680463077282477
9.116,-0.008699455106193434
9.120000000000001,-0.008645147519725265
9.124,-0.008648104506505072
9.128,-0.00868171318551459
9.132,-0.008694598916522531
9.136000000000001,-0.008705657566268152
9.14,-0.008722966757174344
9.144,-0.008723159081517747
9.148,-0.008707292323187071
9.152000000000001,-0.008694719119237158
9.156,-0.008690247578253058
9.16,-0.008682073793658469
9.164,-0.00867892448253526
9.168000000000001,-0.008673058590061495
9.172,-0.008682290158544798
9.176,-0.008694430632722055
9.18,-0.008696209632898525
9.184000000000001,-0.008674717387523338
9.188,-0.008630170261482826
9.192,-0.008666327238042422
9.196,-0.008659692048195049
9.200000000000001,-0.008641998208602055
9.204,-0.008684381685779294
9.208,-0.008718807743248274
9.212,-0.008727486379244294
9.216000000000001,-0.008724577473550337
9.22,-0.008728592244218856
9.224,-0.008713374580547162
9.228,-0.008696954889729207
9.232,-0.00869435851109328
9.236,-0.008702436133516168
9.24,-0.00870866263413381
9.244,-0.008702195728086915
9.248,-0.008693565173176746
9.252,-0.0086939979029494
9.256,-0.008680078428595672
9.26,-0.008667745630075012
9.264,-0.008682193996373096
9.268,-0.008681184293570236
9.272,-0.008672914346803944
9.276,-0.008680006306966897
9.28,-0.008689911010652106
9.284,-0.00869262759200266
9.288,-0.008674068292864356
9.292,-0.00864969118233814
9.296,-0.00866791391387549
9.3,-0.008674044252321432
9.304,-0.008657023547930345
9.308,-0.008660389223939882
9.312,-0.008646373587414453
9.316,-0.008655533034268978
9.32,-0.008648945925507457
9.324,-0.008608125083620358
9.328,-0.008662456710631455
9.332,-0.008699815714337315
9.336,-0.008706859593414416
9.34,-0.008727534460330144
9.344,-0.008716571972756224
9.348,-0.008697603984388189
9.352,-0.008689646564679927
9.356,-0.008687747361788832
9.36,-0.008688252213190263
9.364,-0.008680679442168803
9.368,-0.008677289725616343
9.372,-0.008677674374303146
9.376,-0.00867567900924035
9.38,-0.00867517415783892
9.384,-0.00865695142630157
9.388,-0.008609038624251518
9.392,-0.008626492058415262
9.396,-0.008673683644177553
9.4,-0.008664331872979625
9.404,-0.00864476287103846
9.408,-0.008673683644177553
9.412,-0.00867221717105911
9.416,-0.008653898277350061
9.42,-0.008634401397037672
9.424,-0.008613870773379497
9.428,-0.008632478153603651
9.432,-0.008638848897478846
9.436,-0.008660509426654509
9.44,-0.008635699586355636
9.444,-0.008609976205425604
9.448,-0.008651758669029713
9.452,-0.008637021816216527
9.456,-0.008612548543518608
9.46,-0.008636012113413666
9.464,-0.008630627031798406
9.468,-0.008626876707102065
9.472,-0.00863096359939936
9.476,-0.00864091638417042
9.48,-0.008634689883552775
9.484,-0.00862877590999316
9.488,-0.008632309869803175
9.492,-0.008642599222175187
9.496,-0.00864324831683417
9.5,-0.008638031519019387
9.504,-0.00862918459922289
9.508000000000001,-0.00863360805912114
9.512,-0.008646662073929556
9.516,-0.008636012113413666
9.52,-0.008636324640471694
9.524000000000001,-0.008641204870685521
9.528,-0.008627477720675196
9.532,-0.008608605894478864
9.536,-0.008612091773203026
9.540000000000001,-0.008615553611384266
9.544,-0.008622621531004293
9.548,-0.008647816019989969
9.552,-0.008644426303437508
9.556000000000001,-0.008622549409375518
9.56,-0.008616947962873931
9.564,-0.008620626165941496
9.568,-0.008617332611560736
9.572000000000001,-0.008601249488343734
9.576,-0.008619880909110814
9.58,-0.008612187935374728
9.584,-0.00860593739421416
9.588000000000001,-0.008613534205778543
9.592,-0.00862603528809968
9.596,-0.008628920153250712
9.6,-0.008620674247027347
9.604000000000001,-0.008584541311010675
9.608,-0.00856158259251705
9.612,-0.008624280328466136
9.616,-0.008646349546871528
9.620000000000001,-0.008641012546342119
9.624,-0.008622861936433546
9.628,-0.00862269365263307
9.632,-0.008620626165941496
9.636000000000001,-0.008615193003240386
9.64,-0.008599879177396994
9.644,-0.008604494961638644
9.648,-0.00859228236583261
9.652000000000001,-0.008590599527827841
9.656,-0.008602475556032921
9.66,-0.008598917555679982
9.664,-0.00858858012222212
9.668000000000001,-0.008596008649986026
9.672,-0.008609928124339753
9.676,-0.00861314955709174
9.68,-0.008617548976447063
9.684000000000001,-0.008606562448330217
9.688,-0.008609976205425604
9.692,-0.008608125083620358
9.696,-0.008630338545283302
9.700000000000001,-0.008634689883552775
9.704,-0.008619400098252308
9.708,-0.008593340149721322
9.712,-0.008598821393508281
9.716000000000001,-0.008596176933786503
9.72,-0.0086073077051609
9.724,-0.008631805018401745
9.728,-0.008633415734777737
9.732,-0.008631204004828613
9.736,-0.008624953463668044
9.74,-0.008612091773203026
9.744,-0.008611394597458194
9.748,-0.00863096359939936
9.752,-0.008648609357906503
9.756,-0.008652720290746723
9.76,-0.008640411532768988
9.764,-0.008626419936786485
9.768,-0.008652960696175976
9.772,-0.008650869168941477
9.776,-0.008635387059297608
9.78,-0.008638295964991565
9.784,-0.008630699153427183
9.788,-0.00862654013950111
9.792,-0.008625674679955802
9.796,-0.008614231381523375
9.8,-0.008595768244556773
9.804,-0.008614231381523375
9.808,-0.00865375403409251
9.812,-0.008665966629898544
9.816,-0.008655388791011426
9.82,-0.008649931587767393
9.824,-0.008642238614031308
9.828,-0.008635050491696654
9.832,-0.008627958531533702
9.836,-0.00864142123557185
9.84,-0.008645099438639415
9.844,-0.008649090168765009
9.848,-0.008649883506681543
9.852,-0.008652359682602844
9.856,-0.008660773872626686
9.86,-0.008642935789776141
9.864,-0.00862822297750588
9.868,-0.008649282493108411
9.872,-0.008665870467726842
9.876,-0.008654523331466117
9.88,-0.008648969966050381
9.884,-0.008650917250027328
9.888,-0.008656422534357213
9.892,-0.00866101427805594
9.896,-0.008666158954241946
9.9,-0.008660629629369134
9.904,-0.008636276559385843
9.908,-0.008617693219704615
9.912,-0.008637646870332583
9.916,-0.008666735927272151
9.92,-0.008667312900302359
9.924,-0.008656158088385036
9.928,-0.008661471048371519
9.932,-0.008655845561327008
9.936,-0.008659764169823825
9.94,-0.008645964898184724
9.944,-0.008645844695470098
9.948,-0.008678660036563082
9.952,-0.008660629629369134
9.956,-0.008620722328113197
9.96,-0.008634545640295224
9.964,-0.008684694212837324
9.968,-0.008681809347686292
9.972,-0.008665197332524934
9.976,-0.008676496387699809
9.98,-0.008693012240689465
9.984,-0.008679717820451793
9.988,-0.008672722022460543
9.992,-0.008669524630251483
9.996,-0.0086825786450599
10.0,-0.008665942589355618
10.004,-0.008663370251262615
10.008000000000001,-0.008668755332877873
10.012,-0.008668394724733994
10.016,-0.00863375230237869
10.02,-0.00862685266655914
10.024000000000001,-0.00867252969811714
10.028,-0.008662504791717306
10.032,-0.008671231508799176
10.036,-0.008662192264659276
10.040000000000001,-0.00867928509067914
10.044,-0.008683155618090107
10.048,-0.00867714548235879
10.052,-0.008656711020872317
10.056000000000001,-0.008656566777614765
10.06,-0.008688877267306319
10.064,-0.00869084859182619
10.068,-0.008693252646118716
10.072000000000001,-0.008703830485005833
10.076,-0.008690031213366731
10.08,-0.00869431043000743
10.084,-0.008705561404096451
10.088000000000001,-0.008705705647354003
10.092,-0.00870962425585082
10.096,-0.008710249309966878
10.1,-0.00868998313228088
10.104000000000001,-0.008710682039739532
10.108,-0.008702339971344467
10.112,-0.008678371550047978
10.116,-0.008688829186220468
10.120000000000001,-0.00871039355322443
10.124,-0.008727486379244294
10.128,-0.008717269148501057
10.132,-0.008711403256027291
10.136000000000001,-0.008707821215131426
10.14,-0.008710513755939056
10.144,-0.008736982393699773
10.148,-0.00873623713686909
10.152000000000001,-0.008729265379420764
10.156,-0.00871532186452411
10.16,-0.008722317662515362
10.164,-0.008731092460683083
10.168000000000001,-0.008716307526784046
10.172,-0.008744362840377828
10.176,-0.008765254072179882
10.18,-0.008754700273835693
10.184000000000001,-0.008702243809172765
10.188,-0.0086757270903262
10.192,-0.008749555597649686
10.196,-0.008764749220778452
10.200000000000001,-0.008768908234704522
10.204,-0.008774798167721212
10.208,-0.008771119964653646
10.212,-0.008768932275247448
10.216000000000001,-0.008776216559753802
10.22,-0.008770014099679084
10.224,-0.00875780150387305
10.228,-0.008759556463506596
10.232000000000001,-0.008753113598002625
10.236,-0.00876140758531184
10.24,-0.008771696937683853
10.244,-0.00877277876211549
10.248,-0.008766720545298324
10.252,-0.008756070584782432
10.256,-0.008764172247748246
10.26,-0.008767874491358737
10.264,-0.008762200923228373
10.268,-0.008759844950021698
10.272,-0.008741670299570199
10.276,-0.008732510852715675
10.28,-0.00877241815397161
10.284,-0.008792203520799102
10.288,-0.00878794834470133
10.292,-0.008802252467741863
10.296,-0.008808142400758553
10.3,-0.008803815103032004
10.304,-0.008778115762644898
10.308,-0.00874628608381185
10.312,-0.008706042214954957
10.316,-0.008758041909302303
10.32,-0.008790953412566988
10.324,-0.008788621479903239
10.328,-0.008787731979815003
10.332,-0.008778380208617076
10.336,-0.008780255370965247
10.34,-0.008769966018593233
10.344,-0.008776769492241083
10.348,-0.00878196224951294
10.352,-0.00878145739811151
10.356,-0.00878465479032057
10.36,-0.008775952113781625
10.364,-0.008768283180588466
10.368,-0.008755613814466852
10.372,-0.008764052045033619
10.376,-0.008779101424904834
10.38,-0.008775327059665567
10.384,-0.008766504180411996
10.388,-0.008763378909831712
10.392,-0.008757440895729171
10.396,-0.008756984125413592
10.4,-0.00875450794949229
10.404,-0.008744531124178306
10.408,-0.00876871591036112
10.412,-0.00875907565264809
10.416,-0.008766263774982743
10.42,-0.00877150461334045
10.424,-0.008765398315437434
10.428,-0.008762200923228373
10.432,-0.008757008165956518
10.436,-0.00875902757156224
10.44,-0.008761191220425513
10.444,-0.008752103895199764
10.448,-0.00871563439158214
10.452,-0.008728592244218856
10.456,-0.008767009031813426
10.46,-0.008742247272600406
10.464,-0.008715802675382616
10.468,-0.0087486180164756
10.472,-0.008772802802658415
10.476,-0.00875760917952965
10.48,-0.008745612948609942
10.484,-0.00874760831367274
10.488,-0.00875643119292631
10.492,-0.008763426990917563
10.496,-0.008762874058430282
10.5,-0.008748185286702945
10.504,-0.008745781232410418
10.508000000000001,-0.008751647124884184
10.512,-0.008752103895199764
10.516,-0.008751406719454931
10.52,-0.008763835680147292
10.524000000000001,-0.008745204259380213
10.528,-0.008739723015593254
10.532,-0.008758017868759379
10.536,-0.008770470869994664
10.540000000000001,-0.008758186152559855
10.544,-0.008754267544063037
10.548,-0.008754628152206916
10.552,-0.008760878693367485
10.556000000000001,-0.00875085378696765
10.56,-0.008741189488711694
10.564,-0.008743112732145715
10.568,-0.008760710409567008
10.572000000000001,-0.008723231203146522
10.576,-0.008745853354039195
10.58,-0.008786265506696563
10.584,-0.008781168911596407
10.588000000000001,-0.00877826000590245
10.592,-0.008789486939448548
10.596,-0.008783933574032812
10.6,-0.0087782119248166
10.604000000000001,-0.008766408018240295
10.608,-0.008756863922698966
10.612,-0.008754243503520111
10.616,-0.008771336329539975
10.620000000000001,-0.00874587739458212
10.624,-0.008717798040445413
10.628,-0.008761960517799122
10.632,-0.00878465479032057
10.636000000000001,-0.00878414993891914
10.64,-0.00878145739811151
10.644,-0.008765037707293555
10.648,-0.008778452330245852
10.652000000000001,-0.008791746750483522
10.656,-0.008781433357568584
10.66,-0.008778692735675105
10.664,-0.008781553560283211
10.668000000000001,-0.008777538789614693
10.672,-0.008776048275953326
10.676,-0.00878552024986588
10.68,-0.008784871155206897
10.684000000000001,-0.008776985857127412
10.688,-0.00877044682945174
10.692,-0.008782226695485118
10.696,-0.008776553127354756
10.700000000000001,-0.008763282747660011
10.704,-0.008722389784144137
10.708,-0.00874537254318069
10.712,-0.00876876399144697
10.716000000000001,-0.008767321558871456
10.72,-0.008788837844789565
10.724,-0.008785808736380983
10.728,-0.008783933574032812
10.732000000000001,-0.008748497813760974
10.736,-0.008754820476550318
10.74,-0.008812421617399249
10.744,-0.008801699535254582
10.748000000000001,-0.008780231330422321
10.752,-0.008776625248983531
10.756,-0.00877607231649625
10.76,-0.008770302586194188
10.764,-0.008763282747660011
10.768,-0.008758234233645705
10.772,-0.008751142273482754
10.776,-0.008748762259733152
10.78,-0.008752873192573372
10.784,-0.008746165881097223
10.788,-0.008746622651412803
10.792,-0.008742511718572583
10.796,-0.008730515487652878
10.8,-0.008719336635192629
10.804,-0.008722966757174344
10.808,-0.008717365310672758
10.812,-0.008719841486594061
10.816,-0.00871323033728961
10.82,-0.00871568247266799
10.824,-0.008739578772335702
10.828,-0.00873359267714731
10.832,-0.008713783269776891
10.836,-0.008739338366906449
10.84,-0.008741141407625844
10.844,-0.008727486379244294
10.848,-0.008722317662515362
10.852,-0.008683660469491537
10.856,-0.008689814848480405
10.86,-0.008698998335877854
10.864,-0.00869034374042476
10.868,-0.008697628024931115
10.872,-0.00867938125285084
10.876,-0.008681544901714114
10.88,-0.008686809780614747
10.884,-0.008677482049959745
10.888,-0.008674236576664834
10.892,-0.008674380819922386
10.896,-0.008644185898008255
10.9,-0.008639425870509053
10.904,-0.008658345777791236
10.908,-0.00868430956415052
10.912,-0.008668082197675966
10.916,-0.008651133614913657
10.92,-0.008663586616148942
10.924,-0.008683155618090107
10.928,-0.008657816885846879
10.932,-0.008650869168941477
10.936,-0.008651686547400938
10.94,-0.008643705087149749
10.944,-0.008636733329701423
10.948,-0.008611346516372345
10.952,-0.00862137142277218
10.956,-0.008663971264835747
10.96,-0.00863649292427217
10.964,-0.008611803286687925
10.968,-0.008621659909287283
10.972,-0.008639666275938306
10.976,-0.008664019345921597
10.98,-0.008668274522019369
10.984,-0.00864243093837471
10.988,-0.00863019430202575
10.992,-0.008653826155721285
10.996,-0.008662264386288053
11.0,-0.008636012113413666
11.004,-0.00864872956062113
11.008000000000001,-0.00866983715730951
11.012,-0.008674476982094087
11.016,-0.008670486251968493
11.02,-0.008655821520784082
11.024000000000001,-0.008651157655456581
11.028,-0.008674885671323816
11.032,-0.008678443671676755
11.036,-0.008675198198381844
11.040000000000001,-0.00867349131983415
11.044,-0.008674693346980414
11.048,-0.00867075069794067
11.052,-0.008668154319304741
11.056000000000001,-0.008664908846009832
11.06,-0.00863694969458775
11.064,-0.0086300500587682
11.068,-0.00867567900924035
11.072000000000001,-0.008689141713278496
11.076,-0.008688949388935096
11.08,-0.008686521294099643
11.084,-0.008666759967815078
11.088000000000001,-0.008681496820628264
11.092,-0.008675943455212528
11.096,-0.008667673508446237
11.1,-0.008664139548636223
11.104000000000001,-0.008678996604164036
11.108,-0.00868577603726896
11.112,-0.008680919847598056
11.116,-0.008664500156780101
11.120000000000001,-0.008704575741836517
11.124,-0.008719192391935079
11.128,-0.008706859593414416
11.132,-0.008702484214602018
11.136000000000001,-0.00869404598403525
11.14,-0.008682338239630648
11.144,-0.008690872632369116
11.148,-0.008691882335171977
11.152000000000001,-0.008659908413081377
11.156,-0.008664860764923982
11.16,-0.008692843956888987
11.164,-0.008689670605222853
11.168000000000001,-0.008690800510740341
11.172,-0.008716115202440644
11.176,-0.008708302025989932
11.18,-0.008696161551812675
11.184000000000001,-0.00869363729480552
11.188,-0.008696257713984374
11.192,-0.00869034374042476
11.196,-0.008702099565915214
11.200000000000001,-0.008703205430889776
11.204,-0.008701570673970859
11.208,-0.008711643661456544
11.212,-0.008714143877920771
11.216000000000001,-0.008713855391405668
11.22,-0.008712533161544777
11.224,-0.008684549969579772
11.228,-0.008689069591649721
11.232000000000001,-0.008704383417493114
11.236,-0.008717629756644935
11.24,-0.008720514621795968
11.244,-0.008717076824157654
11.248000000000001,-0.008720081892023312
11.252,-0.008710105066709327
11.256,-0.008662456710631455
11.26,-0.008666976332701404
11.264,-0.008708590512505035
11.268,-0.008739122002020122
11.272,-0.008737992096502634
11.276,-0.008725899703411227
11.28,-0.008700056119766566
11.284,-0.008705176755409648
11.288,-0.00872623627101218
11.292,-0.00871404771574907
11.296,-0.00870546524192475
11.3,-0.008711379215484365
11.304,-0.00873679006935637
11.308,-0.00872674112241361
11.312,-0.008698060754703769
11.316,-0.008668899576135425
11.32,-0.008712701445345255
11.324,-0.00872436110866401
11.328,-0.008733063785202956
11.332,-0.008753089557459699
11.336,-0.008752873192573372
11.34,-0.008737126636957325
11.344,-0.008731957920228392
11.348,-0.008734217731263368
11.352,-0.0087235918112904
11.356,-0.008726380514269732
11.36,-0.008729145176706136
11.364,-0.008718399054018545
11.368,-0.008707941417846053
11.372,-0.00871282164805988
11.376,-0.008726116068297554
11.38,-0.008731885798599617
11.384,-0.008709552134222046
11.388,-0.008740227866994684
11.392,-0.00874816124616002
11.396,-0.008722221500343661
11.4,-0.008721596446227605
11.404,-0.008715081459094859
11.408,-0.008680174590767373
11.412,-0.008724601514093263
11.416,-0.008773043208087668
11.42,-0.008773451897317397
11.424,-0.008778788897846806
11.428,-0.008769917937507383
11.432,-0.00875277703040167
11.436,-0.008746165881097223
11.44,-0.008746117800011373
11.444,-0.008723495649118701
11.448,-0.008719913608222836
11.452,-0.00871450448606465
11.456,-0.008714913175294381
11.46,-0.008742151110428704
11.464,-0.008748305489417572
11.468,-0.008726116068297554
11.472,-0.008740324029166385
11.476,-0.008750445097737921
11.48,-0.008749747921993088
11.484,-0.008751695205970035
11.488,-0.008736477542298343
11.492,-0.008741886664456527
11.496,-0.008742391515857957
11.5,-0.008723928378891355
11.504,-0.008738641191161616
11.508000000000001,-0.008754820476550318
11.512,-0.008742415556400882
11.516,-0.008737871893788008
11.52,-0.008729986595708521
11.524000000000001,-0.008700993700940652
11.528,-0.008715105499637783
11.532,-0.008749771962536013
11.536,-0.008757224530842845
11.540000000000001,-0.008748810340819002
11.544,-0.008748882462447777
11.548,-0.008726813244042387
11.552,-0.008710297391052729
11.556000000000001,-0.00874207898879993
11.56,-0.008735756326010584
11.564,-0.008707292323187071
11.568,-0.008697363578958938
11.572000000000001,-0.00871897602704875
11.576,-0.008730467406567027
11.58,-0.008738689272247467
11.584,-0.00874231939422918
11.588000000000001,-0.008758739085047136
11.592,-0.008757585138986723
11.596,-0.008737751691073381
11.6,-0.008729625987564642
11.604000000000001,-0.00872486596006544
11.608,-0.008727221933272116
11.612,-0.008738593110075766
11.616,-0.008737919974873859
11.620000000000001,-0.008729577906478792
11.624,-0.008726981527842863
11.628,-0.008726404554812658
11.632,-0.008718711581076573
11.636000000000001,-0.008719889567679912
11.64,-0.00873445813669262
11.644,-0.008729457703764166
11.648,-0.008724481311378636
11.652000000000001,-0.008721428162427127
11.656,-0.008725563135810273
11.66,-0.008659403561679947
11.664,-0.008671135346627475
11.668000000000001,-0.008744699407978783
11.672,-0.008750541259909622
11.676,-0.008749219030048732
11.68,-0.008728207595532052
11.684000000000001,-0.00872537081146687
11.688,-0.008747007300099608
11.692,-0.008752176016828539
11.696,-0.008752055814113913
11.700000000000001,-0.008745492745895317
11.704,-0.008742896367259388
11.708,-0.00873888159659087
11.712,-0.008736814109899295
11.716000000000001,-0.008729794271365119
11.72,-0.00872075502722522
11.724,-0.00870161875505671
11.728,-0.00870907132336354
11.732000000000001,-0.00872207725708611
11.736,-0.008714336202264172
11.74,-0.008711980229057496
11.744,-0.00873674198827052
11.748000000000001,-0.008740324029166385
11.752,-0.008727871027931098
11.756,-0.008729097095620286
11.76,-0.00875349824668943
11.764000000000001,-0.008750998030225202
11.768,-0.008739362407449373
11.772,-0.008732030041857169
11.776,-0.00873258297434445
11.78,-0.008713879431948592
11.784,-0.008706835552871491
11.788,-0.008727534460330144
11.792,-0.008736116934154464
11.796,-0.008725250608752245
11.8,-0.008714648729322204
11.804,-0.008713663067062265
11.808,-0.008707364444815846
11.812,-0.008722413824687063
11.816,-0.008748281448874646
11.82,-0.00874308869160279
11.824,-0.008736958353156847
11.828,-0.008730587609281653
11.832,-0.008720827148853996
11.836,-0.008693012240689465
11.84,-0.008686208767041615
11.844,-0.008708758796305512
11.848,-0.008714288121178321
11.852,-0.008720274216366715
11.856,-0.008725875662868301
11.86,-0.008720514621795968
11.864,-0.008733424393346834
11.868,-0.008715201661809484
11.872,-0.00872289463554557
11.876,-0.008737439164015353
11.88,-0.008744026272776874
11.884,-0.008739602812878626
11.888,-0.00873537167732378
11.892,-0.008729770230822194
11.896,-0.00868623280758454
11.9,-0.008706955755586117
11.904,-0.00871847117564732
11.908,-0.008699647430536837
11.912,-0.008733712879861938
11.916,-0.0087440503133198
11.92,-0.008723976459977205
11.924,-0.008710297391052729
11.928,-0.008721692608399306
11.932,-0.008712701445345255
11.936,-0.008720009770394537
11.94,-0.008730635690367503
11.944,-0.00871486509420853
11.948,-0.008690944753997891
11.952,-0.008714336202264172
11.956,-0.008730587609281653
11.96,-0.008736333299040791
11.964,-0.008749435394935058
11.968,-0.008715610351039214
11.972,-0.008717461472844459
11.976,-0.008721019473197398
11.98,-0.008699815714337315
11.984,-0.008692916078517764
11.988,-0.008692771835260212
11.992,-0.008703806444462907
11.996,-0.008736669866641745
12.0,-0.008717725918816636
12.004,-0.008692916078517764
12.008000000000001,-0.008724938081694215
12.012,-0.008734121569091667
12.016,-0.008703517957947804
12.02,-0.008695127808466888
12.024000000000001,-0.00871354286434764
12.028,-0.008732222366200571
12.032,-0.008741886664456527
12.036,-0.008714985296923158
12.040000000000001,-0.008700969660397727
12.044,-0.008674765468609189
12.048,-0.008700488849539221
12.052,-0.008744843651236334
12.056000000000001,-0.008738545028989915
12.06,-0.008712004269600422
12.064,-0.008710056985623476
12.068,-0.0087189279459629
12.072000000000001,-0.00872313504097482
12.076,-0.008723207162603597
12.08,-0.008725563135810273
12.084,-0.008721548365141754
12.088000000000001,-0.008708782836848438
12.092,-0.008690151416081359
12.096,-0.008693276686661642
12.1,-0.008712388918287227
12.104000000000001,-0.008710273350509803
12.108,-0.00871948087845018
12.112,-0.008720490581253043
12.116,-0.00872431302757816
12.120000000000001,-0.008727125771100415
12.124,-0.008697483781673563
12.128,-0.008696714484299956
12.132,-0.008724601514093263
12.136000000000001,-0.008738304623560662
12.14,-0.00873669390718467
12.144,-0.008717413391758608
12.148,-0.008692387186573407
12.152000000000001,-0.008718855824334125
12.156,-0.00871359094543349
12.16,-0.008713062053489134
12.164,-0.008722678270659241
12.168000000000001,-0.008724168784320608
12.172,-0.008719312594649704
12.176,-0.008694430632722055
12.18,-0.008699262781850032
12.184000000000001,-0.008723808176176729
12.188,-0.008722726351745091
12.192,-0.008687362713102028
12.196,-0.00870231593080154
12.200000000000001,-0.00871577863483969
12.204,-0.00871303801294621
12.208,-0.008692843956888987
12.212,-0.008674717387523338
12.216000000000001,-0.008718567337819021
12.22,-0.008736261177412014
12.224,-0.008717172986329355
12.228,-0.008730371244395326
12.232000000000001,-0.008732438731086898
12.236,-0.008721644527313456
12.24,-0.008710513755939056
12.244,-0.00870258037677372
12.248000000000001,-0.008710489715396131
12.252,-0.008712509121001853
12.256,-0.00870587393115448
12.26,-0.008695969227469272
12.264000000000001,-0.008706498985270537
12.268,-0.00869481528140886
12.272,-0.008700609052253847
12.276,-0.00872537081146687
12.280000000000001,-0.008719889567679912
12.284,-0.008697387619501862
12.288,-0.008685751996726035
12.292,-0.00870943193150742
12.296,-0.008744434962006605
12.3,-0.008736309258497865
12.304,-0.008721091594826175
12.308,-0.008715105499637783
12.312,-0.008702796741660046
12.316,-0.008691185159427144
12.32,-0.008685223104781679
12.324,-0.008688588780791215
12.328,-0.008716019040268943
12.332,-0.008744194556577352
12.336,-0.008745132137751438
12.34,-0.008736958353156847
12.344,-0.008737895934330933
12.348,-0.008730587609281653
12.352,-0.00872075502722522
12.356,-0.008715081459094859
12.36,-0.008709912742365924
12.364,-0.008695488416610766
12.368,-0.008691137078341293
12.372,-0.008715153580723634
12.376,-0.008718326932389768
12.38,-0.008704768066179917
12.384,-0.00870212360645814
12.388,-0.008717197026872282
12.392,-0.008698180957418396
12.396,-0.008708326066532856
12.4,-0.008726644960241909
12.404,-0.008710585877567832
12.408,-0.008685175023695828
12.412,-0.00870044076845337
12.416,-0.008729073055077361
12.42,-0.00873212620402887
12.424,-0.008728231636074977
12.428,-0.008728111433360351
12.432,-0.008710201228881028
12.436,-0.008717798040445413
12.44,-0.008729770230822194
12.444,-0.008718278851303917
12.448,-0.008702508255144943
12.452,-0.008698878133163229
12.456,-0.008706643228528089
12.46,-0.008691641929742724
12.464,-0.008694719119237158
12.468,-0.008673972130692657
12.472,-0.008708013539474828
12.476,-0.008717677837730786
12.48,-0.00870592201224033
12.484,-0.008703710282291206
12.488,-0.008708734755762587
12.492,-0.008723495649118701
12.496,-0.00872431302757816
12.5,-0.00870765293133095
12.504,-0.008704695944551142
12.508000000000001,-0.008720923311025697
12.512,-0.008719961689308687
12.516,-0.008718591378361947
12.52,-0.008716403688955748
12.524000000000001,-0.008714889134751456
12.528,-0.008715754594296765
12.532,-0.008716716216013776
12.536,-0.008698757930448602
12.540000000000001,-0.008665437737954187
12.544,-0.00868430956415052
12.548,-0.008725226568209319
12.552,-0.00871897602704875
12.556000000000001,-0.008699118538592482
12.56,-0.008696401957241926
12.564,-0.008700416727910446
12.568,-0.008702364011887391
12.572000000000001,-0.00872440918974986
12.576,-0.008739915339936654
12.58,-0.00872847204150423
12.584,-0.008724337068121084
12.588000000000001,-0.008720899270482772
12.592,-0.008722485946315838
12.596,-0.008726861325128238
12.6,-0.008724841919522514
12.604000000000001,-0.008723327365318223
12.608,-0.008724649595179114
12.612,-0.0087257795006966
12.616,-0.008722678270659241
12.620000000000001,-0.008713783269776891
12.624,-0.008716163283526495
12.628,-0.008722389784144137
12.632,-0.008687723321245906
12.636000000000001,-0.00868902151056387
12.64,-0.008727173852186266
12.644,-0.008719769364965284
12.648,-0.008725587176353198
12.652000000000001,-0.00871359094543349
12.656,-0.008707436566444623
12.66,-0.008717028743071804
12.664,-0.008724553433007412
12.668000000000001,-0.008721524324598828
12.672,-0.008720370378538416
12.676,-0.008717148945786431
12.68,-0.008716283486241122
12.684000000000001,-0.008707412525901697
12.688,-0.008693156483947017
12.692,-0.008686160685955764
12.696,-0.008675895374126677
12.700000000000001,-0.008712196593943825
12.704,-0.00871948087845018
12.708,-0.008706426863641762
12.712,-0.00870181107940011
12.716000000000001,-0.008720899270482772
12.72,-0.008727486379244294
12.724,-0.008730972257968457
12.728,-0.008750060449051116
12.732000000000001,-0.008729241338877838
12.736,-0.008716403688955748
12.74,-0.008716355607869897
12.744,-0.008714792972579755
12.748000000000001,-0.008715946918640168
12.752,-0.008707388485358772
12.756,-0.008695560538239543
12.76,-0.00871609116189772
12.764000000000001,-0.008717317229586907
12.768,-0.008695969227469272
12.772,-0.008698277119590097
12.776,-0.008711547499284843
12.780000000000001,-0.008702412092973242
12.784,-0.0087122687155726
12.788,-0.008716956621443029
12.792,-0.008686425131927942
12.796000000000001,-0.008701883201028887
12.8,-0.008709455972050344
12.804,-0.008708903039563063
12.808,-0.00872724597381504
12.812,-0.008732318528372272
12.816,-0.00872674112241361
12.82,-0.008722774432830942
12.824,-0.00871924047302093
12.828,-0.008719144310849228
12.832,-0.008715490148324588
12.836,-0.008713783269776891
12.84,-0.008708253944904081
12.844,-0.008696257713984374
12.848,-0.008666904211072628
12.852,-0.008650580682426374
12.856,-0.008698541565562275
12.86,-0.008724673635722038
12.864,-0.008718206729675142
12.868,-0.008707604850245099
12.872,-0.008704888268894545
12.876,-0.008711739823628245
12.88,-0.008721283919169575
12.884,-0.008737631488358755
12.888,-0.008722918676088494
12.892,-0.008717918243160039
12.896,-0.00871659601329915
12.9,-0.008713134175117909
12.904,-0.00871034547213858
12.908,-0.008702532295687869
12.912,-0.008695488416610766
12.916,-0.00868750695635958
12.92,-0.00870258037677372
12.924,-0.008715057418551933
12.928,-0.008719601081164808
12.932,-0.00871897602704875
12.936,-0.008708951120648914
12.94,-0.008691497686485172
12.944,-0.008710225269423952
12.948,-0.00871796632424589
12.952,-0.008711475377656066
12.956,-0.008717990364788816
12.96,-0.008708446269247484
12.964,-0.008685223104781679
12.968,-0.008692435267659258
12.972,-0.008713639026519341
12.976,-0.008681424698999487
12.98,-0.00866572622446929
12.984,-0.008688877267306319
12.988,-0.008708398188161633
12.992,-0.008720851189396922
12.996,-0.008729169217249063
13.0,-0.008724625554636187
13.004,-0.0087190241081346
13.008000000000001,-0.008697844389817442
13.012,-0.008671952725086933
13.016,-0.00866791391387549
13.02,-0.008704984431066246
13.024000000000001,-0.008731092460683083
13.028,-0.008746141840554299
13.032,-0.00874090100219659
13.036,-0.008731933879685468
13.040000000000001,-0.008722485946315838
13.044,-0.00870226784971569
13.048,-0.00870258037677372
13.052,-0.008704816147265768
13.056000000000001,-0.008706042214954957
13.06,-0.00871186002634287
13.064,-0.008720514621795968
13.068,-0.008714071756291995
13.072000000000001,-0.008712629323716478
13.076,-0.008717870162074188
13.08,-0.008721740689485155
13.084,-0.008725851622325377
13.088000000000001,-0.00872020209473794
13.092,-0.008712941850774508
13.096,-0.008714071756291995
13.1,-0.008689117672735572
13.104000000000001,-0.008665942589355618
13.108,-0.008708927080105988
13.112,-0.008726308392640957
13.116,-0.008711667701999468
13.120000000000001,-0.008705609485182302
13.124,-0.008724986162780066
13.128,-0.00871527378343826
13.132,-0.00871368710760519
13.136000000000001,-0.008706018174412031
13.14,-0.008702412092973242
13.144,-0.008712509121001853
13.148,-0.008710922445168785
13.152000000000001,-0.008715225702352409
13.156,-0.008705128674323798
13.16,-0.008677289725616343
13.164,-0.008692795875803136
13.168000000000001,-0.00867755417158852
13.172,-0.008698060754703769
13.176,-0.008714480445521724
13.18,-0.00871089840462586
13.184000000000001,-0.008710177188338102
13.188,-0.008738040177588485
13.192,-0.008740612515681487
13.196,-0.008733712879861938
13.200000000000001,-0.008718038445874666
13.204,-0.008674236576664834
13.208,-0.008696377916699001
13.212,-0.008733256109546356
13.216000000000001,-0.008742559799658434
13.22,-0.008736910272070996
13.224,-0.008734842785379424
13.228,-0.008728111433360351
13.232000000000001,-0.008721596446227605
13.236,-0.00871750955393031
13.24,-0.008713422661633012
13.244,-0.008718326932389768
13.248000000000001,-0.008720586743424743
13.252,-0.008720875229939846
13.256,-0.00871609116189772
13.26,-0.008707941417846053
13.264000000000001,-0.008667673508446237
13.268,-0.008659499723851648
13.272,-0.008705561404096451
13.276,-0.008716668134927925
13.280000000000001,-0.008699407025107584
13.284,-0.00868344410460521
13.288,-0.00871928855410678
13.292,-0.008746454367612327
13.296000000000001,-0.00874080484002489
13.3,-0.008730539528195802
13.304,-0.008721476243512978
13.308,-0.008717413391758608
13.312000000000001,-0.00871938471627848
13.316,-0.008720033810937462
13.32,-0.008721139675912024
13.324,-0.008721572405684679
13.328,-0.00872171664894223
13.332,-0.008721187756997874
13.336,-0.008718879864877049
13.34,-0.008716427729498672
13.344,-0.008714744891493905
13.348,-0.008717870162074188
13.352,-0.008720129973109163
13.356,-0.008727125771100415
13.36,-0.008724529392464486
13.364,-0.008710321431595653
13.368,-0.008715033378009008
13.372,-0.00871277356697403
13.376,-0.008698253079047171
13.38,-0.008676905076929538
13.384,-0.008710826282997084
13.388,-0.008736549663927118
13.392,-0.008725923743954152
13.396,-0.008708518390876259
13.4,-0.008702364011887391
13.404,-0.00868988697010918
13.408,-0.008712749526431106
13.412,-0.008723014838260195
13.416,-0.008703277552518552
13.42,-0.00870866263413381
13.424,-0.00870669130961394
13.428,-0.008730779933625055
13.432,-0.008737799772159232
13.436,-0.008707364444815846
13.44,-0.008707893336760203
13.444,-0.008710585877567832
13.448,-0.008710153147795177
13.452,-0.008725611216896124
13.456,-0.0087439541511481
13.46,-0.008743208894317416
13.464,-0.008733183987917581
13.468,-0.008727173852186266
13.472,-0.008722485946315838
13.476,-0.008710994566797562
13.48,-0.008715033378009008
13.484,-0.00872070694613937
13.488,-0.008717581675559085
13.492,-0.008709023242277689
13.496,-0.00870496039052332
13.5,-0.008692795875803136
13.504,-0.008704744025636993
13.508000000000001,-0.008722245540886587
13.512,-0.008701474511799158
13.516,-0.008691978497343678
13.52,-0.008703133309261
13.524000000000001,-0.008716884499814254
13.528,-0.008725899703411227
13.532,-0.008748473773218048
13.536,-0.008742680002373061
13.540000000000001,-0.008735107231351602
13.544,-0.008727534460330144
13.548,-0.008718375013475619
13.552,-0.008713903472491518
13.556000000000001,-0.008709239607164018
13.56,-0.008708734755762587
13.564,-0.008716956621443029
13.568,-0.00871928855410678
13.572000000000001,-0.00872217341925781
13.576,-0.008717701878273712
13.58,-0.008714264080635397
13.584,-0.0087189279459629
13.588000000000001,-0.00871948087845018
13.592,-0.00871755763501616
13.596,-0.00871222063448675
13.6,-0.008673323036033674
13.604000000000001,-0.008667433103016984
13.608,-0.008696450038327776
13.612,-0.008714240040092473
13.616,-0.008726404554812658
13.620000000000001,-0.00874085292111074
13.624,-0.008724962122237142
13.628,-0.008723760095090878
13.632,-0.008714384283350023
13.636000000000001,-0.008712533161544777
13.64,-0.0087212117975408
13.644,-0.008735660163838883
13.648,-0.00874308869160279
13.652000000000001,-0.008737270880214877
13.656,-0.008730635690367503
13.66,-0.008736982393699773
13.664,-0.008734145609634592
13.668000000000001,-0.00871897602704875
13.672,-0.008724240905949383
13.676,-0.00872171664894223
13.68,-0.008717389351215684
13.684000000000001,-0.008713879431948592
13.688,-0.008724192824863532
13.692,-0.0087326310554303
13.696,-0.008725539095267347
13.700000000000001,-0.00868349218569106
13.704,-0.008688853226763394
13.708,-0.008724721716807889
13.712,-0.00872344756803285
13.716000000000001,-0.008710946485711711
13.72,-0.008725034243865917
13.724,-0.008732823379773703
13.728,-0.008731909839142543
13.732000000000001,-0.008735588042210108
13.736,-0.008722245540886587
13.74,-0.008684790375009025
13.744,-0.008721908973285633
13.748000000000001,-0.008750613381538397
13.752,-0.008733785001490713
13.756,-0.008721404121884203
13.76,-0.008719865527136985
13.764000000000001,-0.008713903472491518
13.768,-0.008726164149383405
13.772,-0.008743785867347623
13.776,-0.008735467839495482
13.780000000000001,-0.008729625987564642
13.784,-0.008728087392817425
13.788,-0.008708037580017754
13.792,-0.008699214700764183
13.796000000000001,-0.00872751041978722
13.8,-0.00873090013633968
13.804,-0.00871349478326179
13.808,-0.008691064956712518
13.812000000000001,-0.008722149378714886
13.816,-0.00873308782574588
13.82,-0.008740227866994684
13.824,-0.008734938947551125
13.828,-0.008728736487476407
13.832,-0.008733736920404862
13.836,-0.008735996731439837
13.84,-0.008727173852186266
13.844,-0.008714672769865128
13.848,-0.00869714721407261
13.852,-0.008703950687720459
13.856,-0.008724337068121084
13.86,-0.008717389351215684
13.864,-0.008741453934683872
13.868,-0.008745276381008988
13.872,-0.008718663499990722
13.876,-0.008732510852715675
13.88,-0.00870815778273238
13.884,-0.008694021943492326
13.888,-0.00872902497399151
13.892,-0.008741069285997067
13.896,-0.008735107231351602
13.9,-0.008731597312084513
13.904,-0.00872705364947164
13.908,-0.008739626853421553
13.912,-0.008750445097737921
13.916,-0.008739194123648897
13.92,-0.008733712879861938
13.924,-0.00873090013633968
13.928,-0.008728135473903276
13.932,-0.00872075502722522
13.936,-0.008711932147971646
13.94,-0.008703469876861953
13.944,-0.008721548365141754
13.948,-0.00873354459606146
13.952,-0.00872943366322124
13.956,-0.00873217428511472
13.96,-0.008733376312260984
13.964,-0.008721548365141754
13.968,-0.00871851925673317
13.972,-0.008725250608752245
13.976,-0.00873943452907815
13.98,-0.008744651326892932
13.984,-0.008737415123472427
13.988,-0.008737871893788008
13.992,-0.008742800205087687
13.996,-0.008732703177059075
14.0,-0.00871979340550821
14.004,-0.008709960823451775
14.008000000000001,-0.008725899703411227
14.012,-0.008746045678382598
14.016,-0.008739025839848421
14.02,-0.008727414257615519
14.024000000000001,-0.008740035542651282
14.028,-0.008743689705175922
14.032,-0.008733785001490713
14.036,-0.008736333299040791
14.040000000000001,-0.00872020209473794
14.044,-0.008721812811113932
14.048,-0.008728568203675931
14.052,-0.008743521421375444
14.056000000000001,-0.00873450621777847
14.06,-0.008728904771276885
14.064,-0.00874130969142632
14.068,-0.008749339232763359
14.072000000000001,-0.008740468272423935
14.076,-0.008721356040798352
14.08,-0.008736549663927118
14.084,-0.008732150244571794
14.088000000000001,-0.0087054171608389
14.092,-0.00873121266339771
14.096,-0.008738689272247467
14.1,-0.008724841919522514
14.104000000000001,-0.008729000933448585
14.108,-0.00872902497399151
14.112,-0.00872751041978722
14.116,-0.008709792539651299
14.120000000000001,-0.008706643228528089
14.124,-0.008733736920404862
14.128,-0.008721596446227605
14.132,-0.008695945186926346
14.136000000000001,-0.008716211364612345
14.14,-0.008740997164368292
14.144,-0.008737968055959708
14.148,-0.00872532273038102
14.152000000000001,-0.008742559799658434
14.156,-0.008732871460859553
14.16,-0.008744122434948575
14.164,-0.008735251474609153
14.168000000000001,-0.008733376312260984
14.172,-0.008732991663574179
14.176,-0.008736261177412014
14.18,-0.008735107231351602
14.184000000000001,-0.00873212620402887
14.188,-0.008731140541768934
14.192,-0.0087325348932586
14.196,-0.008736116934154464
14.200000000000001,-0.008727414257615519
14.204,-0.008714240040092473
14.208,-0.008716764297099626
14.212,-0.008699503187279285
14.216000000000001,-0.008718591378361947
14.22,-0.008702989066003449
14.224,-0.008666158954241946
14.228,-0.008730539528195802
14.232000000000001,-0.00874765639475859
14.236,-0.008759917071650474
14.24,-0.00875861888233251
14.244,-0.008752127935742688
14.248000000000001,-0.00874349738083252
14.252,-0.008738857556047943
14.256,-0.008733520555518536
14.26,-0.008708951120648914
14.264000000000001,-0.008717846121531264
14.268,-0.008729650028107567
14.272,-0.00872669304132776
14.276,-0.008730755893082129
14.280000000000001,-0.008735227434066229
14.284,-0.008731789636427916
14.288,-0.00872842396041838
14.292,-0.008736886231528072
14.296000000000001,-0.00873866523170454
14.3,-0.008720971392111547
14.304,-0.008711980229057496
14.308,-0.00871368710760519
14.312000000000001,-0.008729145176706136
14.316,-0.008762922139516132
14.32,-0.008755301287408824
14.324,-0.008736140974697389
14.328000000000001,-0.008739314326363523
14.332,-0.008749291151677508
14.336,-0.008738280583017738
14.34,-0.008748233367788795
14.344,-0.008744723448521707
14.348,-0.008731741555342065
14.352,-0.008728303757703754
14.356,-0.008735035109722827
14.36,-0.00873993938047958
14.364,-0.008746045678382598
14.368,-0.008734434096149695
14.372,-0.008714191959006622
14.376,-0.008741237569797545
14.38,-0.008743064651059864
14.384,-0.008746478408155251
14.388,-0.008731789636427916
14.392,-0.00871613924298357
14.396,-0.00874212706988578
14.4,-0.008757729382244275
14.404,-0.008751046111311053
14.408,-0.008736213096326164
14.412,-0.008740035542651282
14.416,-0.008736357339583715
14.42,-0.008733712879861938
14.424,-0.008722365743601213
14.428,-0.008729986595708521
14.432,-0.008743208894317416
14.436,-0.008743112732145715
14.44,-0.008742054948257003
14.444,-0.008742992529431089
14.448,-0.008744410921463679
14.452,-0.008745829313496269
14.456,-0.008741694340113125
14.46,-0.008722990797717269
14.464,-0.008705849890611555
14.468,-0.008720490581253043
14.472,-0.008719120270306302
14.476,-0.008740997164368292
14.48,-0.008764629018063826
14.484,-0.008755253206322974
14.488,-0.008740564434595637
14.492,-0.008734145609634592
14.496,-0.008741694340113125
14.5,-0.008748449732675124
14.504,-0.008746069718925522
14.508000000000001,-0.008742030907714079
14.512,-0.008727606581958921
14.516,-0.008702604417316644
14.52,-0.008731501149912812
14.524000000000001,-0.008739602812878626
14.528,-0.008735035109722827
14.532,-0.008726837284585311
14.536,-0.008717245107958132
14.540000000000001,-0.008702844822745897
14.544,-0.008699599349450986
14.548,-0.00873085205525383
14.552,-0.008751190354568603
14.556000000000001,-0.008745084056665587
14.56,-0.008726885365671162
14.564,-0.008732150244571794
14.568,-0.008745709110781643
14.572000000000001,-0.008750565300452547
14.576,-0.008743737786261772
14.58,-0.008738136339760186
14.584,-0.008733232069003432
14.588000000000001,-0.008736958353156847
14.592,-0.008738280583017738
14.596,-0.008734674501578948
14.6,-0.008729986595708521
14.604000000000001,-0.008715538229410439
14.608,-0.008700777336054325
14.612,-0.00869358921371967
14.616,-0.00868577603726896
14.620000000000001,-0.008698541565562275
14.624,-0.008733712879861938
14.628,-0.008747680435301514
14.632,-0.008737391082929502
14.636000000000001,-0.008737871893788008
14.64,-0.008735467839495482
14.644,-0.008709287688249868
14.648,-0.008703566039033654
14.652000000000001,-0.008724168784320608
14.656,-0.008744434962006605
14.66,-0.008741189488711694
14.664,-0.008731429028284037
14.668000000000001,-0.008726524757527283
14.672,-0.008720514621795968
14.676,-0.008721836851656856
14.68,-0.008728111433360351
14.684000000000001,-0.008735443798952556
14.688,-0.008737799772159232
14.692,-0.0087417664617419
14.696,-0.008729457703764166
14.700000000000001,-0.008718447135104395
14.704,-0.008737799772159232
14.708,-0.008738785434419168
14.712,-0.008736501582841267
14.716000000000001,-0.008728664365847632
14.72,-0.008734434096149695
14.724,-0.00873207812294302
14.728,-0.008728664365847632
14.732000000000001,-0.008740708677853188
14.736,-0.008734698542121873
14.74,-0.008730611649824579
14.744,-0.00873811229921726
14.748000000000001,-0.008726813244042387
14.752,-0.008737511285644128
14.756,-0.008741453934683872
14.76,-0.00873171751479914
14.764000000000001,-0.00871399963466322
14.768,-0.008727678703587696
14.772,-0.008736934312613923
14.776,-0.008742824245630611
14.780000000000001,-0.00876150374748354
14.784,-0.008764364572091649
14.788,-0.00875222409791439
14.792,-0.008731789636427916
14.796000000000001,-0.008718350972932694
14.8,-0.008734169650177518
14.804,-0.008742367475315031
14.808,-0.00875030085448037
14.812000000000001,-0.008752921273659222
14.816,-0.00874445900254953
14.82,-0.008703926647177535
14.824,-0.008693276686661642
14.828000000000001,-0.008744122434948575
14.832,-0.008747512151501038
14.836,-0.008749315192220433
14.84,-0.00875419542243426
14.844000000000001,-0.008747632354215664
14.848,-0.008732823379773703
14.852,-0.008713783269776891
14.856,-0.00871943279736433
14.86,-0.008748353570503423
14.864,-0.008749507516563835
14.868,-0.008744194556577352
14.872,-0.008740155745365907
14.876,-0.008732823379773703
14.88,-0.008733400352803908
14.884,-0.00873679006935637
14.888,-0.008737487245101204
14.892,-0.008723231203146522
14.896,-0.008720322297452565
14.9,-0.008732703177059075
14.904,-0.008713879431948592
14.908,-0.00872801527118865
14.912,-0.008769292883391327
14.916,-0.008768667829275269
14.92,-0.008755493611752225
14.924,-0.008755301287408824
14.928,-0.008749315192220433
14.932,-0.008743353137574968
14.936,-0.008740492312966862
14.94,-0.008742006867171153
14.944,-0.008748714178647301
14.948,-0.008732655095973225
14.952,-0.008732150244571794
14.956,-0.008729650028107567
14.96,-0.008716427729498672
14.964,-0.008737823812702158
14.968,-0.008735564001667181
14.972,-0.008728664365847632
14.976,-0.008736357339583715
14.98,-0.008738713312790391
14.984,-0.008741526056312648
14.988,-0.008746887097384982
14.992,-0.008731549230998663
14.996,-0.008728832649648108
15.0,-0.008737727650530457
15.004,-0.008722846554459719
15.008000000000001,-0.00873395328529119
15.012,-0.008754387746777663
15.016,-0.008753930976462083
15.02,-0.008752464503343643
15.024000000000001,-0.008748882462447777
15.028,-0.008743401218660818
15.032,-0.008741165448168768
15.036,-0.008743569502461294
15.040000000000001,-0.008746887097384982
15.044,-0.008746863056842056
15.048,-0.008740516353509786
15.052,-0.008736573704470044
15.056000000000001,-0.008740275948080535
15.06,-0.008750252773394519
15.064,-0.008737727650530457
15.068,-0.008731068420140159
15.072000000000001,-0.008733857123119488
15.076,-0.008736429461212492
15.08,-0.008740997164368292
15.084,-0.008737799772159232
15.088000000000001,-0.008736453501755417
15.092,-0.008715345905067036
15.096,-0.008720418459624266
15.1,-0.008732919541945404
15.104000000000001,-0.008741189488711694
15.108,-0.008745588908067018
15.112,-0.008756767760527265
15.116,-0.008752608746601194
15.120000000000001,-0.008745564867524092
15.124,-0.008715922878097242
15.128,-0.008702243809172765
15.132,-0.008735756326010584
15.136000000000001,-0.008743857988976398
15.14,-0.008751935611399286
15.144,-0.008730828014710906
15.148,-0.008717773999902487
15.152000000000001,-0.008746646691955729
15.156,-0.008736429461212492
15.16,-0.008742944448345238
15.164,-0.008752897233116298
15.168000000000001,-0.008747391948786412
15.172,-0.008732150244571794
15.176,-0.008749363273306283
15.18,-0.008758498679617883
15.184000000000001,-0.008754363706234738
15.188,-0.00875349824668943
15.192,-0.008734746623207723
15.196,-0.008712701445345255
15.200000000000001,-0.008739506650706925
15.204,-0.008753209760174326
15.208,-0.008745588908067018
15.212,-0.008761840315084495
15.216000000000001,-0.008751046111311053
15.22,-0.008736886231528072
15.224,-0.00872989043353682
15.228,-0.008725298689838096
15.232000000000001,-0.008747920840730767
15.236,-0.0087578495849589
15.24,-0.00875373865211868
15.244,-0.00875176732759881
15.248000000000001,-0.008737968055959708
15.252,-0.008729794271365119
15.256,-0.008721764730028081
15.26,-0.008719889567679912
15.264000000000001,-0.008734842785379424
15.268,-0.008741550096855573
15.272,-0.008756407152383386
15.276,-0.00873578036655351
15.280000000000001,-0.008742704042915985
15.284,-0.008773355735145696
15.288,-0.008754147341348412
15.292,-0.008740011502108356
15.296000000000001,-0.008742896367259388
15.3,-0.008737487245101204
15.304,-0.008739795137222029
15.308,-0.0087417664617419
15.312000000000001,-0.008730828014710906
15.316,-0.008730467406567027
15.32,-0.008733833082576564
15.324,-0.008720634824510593
15.328000000000001,-0.00870714807992952
15.332,-0.008735179352980378
15.336,-0.00874957963819261
15.34,-0.008733159947374655
15.344000000000001,-0.008687434834730803
15.348,-0.008725178487123468
15.352,-0.008767586004843633
15.356,-0.008771696937683853
15.36,-0.008750565300452547
15.364,-0.0087508057058818
15.368,-0.00873842482627529
15.372,-0.008728279717160827
15.376,-0.008726308392640957
15.38,-0.008733785001490713
15.384,-0.008740035542651282
15.388,-0.008727919109016949
15.392,-0.008728664365847632
15.396,-0.008740179785908834
15.4,-0.00874496385395096
15.404,-0.00873993938047958
15.408,-0.008756046544239506
15.412,-0.008759556463506596
15.416,-0.008746021637839671
15.42,-0.00872993851462267
15.424,-0.00872902497399151
15.428,-0.008744483043092456
15.432,-0.008728448000961304
15.436,-0.008702291890258616
15.44,-0.008738785434419168
15.444,-0.00875039701665207
15.448,-0.008744675367435856
15.452,-0.008739723015593254
15.456,-0.008740876961653666
15.46,-0.00874130969142632
15.464,-0.008737871893788008
15.468,-0.00870907132336354
15.472,-0.008700969660397727
15.476,-0.008712100431772124
15.48,-0.008731981960771318
15.484,-0.008762946180059057
15.488,-0.008764869423493079
15.492,-0.008750324895023294
15.496,-0.00871532186452411
15.5,-0.008739795137222029
15.504,-0.00876131142314014
15.508000000000001,-0.00875780150387305
15.512,-0.008746718813584504
15.516,-0.008732823379773703
15.52,-0.008726404554812658
15.524000000000001,-0.008728736487476407
15.528,-0.008739194123648897
15.532,-0.008739314326363523
15.536,-0.008738328664103588
15.540000000000001,-0.008731380947198187
15.544,-0.008735852488182285
15.548,-0.00873861715061869
15.552,-0.008730251041680698
15.556000000000001,-0.00872258210848754
15.56,-0.008741838583370676
15.564,-0.008748714178647301
15.568,-0.008748449732675124
15.572000000000001,-0.008731813676970842
15.576,-0.008724457270835711
15.58,-0.008724481311378636
15.584,-0.008737318961300727
15.588000000000001,-0.008752584706058268
15.592,-0.008743833948433474
15.596,-0.008739795137222029
15.6,-0.008731380947198187
15.604000000000001,-0.0087350110691799
15.608,-0.008741117367082918
15.612,-0.008733833082576564
15.616,-0.008738304623560662
15.620000000000001,-0.008745444664809466
15.624,-0.008738641191161616
15.628,-0.008739194123648897
15.632,-0.008736862190985146
15.636000000000001,-0.008744579205264155
15.64,-0.008742800205087687
15.644,-0.008742439596943808
15.648,-0.008749291151677508
15.652000000000001,-0.008737487245101204
15.656,-0.008738376745189439
15.66,-0.008767537923757783
15.664,-0.008747848719101992
15.668000000000001,-0.008747560232586889
15.672,-0.00875039701665207
15.676,-0.008741934745542378
15.68,-0.00873431389343507
15.684000000000001,-0.008737511285644128
15.688,-0.008726452635898508
15.692,-0.008712485080458927
15.696,-0.0087077010124168
15.700000000000001,-0.008754099260262561
15.704,-0.008761022936625036
15.708,-0.008735924609811062
15.712,-0.008728592244218856
15.716000000000001,-0.00874866609756145
15.72,-0.008753329962888952
15.724,-0.008730828014710906
15.728,-0.008748882462447777
15.732000000000001,-0.008750469138280845
15.736,-0.008734145609634592
15.74,-0.008741477975226798
15.744,-0.008751094192396903
15.748000000000001,-0.008742343434772107
15.752,-0.008750060449051116
15.756,-0.00875395501700501
15.76,-0.008747175583900084
15.764000000000001,-0.008741333731969246
15.768,-0.008742728083458912
15.772,-0.008741838583370676
15.776,-0.008741598177941423
15.780000000000001,-0.008743930110605175
15.784,-0.008742199191514555
15.788,-0.008740275948080535
15.792,-0.00872842396041838
15.796000000000001,-0.008713639026519341
15.8,-0.008732270447286422
15.804,-0.00873816038030311
15.808,-0.008717870162074188
15.812000000000001,-0.008693877700234774
15.816,-0.008705296958124274
15.82,-0.008755205125237123
15.824,-0.008766936910184651
15.828000000000001,-0.008759340098620267
15.832,-0.008756984125413592
15.836,-0.008750685503167172
15.84,-0.008752945314202148
15.844000000000001,-0.00874957963819261
15.848,-0.008741694340113125
15.852,-0.008746069718925522
15.856,-0.008747800638016142
15.860000000000001,-0.00874546870535239
15.864,-0.008736910272070996
15.868,-0.00873573228546766
15.872,-0.008741526056312648
15.876,-0.008745444664809466
15.88,-0.008747007300099608
15.884,-0.008740420191338085
15.888,-0.008720947351568623
15.892,-0.008735251474609153
15.896,-0.008731429028284037
15.9,-0.008695031646295186
15.904,-0.008704407458036039
15.908,-0.008743281015946193
15.912,-0.008729770230822194
15.916,-0.008737919974873859
15.92,-0.008752704908772896
15.924,-0.008755253206322974
15.928,-0.008757176449756994
15.932,-0.008755541692838075
15.936,-0.00874501193503681
15.94,-0.00873477066375065
15.944,-0.008726043946668777
15.948,-0.008732943582488328
15.952,-0.008749339232763359
15.956,-0.008739073920934272
15.96,-0.008739242204734748
15.964,-0.008747896800187843
15.968,-0.00873578036655351
15.972,-0.008750060449051116
15.976,-0.008731813676970842
15.98,-0.008720995432654473
15.984,-0.008734698542121873
15.988,-0.008750445097737921
15.992,-0.008735419758409631
15.996,-0.008730106798423148
16.0,-0.00873842482627529
16.004,-0.008739362407449373
16.008,-0.008743281015946193
16.012,-0.008735251474609153
16.016000000000002,-0.008724986162780066
16.02,-0.008740299988623459
16.024,-0.008752536624972418
16.028,-0.008758787166132986
16.032,-0.008749435394935058
16.036,-0.008733111866288806
16.04,-0.008702388052430317
16.044,-0.008719096229763378
16.048000000000002,-0.008744627286350006
16.052,-0.00873888159659087
16.056,-0.008747776597473216
16.06,-0.008743281015946193
16.064,-0.008737222799129026
16.068,-0.008733352271718058
16.072,-0.008728544163133005
16.076,-0.008721452202970053
16.080000000000002,-0.008725178487123468
16.084,-0.008739314326363523
16.088,-0.008750781665338873
16.092,-0.008746766894670355
16.096,-0.008749194989505807
16.1,-0.008747391948786412
16.104,-0.008743882029519324
16.108,-0.008738088258674335
16.112000000000002,-0.008736982393699773
16.116,-0.008722918676088494
16.12,-0.008721452202970053
16.124,-0.008734914907008201
16.128,-0.008740949083282441
16.132,-0.008712388918287227
