time,channel1
0.0,0.00927902451503569
0.004,0.009273254784733627
0.008,0.009259263188751123
0.012,0.009259094904950646
0.016,0.009241713592415681
0.02,0.009229356753352095
0.024,0.00924293966010487
0.028,0.009259359350922824
0.032,0.009251353850128713
0.036000000000000004,0.00922877978032189
0.04,0.00920964350815338
0.044,0.009199257993609666
0.048,0.009208345318835416
0.052000000000000005,0.009215749806056397
0.056,0.009213850603165302
0.06,0.009207479859290107
0.064,0.009182261329761503
0.068,0.009177789788777405
0.07200000000000001,0.009199065669266263
0.076,0.009228851901950665
0.08,0.00924846898497768
0.084,0.009260681580783714
0.088,0.00923873256509295
0.092,0.00920872996752222
0.096,0.00921243221113271
0.1,0.009230390496697882
0.10400000000000001,0.009246329376657331
0.108,0.009262676945846511
0.112,0.009250175863525374
0.116,0.009227145023402971
0.12,0.009222457117532546
0.124,0.009215966170942724
0.128,0.009216879711573884
0.132,0.009204787318482475
0.136,0.009198560817864833
0.14,0.009208152994492014
0.14400000000000002,0.00921567768442762
0.148,0.00921781729274797
0.152,0.009219644374010289
0.156,0.009220173265954645
0.16,0.009229116347922844
0.164,0.009247266957831417
0.168,0.009255512864054783
0.17200000000000001,0.009228611496521412
0.176,0.009218971238808382
0.18,0.009203489129164511
0.184,0.009193223817335424
0.188,0.009207936629605687
0.192,0.009234669713338578
0.196,0.00923604002428532
0.2,0.009236232348628722
0.20400000000000001,0.00923604002428532
0.20800000000000002,0.009239814389524585
0.212,0.009222961968933976
0.216,0.009189377330467381
0.22,0.009199041628723337
0.224,0.0092343091051947
0.228,0.009254959931567502
0.232,0.009242290565445888
0.23600000000000002,0.00921517283302619
0.24,0.009211831197559578
0.244,0.009253229012476882
0.248,0.009278952393406915
0.252,0.009281909380186722
0.256,0.009265946459684347
0.26,0.009252892444875928
0.264,0.009253878107135865
0.268,0.009237530537946686
0.272,0.009229621199324274
0.276,0.009231231915700267
0.28,0.009233876375422046
0.28400000000000003,0.009237121848716955
0.28800000000000003,0.009240006713867988
0.292,0.009241593389701055
0.296,0.009253565580077837
0.3,0.009252555877274976
0.304,0.009237843065004714
0.308,0.009234068699765447
0.312,0.009232554145561156
0.316,0.009234116780851297
0.32,0.009238275794777368
0.324,0.009241088538299625
0.328,0.009235487091798038
0.332,0.009225293901597726
0.336,0.009221327212015058
0.34,0.00922466884748167
0.34400000000000003,0.009233275361848915
0.34800000000000003,0.009246329376657331
0.352,0.009263109675619165
0.356,0.009257772675089758
0.36,0.00925796499943316
0.364,0.009247603525432371
0.368,0.009228226847834609
0.372,0.009234910118767831
0.376,0.009261210472728069
0.38,0.00924943060669469
0.384,0.009243180065534122
0.388,0.00923248202393238
0.392,0.00920375357513669
0.396,0.009200892750528582
0.4,0.009247723728146997
0.404,0.009264143418964952
0.40800000000000003,0.009260080567210583
0.41200000000000003,0.009251594255557964
0.41600000000000004,0.009241761673501532
0.42,0.009243011781733645
0.424,0.009240319240926016
0.428,0.009241857835673233
0.432,0.009238155592062742
0.436,0.009236641037858451
0.44,0.009234285064651775
0.444,0.009235847699941917
0.448,0.009236064064828244
0.452,0.009239622065181183
0.456,0.009245656241455425
0.46,0.00924983929592442
0.464,0.009250031620267822
0.468,0.009243708957478478
0.47200000000000003,0.009246569782086584
0.47600000000000003,0.009251185566328235
0.48,0.00924654574154366
0.484,0.00923974226789581
0.488,0.00923942974083778
0.492,0.009229573118238424
0.496,0.009229188469551619
0.5,0.00923873256509295
0.504,0.009242314605988813
0.508,0.009245992809056377
0.512,0.00924156934915813
0.516,0.00924212228164541
0.52,0.009252652039446675
0.524,0.009256955296630297
0.528,0.00925760439128928
0.532,0.0092503922284117
0.536,0.009229500996609647
0.54,0.00921274473819074
0.544,0.009224740969110445
0.548,0.009242699254675617
0.552,0.009248228579548427
0.556,0.00924486290353889
0.56,0.009250247985154149
0.5640000000000001,0.009259191067122348
0.5680000000000001,0.00924938252560884
0.5720000000000001,0.00923704972708818
0.5760000000000001,0.009238997011065127
0.58,0.00923380425379327
0.584,0.009237602659575461
0.588,0.009244694619738415
0.592,0.009251498093386263
0.596,0.009253325174648584
0.6,0.00925166637718674
0.604,0.009252652039446675
0.608,0.009254887809938725
0.612,0.009253108809762257
0.616,0.009257556310203429
0.62,0.00925815732377656
0.624,0.00925344537736321
0.628,0.00923284263207626
0.632,0.009234188902480074
0.636,0.009240920254499147
0.64,0.009245704322541275
0.644,0.009246016849599303
0.648,0.00924257905196099
0.652,0.009242170362731261
0.656,0.009248541106606455
0.66,0.009244334011594534
0.664,0.009235823659398991
0.668,0.009232241618503128
0.672,0.009226471888201065
0.676,0.009244382092680385
0.68,0.009283808583077818
0.684,0.00932095122189735
0.6880000000000001,0.009349799873407666
0.6920000000000001,0.009358574671575389
0.6960000000000001,0.009353357873760605
0.7000000000000001,0.009360281550123082
0.704,0.009345352372966494
0.708,0.009329004803777314
0.712,0.009304531531079394
0.716,0.00927683682562949
0.72,0.009257940958890234
0.724,0.00924933444452299
0.728,0.009240487524726494
0.732,0.009242266524902962
0.736,0.009248733430949858
0.74,0.009249142120179587
0.744,0.009252555877274976
0.748,0.00925760439128928
0.752,0.009256306201971315
0.756,0.009252051025873544
0.76,0.009247411201088969
0.764,0.009235342848540487
0.768,0.009244718660281339
0.772,0.009255392661340156
0.776,0.009259167026579423
0.78,0.009258950661693095
0.784,0.009252940525961779
0.788,0.009251377890671637
0.792,0.009249574849952242
0.796,0.009251425971757488
0.8,0.009255440742426006
0.804,0.009253589620620761
0.808,0.009249622931038093
0.812,0.009251185566328235
0.8160000000000001,0.009248637268778157
0.8200000000000001,0.009246978471316314
0.8240000000000001,0.009252820323247153
0.8280000000000001,0.009254070431479267
0.8320000000000001,0.009247819890318698
0.836,0.009246954430773389
0.84,0.009247988174119174
0.844,0.009254839728852875
0.848,0.009256426404685943
0.852,0.00923892488943635
0.856,0.00923577557831314
0.86,0.009241040457213774
0.864,0.009245295633311546
0.868,0.009251786579901366
0.872,0.009250897079813131
0.876,0.0092480122146621
0.88,0.009244790781910114
0.884,0.009244694619738415
0.888,0.009246569782086584
0.892,0.00924719483620264
0.896,0.009242675214132691
0.9,0.009241978038387859
0.904,0.009243180065534122
0.908,0.00925029606624
0.912,0.00925445508016607
0.916,0.009253830026050014
0.92,0.009256330242514241
0.924,0.009257724594003907
0.928,0.009253469417906135
0.932,0.009247699687604072
0.936,0.009245872606341752
0.9400000000000001,0.009234285064651775
0.9440000000000001,0.009230606861584209
0.9480000000000001,0.009245103308968144
0.9520000000000001,0.009248949795836186
0.9560000000000001,0.009253805985507088
0.96,0.009260609459154938
0.964,0.009260585418612013
0.968,0.009257796715632682
0.972,0.009250824958184356
0.976,0.009248997876922035
0.98,0.009247819890318698
0.984,0.009240487524726494
0.988,0.00922563046919868
0.992,0.009230895348099313
0.996,0.009240078835496763
1.0,0.009245536038740797
1.004,0.009249238282351288
1.008,0.009250464350040477
1.012,0.009253060728676406
1.016,0.009257027418259074
1.02,0.009258830458978469
1.024,0.009256546607400568
1.028,0.009249767174295645
1.032,0.009247988174119174
1.036,0.009251930823158918
1.04,0.009249791214838569
1.044,0.009243059862819496
1.048,0.009238540240749547
1.052,0.009243420470963375
1.056,0.009249695052666868
1.06,0.009254118512565117
1.064,0.009252700120532526
1.068,0.009252940525961779
1.072,0.00925070475546973
1.076,0.009240511565269418
1.08,0.00924284349793317
1.084,0.009249574849952242
1.088,0.009247867971404549
1.092,0.009246834228058762
1.096,0.009249094039093736
1.1,0.00925015182298245
1.104,0.00924897383637911
1.108,0.009249069998550812
1.112,0.009249190201265437
1.116,0.009248565147149381
1.12,0.00923745841631791
1.124,0.009234669713338578
1.1280000000000001,0.00924618513339978
1.1320000000000001,0.009255008012653351
1.1360000000000001,0.009255753269484034
1.1400000000000001,0.009254671445052398
1.1440000000000001,0.009251185566328235
1.1480000000000001,0.009255440742426006
1.1520000000000001,0.00926344624322012
1.156,0.009259046823864796
1.16,0.009256859134458596
1.164,0.009250945160898982
1.168,0.009248180498462577
1.172,0.009255440742426006
1.176,0.009257676512918056
1.18,0.00926202785118753
1.184,0.009259046823864796
1.188,0.009252195269131095
1.192,0.009247218876745567
1.196,0.009248589187692306
1.2,0.009249286363437139
1.204,0.009249069998550812
1.208,0.009244478254852086
1.212,0.009231400199500743
1.216,0.009235030321482459
1.22,0.009242482889789289
1.224,0.009248733430949858
1.228,0.009253060728676406
1.232,0.009256787012829821
1.236,0.00925791691834731
1.24,0.009253830026050014
1.244,0.009251882742073067
1.248,0.009250921120356057
1.252,0.009247242917288491
1.256,0.009246064930685154
1.26,0.009249550809409318
1.264,0.009254647404509472
1.268,0.009252820323247153
1.272,0.009253301134105657
1.276,0.009257075499344925
1.28,0.009264239581136653
1.284,0.009262604824217735
1.288,0.009259719959066704
1.292,0.009251762539358442
1.296,0.009253709823335388
1.3,0.009251642336643814
1.304,0.00925395022876464
1.308,0.009253637701706612
1.312,0.009255873472198662
1.316,0.00925664276957227
1.32,0.009257388026402953
1.324,0.009259239148208198
1.328,0.009258710256263842
1.332,0.009258590053549216
1.336,0.009256787012829821
1.34,0.009253180931391032
1.344,0.009239838430067511
1.348,0.009231231915700267
1.352,0.009238251754234443
1.356,0.009241689551872757
1.36,0.0092411606599284
1.364,0.0092388768083505
1.368,0.009236400632429198
1.372,0.009226447847658139
1.3760000000000001,0.009242170362731261
1.3800000000000001,0.00927815905549038
1.3840000000000001,0.009315926748425971
1.3880000000000001,0.009346722683913233
1.3920000000000001,0.00937251818647204
1.3960000000000001,0.009374585673163613
1.4000000000000001,0.00936013730686553
1.4040000000000001,0.009340255777866338
1.408,0.009313811180648548
1.412,0.009296213503227253
1.416,0.009280154420553178
1.42,0.00926212401335923
1.424,0.009256979337173224
1.428,0.009257868837261459
1.432,0.009254791647767024
1.436,0.009251401931214561
1.44,0.00925207506641647
1.444,0.009256522566857644
1.448,0.009257363985860028
1.452,0.009255032053196277
1.456,0.009253709823335388
1.46,0.009254479120708996
1.464,0.009260032486124732
1.468,0.00925988824286718
1.472,0.009251858701530143
1.476,0.009247339079460192
1.48,0.009233684051078644
1.484,0.009229044226294067
1.488,0.009239165294865603
1.492,0.009246305336114407
1.496,0.00924943060669469
1.5,0.00924618513339978
1.504,0.009245848565798827
1.508,0.009243588754763851
1.512,0.009242458849246364
1.516,0.009247723728146997
1.52,0.009249190201265437
1.524,0.00924628129557148
1.528,0.009245656241455425
1.532,0.009247627565975296
1.536,0.009244742700824265
1.54,0.009245608160369574
1.544,0.009250103741896599
1.548,0.009248709390406933
1.552,0.0092433483493346
1.556,0.009242410768160514
1.56,0.009243492592592151
1.564,0.009245824525255901
1.568,0.00923923741649438
1.572,0.009229885645296452
1.576,0.009240126916582613
1.58,0.009242723295218542
1.584,0.009248589187692306
1.588,0.009255152255910903
1.592,0.009250560512212179
1.596,0.00925034414732585
1.6,0.009253781944964163
1.604,0.009254551242337771
1.608,0.009259118945493573
1.612,0.009259768040152555
1.616,0.00925760439128928
1.62,0.009256859134458596
1.624,0.00925810924269071
1.6280000000000001,0.009262148053902155
1.6320000000000001,0.009266403229999927
1.6360000000000001,0.00926851879777735
1.6400000000000001,0.009270442041211371
1.6440000000000001,0.009272293163016617
1.6480000000000001,0.009272533568445868
1.6520000000000001,0.009274480852422815
1.6560000000000001,0.009273374987448253
1.6600000000000001,0.009271788311615186
1.6640000000000001,0.009278231177119156
1.668,0.009279817852952224
1.672,0.0092776061230031
1.676,0.009273350946905328
1.68,0.009274384690251113
1.684,0.009275033784910095
1.688,0.009278736028520586
1.692,0.009284000907421219
1.696,0.009284481718279725
1.7,0.009281668974757469
1.704,0.009268037986918845
1.708,0.009259118945493573
1.712,0.009264215540593727
1.716,0.009272100838673214
1.72,0.00927907259612154
1.724,0.00928049098815413
1.728,0.00928364029927734
1.732,0.009277509960831399
1.736,0.009272028717044438
1.74,0.00927395196047846
1.744,0.00927491358219547
1.748,0.009271571946728858
1.752,0.009272197000844916
1.756,0.009272052757587364
1.76,0.00927003335198164
1.764,0.009267244649002311
1.768,0.009270225676325043
1.772,0.00927121133858498
1.776,0.009270490122297222
1.78,0.009269816987095314
1.784,0.009270970933155726
1.788,0.009270538203383073
1.792,0.009268206270719321
1.796,0.009267052324658909
1.8,0.009271908514329812
1.804,0.009270418000668445
1.808,0.009261234513270995
1.812,0.00926623494619945
1.816,0.009266811919229656
1.82,0.009268687081577827
1.824,0.009275634798483227
1.828,0.00927638005531391
1.832,0.009273254784733627
1.836,0.009267172527373534
1.84,0.009248108376833802
1.844,0.009252267390759872
1.848,0.009266138784027749
1.852,0.009273326906362402
1.856,0.009271571946728858
1.86,0.009272389325188318
1.864,0.009272028717044438
1.868,0.009271523865643007
1.872,0.009268663041034901
1.8760000000000001,0.009268182230176397
1.8800000000000001,0.009266379189457002
1.8840000000000001,0.009266307067828225
1.8880000000000001,0.009271980635958587
1.8920000000000001,0.009276740663457789
1.8960000000000001,0.00927811097440453
1.9000000000000001,0.009279817852952224
1.9040000000000001,0.009282005542358423
1.9080000000000001,0.00928094775846971
1.9120000000000001,0.009278399460919634
1.9160000000000001,0.009277485920288472
1.92,0.009276139649884657
1.924,0.009274216406450637
1.928,0.009268711122120752
1.932,0.009266283027285301
1.936,0.009270201635782118
1.94,0.009273976001021384
1.944,0.009277918650061128
1.948,0.009277918650061128
1.952,0.009270610325011848
1.956,0.009271740230529336
1.96,0.00927491358219547
1.964,0.009277942690604052
1.968,0.009280659271954608
1.972,0.00927400004156431
1.976,0.009259118945493573
1.98,0.0092708507304411
1.984,0.009277870568975277
1.988,0.009282245947787674
1.992,0.009286621326600073
1.996,0.009286645367142998
2.0,0.009285515461625512
2.004,0.009283039285704208
2.008,0.009284289393936322
2.012,0.009283712420906117
2.016,0.009282702718103254
2.02,0.009279000474492765
2.024,0.009273254784733627
2.028,0.009269504460037286
2.032,0.009262556743131884
2.036,0.00925887854006432
2.04,0.009267965865290068
2.044,0.009298497354805153
2.048,0.0093300385471231
2.052,0.009362132671928328
2.056,0.009388865755661219
2.06,0.009405525851908429
2.064,0.009392712242529262
2.068,0.009374417389363137
2.072,0.009354367576563468
2.076,0.00933592848013979
2.08,0.009315974829511822
2.084,0.009297944422317872
2.088,0.009286212637370344
2.092,0.009282294028873525
2.096,0.009282029582901348
2.1,0.009282534434302778
2.104,0.009279120677207391
2.108,0.009270490122297222
2.112,0.0092754184335969
2.116,0.009280707353040459
2.12,0.009279120677207391
2.124,0.009275298230882275
2.128,0.009274817420023769
2.132,0.009275298230882275
2.136,0.00927755804191725
2.14,0.009276620460743163
2.144,0.009273783676677982
2.148,0.00927080264935525
2.152,0.00926911981135048
2.156,0.009266499392171628
2.16,0.009269504460037286
2.164,0.009274432771336964
2.168,0.009278279258205006
2.172,0.009277437839202622
2.176,0.009273254784733627
2.18,0.009265898378598496
2.184,0.009262364418788482
2.188,0.009262845229646988
2.192,0.009266980203030134
2.196,0.009259239148208198
2.2,0.009244886944081815
2.204,0.009251834660987217
2.208,0.00926075370241249
2.212,0.009266379189457002
2.216,0.009268206270719321
2.22,0.009273591352334581
2.224,0.00927121133858498
2.228,0.009269624662751911
2.232,0.009269167892436331
2.236,0.009268687081577827
2.24,0.009272004676501513
2.244,0.009260032486124732
2.248,0.009262051891730454
2.2520000000000002,0.009266475351628702
2.2560000000000002,0.009271379622385455
2.2600000000000002,0.009274144284821862
2.2640000000000002,0.0092732307441907
2.2680000000000002,0.009270562243925997
2.2720000000000002,0.009270610325011848
2.2760000000000002,0.009275658839026153
2.2800000000000002,0.009277437839202622
2.2840000000000003,0.009277437839202622
2.2880000000000003,0.009265345446111215
2.2920000000000003,0.009260657540240788
2.2960000000000003,0.009270586284468923
2.3000000000000003,0.009275178028167647
2.3040000000000003,0.009273086500933149
2.308,0.009274697217309143
2.312,0.00927486550110962
2.316,0.009274432771336964
2.32,0.009277125312144594
2.324,0.009277077231058743
2.328,0.00927125941967083
2.332,0.009265129081224888
2.336,0.009268446676148574
2.34,0.009269624662751911
2.344,0.009270153554696268
2.348,0.009272846095503898
2.352,0.009274673176766217
2.356,0.009276524298571462
2.36,0.009279240879922017
2.364,0.009282871001903732
2.368,0.009279625528608821
2.372,0.009275586717397376
2.376,0.00927445681187989
2.38,0.009273807717220908
2.384,0.009275658839026153
2.388,0.00927354327124873
2.392,0.009271668108900559
2.396,0.009271740230529336
2.4,0.009270922852069876
2.404,0.009268542838320275
2.408,0.009265249283939514
2.412,0.009267364851716937
2.416,0.009268783243749528
2.42,0.009264768473081008
2.424,0.009248252620091353
2.428,0.009252339512388647
2.432,0.009259359350922824
2.436,0.009263734729735223
2.44,0.009266258986742375
2.444,0.00927029779795382
2.448,0.009274096203736011
2.452,0.009276019447170032
2.456,0.009275346311968125
2.46,0.00927537035251105
2.464,0.009274072163193085
2.468,0.009271908514329812
2.472,0.009275995406627107
2.476,0.009274937622738394
2.48,0.009278014812232829
2.484,0.009276356014770986
2.488,0.009275274190339348
2.492,0.009275562676854452
2.496,0.009268687081577827
2.5,0.00926957658166606
2.504,0.009274745298394994
2.508,0.009277413798659697
2.512,0.009275586717397376
2.516,0.009278086933861604
2.52,0.009275153987624723
2.524,0.009268783243749528
2.528,0.0092685668788632
2.532,0.009269504460037286
2.536,0.009267965865290068
2.54,0.009270682446640623
2.544,0.009274985703824245
2.548,0.00927222104138784
2.552,0.0092708507304411
2.556,0.009264311702765428
2.56,0.009253301134105657
2.564,0.009263277959419643
2.568,0.009270321838496744
2.572,0.009271644068357635
2.576,0.009270418000668445
2.58,0.009272100838673214
2.584,0.009271980635958587
2.588,0.009275057825453022
2.592,0.00928044290706828
2.596,0.009281644934214543
2.6,0.009280178461096102
2.604,0.009279385123179568
2.608,0.009278423501462558
2.612,0.009280707353040459
2.616,0.009285731826511838
2.62,0.009287078096915653
2.624,0.009284193231764621
2.628,0.00928587606976939
2.632,0.009285034650767006
2.636,0.009287366583430757
2.64,0.009288809016006271
2.644,0.009282798880274955
2.648,0.009266860000315506
2.652,0.009269744865466539
2.656,0.009278447542005483
2.66,0.009285683745425988
2.664,0.009288424367319468
2.668,0.009287030015829803
2.672,0.009288087799718514
2.676,0.00928861669166287
2.68,0.00928272675864618
2.684,0.009277173393230444
2.688,0.009272076798130288
2.692,0.009259287229294049
2.696,0.009254647404509472
2.7,0.009266307067828225
2.704,0.009292511259616762
2.708,0.009325951654825805
2.712,0.00935881507700464
2.716,0.009383144106445007
2.72,0.009394707607592059
2.724,0.00939307285067314
2.728,0.009380716011609556
2.732,0.009361411455640569
2.736,0.00933643333154122
2.74,0.00931349865359052
2.744,0.009307488517859204
2.748,0.009297776138517394
2.7520000000000002,0.009295420165310719
2.7560000000000002,0.00928907346197845
2.7600000000000002,0.009286092434655717
2.7640000000000002,0.009284361515565099
2.7680000000000002,0.009282558474845704
2.7720000000000002,0.009287655069945859
2.7760000000000002,0.009287438705059532
2.7800000000000002,0.009280659271954608
2.7840000000000003,0.0092618114863012
2.7880000000000003,0.009264528067651757
2.7920000000000003,0.009270466081754296
2.7960000000000003,0.009277846528432351
2.8000000000000003,0.00928049098815413
2.8040000000000003,0.00928080351521216
2.8080000000000003,0.009281067961184337
2.8120000000000003,0.00927344710907703
2.816,0.009270778608812324
2.82,0.009276524298571462
2.824,0.009276307933685135
2.828,0.009274552974051591
2.832,0.009278880271778138
2.836,0.009280683312497533
2.84,0.009280563109782907
2.844,0.009279313001550793
2.848,0.009281909380186722
2.852,0.009283087366790059
2.856,0.009280515028697056
2.86,0.009277990771689903
2.864,0.009280322704353654
2.868,0.009283664339820266
2.872,0.009279288961007867
2.876,0.00928080351521216
2.88,0.00928130836661359
2.884,0.009275298230882275
2.888,0.009275202068710573
2.892,0.009275153987624723
2.896,0.009275706920112004
2.9,0.009270610325011848
2.904,0.00926933617623681
2.908,0.009272293163016617
2.912,0.0092685668788632
2.916,0.009263326040505494
2.92,0.009253926188221715
2.924,0.00926212401335923
2.928,0.009269720824923612
2.932,0.009271067095327427
2.936,0.009275153987624723
2.94,0.00928099583955556
2.944,0.00928181321801502
2.948,0.009278543704177184
2.952,0.009277029149972893
2.956,0.009276356014770986
2.96,0.00927344710907703
2.964,0.009268855365378303
2.968,0.009271980635958587
2.972,0.009271788311615186
2.976,0.009271620027814708
2.98,0.009277173393230444
2.984,0.009279240879922017
2.988,0.009285539502168436
2.992,0.0092846500020802
2.996,0.009280466947611206
3.0,0.009272317203559541
3.004,0.009271620027814708
3.008,0.009260921986212967
3.012,0.00926577817588387
3.016,0.00927299033876145
3.02,0.009280971799012636
3.024,0.009286044353569866
3.028,0.009286717488771775
3.032,0.009283423934391013
3.036,0.00928003421783855
3.04,0.009281092001727262
3.044,0.009284217272307547
3.048,0.009282245947787674
3.052,0.009280082298924401
3.056,0.009285154853481631
3.06,0.009284481718279725
3.064,0.009284024947964145
3.068,0.009284193231764621
3.072,0.009285202934567482
3.076,0.00928404898850707
3.08,0.009287558907774158
3.084,0.009287054056372727
3.088,0.009285683745425988
3.092,0.00928861669166287
3.096,0.009285852029226464
3.1,0.009283664339820266
3.104,0.009285491421082585
3.108,0.009285755867054763
3.112,0.0092846500020802
3.116,0.009283856664163667
3.12,0.009282197866701824
3.124,0.009289169624150152
3.128,0.009288135880804365
3.132,0.009286597286057147
3.136,0.009285395258910884
3.14,0.00928318352896176
3.144,0.009278279258205006
3.148,0.009273759636135057
3.152,0.009279601488065897
3.156,0.009286957894201026
3.16,0.009290203367495937
3.164,0.009287438705059532
3.168,0.009285755867054763
3.172,0.00928729446180198
3.176,0.009287847394289261
3.18,0.009289241745778927
3.184,0.009288929218720899
3.188,0.009282919082989583
3.192,0.009281668974757469
3.196,0.009280659271954608
3.2,0.009278760069063512
3.204,0.009277990771689903
3.208,0.009279313001550793
3.212,0.00928176513692917
3.216,0.00928145260987114
3.22,0.009284529799365575
3.224,0.009289049421435524
3.228,0.009289289826864777
3.232,0.009271547906185933
3.236,0.009268903446464154
3.24,0.009278207136576231
3.244,0.009289049421435524
3.248,0.009295588449111197
3.2520000000000002,0.009295949057255075
3.2560000000000002,0.009293833489477652
3.2600000000000002,0.009291477516270977
3.2640000000000002,0.009293785408391802
3.2680000000000002,0.009295420165310719
3.2720000000000002,0.009296622192456982
3.2760000000000002,0.009284361515565099
3.2800000000000002,0.009274817420023769
3.2840000000000003,0.009284529799365575
3.2880000000000003,0.009292078529844108
3.2920000000000003,0.009290732259440293
3.2960000000000003,0.009291140948670023
3.3000000000000003,0.009293929651649354
3.3040000000000003,0.00929272762450309
3.3080000000000003,0.009291741962243154
3.3120000000000003,0.009288400326776542
3.3160000000000003,0.009287030015829803
3.3200000000000003,0.009282919082989583
3.3240000000000003,0.009279745731323447
3.3280000000000003,0.00928592415085524
3.332,0.009289770637723283
3.336,0.00929145347572805
3.34,0.009292847827217716
3.344,0.009288376286233618
3.348,0.009285443339996735
3.352,0.009283520096562714
3.356,0.009280707353040459
3.36,0.009276572379657313
3.364,0.009270418000668445
3.368,0.009271019014241577
3.372,0.009307368315144577
3.376,0.009346698643370307
3.38,0.009375427092165997
3.384,0.009388384944802715
3.388,0.009392135269499056
3.392,0.009382735417215278
3.396,0.009370017970007813
3.4,0.009346554400112757
3.404,0.009324220735735187
3.408,0.009311887937214526
3.412,0.009296982800600862
3.416,0.009288953259263823
3.42,0.009290708218897367
3.424,0.009291958327129481
3.428,0.009293545002962549
3.432,0.009296093300512627
3.436,0.009294891273366364
3.44,0.009287366583430757
3.444,0.009285707785968912
3.448,0.009290852462154919
3.452,0.009287847394289261
3.456,0.0092821738261589
3.46,0.009284073029049995
3.464,0.009286597286057147
3.468,0.009286212637370344
3.472,0.009285275056196259
3.476,0.00928491444805238
3.48,0.009284505758822649
3.484,0.009283159488418836
3.488,0.009282149785615973
3.492,0.009281789177472095
3.496,0.009282510393759854
3.5,0.009282029582901348
3.504,0.009283472015476864
3.508,0.009285635664340137
3.512,0.00928080351521216
3.516,0.0092799861367527
3.52,0.009281043920641411
3.524,0.009286044353569866
3.528,0.009284073029049995
3.532,0.009281789177472095
3.536,0.009280875636840935
3.54,0.009285755867054763
3.544,0.009282991204618358
3.548,0.009281524731499917
3.552,0.009285539502168436
3.556,0.00928460192099435
3.56,0.009286116475198643
3.564,0.009286957894201026
3.568,0.009289650435008656
3.572,0.00928861669166287
3.576,0.009287005975286877
3.58,0.009286765569857625
3.584,0.009288063759175588
3.588,0.009291766002786079
3.592,0.009275057825453022
3.596,0.009274240446993562
3.6,0.009286717488771775
3.604,0.00929505955716684
3.608,0.00929866563860563
3.612,0.00929729532765889
3.616,0.00929404985436398
3.62,0.009293809448934726
3.624,0.009293256516447445
3.628,0.009294482584136635
3.632,0.009295179759881467
3.636,0.00927638005531391
3.64,0.009271644068357635
3.644,0.00927724551485922
3.648,0.009286621326600073
3.652,0.009290419732382265
3.656,0.009292919948846491
3.66,0.009293761367848876
3.664,0.00929181408387193
3.668,0.009292703583960164
3.672,0.009289722556637433
3.676,0.009287775272660486
3.68,0.009282582515388629
3.684,0.009280587150325832
3.688,0.00928263059647448
3.692,0.009282798880274955
3.696,0.00928181321801502
3.7,0.009283880704706593
3.704,0.009286212637370344
3.708,0.009284938488595304
3.712,0.00928359221819149
3.716,0.00928263059647448
3.72,0.009281620893671618
3.724,0.009274673176766217
3.728,0.009270586284468923
3.732,0.009277413798659697
3.736,0.009280130380010252
3.74,0.009280394825982429
3.744,0.009277678244631875
3.748,0.00927902451503569
3.7520000000000002,0.009279096636664465
3.7560000000000002,0.009278832190692287
3.7600000000000002,0.009277389758116771
3.7640000000000002,0.009275706920112004
3.7680000000000002,0.00926902364917878
3.7720000000000002,0.00925426275582267
3.7760000000000002,0.009260873905127117
3.7800000000000002,0.009270778608812324
3.7840000000000003,0.009273759636135057
3.7880000000000003,0.009275730960654928
3.7920000000000003,0.009270153554696268
3.7960000000000003,0.009271884473786886
3.8000000000000003,0.009276716622914865
3.8040000000000003,0.009275057825453022
3.8080000000000003,0.009275202068710573
3.8120000000000003,0.009271499825100083
3.8160000000000003,0.00926952850058021
3.8200000000000003,0.009272052757587364
3.8240000000000003,0.009269215973522182
3.8280000000000003,0.00926861495994905
3.8320000000000003,0.009266066662398972
3.8360000000000003,0.00926039309426861
3.84,0.009262436540417258
3.844,0.009269240014065108
3.848,0.00926907173026463
3.852,0.009261282594356846
3.856,0.009253709823335388
3.86,0.00923842003803492
3.864,0.00923558325396974
3.868,0.009248901714750336
3.872,0.009255969634370363
3.876,0.00925842176974874
3.88,0.009260465215897386
3.884,0.009262003810644603
3.888,0.009265441608282916
3.892,0.009272749933332197
3.896,0.009273374987448253
3.9,0.009269504460037286
3.904,0.009267821622032517
3.908,0.009266667675972104
3.912,0.009266571513800403
3.916,0.0092707545682694
3.92,0.00927299033876145
3.924,0.009271980635958587
3.928,0.009270321838496744
3.932,0.00926988910872409
3.936,0.009267172527373534
3.94,0.009264479986565906
3.944,0.009267268689545236
3.948,0.00927125941967083
3.952,0.009269215973522182
3.956,0.009272148919759065
3.96,0.009272918217132673
3.964,0.009276187730970508
3.968,0.009278760069063512
3.972,0.009277437839202622
3.976,0.009277798447346502
3.98,0.009274721257852067
3.984,0.009276067528255882
3.988,0.009272918217132673
3.992,0.009266956162487208
3.996,0.009259479553637451
4.0,0.009266403229999927
4.0040000000000004,0.009271620027814708
4.008,0.009275274190339348
4.0120000000000005,0.009277894609518202
4.016,0.009275129947081797
4.0200000000000005,0.009271283460213754
4.024,0.00926084986458419
4.0280000000000005,0.009255609026226483
4.032,0.009258397729205814
4.0360000000000005,0.009269552541123136
4.04,0.009288472448405319
4.0440000000000005,0.00932414861410641
4.048,0.009365185820879836
4.0520000000000005,0.00938297582264453
4.056,0.009381317025182688
4.0600000000000005,0.009374898200221641
4.064,0.009362324996271728
4.0680000000000005,0.009340183656237561
4.072,0.009314171788792427
4.0760000000000005,0.009298016543946647
4.08,0.009288544570034094
4.0840000000000005,0.009270490122297222
4.088,0.009256402364143016
4.0920000000000005,0.0092685668788632
4.096,0.009279337042093718
4.1,0.009278447542005483
4.104,0.009279361082636644
4.108,0.009276957028344118
4.112,0.009274577014594516
4.116,0.009276163690427584
4.12,0.009274697217309143
4.124,0.009268037986918845
4.128,0.009269264054608033
4.132,0.009271187298042055
4.136,0.0092708507304411
4.14,0.009271403662928382
4.144,0.009274144284821862
4.148,0.009271595987271784
4.152,0.009270730527726473
4.156,0.009275250149796424
4.16,0.009278928352863989
4.164,0.009278423501462558
4.168,0.009280370785439505
4.172,0.009274793379480844
4.176,0.009272341244102467
4.18,0.009284722123708978
4.184,0.009291381354099276
4.188,0.009289818718809134
4.192,0.009287126178001504
4.196,0.009281116042270188
4.2,0.009280394825982429
4.204,0.009285683745425988
4.208,0.009285034650767006
4.212,0.00928272675864618
4.216,0.0092822699883306
4.22,0.009268831324835377
4.224,0.009266403229999927
4.228,0.009274721257852067
4.232,0.009280226542181953
4.236,0.00928267867756033
4.24,0.00928409706959292
4.244,0.009282967164075433
4.248,0.009282871001903732
4.252,0.009280346744896579
4.256,0.009286092434655717
4.26,0.009284938488595304
4.264,0.009277485920288472
4.268,0.009281596853128692
4.272,0.009287198299630279
4.276,0.00928323161004761
4.28,0.009287727191574635
4.284,0.009296958760057936
4.288,0.009296189462684328
4.292,0.009292294894730435
4.296,0.009291717921700228
4.3,0.009295732692368748
4.304,0.009298641598062705
4.308,0.00929734340874474
4.312,0.009295492286939495
4.316,0.00929505955716684
4.32,0.009295660570739972
4.324,0.009297944422317872
4.328,0.009300685044211351
4.332,0.009296574111371131
4.336,0.009282871001903732
4.34,0.009286068394112793
4.344,0.009292487219073838
4.348,0.00929582885454045
4.352,0.009296982800600862
4.356,0.009294506624679559
4.36,0.00929679047625746
4.364,0.009292487219073838
4.368,0.009294386421964933
4.372,0.009293448840790848
4.376,0.00929145347572805
4.38,0.009290251448581787
4.384,0.00929241509744506
4.388,0.009294338340879083
4.392,0.009293424800247923
4.396,0.009291766002786079
4.4,0.009286525164428372
4.404,0.009281548772042842
4.408,0.009285731826511838
4.412,0.009291501556813901
4.416,0.009292703583960164
4.42,0.009290852462154919
4.424,0.009286885772572251
4.428,0.009288736894377496
4.432,0.009290684178354443
4.436,0.009287919515918038
4.44,0.009287510826688307
4.444,0.00928368838036319
4.448,0.009273110541476075
4.452,0.009277918650061128
4.456,0.009289217705236002
4.46,0.009298184827747125
4.464,0.009297631895259844
4.468,0.009295179759881467
4.472,0.009298593516976855
4.476,0.009297944422317872
4.48,0.009297607854716918
4.484,0.009295756732911673
4.488,0.00929679047625746
4.492,0.009296622192456982
4.496,0.009297944422317872
4.5,0.009299242611635837
4.5040000000000004,0.009297992503403723
4.508,0.00929770401688862
4.5120000000000005,0.009297896341232022
4.516,0.009299290692721687
4.5200000000000005,0.009304940220309123
4.524,0.009302199598415644
4.5280000000000005,0.009301430301042034
4.532,0.009301959192986391
4.5360000000000005,0.00930039655769625
4.54,0.009298930084577807
4.5440000000000005,0.009294987435538065
4.548,0.009294458543593708
4.5520000000000005,0.009296237543770179
4.556,0.009296622192456982
4.5600000000000005,0.009295780773454599
4.564,0.009300324436067472
4.5680000000000005,0.009304868098680348
4.572,0.009308305896318663
4.5760000000000005,0.009304699814879872
4.58,0.00929455470576541
4.5840000000000005,0.0092845538399085
4.588,0.009290612056725666
4.5920000000000005,0.009298497354805153
4.596,0.009306767301571445
4.6000000000000005,0.00930638265288464
4.604,0.009302127476786867
4.6080000000000005,0.009301790909185915
4.612,0.009301983233529315
4.616,0.00930582972039736
4.62,0.009308257815232812
4.624,0.00930760872057383
4.628,0.00930619032854124
4.632,0.009303906476963338
4.636,0.009305252747367153
4.64,0.009310060855952207
4.644,0.009316095032226447
4.648,0.009312056221015004
4.652,0.009310060855952207
4.656,0.009315614221367943
4.66,0.009313474613047594
4.664,0.009312200464272556
4.668,0.009315037248337736
4.672,0.009312537031873508
4.676,0.00931491704562311
4.68,0.009315854626797196
4.684,0.00931729705937271
4.688,0.009314989167251885
4.692,0.009305589314968108
4.696,0.009298857962949032
4.7,0.009305324868995928
4.704,0.009306935585371922
4.708,0.009302031314615166
4.712,0.009296453908656506
4.716,0.009284433637193874
4.72,0.009288929218720899
4.724,0.009306166287998314
4.728,0.009335423628738359
4.732,0.009369657361863935
4.736,0.009399082986404456
4.74,0.009414613177134178
4.744,0.00941795481260079
4.748,0.00941302650130111
4.752,0.009401895729926711
4.756,0.009381893998212893
4.76,0.009355353238823402
4.764,0.009337322831629455
4.768,0.009324172654649337
4.772,0.009306070125826613
4.776,0.009303906476963338
4.78,0.009311743693956974
4.784,0.009310325301924384
4.788,0.009309315599121524
4.792,0.009310277220838534
4.796,0.009325038114194646
4.8,0.009334870696251078
4.804,0.009327850857716901
4.808,0.00931272935621691
4.812,0.009317056653943459
4.816,0.009322201330129464
4.82,0.009325086195280496
4.824,0.009326312262969684
4.828,0.009324677506050767
4.832,0.009326143979169208
4.836,0.009329677938979222
4.84,0.009330807844496709
4.844,0.009330807844496709
4.848,0.00932720176305792
4.852,0.009319653032579386
4.856,0.009320133843437892
4.86,0.009328019141517378
4.864,0.009331144412097663
4.868,0.009330278952552354
4.872,0.009323042749131849
4.876,0.009323259114018176
4.88,0.009326192060255058
4.884,0.00933044723635283
4.888,0.009332154114900524
4.892,0.009324797708765393
4.896,0.009321095465154902
4.9,0.009320013640723266
4.904,0.009318378883804348
4.908,0.009318883735205778
4.912,0.009319556870407685
4.916,0.009317898072945842
4.92,0.009321095465154902
4.924,0.009323331235646952
4.928,0.009322898505874297
4.932,0.009316359478198626
4.936,0.009310637828982412
4.94,0.009305276787910077
4.944,0.009303858395877487
4.948,0.009308834788263018
4.952,0.00931857120814775
4.956,0.009323042749131849
4.96,0.009322105167957763
4.964,0.00931085419386874
4.968,0.009316143113312298
4.972,0.009321816681442661
4.976,0.009322465776101643
4.98,0.009322393654472867
4.984,0.009321432032755856
4.988,0.00931902797846333
4.992,0.009323066789674775
4.996,0.009329341371378268
5.0,0.00932943753354997
5.0040000000000004,0.009320013640723266
5.008,0.009321335870584155
5.0120000000000005,0.00932821146586078
5.016,0.009328596114547585
5.0200000000000005,0.009326119938626283
5.024,0.009323980330305934
5.0280000000000005,0.00932511023582342
5.032,0.00932587953319703
5.0360000000000005,0.009323667803247906
5.04,0.00932410053302056
5.0440000000000005,0.00932359568161913
5.048,0.009323331235646952
5.0520000000000005,0.009312657234588136
5.056,0.009305517193339332
5.0600000000000005,0.009315445937567465
5.064,0.009323235073475251
5.0680000000000005,0.009323475478904504
5.072,0.009320975262440277
5.0760000000000005,0.009319148181177956
5.08,0.009326528627856013
5.0840000000000005,0.009325302560166823
5.088,0.009326624790027714
5.0920000000000005,0.00932684115491404
5.096,0.00932364376270498
5.1000000000000005,0.009323956289763008
5.104,0.00932866823617636
5.1080000000000005,0.009327394087401322
5.112,0.009328764398348061
5.1160000000000005,0.009328956722691463
5.12,0.009323331235646952
5.124,0.009324292857363962
5.128,0.009325999735911656
5.132,0.00932825954694663
5.136,0.009325230438538048
5.14,0.009322537897730418
5.144,0.009324413060078588
5.148,0.00932506215473757
5.152,0.00932780277663105
5.156,0.009328812479433912
5.16,0.009326119938626283
5.164,0.009313282288704192
5.168,0.009302464044387821
5.172,0.009310733991154114
5.176,0.009323427397818653
5.18,0.00932770661445935
5.184,0.009326576708941863
5.188,0.009321936884157287
5.192,0.009320302127238368
5.196,0.009320782938096874
5.2,0.009328235506403706
5.204,0.009332322398701
5.208,0.009330086628208951
5.212,0.009328908641605613
5.216,0.0093300385471231
5.22,0.009332923412274131
5.224,0.009325542965596076
5.228,0.00932222537067239
5.232,0.00932217728958654
5.236,0.009323956289763008
5.24,0.009328764398348061
5.244,0.009330783803953784
5.248,0.009330302993095278
5.252,0.009333836952905293
5.256,0.009328956722691463
5.26,0.009329365411921193
5.264,0.00932679307382819
5.268,0.0093277546955452
5.272,0.009326937317085742
5.276,0.009323042749131849
5.28,0.009322585978816269
5.284,0.00932176860035681
5.288,0.009322658100445044
5.292,0.009321624357099259
5.296,0.009322922546417223
5.3,0.009318499086518973
5.304,0.009322417695015793
5.308,0.009329918344408474
5.312,0.00933186562838542
5.316,0.009333067655531683
5.32,0.009332971493359982
5.324,0.009333163817703384
5.328,0.009333404223132637
5.332,0.009331673304042018
5.336,0.00933136077698399
5.34,0.00933405331779162
5.344,0.009335038980051556
5.348,0.00933633716936952
5.352,0.009334846655708154
5.356,0.009335495750367136
5.36,0.009335615953081761
5.364,0.00933496685842278
5.368,0.009331312695898139
5.372,0.009335736155796389
5.376,0.009332057952728822
5.38,0.009333163817703384
5.384,0.009337635358687483
5.388,0.00933674585859925
5.392,0.009333163817703384
5.396,0.009331553101327392
5.4,0.009327826817173977
5.404,0.009324244776278112
5.408,0.009324581343879066
5.412,0.009320013640723266
5.416,0.009319124140635031
5.42,0.009315614221367943
5.424,0.009325927614282881
5.428,0.009331072290468886
5.432,0.00932222537067239
5.436,0.009310445504639012
5.44,0.009308882869348868
5.444,0.009302944855246327
5.448,0.009359151644605594
5.452,0.009423099488786795
5.456,0.00943276378704275
5.46,0.009448245896686622
5.464,0.009451130761837652
5.468,0.009424277475390134
5.472,0.009418796231603174
5.476,0.009400357135179496
5.48,0.009376364673340083
5.484,0.009346265913597654
5.488,0.00932049445158177
5.492,0.009346915008256636
5.496,0.009361243171840092
5.5,0.009350280684266172
5.5040000000000004,0.009332755128473655
5.508,0.009343381048446621
5.5120000000000005,0.009342948318673968
5.516,0.00935379060353326
5.5200000000000005,0.009350208562637395
5.524,0.009329677938979222
5.5280000000000005,0.009321047384069052
5.532,0.009329557736264595
5.5360000000000005,0.00933186562838542
5.54,0.009345111967537241
5.5440000000000005,0.009351242305983182
5.548,0.00933922203452055
5.5520000000000005,0.009337779601945035
5.556,0.009336000601768566
5.5600000000000005,0.00933496685842278
5.564,0.009332081993271749
5.5680000000000005,0.009331745425670794
5.572,0.009366147442596846
5.5760000000000005,0.009361603779983971
5.58,0.009349871995036443
5.5840000000000005,0.00933922203452055
5.588,0.009348309359746301
5.5920000000000005,0.009361291252925943
5.596,0.00934693904879956
5.6000000000000005,0.00929775209797447
5.604,0.00933410139887747
5.6080000000000005,0.0093734317271032
5.612,0.009345905305453775
5.6160000000000005,0.009354848387421972
5.62,0.009340880831982394
5.6240000000000006,0.009355810009138982
5.628,0.009356411022712114
5.632,0.009358334266146136
5.636,0.009352300089871894
5.64,0.009345352372966494
5.644,0.00936694078051338
5.648,0.009364464604592077
5.652,0.009345496616224044
5.656,0.009336000601768566
5.66,0.009306118206912463
5.664,0.009293496921876698
5.668,0.009377831146458524
5.672,0.00937023433489414
5.676,0.009349920076122294
5.68,0.009322129208500689
5.684,0.009313354410332968
5.688,0.009347179454228813
5.692,0.009370787267381421
5.696,0.009345592778395745
5.7,0.00934862188680433
5.704,0.009345664900024522
5.708,0.009346794805542008
5.712,0.009342635791615938
5.716,0.00935328575213183
5.72,0.009357060117371096
5.724,0.009332658966301954
5.728,0.009348862292233582
5.732,0.00935648314434089
5.736,0.00934424650799193
5.74,0.009344943683736763
5.744,0.009373912537961706
5.748,0.00936145953672642
5.752,0.009342611751073013
5.756,0.009339774967007832
5.76,0.009363983793733573
5.764,0.009371484443126254
5.768,0.009380427525094453
5.772,0.009362300955728804
5.776,0.009323667803247906
5.78,0.009331288655355215
5.784,0.009375379011080147
5.788,0.009387928174487135
5.792,0.009364849253278882
5.796,0.009348838251690656
5.8,0.009352756860187474
5.804,0.009363623185589693
5.808,0.00938201420092752
5.812,0.009375835781395727
5.816,0.009373071118959322
5.82,0.009387832012315434
5.824,0.009382302687442622
5.828,0.009376316592254233
5.832,0.009372806672987144
5.836,0.009382567133414801
5.84,0.009380764092695407
5.844,0.009373287483845649
5.848,0.009359416090577772
5.852,0.009367613915715287
5.856,0.009379033173604787
5.86,0.009359993063607979
5.864,0.009347371778572216
5.868,0.009373984659590481
5.872,0.009360930644782064
5.876,0.009364560766763778
5.88,0.00935333383321768
5.884,0.009356555265969665
5.888,0.009350304724809097
5.892,0.009393241134473618
5.896,0.0093916063775547
5.9,0.009374609713706539
5.904,0.009379369741205741
5.908,0.009381629552240716
5.912,0.009379369741205741
5.916,0.009381533390069014
5.92,0.009380716011609556
5.924,0.009364825212735956
5.928,0.009364079955905272
5.932,0.009402592905671544
5.936,0.009385115430964878
5.94,0.009379562065549144
5.944,0.009369344834805907
5.948,0.009397736716000641
5.952,0.009386365539196992
5.956,0.009384249971419569
5.96,0.009388264742088087
5.964,0.009376004065196205
5.968,0.009368455334717671
5.972,0.009372061416156461
5.976,0.009370787267381421
5.98,0.00938562028236631
5.984,0.009374104862305109
5.988,0.009375691538138175
5.992,0.009403242000330526
5.996,0.009393193053387767
6.0,0.009377326295057093
6.0040000000000004,0.009376508916597635
6.008,0.009389154242176323
6.0120000000000005,0.009384706741735149
6.016,0.009381485308983164
6.0200000000000005,0.009356555265969665
6.024,0.009379802470978395
6.0280000000000005,0.00939114960723912
6.032,0.009377398416685868
6.0360000000000005,0.009379297619576964
6.04,0.009387303120371077
6.0440000000000005,0.009391991026241504
6.048,0.009386846350055498
6.0520000000000005,0.009374032740676332
6.056,0.009384899066078551
6.0600000000000005,0.009390308188236735
6.064,0.009386101093224814
6.0680000000000005,0.009377230132885392
6.072,0.009383600876760587
6.0760000000000005,0.009400741783866299
6.08,0.00938557220128046
6.0840000000000005,0.009387663728514956
6.088,0.009383624917303513
6.0920000000000005,0.009379562065549144
6.096,0.009377999430259
6.1000000000000005,0.009388384944802715
6.104,0.00940160724341161
6.1080000000000005,0.009386966552770123
6.112,0.00939165445864055
6.1160000000000005,0.009384682701192224
6.12,0.009385187552593655
6.1240000000000006,0.009379586106092068
6.128,0.009406054743852784
6.132000000000001,0.009370618983580945
6.136,0.009377759024829749
6.140000000000001,0.009396318323968051
6.144,0.009392784364158038
6.148,0.009379009133061863
6.152,0.009396630851026079
6.156,0.009388865755661219
6.16,0.009391991026241504
6.164,0.009381004498124658
6.168,0.009355088792851225
6.172,0.009351771197927539
6.176,0.009355233036108777
6.18,0.009387110796027675
6.184,0.009422185948155635
6.188,0.009452549153870242
6.192,0.009490148563005354
6.196,0.00950159186143778
6.2,0.009500245591033966
6.204,0.009483873981301861
6.208,0.009483417210986281
6.212,0.009459136262631765
6.216,0.009426128597195379
6.22,0.009421128164266924
6.224,0.009392832445243889
6.228,0.009381365106268538
6.232,0.009402881392186648
6.236,0.00937831195731703
6.24,0.009362349036814654
6.244,0.009369921807836112
6.248,0.009389346566519725
6.252,0.009390212026065034
6.256,0.009354680103621496
6.26,0.009381172781925136
6.264,0.0093892263638051
6.268,0.009365594510109565
6.272,0.009356771630855994
6.276,0.009362349036814654
6.28,0.009388529188060267
6.284,0.00938292774155868
6.288,0.00937754265994342
6.292,0.009378167714059478
6.296,0.009390332228779661
6.3,0.009388168579916386
6.304,0.009382086322556295
6.308,0.009395236499536415
6.312,0.009385283714765356
6.316,0.009384081687619093
6.32,0.009379562065549144
6.324,0.009379994795321797
6.328,0.009387279079828153
6.332,0.009381028538667584
6.336,0.009379201457405263
6.34,0.009374273146105585
6.344,0.009367998564402092
6.348,0.009371893132355983
6.352,0.0093733355649315
6.356,0.009371748889098433
6.36,0.009373960619047557
6.364,0.009372349902671565
6.368,0.009368984226662026
6.372,0.009367613915715287
6.376,0.009360666198809885
6.38,0.009341433764469675
6.384,0.00935958437437825
6.388,0.009368070686030867
6.392,0.009359007401348042
6.396,0.009373624051446603
6.4,0.009367830280601614
6.404,0.009364825212735956
6.408,0.009360065185236754
6.412,0.009366027239882219
6.416,0.009375523254337699
6.42,0.009369056348290803
6.424,0.009363647226132619
6.428,0.009355954252396534
6.432,0.009360449833923559
6.436,0.009375523254337699
6.44,0.009372710510815443
6.444,0.009367830280601614
6.448,0.009367205226485558
6.452,0.00936922463209128
6.456,0.009369945848379038
6.46,0.009372061416156461
6.464,0.009372061416156461
6.468,0.00936739755082896
6.472,0.009367493713000661
6.476,0.009377230132885392
6.48,0.009385379876937057
6.484,0.009385427958022908
6.488,0.009378672565460908
6.492,0.00936379146939017
6.496,0.009367325429200183
6.5,0.009372950916244696
6.5040000000000004,0.009370258375437066
6.508,0.009361748023241523
6.5120000000000005,0.009356915874113544
6.516,0.009366748456169978
6.5200000000000005,0.009376653159855185
6.524,0.009370835348467272
6.5280000000000005,0.009369489078063457
6.532,0.009374946281307492
6.5360000000000005,0.009375306889451372
6.54,0.00937434526773436
6.5440000000000005,0.009378023470801926
6.548,0.009377566700486346
6.5520000000000005,0.009379345700662815
6.556,0.009378912970890161
6.5600000000000005,0.009379658227720843
6.564,0.009379465903377442
6.5680000000000005,0.009378408119488731
6.572,0.009375715578681101
6.5760000000000005,0.009377831146458524
6.58,0.009379850552064245
6.5840000000000005,0.009378095592430701
6.588,0.009378672565460908
6.5920000000000005,0.009376701240941036
6.596,0.009377158011256617
6.6000000000000005,0.00937420102447681
6.604,0.00937073918629557
6.6080000000000005,0.009376749322026886
6.612,0.009379033173604787
6.6160000000000005,0.00938653382299747
6.62,0.009388216661002237
6.6240000000000006,0.009377398416685868
6.628,0.009375403051623073
6.632000000000001,0.009384658660649298
6.636,0.009385980890510189
6.640000000000001,0.009378191754602402
6.644,0.009373600010903678
6.648000000000001,0.00937064302412387
6.652,0.009376028105739129
6.656000000000001,0.009384658660649298
6.66,0.009385043309336103
6.664,0.009386413620282842
6.668,0.009377158011256617
6.672,0.009360017104150903
6.676,0.009368647659061074
6.68,0.009376556997683486
6.684,0.009376869524741514
6.688,0.009378912970890161
6.692,0.009374898200221641
6.696,0.009383648957846437
6.7,0.00938992353954993
6.704,0.00938653382299747
6.708,0.009388793634032444
6.712,0.009389899499007006
6.716,0.009392015066784429
6.72,0.009393794066960899
6.724,0.009393000729044365
6.728,0.009390548593665988
6.732,0.00939434699944818
6.736,0.009392976688501439
6.74,0.009390813039638166
6.744,0.009389971620635781
6.748,0.009390572634208913
6.752,0.009387663728514956
6.756,0.009385500079651683
6.76,0.00938708675548475
6.764,0.009389490809777277
6.768,0.009383817241646915
6.772,0.009379898633150096
6.776,0.009382326727985548
6.78,0.009379249538491114
6.784,0.009371580605297955
6.788,0.009382807538844053
6.792,0.009386509782454543
6.796,0.009390380309865512
6.8,0.009391341931582522
6.804,0.00939119768832497
6.808,0.009393553661531646
6.812,0.009396486607768527
6.816,0.009396510648311453
6.82,0.009392423756014158
6.824,0.009391438093754223
6.828,0.00939074091800939
6.832,0.00939348153990287
6.836,0.009392808404700963
6.84,0.009395981756367097
6.844,0.009397977121429894
6.848,0.009391942945155654
6.852,0.009394419121076955
6.856,0.009400429256808271
6.86,0.009395380742793965
6.864,0.009390668796380614
6.868,0.009390620715294763
6.872,0.009393505580445796
6.876,0.009398121364687446
6.88,0.009400188851379018
6.884,0.00940480463562067
6.888,0.00940252078404277
6.892,0.009393289215559469
6.896,0.00938165359278364
6.9,0.009387807971772508
6.904,0.009386461701368693
6.908,0.009382759457758202
6.912,0.009378384078945805
6.916,0.00937388849741878
6.92,0.009377999430259
6.924,0.009400741783866299
6.928,0.009437860382142907
6.932,0.009474930899333663
6.936,0.009500341753205667
6.94,0.009505871078078479
6.944,0.009506231686222357
6.948,0.009502529442611868
6.952,0.009489860076490251
6.956,0.009464809830762127
6.96,0.009435792895451335
6.964,0.009420983921009372
6.968,0.009411487906553894
6.972,0.009409180014433069
6.976,0.00940475655453482
6.98,0.009402665027300321
6.984,0.009399082986404456
6.988,0.009400020567578542
6.992,0.009399515716177111
6.996,0.00939622216179635
7.0,0.009396125999624649
7.0040000000000004,0.009396101959081724
7.008,0.009384899066078551
7.0120000000000005,0.009386461701368693
7.016,0.009386702106797946
7.0200000000000005,0.009388336863716864
7.024,0.009391125566696194
7.0280000000000005,0.009398722378260577
7.032,0.009400212891921944
7.0360000000000005,0.009401270675810655
7.04,0.009404540189648493
7.0440000000000005,0.009406655757425915
7.048,0.009404684432906044
7.0520000000000005,0.009399756121606364
7.056,0.009399635918891737
7.0600000000000005,0.00939946763509126
7.064,0.009395669229309069
7.0680000000000005,0.009394226796733553
7.072,0.009395693269851995
7.0760000000000005,0.009390933242352793
7.08,0.00938977929629238
7.0840000000000005,0.009396101959081724
7.088,0.00939703954025581
7.0920000000000005,0.009400068648664392
7.096,0.009402039973184263
7.1000000000000005,0.009400573500065823
7.104,0.00939886662151813
7.1080000000000005,0.009396630851026079
7.112,0.009396702972654856
7.1160000000000005,0.009393625783160421
7.12,0.009378937011433086
7.1240000000000006,0.009384490376848822
7.128,0.009398986824232755
7.132000000000001,0.009403650689560257
7.136,0.00940088602712385
7.140000000000001,0.00939475568867791
7.144,0.009393794066960899
7.148000000000001,0.009393505580445796
7.152,0.009396582769940228
7.156000000000001,0.009404444027476791
7.16,0.009408098190001431
7.164000000000001,0.00940612686548156
7.168,0.009408771325203338
7.172,0.009413314987816213
7.176,0.009412377406642128
7.18,0.009408819406289189
7.184,0.009407256770999047
7.188,0.009409131933347218
7.192,0.009415021866363907
7.196,0.009413218825644512
7.2,0.009415935406995066
7.204,0.009420503110150868
7.208,0.009414084285189821
7.212,0.00940627110873911
7.216,0.00940704040611272
7.22,0.009409348298233545
7.224,0.009410814771351986
7.228,0.009408434757602386
7.232,0.009401631283954534
7.236,0.00941069456863736
7.24,0.009419661691148483
7.244,0.009426873854026062
7.248,0.009429902962434645
7.252,0.009424277475390134
7.256,0.009418988555946575
7.26,0.00942211382652686
7.264,0.0094234841374736
7.268,0.00942495061059204
7.272,0.00942490252950619
7.276,0.009420430988522091
7.28,0.009420527150693792
7.284,0.009422690799557066
7.288,0.009428172043344027
7.292,0.009431032867952133
7.296,0.009429975084063421
7.3,0.009423796664531628
7.304,0.009425527583622247
7.308,0.009430888624694581
7.312,0.009429854881348794
7.316,0.009429518313747842
7.32,0.009423676461817002
7.324,0.00941942128571923
7.328,0.009432162773469619
7.332,0.009438124828115084
7.336,0.00943444662504752
7.34,0.009433364800615882
7.344,0.00943084054360873
7.348,0.00943865372005944
7.352,0.009443269504301091
7.356,0.009445938004565795
7.36,0.009445120626106336
7.364,0.009437403611827327
7.368,0.009425479502536397
7.372,0.009433869652017313
7.376,0.009437163206398074
7.38,0.009438293111915562
7.384,0.009441033733809043
7.388,0.00943586501708011
7.392,0.00943814886865801
7.396,0.009446298612709675
7.4,0.009446226491080898
7.404,0.009441851112268501
7.408,0.009440937571637342
7.412,0.009441851112268501
7.416,0.009444519612533205
7.42,0.009446466896510151
7.424,0.009445938004565795
7.428,0.009444880220677083
7.432,0.009440937571637342
7.436,0.009438894125488694
7.44,0.009444880220677083
7.444,0.009450794194236698
7.448,0.009451683694324933
7.452,0.00945144328889568
7.456,0.00943536016567868
7.46,0.009429446192119065
7.464,0.009442187679869455
7.468,0.009449135396774855
7.472,0.009450842275322549
7.476,0.009444231126018101
7.48,0.009443702234073746
7.484,0.009444567693619055
7.488,0.009442452125841633
7.492,0.009445120626106336
7.496,0.00944363011244497
7.5,0.009437451692913178
7.5040000000000004,0.009436009260337662
7.508,0.009437668057799505
7.5120000000000005,0.009435336125135755
7.516,0.009434662989933847
7.5200000000000005,0.009431778124782816
7.524,0.009429806800262943
7.5280000000000005,0.009433052273557854
7.532,0.009438509476801889
7.5360000000000005,0.009439254733632572
7.54,0.009442283842041155
7.5440000000000005,0.009438629679516516
7.548,0.009433725408759763
7.5520000000000005,0.00943540824676453
7.556,0.009437307449655626
7.5600000000000005,0.00943759593617073
7.564,0.009428724975831308
7.5680000000000005,0.009419084718118276
7.572,0.009427258502712865
7.5760000000000005,0.00943495147644895
7.58,0.009437235328026851
7.5840000000000005,0.00943814886865801
7.588,0.009436129463052289
7.5920000000000005,0.00943221085455547
7.596,0.009435047638620651
7.6000000000000005,0.009433821570931464
7.604,0.009431129030123834
7.6080000000000005,0.009431850246411591
7.612,0.009420815637208896
7.6160000000000005,0.009414132366275672
7.62,0.009421753218382982
7.6240000000000006,0.009422354231956113
7.628,0.009423748583445777
7.632000000000001,0.009423147569872645
7.636,0.00942495061059204
7.640000000000001,0.009427763354114297
7.644,0.009427354664884566
7.648000000000001,0.009429277908318589
7.652,0.00942759507031382
7.656000000000001,0.009416921069255003
7.66,0.009416296015138947
7.664000000000001,0.009415550758308263
7.668,0.009408026068372655
7.672000000000001,0.009399082986404456
7.676,0.009403554527388556
7.68,0.009411295582210492
7.684,0.009439374936347198
7.688,0.009478176372628573
7.692,0.009506351888936984
7.696,0.009523156228441743
7.7,0.009522555214868611
7.704,0.009501832266867032
7.708,0.009497769415112663
7.712,0.009483176805557028
7.716,0.009462501938641302
7.72,0.00945170773486786
7.724,0.009435215922421128
7.728,0.009419902096577736
7.732,0.009416055609709694
7.736,0.009413507312159616
7.74,0.009407929906200955
7.744,0.009412185082298727
7.748,0.009410478203751032
7.752,0.009403650689560257
7.756,0.009406295149282037
7.76,0.009410333960493482
7.764,0.009414613177134178
7.768,0.009412449528270904
7.772,0.00940115047309603
7.776,0.00940256886512862
7.78,0.009406006662766933
7.784,0.009402761189472022
7.788,0.009402472702956919
7.792,0.009405958581681082
7.796,0.00940754525751415
7.8,0.009406487473625439
7.804,0.009404251703133389
7.808,0.00939800116197282
7.812,0.009396823175369481
7.816,0.009383504714588885
7.82,0.009384322093048346
7.824,0.009382903701015754
7.828,0.009382446930700174
7.832,0.009384538457934672
7.836,0.009375811740852802
7.84,0.009371075753896525
7.844,0.009382903701015754
7.848,0.009383745120018138
7.852,0.00938571644453801
7.856,0.009387807971772508
7.86,0.009384754822821
7.864,0.009383288349702559
7.868,0.009376388713883008
7.872,0.009368912105033251
7.876,0.009364849253278882
7.88,0.009360161347408455
7.884,0.009356362941626263
7.888,0.009362204793557103
7.892,0.009364729050564255
7.896,0.009364873293821806
7.9,0.009361219131297166
7.904,0.009358141941802733
7.908,0.009363214496359963
7.912,0.009369176551005429
7.916,0.009365810874995892
7.92,0.009365017537079358
7.924,0.009359416090577772
7.928,0.009345136008080165
7.932,0.009353838684619111
7.936,0.009359392050034847
7.94,0.009358791036461716
7.944,0.009360257509580156
7.948,0.009357156279542797
7.952,0.009347299656943439
7.956,0.009354992630679524
7.96,0.009356050414568235
7.964,0.009345544697309895
7.968,0.00934698712988541
7.972,0.009350256643723246
7.976,0.009351434630326585
7.98,0.009352348170957744
7.984,0.009352155846614342
7.988,0.009352444333129446
7.992,0.009350280684266172
7.996,0.009348068954317048
8.0,0.009350016238293995
8.004,0.009350665332952977
8.008000000000001,0.009345833183824998
8.012,0.009343645494418799
8.016,0.00933989516972246
8.02,0.009339510521035654
8.024000000000001,0.00934008749406586
8.028,0.009337995966831363
8.032,0.009331168452640587
8.036,0.009328932682148539
8.040000000000001,0.00932455730333614
8.044,0.00932511023582342
8.048,0.00933318785824631
8.052,0.009329413493007043
8.056000000000001,0.009325158316909271
8.06,0.009323691843790831
8.064,0.009321816681442661
8.068,0.009318835654119928
8.072000000000001,0.00931724897828686
8.076,0.009319701113665237
8.08,0.009320662735382249
8.084,0.00931583058625427
8.088000000000001,0.00931369097793392
8.092,0.009316263316026925
8.096,0.009317729789145366
8.1,0.009316215234941074
8.104000000000001,0.009313931383363174
8.108,0.009303617990448234
8.112,0.00930364203099116
8.116,0.009306406693427567
8.120000000000001,0.00931318612653249
8.124,0.00931537381593869
8.128,0.009314508356393381
8.132,0.009302920814703401
8.136000000000001,0.009307392355687503
8.14,0.009317777870231216
8.144,0.009323691843790831
8.148,0.009322898505874297
8.152000000000001,0.009313282288704192
8.156,0.00931537381593869
8.16,0.009319653032579386
8.164,0.009321624357099259
8.168000000000001,0.009317825951317067
8.172,0.009309387720750299
8.176,0.009302944855246327
8.18,0.00930989257215173
8.184000000000001,0.009315013207794811
8.188,0.009318811613577003
8.192,0.009320662735382249
8.196,0.00930806549088941
8.2,0.009301790909185915
8.204,0.009307127909715324
8.208,0.009308041450346485
8.212,0.009306286490712941
8.216,0.00930287273361755
8.22,0.00930049271986795
8.224,0.009305949923111987
8.228,0.009305156585195451
8.232,0.009301694747014214
8.236,0.009301141814526933
8.24,0.009299314733264612
8.244,0.009295997138340926
8.248,0.009304267085107216
8.252,0.009311022477669217
8.256,0.009310926315497516
8.26,0.009308281855775737
8.264,0.009300588882039652
8.268,0.009299579179236789
8.272,0.009303954558049188
8.276,0.009306743261028521
8.28,0.009302560206559523
8.284,0.00929231893527336
8.288,0.009278303298747933
8.292,0.009285251015653332
8.296,0.009297078962772562
8.3,0.009300276354981622
8.304,0.009299050287292434
8.308,0.00929409793544983
8.312,0.009292246813644585
8.316,0.009295444205853645
8.32,0.009297415530373516
8.324,0.009294314300336157
8.328,0.009289722556637433
8.332,0.009289722556637433
8.336,0.009294674908480035
8.34,0.009299603219779715
8.344,0.009293328638076222
8.348,0.009290612056725666
8.352,0.009286116475198643
8.356,0.009286212637370344
8.36,0.009290612056725666
8.364,0.009290083164781311
8.368,0.009288376286233618
8.372,0.009293064192104043
8.376,0.009287727191574635
8.38,0.009286645367142998
8.384,0.009290804381069068
8.388,0.00928897729980675
8.392,0.009288736894377496
8.396,0.009285130812938707
8.4,0.009285082731852856
8.404,0.009292126610929959
8.408,0.009292054489301182
8.412,0.009287366583430757
8.416,0.009286957894201026
8.42,0.009275105906538872
8.424,0.009254623363966548
8.428,0.00925815732377656
8.432,0.009263326040505494
8.436,0.009274360649708189
8.44,0.009307055788086549
8.444,0.00933547170982421
8.448,0.009363983793733573
8.452,0.009390885161266942
8.456,0.009400669662237524
8.46,0.009397472270028464
8.464,0.009384274011962495
8.468,0.009359920941979202
8.472,0.00933309169607461
8.476,0.009310782072239964
8.48,0.00930287273361755
8.484,0.009299819584666042
8.488,0.009294170057078605
8.492,0.009286645367142998
8.496,0.009286044353569866
8.5,0.009285635664340137
8.504,0.00928948215120818
8.508000000000001,0.009285611623797213
8.512,0.009284433637193874
8.516,0.009285034650767006
8.52,0.009288929218720899
8.524000000000001,0.009287775272660486
8.528,0.009284698083166051
8.532,0.0092776061230031
8.536,0.009263566445934745
8.540000000000001,0.009269816987095314
8.544,0.009274552974051591
8.548,0.009275995406627107
8.552,0.00927582712282663
8.556000000000001,0.009273110541476075
8.56,0.00927400004156431
8.564,0.009276067528255882
8.568,0.009275562676854452
8.572000000000001,0.0092799861367527
8.576,0.009279385123179568
8.58,0.009275730960654928
8.584,0.009274480852422815
8.588000000000001,0.009276235812056359
8.592,0.0092754184335969
8.596,0.00927222104138784
8.6,0.00926582625696972
8.604000000000001,0.009263614527020595
8.608,0.009268687081577827
8.612,0.009270369919582595
8.616,0.009271379622385455
8.620000000000001,0.009269913149267015
8.624,0.009259287229294049
8.628,0.00925979208069548
8.632,0.009257363985860028
8.636000000000001,0.00925861409409214
8.64,0.00926157108087195
8.644,0.009254118512565117
8.648,0.009241857835673233
8.652000000000001,0.009246714025344136
8.656,0.009253156890848107
8.66,0.00926075370241249
8.664,0.009262773108018213
8.668000000000001,0.009257484188574654
8.672,0.009255945593827437
8.676,0.009254911850481651
8.68,0.009254094472022191
8.684000000000001,0.009259167026579423
8.688,0.00925837368866289
8.692,0.009253517498991986
8.696,0.00925623408034254
8.700000000000001,0.009257940958890234
8.704,0.009263782810821073
8.708,0.009262773108018213
8.712,0.009257892877804383
8.716,0.009263566445934745
8.72,0.009267797581489592
8.724,0.009269913149267015
8.728,0.009271091135870354
8.732,0.009268687081577827
8.736,0.00926486463525271
8.74,0.009264215540593727
8.744,0.009265970500227271
8.748,0.009267412932802787
8.752,0.009267244649002311
8.756,0.009262652905303585
8.76,0.00925395022876464
8.764,0.009255392661340156
8.768,0.009251882742073067
8.772,0.009250488390583402
8.776,0.009256787012829821
8.78,0.009249911417553196
8.784,0.009243420470963375
8.788,0.009253757904421239
8.792,0.009260681580783714
8.796,0.009263109675619165
8.8,0.009264359783851279
8.804,0.009257748634546831
8.808,0.0092547676072241
8.812,0.009251906782615994
8.816,0.009254599323423622
8.82,0.009257868837261459
8.824,0.009256594688486419
8.828,0.009256546607400568
8.832,0.009255056093739202
8.836,0.009261162391642219
8.84,0.009259912283410105
8.844,0.009258710256263842
8.848,0.00925308476921933
8.852,0.009254935891024576
8.856,0.009258710256263842
8.86,0.009259599756352077
8.864,0.009262700986389436
8.868,0.009260970067298818
8.872,0.009255705188398184
8.876,0.009263614527020595
8.88,0.00926806202746177
8.884,0.009267124446287684
8.888,0.009263253918876717
8.892,0.009254166593650968
8.896,0.009249118079636662
8.9,0.009256883175001522
8.904,0.009266619594886253
8.908,0.00927034587903967
8.912,0.009271115176413278
8.916,0.009268182230176397
8.92,0.009266451311085777
8.924,0.00926536948665414
8.928,0.009270898811526951
8.932,0.009269456378951435
8.936,0.009270105473610417
8.94,0.009271139216956204
8.944,0.009273134582019
8.948,0.00927633197422806
8.952,0.009278231177119156
8.956,0.00927957744752297
8.96,0.00927734167703092
8.964,0.009280563109782907
8.968,0.009280851596298009
8.972,0.00927902451503569
8.976,0.009281428569328216
8.98,0.009277077231058743
8.984,0.009278639866348885
8.988,0.009282798880274955
8.992,0.009282438272131077
8.996,0.009280779474669234
9.0,0.009284024947964145
9.004,0.009272894176589748
9.008000000000001,0.00926207593227338
9.012,0.009266547473257478
9.016,0.009270898811526951
9.02,0.009275322271425199
9.024000000000001,0.009278038852775753
9.028,0.009279288961007867
9.032,0.009283784542534892
9.036,0.009289434070122329
9.040000000000001,0.009293088232646969
9.044,0.009293304597533296
9.048,0.009291092867584172
9.052,0.009296309665398954
9.056000000000001,0.009298954125120733
9.06,0.009301646665928363
9.064,0.009302151517329793
9.068,0.009298401192633452
9.072000000000001,0.009298377152090526
9.076,0.009302343841673196
9.08,0.009304435368907692
9.084,0.009300348476610399
9.088000000000001,0.009301766868642989
9.092,0.009302680409274148
9.096,0.009298785841320257
9.1,0.009302920814703401
9.104000000000001,0.009305637396053959
9.108,0.009302968895789252
9.112,0.009301021611812305
9.116,0.009297655935802769
9.120000000000001,0.009300781206383052
9.124,0.009305565274425182
9.128,0.009304363247278917
9.132,0.009305709517682734
9.136000000000001,0.009306070125826613
9.14,0.009286477083342522
9.144,0.009281404528785292
9.148,0.009293328638076222
9.152000000000001,0.00930287273361755
9.156,0.009303353544476057
9.16,0.009300636963125502
9.164,0.00930140626049911
9.168000000000001,0.009307680842202605
9.172,0.009302464044387821
9.176,0.009296213503227253
9.18,0.009289193664693076
9.184000000000001,0.009288784975463347
9.188,0.009306094166369539
9.192,0.009341049115782872
9.196,0.00937927357903404
9.200000000000001,0.009408290514344834
9.204,0.009423868786160404
9.208,0.009422931204986319
9.212,0.009420671393951344
9.216000000000001,0.009404323824762166
9.22,0.009377158011256617
9.224,0.009352588576386997
9.228,0.009339005669634224
9.232,0.009326360344055535
9.236,0.009319220302806732
9.24,0.009314772802365558
9.244,0.009311070558755068
9.248,0.009311575410156498
9.252,0.009302800611988776
9.256,0.009299242611635837
9.26,0.009312561072416434
9.264,0.009316431599827401
9.268,0.009316672005256654
9.272,0.009318859694662854
9.276,0.009312416829158883
9.28,0.009315854626797196
9.284,0.009316095032226447
9.288,0.009315205532138214
9.292,0.009318186559460945
9.296,0.009313931383363174
9.3,0.009317369181001487
9.304,0.009320302127238368
9.308,0.009317224937743935
9.312,0.009318499086518973
9.316,0.009320230005609593
9.32,0.009317008572857608
9.324,0.009315013207794811
9.328,0.009312945721103237
9.332,0.009317200897201009
9.336,0.009321984965243137
9.34,0.009316888370142981
9.344,0.009312897640017389
9.348,0.009316215234941074
9.352,0.009317489383716113
9.356,0.009312104302100855
9.36,0.009306574977228043
9.364,0.00928998700260961
9.368,0.009282919082989583
9.372,0.009297054922229637
9.376,0.009304844058137423
9.38,0.009309411761293225
9.384,0.009306767301571445
9.388,0.0093028246525317
9.392,0.0093051085041096
9.396,0.009304387287821842
9.4,0.009303257382304355
9.404,0.009305853760940286
9.408,0.009301935152443465
9.412,0.009295275922053167
9.416,0.009296261584313103
9.42,0.009309652166722478
9.424,0.009315806545711345
9.428,0.009316575843084953
9.432,0.00931085419386874
9.436,0.009307921247631858
9.44,0.009310926315497516
9.444,0.009308450139576215
9.448,0.009307801044917232
9.452,0.009305517193339332
9.456,0.00930135817941326
9.46,0.009302680409274148
9.464,0.009303449706647758
9.468,0.009306358612341716
9.472,0.009305324868995928
9.476,0.009301334138870333
9.48,0.009303954558049188
9.484,0.00930633457179879
9.488,0.009302800611988776
9.492,0.009303209301218505
9.496,0.009296814516800384
9.5,0.00928145260987114
9.504,0.00928094775846971
9.508000000000001,0.00929044377292519
9.512,0.009293809448934726
9.516,0.00929501147608099
9.52,0.009295588449111197
9.524000000000001,0.009293977732735204
9.528,0.009294338340879083
9.532,0.009295179759881467
9.536,0.009299795544123118
9.540000000000001,0.009296694314085759
9.544,0.00929638178702773
9.548,0.009293617124591324
9.552,0.009289818718809134
9.556000000000001,0.0092936892462201
9.56,0.009292511259616762
9.564,0.009287679110488785
9.568,0.009291693881157304
9.572000000000001,0.009299026246749508
9.576,0.009299771503580192
9.58,0.009299963827923594
9.584,0.009294194097621531
9.588000000000001,0.00928866477274872
9.592,0.009292246813644585
9.596,0.009292054489301182
9.6,0.009290756299983218
9.604000000000001,0.009291213070298798
9.608,0.009287847394289261
9.612,0.009278543704177184
9.616,0.009276115609341733
9.620000000000001,0.009283447974933938
9.624,0.009285034650767006
9.628,0.009290107205324236
9.632,0.009291597718985602
9.636000000000001,0.009296453908656506
9.64,0.0092960692599697
9.644,0.009295251881510242
9.648,0.009294482584136635
9.652000000000001,0.009292775705588941
9.656,0.009293448840790848
9.66,0.009296309665398954
9.664,0.009301598584842512
9.668000000000001,0.009300348476610399
9.672,0.009300829287468903
9.676,0.009296862597886235
9.68,0.009288087799718514
9.684000000000001,0.00928825608351899
9.688,0.009287847394289261
9.692,0.009290251448581787
9.696,0.009291092867584172
9.700000000000001,0.009286116475198643
9.704,0.009284433637193874
9.708,0.009286501123885446
9.712,0.009289289826864777
9.716000000000001,0.009291549637899752
9.72,0.00929003508369546
9.724,0.009274240446993562
9.728,0.009271475784557157
9.732,0.009279264920464943
9.736,0.009289674475551582
9.74,0.009293328638076222
9.744,0.009287558907774158
9.748,0.00928510677239578
9.752,0.0092890253808926
9.756,0.009293569043505473
9.76,0.009291044786498321
9.764,0.009285731826511838
9.768,0.009280971799012636
9.772,0.009278303298747933
9.776,0.009279914015123925
9.78,0.009279817852952224
9.784,0.009280202501639028
9.788,0.009285803948140613
9.792,0.009285611623797213
9.796,0.009287919515918038
9.8,0.00929313631373282
9.804,0.009293737327305951
9.808,0.009290852462154919
9.812,0.009290563975639815
9.816,0.009291982367672407
9.82,0.009293328638076222
9.824,0.00928957831337988
9.828,0.009290347610753489
9.832,0.00929409793544983
9.836,0.009287895475375112
9.84,0.009288063759175588
9.844,0.009290828421611995
9.848,0.009291213070298798
9.852,0.009291741962243154
9.856,0.009290275489124714
9.86,0.009273423068534103
9.864,0.009272653771160495
9.868,0.009282005542358423
9.872,0.009289217705236002
9.876,0.00929510763825269
9.88,0.009292775705588941
9.884,0.009285755867054763
9.888,0.009287366583430757
9.892,0.00929318439481867
9.896,0.009298064625032498
9.9,0.00929404985436398
9.904,0.009283279691133461
9.908,0.009283928785792444
9.912,0.009281188163898963
9.916,0.009272437406274167
9.92,0.009264624229823456
9.924,0.009258950661693095
9.928,0.009266763838143805
9.932,0.009292006408215332
9.936,0.009323235073475251
9.94,0.009359295887863146
9.944,0.009384009565990316
9.948,0.009388817674575368
9.952,0.009391053445067419
9.956,0.009386413620282842
9.96,0.00937069110520972
9.964,0.009353117468331354
9.968,0.009327153681972069
9.972,0.00930003594955237
9.976,0.009287943556460962
9.98,0.00927897643394984
9.984,0.009281043920641411
9.988,0.009282149785615973
9.992,0.00927354327124873
9.996,0.00926258078367481
10.0,0.009268855365378303
10.004,0.00927440873079404
10.008000000000001,0.009275298230882275
10.012,0.009282606555931555
10.016,0.009279721690780523
10.02,0.009277317636487996
10.024000000000001,0.009276428136399761
10.028,0.009280058258381477
10.032,0.009286477083342522
10.036,0.009288424367319468
10.040000000000001,0.009283111407332985
10.044,0.0092821738261589
10.048,0.009280226542181953
10.052,0.009279625528608821
10.056000000000001,0.009283664339820266
10.06,0.009275538636311526
10.064,0.009275706920112004
10.068,0.009279601488065897
10.072000000000001,0.009277630163546024
10.076,0.009279385123179568
10.08,0.009273735595592131
10.084,0.00927034587903967
10.088000000000001,0.009277822487889427
10.092,0.009279673609694672
10.096,0.009277125312144594
10.1,0.009276620460743163
10.104000000000001,0.00927491358219547
10.108,0.009271644068357635
10.112,0.009274769338937918
10.116,0.009275899244455406
10.120000000000001,0.009275105906538872
10.124,0.009268590919406126
10.128,0.009261787445758276
10.132,0.009269167892436331
10.136000000000001,0.00928044290706828
10.14,0.00928044290706828
10.144,0.009279745731323447
10.148,0.009275586717397376
10.152000000000001,0.009259070864407722
10.156,0.009264335743308354
10.16,0.009274072163193085
10.164,0.009279361082636644
10.168000000000001,0.009279553406980046
10.172,0.009276211771513434
10.176,0.009277365717573847
10.18,0.009278351379833783
10.184000000000001,0.009278014812232829
10.188,0.0092846500020802
10.192,0.009285659704883062
10.196,0.009281885339643796
10.200000000000001,0.00928263059647448
10.204,0.00928491444805238
10.208,0.009287222340173205
10.212,0.009295973097798
10.216000000000001,0.009289097502521375
10.22,0.009272341244102467
10.224,0.009275706920112004
10.228,0.009284024947964145
10.232000000000001,0.009288544570034094
10.236,0.009287727191574635
10.24,0.009283207569504686
10.244,0.0092868376914864
10.248,0.009290083164781311
10.252,0.009284722123708978
10.256,0.009285900110312315
10.26,0.009286188596827418
10.264,0.009290467813468114
10.268,0.009293737327305951
10.272,0.009285996272484016
10.276,0.009288304164604841
10.28,0.009296189462684328
10.284,0.00929236701635921
10.288,0.009286020313026942
10.292,0.009287655069945859
10.296,0.009293208435361595
10.3,0.009289770637723283
10.304,0.009291044786498321
10.308,0.009288688813291646
10.312,0.009290612056725666
10.316,0.009289361948493552
10.32,0.009288232042976066
10.324,0.009287390623973681
10.328,0.009282798880274955
10.332,0.00927856774472011
10.336,0.009289217705236002
10.34,0.00929556440856827
10.344,0.009298112706118349
10.348,0.009298857962949032
10.352,0.009291333273013425
10.356,0.0092890253808926
10.36,0.009294338340879083
10.364,0.009300636963125502
10.368,0.00930323334176143
10.372,0.009307248112429951
10.376,0.00930405072022089
10.38,0.009305348909538854
10.384,0.009308762666634243
10.388,0.009307320234058726
10.392,0.009308882869348868
10.396,0.009305757598768585
10.4,0.009300420598239174
10.404,0.009300757165840128
10.408,0.00930359394990531
10.412,0.009310325301924384
10.416,0.009305228706824226
10.42,0.009304267085107216
10.424,0.00930135817941326
10.428,0.009301069692898156
10.432,0.009300540800953801
10.436,0.009301694747014214
10.44,0.009303353544476057
10.444,0.009303305463390206
10.448,0.009304675774336945
10.452,0.009305348909538854
10.456,0.009306022044740762
10.46,0.009304411328364768
10.464,0.009288809016006271
10.468,0.009280466947611206
10.472,0.009285395258910884
10.476,0.009292198732558734
10.48,0.009297511692545217
10.484,0.009298617557519779
10.488,0.009289626394465731
10.492,0.009292126610929959
10.496,0.009296117341055551
10.5,0.009294843192280513
10.504,0.00929313631373282
10.508000000000001,0.009295612489654121
10.512,0.009297896341232022
10.516,0.009300612922582576
10.52,0.009301838990271765
10.524000000000001,0.009300757165840128
10.528,0.009298353111547602
10.532,0.009295203800424392
10.536,0.009297151084401338
10.540000000000001,0.009299314733264612
10.544,0.00930455557162232
10.548,0.009309772369437103
10.552,0.009311960058843303
10.556000000000001,0.009305589314968108
10.56,0.009307801044917232
10.564,0.009306791342114372
10.568,0.009305156585195451
10.572000000000001,0.009305661436596883
10.576,0.009296189462684328
10.58,0.009282967164075433
10.584,0.009293448840790848
10.588000000000001,0.009303714152619935
10.592,0.009305973963654911
10.596,0.009304122841849664
10.6,0.009301983233529315
10.604000000000001,0.0093072000313441
10.608,0.009310998437126293
10.612,0.009312801477845687
10.616,0.009312777437302761
10.620000000000001,0.009307728923288456
10.624,0.009302343841673196
10.628,0.009303930517506262
10.632,0.009308546301747916
10.636000000000001,0.00930623840962709
10.64,0.009302920814703401
10.644,0.009285515461625512
10.648,0.009283327772219312
10.652000000000001,0.00929501147608099
10.656,0.009321480113841707
10.66,0.009353838684619111
10.664,0.009381821876584118
10.668000000000001,0.009404564230191417
10.672,0.009416103690795544
10.676,0.009409444460405246
10.68,0.00939723186459921
10.684000000000001,0.009381893998212893
10.688,0.009353478076475233
10.692,0.009321335870584155
10.696,0.009317777870231216
10.700000000000001,0.009312200464272556
10.704,0.00931080611278289
10.708,0.009311142680383843
10.712,0.00930852226120499
10.716000000000001,0.009307825085460157
10.72,0.009303906476963338
10.724,0.009306358612341716
10.728,0.009304651733794021
10.732000000000001,0.0093050123419379
10.736,0.009306286490712941
10.74,0.009308161653061111
10.744,0.009310878234411665
10.748000000000001,0.009308281855775737
10.752,0.009308089531432336
10.756,0.009306070125826613
10.76,0.009304002639135039
10.764,0.009304892139223272
10.768,0.009307849126003083
10.772,0.009310445504639012
10.776,0.009305300828453003
10.78,0.009302151517329793
10.784,0.009306022044740762
10.788,0.009310421464096085
10.792,0.009312873599474462
10.796,0.009309652166722478
10.8,0.009301550503756662
10.804,0.009300252314438697
10.808,0.009302223638958568
10.812,0.009305589314968108
10.816,0.00930953196400785
10.82,0.00930582972039736
10.824,0.009283327772219312
10.828,0.009276716622914865
10.832,0.0092914053946422
10.836,0.009296670273542832
10.84,0.00930099757126938
10.844,0.009303185260675579
10.848,0.009301959192986391
10.852,0.009302704449817074
10.856,0.00930231980113027
10.86,0.00930989257215173
10.864,0.009309171355863972
10.868,0.00930323334176143
10.872,0.009305036382480824
10.876,0.009311070558755068
10.88,0.009313210167075417
10.884,0.009311431166898946
10.888,0.009312921680560313
10.892,0.009309676207265402
10.896,0.009308089531432336
10.9,0.009310469545181936
10.904,0.009312368748073032
10.908,0.009311936018300377
10.912,0.009309051153149346
10.916,0.009307849126003083
10.92,0.009316503721456178
10.924,0.009318835654119928
10.928,0.009318787573034077
10.932,0.009320734857011024
10.936,0.009309604085636627
10.94,0.00930614224745539
10.944,0.009317393221544411
10.948,0.009322513857187494
10.952,0.009321792640899735
10.956,0.00932044637049592
10.96,0.009318499086518973
10.964,0.009322922546417223
10.968,0.00932121566786953
10.972,0.00932222537067239
10.976,0.009325542965596076
10.98,0.009316816248514206
10.984,0.009314123707706576
10.988,0.009319100100092105
10.992,0.0093186192892336
10.996,0.009320350208324219
11.0,0.009321960924700211
11.004,0.009318330802718497
11.008000000000001,0.00931628735656985
11.012,0.009318451005433123
11.016,0.009321095465154902
11.02,0.009318547167604824
11.024000000000001,0.009311984099386227
11.028,0.009309459842379075
11.032,0.009314604518565082
11.036,0.009314243910421202
11.040000000000001,0.009314628559108007
11.044,0.009310132977580982
11.048,0.009299026246749508
11.052,0.009295973097798
11.056000000000001,0.00930811357197526
11.06,0.00931369097793392
11.064,0.009315614221367943
11.068,0.009320013640723266
11.072000000000001,0.009319100100092105
11.076,0.009320470411038846
11.08,0.009323283154561102
11.084,0.009321095465154902
11.088000000000001,0.009321744559813884
11.092,0.009324172654649337
11.096,0.009325567006139
11.1,0.00932729792522962
11.104000000000001,0.0093277546955452
11.108,0.009328283587489557
11.112,0.009332803209559506
11.116,0.009329750060607997
11.120000000000001,0.009331625222956167
11.124,0.009338044047917214
11.128,0.009335375547652508
11.132,0.009333332101503862
11.136000000000001,0.009332610885216103
11.14,0.009329701979522147
11.144,0.00933273108793073
11.148,0.009337370912715305
11.152000000000001,0.009335351507109584
11.156,0.00933227431761515
11.16,0.009329317330835342
11.164,0.009328572074004659
11.168000000000001,0.009332154114900524
11.172,0.009335904439596865
11.176,0.009331505020241541
11.18,0.009329629857893372
11.184000000000001,0.009331264614812288
11.188,0.0093300385471231
11.192,0.00932410053302056
11.196,0.009321984965243137
11.200000000000001,0.009317224937743935
11.204,0.009306550936685119
11.208,0.009308930950434719
11.212,0.009316070991683523
11.216000000000001,0.009313979464449024
11.22,0.00931171965341405
11.224,0.009315638261910867
11.228,0.009314340072592903
11.232000000000001,0.009312056221015004
11.236,0.00931400350499195
11.24,0.009314051586077801
11.244,0.009314820883451409
11.248000000000001,0.009307464477316278
11.252,0.00929505955716684
11.256,0.009302464044387821
11.26,0.009312657234588136
11.264,0.009316960491771758
11.268,0.009322537897730418
11.272,0.009325038114194646
11.276,0.009329750060607997
11.28,0.009326600749484788
11.284,0.009323932249220084
11.288,0.009320662735382249
11.292,0.009316768167428355
11.296,0.009300636963125502
11.3,0.009300516760410875
11.304,0.009314388153678754
11.308,0.009323884168134233
11.312,0.009325470843967301
11.316,0.009320205965066667
11.32,0.009315902707883046
11.324,0.00931369097793392
11.328,0.00932085505972565
11.332,0.00932862015509051
11.336,0.009323379316732803
11.34,0.009319773235294013
11.344,0.00932268214098797
11.348,0.009324461141164439
11.352,0.0093230908302177
11.356,0.009317417262087338
11.36,0.009307849126003083
11.364,0.00929921857109291
11.368,0.009299002206206584
11.372,0.00930659901777097
11.376,0.009333163817703384
11.38,0.009364777131650105
11.384,0.009396438526682678
11.388,0.009420455029065017
11.392,0.009426753651311435
11.396,0.009418387542373443
11.4,0.009406439392539588
11.404,0.009389274444890948
11.408,0.009360185387951381
11.412,0.009340544264381441
11.416,0.009333211898789235
11.42,0.009321071424611978
11.424,0.009319172221720882
11.428,0.009319268383892583
11.432,0.009311791775042825
11.436,0.009311359045270171
11.44,0.00931030126138146
11.444,0.009312825518388612
11.448,0.009315494018653316
11.452,0.009299723422494341
11.456,0.009285972231941091
11.46,0.009292078529844108
11.464,0.009298593516976855
11.468,0.00930414688239259
11.472,0.009309459842379075
11.476,0.009308954990977645
11.48,0.009312777437302761
11.484,0.00931313804544664
11.488,0.009310565707353637
11.492,0.009315614221367943
11.496,0.009319412627150135
11.5,0.009320013640723266
11.504,0.009321696478728034
11.508000000000001,0.009322489816644568
11.512,0.009322585978816269
11.516,0.009315902707883046
11.52,0.009307680842202605
11.524000000000001,0.009311022477669217
11.528,0.009315614221367943
11.532,0.009319268383892583
11.536,0.009320302127238368
11.540000000000001,0.009314796842908483
11.544,0.009307127909715324
11.548,0.009305036382480824
11.552,0.00930852226120499
11.556000000000001,0.009313835221191473
11.56,0.009318547167604824
11.564,0.009313979464449024
11.568,0.009306214369084164
11.572000000000001,0.009305156585195451
11.576,0.009306358612341716
11.58,0.009304363247278917
11.584,0.009307921247631858
11.588000000000001,0.009293929651649354
11.592,0.009291261151384648
11.596,0.009302103436243943
11.6,0.009310637828982412
11.604000000000001,0.009315109369966513
11.608,0.009311359045270171
11.612,0.009310157018123908
11.616,0.009310565707353637
11.620000000000001,0.009316095032226447
11.624,0.009316696045799579
11.628,0.009307993369260635
11.632,0.009302199598415644
11.636000000000001,0.009304002639135039
11.64,0.009306815382657296
11.644,0.009310541666810711
11.648,0.00931583058625427
11.652000000000001,0.009314796842908483
11.656,0.009298545435891004
11.66,0.009298184827747125
11.664,0.00930592588256906
11.668000000000001,0.009310637828982412
11.672,0.009316816248514206
11.676,0.009322513857187494
11.68,0.009322441735558717
11.684000000000001,0.009320662735382249
11.688,0.009316816248514206
11.692,0.009322417695015793
11.696,0.009322561938273343
11.700000000000001,0.009318691410862376
11.704,0.00932583145211118
11.708,0.009329197128120716
11.712,0.009331625222956167
11.716000000000001,0.009326624790027714
11.72,0.009319460708235985
11.724,0.00932460538442199
11.728,0.009324413060078588
11.732000000000001,0.009325470843967301
11.736,0.009324773668222468
11.74,0.009319460708235985
11.744,0.009316479680913252
11.748000000000001,0.009319604951493535
11.752,0.009326576708941863
11.756,0.009329629857893372
11.76,0.009328596114547585
11.764000000000001,0.009319003937920404
11.768,0.009304363247278917
11.772,0.009312296626444257
11.776,0.009317946154031692
11.78,0.009317585545887814
11.784,0.009322465776101643
11.788,0.00932121566786953
11.792,0.009319508789321836
11.796,0.009322874465331372
11.8,0.009324413060078588
11.804,0.009327057519800367
11.808,0.009326504587313086
11.812,0.009320686775925173
11.816,0.009321984965243137
11.82,0.009326192060255058
11.824,0.009332081993271749
11.828,0.009333404223132637
11.832,0.009330206830923577
11.836,0.009328788438890987
11.84,0.009327466209030097
11.844,0.00932724984414377
11.848,0.009328475911832959
11.852,0.009328475911832959
11.856,0.009324533262793215
11.86,0.009319340505521358
11.864,0.009323788005962532
11.868,0.009325494884510226
11.872,0.00932217728958654
11.876,0.009322105167957763
11.88,0.009321335870584155
11.884,0.009323836087048383
11.888,0.009326504587313086
11.892,0.009325518925053152
11.896,0.00932638438459846
11.9,0.009328043182060304
11.904,0.00932491791148002
11.908,0.00932039828941007
11.912,0.009322369613929942
11.916,0.00932542276288145
11.92,0.009324797708765393
11.924,0.009322537897730418
11.928,0.009322081127414839
11.932,0.009321648397642183
11.936,0.009325759330482403
11.94,0.009326648830570638
11.944,0.009319388586607209
11.948,0.00930756063948798
11.952,0.009310325301924384
11.956,0.00931998960018034
11.96,0.009323619722162056
11.964,0.009326432465684311
11.968,0.009321480113841707
11.972,0.009324461141164439
11.976,0.009328499952375884
11.98,0.009330110668751876
11.984,0.00932871631726221
11.988,0.00933186562838542
11.992,0.009326071857540433
11.996,0.009325903573739955
12.0,0.009330519357981605
12.004,0.009332081993271749
12.008000000000001,0.009329966425494324
12.012,0.009329894303865549
12.016,0.009317489383716113
12.02,0.009321864762528512
12.024000000000001,0.00932359568161913
12.028,0.009337274750543604
12.032,0.00934648227848398
12.036,0.009335615953081761
12.040000000000001,0.009336577574798771
12.044,0.009342058818585732
12.048,0.009341505886098452
12.052,0.009339702845379057
12.056000000000001,0.009340327899495113
12.06,0.009336601615341698
12.064,0.009336697777513399
12.068,0.009339462439949804
12.072000000000001,0.0093391739534347
12.076,0.009334197561049171
12.08,0.009323908208677158
12.084,0.009316046951140597
12.088000000000001,0.009317994235117543
12.092,0.00932907692540609
12.096,0.009362180753014178
12.1,0.009397328026770912
12.104000000000001,0.009426609408053885
12.108,0.009442404044755782
12.112,0.009441851112268501
12.116,0.009432355097813021
12.120000000000001,0.009422690799557066
12.124,0.009402496743499843
12.128,0.009365426226309087
12.132,0.00934862188680433
12.136000000000001,0.009341097196868722
12.14,0.009334462007021349
12.144,0.009330519357981605
12.148,0.009329365411921193
12.152000000000001,0.009325615087224851
12.156,0.00932145607329878
12.16,0.009318955856834553
12.164,0.009325038114194646
12.168000000000001,0.009333500385304339
12.172,0.009328764398348061
12.176,0.009324821749308319
12.18,0.009321864762528512
12.184000000000001,0.0093253746817956
12.188,0.00933044723635283
12.192,0.009329293290292417
12.196,0.009324797708765393
12.200000000000001,0.009325494884510226
12.204,0.00932720176305792
12.208,0.009327346006315471
12.212,0.009324196695192261
12.216000000000001,0.009318667370319451
12.22,0.009321239708412454
12.224,0.009323619722162056
12.228,0.00931998960018034
12.232000000000001,0.0093231869923894
12.236,0.0093207108164681
12.24,0.009315157451052363
12.244,0.009321095465154902
12.248000000000001,0.009327538330658873
12.252,0.009326312262969684
12.256,0.009321912843614362
12.26,0.009311887937214526
12.264000000000001,0.009305324868995928
12.268,0.009310589747896562
12.272,0.009314604518565082
12.276,0.009314243910421202
12.280000000000001,0.009310878234411665
12.284,0.009297631895259844
12.288,0.009294025813821055
12.292,0.009299867665751893
12.296,0.009306094166369539
12.3,0.009314075626620726
12.304,0.009313739059019771
12.308,0.009309003072063496
12.312,0.009309700247808328
12.316,0.009310950356040442
12.32,0.009311335004727245
12.324,0.009307296193515802
12.328,0.009306911544828997
12.332,0.009314652599650933
12.336,0.009316503721456178
12.34,0.009318715451405302
12.344,0.00932222537067239
12.348,0.009320422329952996
12.352,0.00931359481576222
12.356,0.009314051586077801
12.36,0.009317080694486383
12.364,0.009324990033108795
12.368,0.009325398722338524
12.372,0.009316888370142981
12.376,0.009301526463213736
12.38,0.009306767301571445
12.384,0.00931441219422168
12.388,0.009319893438008639
12.392,0.009319100100092105
12.396,0.009315662302453794
12.4,0.009317946154031692
12.404,0.009315902707883046
12.408,0.009321047384069052
12.412,0.00931948474877891
12.416,0.009318090397289244
12.42,0.009314051586077801
12.424,0.009312416829158883
12.428,0.009318186559460945
12.432,0.009319003937920404
12.436,0.009318715451405302
12.44,0.009319172221720882
12.444,0.009319388586607209
12.448,0.009321023343526127
12.452,0.009325158316909271
12.456,0.009324797708765393
12.46,0.009320061721809117
12.464,0.009320782938096874
12.468,0.009321576276013408
12.472,0.009315638261910867
12.476,0.009310685910068263
12.48,0.009313570775219295
12.484,0.009307584680030904
12.488,0.009296165422141402
12.492,0.009307031747543623
12.496,0.009309147315321047
12.5,0.009308834788263018
12.504,0.009308209734146962
12.508000000000001,0.00930582972039736
12.512,0.009309676207265402
12.516,0.00931542189702454
12.52,0.009314724721279708
12.524000000000001,0.00932140799221293
12.528,0.00931583058625427
12.532,0.009313210167075417
12.536,0.009313787140105622
12.540000000000001,0.009317585545887814
12.544,0.009321071424611978
12.548,0.009322369613929942
12.552,0.00931684028905713
12.556000000000001,0.009318739491948226
12.56,0.009321624357099259
12.564,0.009318138478375095
12.568,0.009317176856658085
12.572000000000001,0.009316816248514206
12.576,0.009308329936861587
12.58,0.009310733991154114
12.584,0.009317898072945842
12.588000000000001,0.00931998960018034
12.592,0.009320782938096874
12.596,0.00931263319404521
12.6,0.009310325301924384
12.604000000000001,0.0093186192892336
12.608,0.009320831019182725
12.612,0.009323379316732803
12.616,0.009322898505874297
12.620000000000001,0.00931085419386874
12.624,0.009301478382127885
12.628,0.009311070558755068
12.632,0.009320109802894968
12.636000000000001,0.00931953282986476
12.64,0.009314893005080184
12.644,0.00930857034229084
12.648,0.009311118639840918
12.652000000000001,0.009318907775748704
12.656,0.00932506215473757
12.66,0.009326143979169208
12.664,0.009321095465154902
12.668000000000001,0.009323739924876681
12.672,0.009324677506050767
12.676,0.0093277546955452
12.68,0.009328788438890987
12.684000000000001,0.00932359568161913
12.688,0.009316167153855224
12.692,0.009318739491948226
12.696,0.009326865195456965
12.700000000000001,0.009332346439243926
12.704,0.009335639993624687
12.708,0.009333211898789235
12.712,0.00932943753354997
12.716000000000001,0.009330567439067456
12.72,0.009333043614988759
12.724,0.009333019574445833
12.728,0.009331192493183513
12.732000000000001,0.009323018708588924
12.736,0.009309507923464926
12.74,0.009321383951670006
12.744,0.009330062587666025
12.748000000000001,0.009332923412274131
12.752,0.009330711682325007
12.756,0.009332418560872701
12.76,0.00933039915526698
12.764000000000001,0.009336096763940267
12.768,0.009338524858775718
12.772,0.009338476777689867
12.776,0.009340063453522935
12.780000000000001,0.009333356142046787
12.784,0.009327922979345678
12.788,0.0093207108164681
12.792,0.009312080261557928
12.796000000000001,0.009314844923994333
12.8,0.00932638438459846
12.804,0.00936246923952928
12.808,0.009395524986051517
12.812,0.009424325556475984
12.816,0.009445120626106336
12.82,0.00944399072058885
12.824,0.009431513678810637
12.828,0.009422450394127813
12.832,0.009402496743499843
12.836,0.009380114998036424
12.84,0.009364128036991123
12.844,0.009345833183824998
12.848,0.009326023776454582
12.852,0.00932583145211118
12.856,0.009331024209383035
12.86,0.009336601615341698
12.864,0.009333668669104815
12.868,0.009326865195456965
12.872,0.009329629857893372
12.876,0.009336866061313875
12.88,0.009334942817879855
12.884,0.00933145693915569
12.888,0.009329052884863165
12.892,0.00932999046603725
12.896,0.009332322398701
12.9,0.009331673304042018
12.904,0.009327634492830575
12.908,0.009327514290115947
12.912,0.00932506215473757
12.916,0.009326480546770162
12.92,0.009329245209206567
12.924,0.009329389452464119
12.928,0.00933227431761515
12.932,0.009329269249749491
12.936,0.009324845789851243
12.94,0.009322994668045998
12.944,0.00932679307382819
12.948,0.009328812479433912
12.952,0.009330278952552354
12.956,0.009328644195633435
12.96,0.009326913276542816
12.964,0.009327995100974453
12.968,0.009329509655178744
12.972,0.009330831885039635
12.976,0.009327321965772547
12.98,0.009309459842379075
12.984,0.009307945288174784
12.988,0.009316455640370327
12.992,0.009318306762175573
12.996,0.009320782938096874
13.0,0.009324653465507841
13.004,0.00932049445158177
13.008000000000001,0.009318210600003872
13.012,0.009318186559460945
13.016,0.009320806978639799
13.02,0.009323066789674775
13.024000000000001,0.009317321099915636
13.028,0.00931446027530753
13.032,0.009319773235294013
13.036,0.009321816681442661
13.040000000000001,0.009319653032579386
13.044,0.009320230005609593
13.048,0.009318451005433123
13.052,0.009329004803777314
13.056000000000001,0.009330519357981605
13.06,0.00933592848013979
13.064,0.009337154547828979
13.068,0.009330687641782083
13.072000000000001,0.009324677506050767
13.076,0.009326360344055535
13.08,0.009327947019888603
13.084,0.009328283587489557
13.088000000000001,0.00932720176305792
13.092,0.009316167153855224
13.096,0.00930989257215173
13.1,0.009322970627503074
13.104000000000001,0.009331769466213719
13.108,0.009336529493712921
13.112,0.009338452737146943
13.116,0.009333332101503862
13.120000000000001,0.009331505020241541
13.124,0.009328764398348061
13.128,0.009331769466213719
13.132,0.009334486047564275
13.136000000000001,0.009331120371554737
13.14,0.009334678371907676
13.144,0.009334918777336929
13.148,0.009330519357981605
13.152000000000001,0.009334486047564275
13.156,0.009334942817879855
13.16,0.009329125006491941
13.164,0.00932724984414377
13.168000000000001,0.009325975695368732
13.172,0.00932948561463582
13.176,0.009334582209735974
13.18,0.009336890101856801
13.184000000000001,0.00933268300684488
13.188,0.009333043614988759
13.192,0.00933592848013979
13.196,0.009335279385480807
13.200000000000001,0.009336265047740743
13.204,0.009325542965596076
13.208,0.009310613788439488
13.212,0.009321071424611978
13.216000000000001,0.009327874898259828
13.22,0.009328187425317856
13.224,0.009329125006491941
13.228,0.009330831885039635
13.232000000000001,0.009334197561049171
13.236,0.009333933115076994
13.24,0.009334029277248693
13.244,0.009335736155796389
13.248000000000001,0.009332514723044402
13.252,0.009334173520506245
13.256,0.009335543831452986
13.26,0.009335159182766182
13.264000000000001,0.009336265047740743
13.268,0.00933816425063184
13.272,0.009335736155796389
13.276,0.00933816425063184
13.280000000000001,0.00933729879108653
13.284,0.009334197561049171
13.288,0.009337443034344082
13.292,0.009339991331894159
13.296000000000001,0.009334678371907676
13.3,0.009336866061313875
13.304,0.009338332534432316
13.308,0.00933989516972246
13.312000000000001,0.00933967880483613
13.316,0.009334942817879855
13.32,0.009338981629091298
13.324,0.009342179021300358
13.328,0.009342707913244715
13.332,0.009343933980933902
13.336,0.00934547257568112
13.34,0.009323475478904504
13.344,0.009315181491595288
13.348,0.009328884601062688
13.352,0.009332610885216103
13.356,0.009330278952552354
13.36,0.009330230871466503
13.364,0.009324461141164439
13.368,0.00932121566786953
13.372,0.009323908208677158
13.376,0.00933044723635283
13.38,0.009339702845379057
13.384,0.009335639993624687
13.388,0.00933780364248796
13.392,0.009340424061666814
13.396,0.009338596980404495
13.4,0.009335327466566658
13.404,0.0093346062502789
13.408,0.009333524425847263
13.412,0.009333476344761412
13.416,0.009342852156502266
13.42,0.009342611751073013
13.424,0.009342106899671583
13.428,0.009342948318673968
13.432,0.009342491548358386
13.436,0.009348597846261403
13.44,0.009353718481904486
13.444,0.009355401319909253
13.448,0.009347660265087319
13.452,0.009333428263675562
13.456,0.009336817980228024
13.46,0.009348862292233582
13.464,0.00935181927901339
13.468,0.009351194224897332
13.472,0.009352925143987952
13.476,0.009354920509050749
13.48,0.009355954252396534
13.484,0.009355088792851225
13.488,0.009353093427788428
13.492,0.009355329198280478
13.496,0.00935556960370973
13.5,0.00935648314434089
13.504,0.00935698799574232
13.508000000000001,0.009354223333305916
13.512,0.009347660265087319
13.516,0.009337515155972857
13.52,0.00932999046603725
13.524000000000001,0.009334005236705769
13.528,0.009347588143458542
13.532,0.009374225065019734
13.536,0.009408795365746264
13.540000000000001,0.009436994922597598
13.544,0.009458559289601558
13.548,0.009460746979007758
13.552,0.009451851978125411
13.556000000000001,0.009439134530917947
13.56,0.009421080083181073
13.564,0.00938653382299747
13.568,0.009361243171840092
13.572000000000001,0.0093574447660579
13.576,0.00935379060353326
13.58,0.00935511283339415
13.584,0.009355713846967281
13.588000000000001,0.009350665332952977
13.592,0.009349847954493517
13.596,0.009352684738558699
13.6,0.009356531225426741
13.604000000000001,0.009358214063431508
13.608,0.009354103130591289
13.612,0.009351963522270941
13.616,0.009348790170604806
13.620000000000001,0.00934643419739813
13.624,0.009348020873231198
13.628,0.009350809576210527
13.632,0.009347179454228813
13.636000000000001,0.009346626521741532
13.64,0.009343982062019753
13.644,0.009343044480845667
13.648,0.00934460711613581
13.652000000000001,0.009345616818938671
13.656,0.009344342670163631
13.66,0.009349343103092086
13.664,0.009351578873584137
13.668000000000001,0.009354367576563468
13.672,0.009352203927700193
13.676,0.009347948751602421
13.68,0.009348237238117525
13.684000000000001,0.009349367143635013
13.688,0.009351146143811481
13.692,0.009350665332952977
13.696,0.009348044913774122
13.700000000000001,0.009326504587313086
13.704,0.009332538763587328
13.708,0.009343260845731996
13.712,0.009347107332600038
13.716000000000001,0.009344462872878259
13.72,0.009339414358863953
13.724,0.009341746291527704
13.728,0.009347227535314664
13.732000000000001,0.00934547257568112
13.736,0.009344270548534856
13.74,0.009341890534785255
13.744,0.009335832317968088
13.748000000000001,0.009333235939332161
13.752,0.009335664034167612
13.756,0.009339799007550758
13.76,0.009341481845555525
13.764000000000001,0.009339823048093682
13.768,0.009336697777513399
13.772,0.009340231737323412
13.776,0.009342058818585732
13.780000000000001,0.009343116602474444
13.784,0.00934698712988541
13.788,0.00934734773802929
13.792,0.009341289521212123
13.796000000000001,0.009344462872878259
13.8,0.009342443467272536
13.804,0.009338981629091298
13.808,0.009343453170075398
13.812000000000001,0.009330375114724053
13.816,0.00933277916901658
13.82,0.009344078224191454
13.824,0.009347131373142963
13.828,0.009348838251690656
13.832,0.009347227535314664
13.836,0.009348333400289226
13.84,0.009349703711235965
13.844,0.009349222900377461
13.848,0.009347660265087319
13.852,0.009347588143458542
13.856,0.009348790170604806
13.86,0.009356242738911637
13.864,0.009355954252396534
13.868,0.009358526590489538
13.872,0.009358574671575389
13.876,0.009354463738735167
13.88,0.009352612616929922
13.884,0.00935136250869781
13.888,0.009351650995212912
13.892,0.009351218265440258
13.896,0.009349559467978415
13.9,0.009346458237941056
13.904,0.009346818846084935
13.908,0.009348044913774122
13.912,0.009350400886980798
13.916,0.009351170184354407
13.92,0.009345160048623092
13.924,0.009337635358687483
13.928,0.009335760196339313
13.932,0.009340327899495113
13.936,0.009343933980933902
13.94,0.009344390751249482
13.944,0.00933643333154122
13.948,0.009325302560166823
13.952,0.009333452304218488
13.956,0.009335159182766182
13.96,0.009341602048270153
13.964,0.009347059251514188
13.968,0.009345833183824998
13.972,0.009349607549064264
13.976,0.009345256210794793
13.98,0.009345712981110373
13.984,0.009350328765352023
13.988,0.00935136250869781
13.992,0.009347636224544393
13.996,0.009345616818938671
14.0,0.009346866927170785
14.004,0.00934967967069304
14.008000000000001,0.009347828548887795
14.012,0.009345304291880643
14.016,0.009343429129532472
14.02,0.009345688940567446
14.024000000000001,0.009350232603180322
14.028,0.009351146143811481
14.032,0.009351122103268557
14.036,0.009344174386363155
14.040000000000001,0.009339534561578579
14.044,0.009340015372437085
14.048,0.009341169318497497
14.052,0.00934638611631228
14.056000000000001,0.009345136008080165
14.06,0.009331721385127868
14.064,0.009339366277778103
14.068,0.009344534994507034
14.072000000000001,0.00934501580536554
14.076,0.009346866927170785
14.08,0.009344943683736763
14.084,0.009344390751249482
14.088000000000001,0.00934237134564376
14.092,0.009345424494595269
14.096,0.009344534994507034
14.1,0.009339342237235178
14.104000000000001,0.0093345100881072
14.108,0.009334221601592096
14.112,0.009334077358334544
14.116,0.009340712548181918
14.120000000000001,0.009344991764822614
14.124,0.009347948751602421
14.128,0.009347491981286841
14.132,0.009350953819468079
14.136000000000001,0.009347419859658066
14.14,0.009346866927170785
14.144,0.00934775642725902
14.148,0.009344583075592884
14.152000000000001,0.009345712981110373
14.156,0.009348044913774122
14.16,0.00934790067051657
14.164,0.009348405521918
14.168000000000001,0.009343116602474444
14.172,0.009326648830570638
14.176,0.009336000601768566
14.18,0.009344462872878259
14.184000000000001,0.009348597846261403
14.188,0.009348189157031674
14.192,0.009346746724456158
14.196,0.009348357440832152
14.200000000000001,0.009353117468331354
14.204,0.00935004027883692
14.208,0.009347876629973646
14.212,0.009348597846261403
14.216000000000001,0.009346506319026907
14.22,0.009347636224544393
14.224,0.009346458237941056
14.228,0.00933967880483613
14.232000000000001,0.009344390751249482
14.236,0.00934378973767635
14.24,0.00934044810220974
14.244,0.009341529926641376
14.248000000000001,0.009347588143458542
14.252,0.009344174386363155
14.256,0.009334389885392574
14.26,0.009323860127591307
14.264000000000001,0.009323066789674775
14.268,0.009332154114900524
14.272,0.009352492414215296
14.276,0.009383456633503035
14.280000000000001,0.00941430065007615
14.284,0.009441851112268501
14.288,0.009457597667884548
14.292,0.009454760883819368
14.296000000000001,0.00944495234230586
14.3,0.009426897894568987
14.304,0.009395741350937846
14.308,0.009365017537079358
14.312000000000001,0.009360329631208933
14.316,0.009353309792674755
14.32,0.009348357440832152
14.324,0.009345304291880643
14.328000000000001,0.009341169318497497
14.332,0.009343717616047575
14.336,0.009345857224367924
14.34,0.009347948751602421
14.344,0.009345544697309895
14.348,0.009344823481022137
14.352,0.009342491548358386
14.356,0.009347371778572216
14.36,0.009353478076475233
14.364,0.009352564535844073
14.368,0.00934369357550465
14.372,0.009345087926994315
14.376,0.009344438832335333
14.38,0.009343501251161249
14.384,0.009341505886098452
14.388,0.009341602048270153
14.392,0.009339005669634224
14.396,0.00933313977716046
14.4,0.00933597656122564
14.404,0.009340688507638991
14.408,0.00933994325080831
14.412,0.009341049115782872
14.416,0.009333885033991143
14.42,0.009324821749308319
14.424,0.00933273108793073
14.428,0.009335303426023733
14.432,0.009337827683030885
14.436,0.009337274750543604
14.44,0.009329004803777314
14.444,0.009330687641782083
14.448,0.009336265047740743
14.452,0.009333716750190665
14.456,0.009330928047211336
14.46,0.009329605817350446
14.464,0.009322874465331372
14.468,0.009328427830747109
14.472,0.009334269682677946
14.476,0.009332851290645356
14.48,0.009331745425670794
14.484,0.00932922116866364
14.488,0.009333356142046787
14.492,0.009332899371731207
14.496,0.009334654331364751
14.5,0.0093345100881072
14.504,0.009330519357981605
14.508000000000001,0.00932780277663105
14.512,0.009335423628738359
14.516,0.009339077791262999
14.52,0.009340424061666814
14.524000000000001,0.00933922203452055
14.528,0.00932953369572167
14.532,0.009314724721279708
14.536,0.009326648830570638
14.540000000000001,0.009337587277601632
14.544,0.009341193359040422
14.548,0.009343645494418799
14.552,0.009343068521388593
14.556000000000001,0.009342852156502266
14.56,0.009340015372437085
14.564,0.00934013557515171
14.568,0.009339077791262999
14.572000000000001,0.009342058818585732
14.576,0.009341553967184302
14.58,0.009344342670163631
14.584,0.00934181841315648
14.588000000000001,0.009338572939861569
14.592,0.00933912587234885
14.596,0.009332178155443448
14.6,0.009330711682325007
14.604000000000001,0.009333860993448217
14.608,0.00933780364248796
14.612,0.009337587277601632
14.616,0.009337034345114351
14.620000000000001,0.00933556787199591
14.624,0.009338332534432316
14.628,0.009341986696956956
14.632,0.009338380615518166
14.636000000000001,0.009334774534079377
14.64,0.009334942817879855
14.644,0.009331601182413243
14.648,0.009339101831805925
14.652000000000001,0.009339005669634224
14.656,0.009334798574622303
14.66,0.009338380615518166
14.664,0.009324196695192261
14.668000000000001,0.00932135991112708
14.672,0.009330375114724053
14.676,0.009335615953081761
14.68,0.009342227102386209
14.684000000000001,0.009343044480845667
14.688,0.009340688507638991
14.692,0.009338909507462523
14.696,0.00933506302059448
14.700000000000001,0.009338044047917214
14.704,0.009342299224014985
14.708,0.009340327899495113
14.712,0.009338933548005447
14.716000000000001,0.009337394953258232
14.72,0.009336241007197819
14.724,0.009346506319026907
14.728,0.00934866996789018
14.732000000000001,0.009344222467449006
14.736,0.009343188724103219
14.74,0.009343958021476828
14.744,0.009345280251337717
14.748000000000001,0.009342852156502266
14.752,0.009337370912715305
14.756,0.00933597656122564
14.76,0.009341553967184302
14.764000000000001,0.009345905305453775
14.768,0.009348020873231198
14.772,0.009342130940214508
14.776,0.009329317330835342
14.780000000000001,0.00932176860035681
14.784,0.009325735289939479
14.788,0.009332562804130253
14.792,0.009341890534785255
14.796000000000001,0.009343405088989547
14.8,0.009336962223485576
14.804,0.00934085679143947
14.808,0.009342227102386209
14.812000000000001,0.009342467507815462
14.816,0.00934237134564376
14.82,0.009335447669281285
14.824,0.00932729792522962
14.828000000000001,0.009332081993271749
14.832,0.009336385250455369
14.836,0.009338356574975242
14.84,0.00933633716936952
14.844000000000001,0.009330928047211336
14.848,0.009328764398348061
14.852,0.009323066789674775
14.856,0.009320590613753472
14.86,0.009317729789145366
14.864,0.009317585545887814
14.868,0.009318378883804348
14.872,0.009326889235999891
14.876,0.00933186562838542
14.88,0.00933044723635283
14.884,0.009327466209030097
14.888,0.00931902797846333
14.892,0.009314844923994333
14.896,0.009323715884333757
14.9,0.009329557736264595
14.904,0.00933181754729957
14.908,0.009333356142046787
14.912,0.009333211898789235
14.916,0.009335255344937883
14.92,0.009331601182413243
14.924,0.00933263492575903
14.928,0.009338765264204971
14.932,0.00933826041280354
14.936,0.009337226669457754
14.94,0.00933958264266443
14.944,0.009342203061843284
14.948,0.009341602048270153
14.952,0.009340303858952188
14.956,0.00933359654747604
14.96,0.00932902884432024
14.964,0.00933227431761515
14.968,0.009338981629091298
14.972,0.00934008749406586
14.976,0.009335639993624687
14.98,0.009329125006491941
14.984,0.00932922116866364
14.988,0.009329245209206567
14.992,0.009327850857716901
14.996,0.009327658533373499
15.0,0.00932907692540609
15.004,0.009326696911656489
15.008000000000001,0.009326312262969684
15.012,0.009324340938449813
15.016,0.009315277653766989
15.02,0.00930861842337669
15.024000000000001,0.009309099234235197
15.028,0.009331889668928346
15.032,0.00936369530721847
15.036,0.009393505580445796
15.040000000000001,0.009426320921538781
15.044,0.009433340760072958
15.048,0.009425166975478369
15.052,0.009419974218206511
15.056000000000001,0.009412425487727978
15.06,0.009390115863893333
15.064,0.009362805807130234
15.068,0.009331721385127868
15.072000000000001,0.009311551369613574
15.076,0.00931491704562311
15.08,0.009316407559284477
15.084,0.009321936884157287
15.088000000000001,0.009322345573387016
15.092,0.009321624357099259
15.096,0.009322105167957763
15.1,0.009320013640723266
15.104000000000001,0.009323066789674775
15.108,0.009325951654825805
15.112,0.009320614654296398
15.116,0.009315686342996718
15.120000000000001,0.009317080694486383
15.124,0.009320374248867145
15.128,0.009323788005962532
15.132,0.009322658100445044
15.136000000000001,0.0093209031408115
15.14,0.009319917478551565
15.144,0.009317417262087338
15.148,0.009317273018829786
15.152000000000001,0.009317946154031692
15.156,0.009317874032402917
15.16,0.009315998870054746
15.164,0.009317825951317067
15.168000000000001,0.009318138478375095
15.172,0.00931765766751659
15.176,0.009319003937920404
15.18,0.009307344274601653
15.184000000000001,0.009298088665575424
15.188,0.009305132544652525
15.192,0.009310733991154114
15.196,0.009317729789145366
15.200000000000001,0.0093186192892336
15.204,0.009316864329600057
15.208,0.009321335870584155
15.212,0.0093185231270619
15.216000000000001,0.009312849558931538
15.22,0.009309868531608805
15.224,0.009310397423553161
15.228,0.009314075626620726
15.232000000000001,0.009318090397289244
15.236,0.009319100100092105
15.24,0.009317465343173188
15.244,0.00931542189702454
15.248000000000001,0.009314099667163652
15.252,0.009316311397112776
15.256,0.009317729789145366
15.26,0.009317489383716113
15.264000000000001,0.009316046951140597
15.268,0.009313041883274939
15.272,0.009316527761999102
15.276,0.009323162951846474
15.280000000000001,0.009321912843614362
15.284,0.009321816681442661
15.288,0.009320350208324219
15.292,0.009308858828805944
15.296000000000001,0.009305493152796407
15.3,0.009318739491948226
15.304,0.009321335870584155
15.308,0.009326360344055535
15.312000000000001,0.009328644195633435
15.316,0.009323908208677158
15.32,0.009322393654472867
15.324,0.009324196695192261
15.328000000000001,0.009326865195456965
15.332,0.009332033912185898
15.336,0.009329677938979222
15.34,0.009325927614282881
15.344000000000001,0.009323235073475251
15.348,0.009322922546417223
15.352,0.009327466209030097
15.356,0.00933095208775426
15.36,0.009323860127591307
15.364,0.00932542276288145
15.368,0.009327105600886218
15.372,0.009323307195104026
15.376,0.009324629424964917
15.38,0.009326432465684311
15.384,0.009322537897730418
15.388,0.009321624357099259
15.392,0.009320879100268575
15.396,0.009323042749131849
15.4,0.009326432465684311
15.404,0.009316960491771758
15.408,0.009304868098680348
15.412,0.009309171355863972
15.416,0.009315542099739166
15.42,0.009319220302806732
15.424,0.009320133843437892
15.428,0.00931542189702454
15.432,0.009317922113488768
15.436,0.009322610019359193
15.44,0.009320566573210547
15.444,0.009321576276013408
15.448,0.009322513857187494
15.452,0.009315686342996718
15.456,0.009318931816291629
15.46,0.009319869397465715
15.464,0.00932126374895538
15.468,0.00931902797846333
15.472,0.00931496512670896
15.476,0.00931628735656985
15.48,0.009319628992036462
15.484,0.00931897989737748
15.488,0.009316599883627878
15.492,0.00931400350499195
15.496,0.009313979464449024
15.5,0.0093207108164681
15.504,0.00932121566786953
15.508000000000001,0.009320470411038846
15.512,0.009321648397642183
15.516,0.009310325301924384
15.52,0.009291741962243154
15.524000000000001,0.009300829287468903
15.528,0.009309724288351253
15.532,0.009315109369966513
15.536,0.009314628559108007
15.540000000000001,0.009312416829158883
15.544,0.00931359481576222
15.548,0.009318451005433123
15.552,0.009321888803071436
15.556000000000001,0.009321600316556333
15.56,0.009320542532667621
15.564,0.009309171355863972
15.568,0.009308498220662065
15.572000000000001,0.009315614221367943
15.576,0.009322057086871912
15.58,0.009324124573563486
15.584,0.009314676640193857
15.588000000000001,0.009315061288880662
15.592,0.009317441302630262
15.596,0.009318907775748704
15.6,0.009321864762528512
15.604000000000001,0.009319893438008639
15.608,0.009303521828276533
15.612,0.00929734340874474
15.616,0.009305324868995928
15.620000000000001,0.009304675774336945
15.624,0.009303425666104832
15.628,0.009301382219956184
15.632,0.009297896341232022
15.636000000000001,0.009298232908832976
15.64,0.009301430301042034
15.644,0.009303930517506262
15.648,0.009303305463390206
15.652000000000001,0.009300228273895771
15.656,0.009302800611988776
15.66,0.009312128342643779
15.664,0.009315686342996718
15.668000000000001,0.00931400350499195
15.672,0.009309676207265402
15.676,0.009308089531432336
15.68,0.00931034934246731
15.684000000000001,0.009308642463919617
15.688,0.009299362814350462
15.692,0.009288881137635048
15.696,0.009286116475198643
15.700000000000001,0.009288304164604841
15.704,0.009291645800071453
15.708,0.009295492286939495
15.712,0.009296766435714534
15.716000000000001,0.00929876180077733
15.72,0.009294338340879083
15.724,0.009296550070828207
15.728,0.009297728057431544
15.732000000000001,0.009301478382127885
15.736,0.009302247679501495
15.74,0.009301189895612783
15.744,0.009298785841320257
15.748000000000001,0.00929962726032264
15.752,0.00929993978738067
15.756,0.009300973530726455
15.76,0.009301742828100064
15.764000000000001,0.009288857097092122
15.768,0.009283520096562714
15.772,0.00929414601653568
15.776,0.009300781206383052
15.780000000000001,0.009299146449464136
15.784,0.009296886638429161
15.788,0.009285683745425988
15.792,0.009277582082460174
15.796000000000001,0.009277798447346502
15.8,0.009284385556108023
15.804,0.009305637396053959
15.808,0.009338020007374288
15.812000000000001,0.009366459969654874
15.816,0.009395500945508593
15.82,0.009405694135708905
15.824,0.009400188851379018
15.828000000000001,0.009391341931582522
15.832,0.00937059494303802
15.836,0.009349415224720863
15.84,0.009327490249573023
15.844000000000001,0.009316046951140597
15.848,0.009307993369260635
15.852,0.009289770637723283
15.856,0.009284121110135846
15.860000000000001,0.009291261151384648
15.864,0.0092936892462201
15.868,0.009293088232646969
15.872,0.00929313631373282
15.876,0.009285515461625512
15.88,0.009284193231764621
15.884,0.009291645800071453
15.888,0.009293256516447445
15.892,0.009292078529844108
15.896,0.009290539935096891
15.9,0.009283087366790059
15.904,0.009282438272131077
15.908,0.00928633284008497
15.912,0.009289650435008656
15.916,0.009292006408215332
15.92,0.009286236677913269
15.924,0.009283664339820266
15.928,0.009289650435008656
15.932,0.009293905611106427
15.936,0.009293520962419623
15.94,0.009294771070651736
15.944,0.009287318502344906
15.948,0.009288448407862393
15.952,0.009290251448581787
15.956,0.00928729446180198
15.96,0.009288929218720899
15.964,0.009284842326423603
15.968,0.009271451744014232
15.972,0.009277053190515819
15.976,0.009285202934567482
15.98,0.00928897729980675
15.984,0.00928998700260961
15.988,0.009283784542534892
15.992,0.009277894609518202
15.996,0.009280370785439505
16.0,0.00928272675864618
16.004,0.009284890407509454
16.008,0.009286404961713745
16.012,0.009283207569504686
16.016000000000002,0.009283808583077818
16.02,0.009292583381245539
16.024,0.009291693881157304
16.028,0.009285010610224081
16.032,0.009283279691133461
16.036,0.009281500690956991
16.04,0.009284842326423603
16.044,0.009288640732205795
16.048000000000002,0.00928948215120818
16.052,0.009288496488948243
16.056,0.009284770204794828
16.06,0.009285515461625512
16.064,0.009289241745778927
16.068,0.009289001340349674
16.072,0.009289121543064301
16.076,0.009288232042976066
16.080000000000002,0.009287005975286877
16.084,0.00929551632748242
16.088,0.009296622192456982
16.092,0.009298425233176377
16.096,0.009301502422670811
16.1,0.00928460192099435
16.104,0.009258806418435543
16.108,0.009274168325364786
16.112000000000002,0.009289890840437909
16.116,0.00929501147608099
16.12,0.009298882003491956
16.124,0.00929683855734331
16.128,0.009292895908303567
16.132,0.009295612489654121
16.136,0.009297776138517394
16.14,0.009294626827394186
16.144000000000002,0.009287775272660486
16.148,0.009289217705236002
16.152,0.009294867232823438
16.156,0.009296862597886235
16.16,0.009292102570387033
16.164,0.00929236701635921
16.168,0.009289265786321851
16.172,0.009290251448581787
16.176000000000002,0.009292487219073838
16.18,0.009285996272484016
16.184,0.009280971799012636
16.188,0.009279168758293242
16.192,0.00927217296030199
16.196,0.009273615392877506
16.2,0.0092732307441907
16.204,0.009273663473963356
16.208000000000002,0.009272966298218523
16.212,0.009262652905303585
16.216,0.009251474052843338
16.22,0.009258566013006292
16.224,0.00926029693209691
16.228,0.009261474918700248
16.232,0.009265537770454618
16.236,0.009261474918700248
16.240000000000002,0.009265081000139038
16.244,0.009267316770631086
16.248,0.009266499392171628
16.252,0.00926577817588387
16.256,0.00926176340521535
16.26,0.009261066229470517
16.264,0.009262484621503109
16.268,0.009258638134635067
16.272000000000002,0.009258998742778945
16.276,0.009263806851363998
16.28,0.009251594255557964
16.284,0.009247940093033324
16.288,0.009253781944964163
16.292,0.009254791647767024
16.296,0.009253637701706612
16.3,0.00925450316125192
16.304000000000002,0.009253589620620761
16.308,0.009258325607577039
16.312,0.00925988824286718
16.316,0.009261234513270995
16.32,0.009255392661340156
16.324,0.009246016849599303
16.328,0.009231592523844145
16.332,0.009242026119473709
16.336000000000002,0.009248829593121559
16.34,0.009253733863878313
16.344,0.009250031620267822
16.348,0.009246137052313929
16.352,0.009244406133223311
16.356,0.009242555011418066
16.36,0.009249526768866392
16.364,0.00925166637718674
16.368000000000002,0.009248685349864007
16.372,0.009237650740661312
16.376,0.009234116780851297
16.38,0.009235054362025383
16.384,0.009233924456507897
16.388,0.009230102010182779
16.392,0.009223250455449078
16.396,0.009224813090739222
16.4,0.009228226847834609
16.404,0.009224188036623164
16.408,0.009224404401509491
16.412,0.009223178333820303
16.416,0.009212528373304411
16.42,0.009202671750705053
16.424,0.009200580223470554
16.428,0.00919832041243558
16.432,0.009204450750881521
16.436,0.009203320845364035
16.44,0.009199017588180413
16.444,0.009197959804291701
16.448,0.009190867844128748
16.452,0.009182213248675653
16.456,0.009185410640884713
16.46,0.00917913605918122
16.464,0.009181347789130344
16.468,0.00919608464194353
16.472,0.009199834966639871
16.476,0.00920522004825513
16.48,0.009206373994315543
16.484,0.009196469290630335
16.488,0.009204090142737643
16.492,0.009213634238278973
16.496,0.009218586590121577
16.5,0.009222625401333022
16.504,0.009222553279704246
16.508,0.009222577320247172
16.512,0.009230294334526181
16.516000000000002,0.009236112145914094
16.52,0.009240487524726494
16.524,0.009237819024461788
16.528,0.009233587888906943
16.532,0.00923892488943635
16.536,0.009242506930332215
16.54,0.009244646538652564
16.544,0.009247819890318698
16.548000000000002,0.009245487957654947
16.552,0.009243925322364805
16.556,0.009244285930508684
16.56,0.009240174997668464
16.564,0.009240511565269418
16.568,0.009242795416847319
16.572,0.009245127349511068
16.576,0.009266571513800403
16.580000000000002,0.009306286490712941
16.584,0.009345544697309895
16.588,0.009371676767469656
16.592,0.009372277781042788
16.596,0.00935968053654995
16.6,0.009348862292233582
16.604,0.009331649263499093
16.608,0.00930715195025825
16.612000000000002,0.009284529799365575
16.616,0.009271331541299605
16.62,0.009261402797071472
16.624,0.009259239148208198
16.628,0.00925435891799437
16.632,0.009254479120708996
16.636,0.009256137918170839
16.64,0.009253060728676406
16.644000000000002,0.009251401931214561
16.648,0.009250440309497551
16.652,0.009252820323247153
16.656,0.009257844796718533
16.66,0.00925532053971138
16.664,0.009254190634193893
16.668,0.009258517931920441
16.672,0.009260441175354461
16.676000000000002,0.009260441175354461
16.68,0.009258662175177991
16.684,0.009246810187515837
16.688,0.009239405700294856
