time,channel1
0.0,-0.012013083340297142
0.004,-0.012013972840385377
0.008,-0.012014742137758985
0.012,-0.012011785150979178
0.016,-0.012005270163846431
0.02,-0.012002481460867102
0.024,-0.012004813393530852
0.028,-0.012012506367266937
0.032,-0.01202070419240445
0.036000000000000004,-0.012027267260623047
0.04,-0.012032508098980755
0.044,-0.012035873774990291
0.048,-0.012038638437426698
0.052000000000000005,-0.012041763708006982
0.056,-0.012044720694786789
0.06,-0.012042004113436235
0.064,-0.01203582569390444
0.068,-0.01203334951798314
0.07200000000000001,-0.012038566315797921
0.076,-0.012048398897854353
0.08,-0.012042316640494263
0.084,-0.012027315341708898
0.088,-0.012027291301165973
0.092,-0.0120296953554585
0.096,-0.012023613098098409
0.1,-0.012018396300283625
0.10400000000000001,-0.012021257124891731
0.108,-0.012029382828400471
0.112,-0.01203334951798314
0.116,-0.01203120990966279
0.12,-0.012031594558349595
0.124,-0.012034431342414777
0.128,-0.012036186302048321
0.132,-0.012037075802136555
0.136,-0.012037436410280435
0.14,-0.012036186302048321
0.14400000000000002,-0.012032964869296335
0.148,-0.012031546477263745
0.152,-0.012032628301695382
0.156,-0.012036570950735124
0.16,-0.012038734599598398
0.164,-0.012038638437426698
0.168,-0.012038854802313025
0.17200000000000001,-0.01202923858514292
0.176,-0.012020367624803498
0.18,-0.012015319110789192
0.184,-0.012002096812180297
0.188,-0.01200101498774866
0.192,-0.012002096812180297
0.196,-0.012005294204389358
0.2,-0.01201517486753164
0.20400000000000001,-0.012019357922000637
0.20800000000000002,-0.012017627002910017
0.212,-0.012018300138111924
0.216,-0.012017170232594437
0.22,-0.012019021354399683
0.224,-0.012018155894854374
0.228,-0.012016376894677903
0.232,-0.012022699557467247
0.23600000000000002,-0.012022964003439426
0.24,-0.012019934895030842
0.244,-0.01201923771928601
0.248,-0.012015848002733547
0.252,-0.012012338083466459
0.256,-0.012015848002733547
0.26,-0.012014044962014152
0.264,-0.012011232218491897
0.268,-0.012010318677860737
0.272,-0.01200918877234325
0.276,-0.012006135623391742
0.28,-0.011992408473381415
0.28400000000000003,-0.011981061337120692
0.28800000000000003,-0.012001928528379821
0.292,-0.012023156327782827
0.296,-0.012027339382251824
0.3,-0.012021329246520508
0.304,-0.012014766178301911
0.308,-0.012013516070069797
0.312,-0.01201791548942512
0.316,-0.012021617733035611
0.32,-0.012024117949499839
0.324,-0.012023781381898885
0.328,-0.012019718530144516
0.332,-0.012018444381369476
0.336,-0.012018612665169954
0.34,-0.012017675083995868
0.34400000000000003,-0.012019454084172336
0.34800000000000003,-0.012020680151861526
0.352,-0.012019093476028458
0.356,-0.012014910421559463
0.36,-0.012071309535262132
0.364,-0.012052413668522874
0.368,-0.012064890710301087
0.372,-0.012064746467043535
0.376,-0.012051500127891713
0.38,-0.012048374857311429
0.384,-0.012048759505998234
0.388,-0.012053687817297912
0.392,-0.012062438574922708
0.396,-0.012069434372913962
0.4,-0.012067439007851165
0.404,-0.012060827858546716
0.40800000000000003,-0.012054144587613492
0.41200000000000003,-0.01204750939776612
0.41600000000000004,-0.012043374424382974
0.42,-0.012045562113789174
0.424,-0.012048567181654831
0.428,-0.01204887970871286
0.432,-0.01203075313934721
0.436,-0.011999500433544369
0.44,-0.012006231785563442
0.444,-0.01206467434541476
0.448,-0.012093595118553851
0.452,-0.012104653768299473
0.456,-0.012123790040467982
0.46,-0.012123525594495805
0.464,-0.012092657537379765
0.468,-0.012069843062143691
0.47200000000000003,-0.012055058128244651
0.47600000000000003,-0.012054577317386147
0.48,-0.012063592520983123
0.484,-0.01206340019663972
0.488,-0.012044648573158014
0.492,-0.012023540976469632
0.496,-0.012023156327782827
0.5,-0.012042821491895693
0.504,-0.01205892865565562
0.508,-0.0120571015743933
0.512,-0.012039624099686633
0.516,-0.012044913019130191
0.52,-0.012068857399883755
0.524,-0.012078786144111888
0.528,-0.012081045955146863
0.532,-0.012080517063202508
0.536,-0.012079315036056245
0.54,-0.012074579049099967
0.544,-0.012072199035350367
0.548,-0.012073256819239079
0.552,-0.01207212691372159
0.556,-0.012071261454176281
0.56,-0.012062486656008559
0.5640000000000001,-0.012053303168611107
0.5680000000000001,-0.01205450519575737
0.5720000000000001,-0.012062005845150053
0.5760000000000001,-0.012069097805313008
0.58,-0.012071405697433833
0.584,-0.012073016413809826
0.588,-0.01207263176512302
0.592,-0.012068809318797905
0.596,-0.012070299832459271
0.6,-0.0120752762248448
0.604,-0.012074627130185818
0.608,-0.01206426565618503
0.612,-0.012046403532791558
0.616,-0.012047100708536389
0.62,-0.012092465213036363
0.624,-0.012111361079775621
0.628,-0.01210035051111585
0.632,-0.012085349212330485
0.636,-0.01207121337309043
0.64,-0.012069939224315393
0.644,-0.012076886941220792
0.648,-0.012079627563114273
0.652,-0.012080637265917134
0.656,-0.012080060292886928
0.66,-0.012078281292710458
0.664,-0.012076430170905213
0.668,-0.012075107941044324
0.672,-0.012074506927471192
0.676,-0.012072872170552274
0.68,-0.012069073764770082
0.684,-0.012066405264505378
0.6880000000000001,-0.012066982237535585
0.6920000000000001,-0.012069097805313008
0.6960000000000001,-0.012071285494719208
0.7000000000000001,-0.012070131548658795
0.704,-0.01206517919681619
0.708,-0.012058784412398068
0.712,-0.012055851466161185
0.716,-0.01206227029112223
0.72,-0.012063328075010945
0.724,-0.012055466817474382
0.728,-0.012054216709242269
0.732,-0.012069458413456887
0.736,-0.012073377021953704
0.74,-0.01206481858867231
0.744,-0.012061164426147668
0.748,-0.0120638569669553
0.752,-0.01205664480407772
0.756,-0.01205029810074545
0.76,-0.012052245384722396
0.764,-0.012051548208977563
0.768,-0.012051428006262938
0.772,-0.012057942993395684
0.776,-0.012071045089289955
0.78,-0.012074555008557043
0.784,-0.012072872170552274
0.788,-0.012068953562055456
0.792,-0.012065034953558639
0.796,-0.012062414534379782
0.8,-0.01205532257421683
0.804,-0.012056500560820168
0.808,-0.012066813953735107
0.812,-0.01207020367028757
0.8160000000000001,-0.01206705435916436
0.8200000000000001,-0.012070588318974375
0.8240000000000001,-0.012073569346297107
0.8280000000000001,-0.012064169494013328
0.8320000000000001,-0.012055755303989484
0.836,-0.012062318372208081
0.84,-0.012075420468102352
0.844,-0.012080829590260536
0.848,-0.012083377887810614
0.852,-0.012086382955676272
0.856,-0.012084676077128579
0.86,-0.012081286360576116
0.864,-0.012076742697963242
0.868,-0.012074627130185818
0.872,-0.012072463481322545
0.876,-0.012070924886575327
0.88,-0.012069097805313008
0.884,-0.012066212940161976
0.888,-0.012061957764064202
0.892,-0.012056837128421122
0.896,-0.012055178330959279
0.9,-0.012059481588142901
0.904,-0.012070227710830495
0.908,-0.012073617427382957
0.912,-0.012075180062673099
0.916,-0.01207705522502127
0.92,-0.012075708954617455
0.924,-0.012073280859782003
0.928,-0.012071982670464039
0.932,-0.012074987738329697
0.936,-0.012077632198051476
0.9400000000000001,-0.01207650229253399
0.9440000000000001,-0.012074603089642894
0.9480000000000001,-0.012073112575981527
0.9520000000000001,-0.012069410332371036
0.9560000000000001,-0.012065491723874219
0.96,-0.012063712723697748
0.964,-0.012069362251285186
0.968,-0.01207842553596801
0.972,-0.012078521698139711
0.976,-0.012063328075010945
0.98,-0.01204897587088456
0.984,-0.012062871304695365
0.988,-0.012080300698316181
0.992,-0.012092272888692962
0.996,-0.01209623957827563
1.0,-0.01209496542950059
1.004,-0.01209253733466514
1.008,-0.012090037118200912
1.012,-0.012088714888340023
1.016,-0.012087056090878179
1.02,-0.012084988604186607
1.024,-0.012082512428265305
1.028,-0.012080517063202508
1.032,-0.012078593819768486
1.036,-0.012080901711889313
1.04,-0.012084147185184222
1.044,-0.012084964563643682
1.048,-0.012084916482557832
1.052,-0.012087993672052265
1.056,-0.012093619159096776
1.06,-0.012096864632391686
1.064,-0.012096864632391686
1.068,-0.012095590483616648
1.072,-0.012095951091760527
1.076,-0.01209304218606657
1.08,-0.012079988171258152
1.084,-0.012078545738682637
1.088,-0.012091719956205681
1.092,-0.012095854929588826
1.096,-0.012095133713301068
1.1,-0.012097032916192164
1.104,-0.012104269119612668
1.108,-0.012108356011909963
1.112,-0.012107466511821728
1.116,-0.012104317200698518
1.12,-0.012102850727580078
1.124,-0.012107250146935401
1.1280000000000001,-0.012113116039409165
1.1320000000000001,-0.012116073026188973
1.1360000000000001,-0.012116048985646046
1.1400000000000001,-0.012113789174611072
1.1440000000000001,-0.012111288958146844
1.1480000000000001,-0.012109125309283571
1.1520000000000001,-0.012107466511821728
1.156,-0.012105903876531586
1.16,-0.012104846092642875
1.164,-0.012103836389840012
1.168,-0.012102826687037152
1.172,-0.012096936754020463
1.176,-0.012083161522924287
1.18,-0.012079507360399647
1.184,-0.01209212864543541
1.188,-0.01209030156417309
1.192,-0.012084075063555447
1.196,-0.0120957347268742
1.2,-0.012102946889751779
1.204,-0.01211227462040678
1.208,-0.01211953486437021
1.212,-0.012123068824180223
1.216,-0.012124463175669889
1.22,-0.01212318902689485
1.224,-0.012119102134597555
1.228,-0.01211592878293142
1.232,-0.01211491908012856
1.236,-0.012115640296416317
1.24,-0.012115207566643664
1.244,-0.012113404525924269
1.248,-0.01211227462040678
1.252,-0.012112394823121406
1.256,-0.012111553404119024
1.26,-0.01211035137697276
1.264,-0.012109558039056226
1.268,-0.012108259849738262
1.272,-0.012105447106216007
1.276,-0.012100134146229524
1.28,-0.012098451308224754
1.284,-0.012099316767770063
1.288,-0.012103403660067359
1.292,-0.01210395659255464
1.296,-0.012095927051217602
1.3,-0.012092320969778813
1.304,-0.012101384254461637
1.308,-0.01210852429571044
1.312,-0.012117371215506937
1.316,-0.01212547287847275
1.32,-0.012129752095113447
1.324,-0.012134632325327275
1.328,-0.012137012339076877
1.332,-0.012138599014909945
1.336,-0.012139488514998178
1.34,-0.012140017406942535
1.344,-0.01214287823155064
1.348,-0.012144681272270036
1.352,-0.012145498650729494
1.356,-0.012145739056158747
1.36,-0.012145258245300243
1.364,-0.012144128339782755
1.368,-0.012143383082952071
1.372,-0.012142205096348734
1.3760000000000001,-0.012140570339429816
1.3800000000000001,-0.012137998001336813
1.3840000000000001,-0.012133165852208834
1.3880000000000001,-0.01212511227032887
1.3920000000000001,-0.012126626824533164
1.3960000000000001,-0.01213085796008801
1.4000000000000001,-0.01212588156770248
1.4040000000000001,-0.012123044783637299
1.408,-0.012136315163332044
1.412,-0.012147974826650797
1.416,-0.012152037678405166
1.42,-0.012156196692331237
1.424,-0.0121573987194775
1.428,-0.012156725584275592
1.432,-0.012156004367987834
1.436,-0.01215516294898545
1.44,-0.012154465773240617
1.444,-0.012152302124377344
1.448,-0.012148768164567331
1.452,-0.01214694108330501
1.456,-0.012144849556070512
1.46,-0.012142733988293089
1.464,-0.01214552269127242
1.468,-0.012150402921486248
1.472,-0.012151027975602306
1.476,-0.012146724718418683
1.48,-0.012139151947397226
1.484,-0.012141003069202471
1.488,-0.012149777867370192
1.492,-0.012153504151523607
1.496,-0.012150571205286726
1.5,-0.012145811177787524
1.504,-0.012144272583040306
1.508,-0.012144873596613438
1.512,-0.012144416826297858
1.516,-0.012142613785578463
1.52,-0.012145450569643643
1.524,-0.012151677070261288
1.528,-0.012146532394075281
1.532,-0.01214333500186622
1.536,-0.012151196259402782
1.54,-0.01215694194916192
1.544,-0.012158672868252538
1.548,-0.012158119935765257
1.552,-0.012157879530336006
1.556,-0.012158672868252538
1.56,-0.012157951651964781
1.564,-0.01215571588147273
1.568,-0.012152975259579252
1.572,-0.012150667367458427
1.576,-0.012148119069908349
1.58,-0.012145811177787524
1.584,-0.012145618853444121
1.588,-0.012146724718418683
1.592,-0.012147830583393245
1.596,-0.01214831139425175
1.6,-0.012143022474808193
1.604,-0.012138094163508513
1.608,-0.012140378015086413
1.612,-0.012142084893634107
1.616,-0.012142397420692135
1.62,-0.012139416393369403
1.624,-0.012140305893457638
1.6280000000000001,-0.01214506592095684
1.6320000000000001,-0.012147830583393245
1.6360000000000001,-0.012148744124024405
1.6400000000000001,-0.012146917042762086
1.6440000000000001,-0.01214278206937894
1.6480000000000001,-0.012140690542144441
1.6520000000000001,-0.012140017406942535
1.6560000000000001,-0.01214136367734635
1.6600000000000001,-0.012137084460705652
1.6640000000000001,-0.012136267082246193
1.668,-0.012139656798798656
1.672,-0.012140834785401993
1.676,-0.012140498217801039
1.68,-0.012138815379796272
1.684,-0.01213871921762457
1.688,-0.012136964257991026
1.692,-0.012133358176552237
1.696,-0.012130713716830457
1.7,-0.01212903087882569
1.704,-0.012130353108686579
1.708,-0.012131314730403589
1.712,-0.01213049735194413
1.716,-0.012130353108686579
1.72,-0.012128477946338407
1.724,-0.012131002203345561
1.728,-0.012131771500719169
1.732,-0.012123573675581655
1.736,-0.012120256080657968
1.74,-0.012130377149229503
1.744,-0.012141796407119003
1.748,-0.012148095029365423
1.752,-0.012150330799857473
1.756,-0.012148960488910732
1.76,-0.012145234204757317
1.764,-0.012140810744859069
1.768,-0.012135617987587211
1.772,-0.012131146446603113
1.776,-0.012131194527688963
1.78,-0.012137925879708036
1.784,-0.012142253177434585
1.788,-0.01214278206937894
1.792,-0.012140762663773218
1.796,-0.0121367478931047
1.8,-0.012136916176905176
1.804,-0.012138574974367019
1.808,-0.012139320231197702
1.812,-0.012137565271564158
1.816,-0.012135161217271631
1.82,-0.012132348473749376
1.824,-0.012131242608774814
1.828,-0.012130136743800252
1.832,-0.012131987865605497
1.836,-0.012136243041703269
1.84,-0.012136122838988642
1.844,-0.01213720466342028
1.848,-0.012140113569114236
1.852,-0.012138887501425047
1.856,-0.012134391919898024
1.86,-0.012133310095466386
1.864,-0.012134127473925845
1.868,-0.012139151947397226
1.872,-0.01214460915064126
1.8760000000000001,-0.012143503285666697
1.8800000000000001,-0.012138382650023616
1.8840000000000001,-0.01213968083934158
1.8880000000000001,-0.012143407123494997
1.8920000000000001,-0.012140161650200086
1.8960000000000001,-0.012137372947220755
1.9000000000000001,-0.012139079825768449
1.9040000000000001,-0.012141748326033153
1.9080000000000001,-0.012142685907207238
1.9120000000000001,-0.012143383082952071
1.9160000000000001,-0.012142205096348734
1.92,-0.012135882433559389
1.924,-0.01213186766289087
1.928,-0.012134920811842378
1.932,-0.012137973960793887
1.936,-0.012139777001513282
1.94,-0.01214064246105859
1.944,-0.012141700244947302
1.948,-0.01214109923137417
1.952,-0.012138599014909945
1.956,-0.012136820014733474
1.96,-0.01213552182541551
1.964,-0.012134752528041902
1.968,-0.012135714149758912
1.972,-0.012135209298357482
1.976,-0.012134271717183396
1.98,-0.012126674905619013
1.984,-0.012119390621112659
1.988,-0.01212967997348467
1.992,-0.012136122838988642
1.996,-0.01214064246105859
2.0,-0.012142950353179416
2.004,-0.012136916176905176
2.008,-0.012137108501248578
2.012,-0.012142806109921866
2.016,-0.012145378448014868
2.02,-0.012143070555894043
2.024,-0.012139704879884507
2.028,-0.01214064246105859
2.032,-0.01214013760965716
2.036,-0.012139873163684983
2.04,-0.012141556001689752
2.044,-0.012141123271917097
2.048,-0.012140666501601517
2.052,-0.01214085882594492
2.056,-0.012139728920427431
2.06,-0.012137661433735859
2.064,-0.012136411325503745
2.068,-0.01213095412225971
2.072,-0.012122660134950494
2.076,-0.012122083161920288
2.08,-0.012132540798092778
2.084,-0.012140474177258114
2.088,-0.012142517623406762
2.092,-0.012143214799151595
2.096,-0.01214333500186622
2.1,-0.012141003069202471
2.104,-0.01213871921762457
2.108,-0.01213730082559198
2.112,-0.012136194960617418
2.116,-0.012137372947220755
2.12,-0.012138238406766064
2.124,-0.012139200028483076
2.128,-0.012139031744682598
2.132,-0.012133718784696115
2.136,-0.012126987432677042
2.14,-0.012133117771122984
2.144,-0.012142974393722342
2.148,-0.012145618853444121
2.152,-0.012145546731815345
2.156,-0.012144897637156362
2.16,-0.012142806109921866
2.164,-0.012140257812371788
2.168,-0.012136050717359867
2.172,-0.01213318989275176
2.176,-0.012130473311401204
2.18,-0.012126819148876564
2.184,-0.01212136194563253
2.188,-0.012116601918133327
2.192,-0.012112539066378958
2.196,-0.012109558039056226
2.2,-0.012114654634156381
2.204,-0.0121185732426532
2.208,-0.012118236675052246
2.212,-0.01212186679703396
2.216,-0.012125641162273227
2.22,-0.012128694311224736
2.224,-0.012130882000630934
2.228,-0.012130160784343176
2.232,-0.012127540365164323
2.236,-0.01212405448644016
2.24,-0.012124246810783562
2.244,-0.012124751662184992
2.248,-0.012123862162096757
2.2520000000000002,-0.012122443770064167
2.2560000000000002,-0.012119270418398033
2.2600000000000002,-0.012117876066908367
2.2640000000000002,-0.012127540365164323
2.2680000000000002,-0.012132925446779581
2.2720000000000002,-0.012133069690037133
2.2760000000000002,-0.012133478379266862
2.2800000000000002,-0.012132564838635703
2.2840000000000003,-0.01213004058162855
2.2880000000000003,-0.012128886635568138
2.2920000000000003,-0.01212826158145208
2.2960000000000003,-0.012130569473572906
2.3000000000000003,-0.012133526460352713
2.3040000000000003,-0.012131987865605497
2.308,-0.012130112703257326
2.312,-0.012133766865781966
2.316,-0.012134728487498976
2.32,-0.01213186766289087
2.324,-0.012134271717183396
2.328,-0.012133863027953667
2.332,-0.012126362378560985
2.336,-0.012124775702727918
2.34,-0.012134247676640472
2.344,-0.012140017406942535
2.348,-0.012141483880060975
2.352,-0.012138358609480692
2.356,-0.012138839420339196
2.36,-0.012143815812724727
2.364,-0.012145883299416299
2.368,-0.01214278206937894
2.372,-0.012139656798798656
2.376,-0.012140930947573694
2.38,-0.012140378015086413
2.384,-0.012138478812195317
2.388,-0.012137565271564158
2.392,-0.012136122838988642
2.396,-0.012132132108863047
2.4,-0.012131194527688963
2.404,-0.012130112703257326
2.408,-0.012128958757196913
2.412,-0.012132588879178629
2.416,-0.01213415151446877
2.42,-0.012132997568408358
2.424,-0.012130737757373384
2.428,-0.012131074324974336
2.432,-0.012131987865605497
2.436,-0.012131242608774814
2.44,-0.012132108068320123
2.444,-0.012132973527865432
2.448,-0.012133069690037133
2.452,-0.012133117771122984
2.456,-0.012132108068320123
2.46,-0.012130930081716784
2.464,-0.012129319365340792
2.468,-0.012125280554129349
2.472,-0.012118140512880545
2.476,-0.012116241309989449
2.48,-0.012117876066908367
2.484,-0.012115712418045094
2.488,-0.012122756297122195
2.492,-0.01213511313618578
2.496,-0.012141940650376555
2.5,-0.01214232529906336
2.504,-0.01214145983951805
2.508,-0.01214040205562934
2.512,-0.012137829717536335
2.516,-0.012137781636450485
2.52,-0.012139801042056208
2.524,-0.01214040205562934
2.528,-0.012139728920427431
2.532,-0.012140930947573694
2.536,-0.012142229136891659
2.54,-0.01214186852874778
2.544,-0.012140209731285937
2.548,-0.012139512555541104
2.552,-0.012139055785225525
2.556,-0.012137156582334429
2.56,-0.012137998001336813
2.564,-0.012141075190831246
2.568,-0.01213871921762457
2.572,-0.012142205096348734
2.576,-0.012149080691625359
2.58,-0.012149561502483863
2.584,-0.012148191191537124
2.588,-0.01214689300221916
2.592,-0.012145258245300243
2.596,-0.012143022474808193
2.6,-0.012142205096348734
2.604,-0.012143815812724727
2.608,-0.012143503285666697
2.612,-0.012140378015086413
2.616,-0.012140378015086413
2.62,-0.012144416826297858
2.624,-0.012148936448367807
2.628,-0.012148431596966377
2.632,-0.012143936015439352
2.636,-0.012146388150817729
2.64,-0.012151941516233465
2.644,-0.012154345570525991
2.648,-0.01215516294898545
2.652,-0.012154489813783543
2.656,-0.012153407989351906
2.66,-0.012150451002572098
2.664,-0.012147229569820114
2.668,-0.01214734977253474
2.672,-0.012152999300122177
2.676,-0.012155451435500553
2.68,-0.012156629422103892
2.684,-0.012157206395134098
2.688,-0.012154369611068916
2.692,-0.01214552269127242
2.696,-0.012140161650200086
2.7,-0.012141604082775603
2.704,-0.012142806109921866
2.708,-0.012144344704669081
2.712,-0.012148287353708825
2.716,-0.012152951219036326
2.72,-0.012154994665184974
2.724,-0.01215470617866987
2.728,-0.012150475043115025
2.732,-0.012147542096878142
2.736,-0.012150715448544276
2.74,-0.012153432029894832
2.744,-0.012153119502836802
2.748,-0.012151436664832035
2.7520000000000002,-0.012150066353885295
2.7560000000000002,-0.012146868961676235
2.7600000000000002,-0.012143455204580848
2.7640000000000002,-0.012143767731638876
2.7680000000000002,-0.012146291988646028
2.7720000000000002,-0.012146917042762086
2.7760000000000002,-0.012145114002042691
2.7800000000000002,-0.01214040205562934
2.7840000000000003,-0.012139296190654776
2.7880000000000003,-0.012140209731285937
2.7920000000000003,-0.012145186123671466
2.7960000000000003,-0.012146604515704056
2.8000000000000003,-0.012145234204757317
2.8040000000000003,-0.012148816245653182
2.8080000000000003,-0.012153383948808981
2.8120000000000003,-0.012152470408177822
2.816,-0.012151340502660334
2.82,-0.012151580908089587
2.824,-0.012151436664832035
2.828,-0.012151773232432989
2.832,-0.012152734854149999
2.836,-0.012152470408177822
2.84,-0.01215155686754666
2.844,-0.01214968170519849
2.848,-0.012146700677875757
2.852,-0.012144849556070512
2.856,-0.012143431164037922
2.86,-0.012140738623230292
2.864,-0.012138526893281168
2.868,-0.01213451212261265
2.872,-0.012129704014027597
2.876,-0.012132156149405974
2.88,-0.012132685041350328
2.884,-0.012129199162626166
2.888,-0.012130353108686579
2.892,-0.012132925446779581
2.896,-0.01213318989275176
2.9,-0.012131723419633318
2.904,-0.012131507054746991
2.908,-0.012133310095466386
2.912,-0.012134031311754143
2.916,-0.012130353108686579
2.92,-0.012128862595025212
2.924,-0.01213415151446877
2.928,-0.012135954555188165
2.932,-0.012134872730756528
2.936,-0.012137132541791502
2.94,-0.012137108501248578
2.944,-0.01213648344713252
2.948,-0.01213770951482171
2.952,-0.012137012339076877
2.956,-0.012135690109215986
2.96,-0.012133959190125368
2.964,-0.012128381784166708
2.968,-0.012124415094584038
2.972,-0.012131723419633318
2.976,-0.012135810311930614
2.98,-0.012138863460882122
2.984,-0.012141652163861453
2.988,-0.01213968083934158
2.992,-0.012133382217095161
2.996,-0.012132035946691348
3.0,-0.0121368440552764
3.004,-0.01213917598794015
3.008,-0.012138070122965588
3.012,-0.012137517190478307
3.016,-0.012138647095995795
3.02,-0.012138647095995795
3.024,-0.012138358609480692
3.028,-0.012139248109568927
3.032,-0.012139608717712806
3.036,-0.012139055785225525
3.04,-0.012142181055805808
3.044,-0.012143911974896428
3.048,-0.012143310961323296
3.052,-0.012141243474631722
3.056,-0.012138887501425047
3.06,-0.012138046082422664
3.064,-0.01213689213636225
3.068,-0.012129848257285148
3.072,-0.012126915311048266
3.076,-0.012134968892928229
3.08,-0.012141964690919481
3.084,-0.01214552269127242
3.088,-0.012143647528924249
3.092,-0.012139969325856684
3.096,-0.0121414117584322
3.1,-0.012145426529100719
3.104,-0.012142661866664314
3.108,-0.012144657231727111
3.112,-0.012150354840400397
3.116,-0.012152037678405166
3.12,-0.01215196555677639
3.124,-0.012152109800033941
3.128,-0.012152230002748569
3.132,-0.012152734854149999
3.136,-0.012150451002572098
3.14,-0.012147013204933787
3.144,-0.012145306326386092
3.148,-0.012144777434441737
3.152,-0.012144464907383709
3.156,-0.012142036812548256
3.16,-0.012135738190301837
3.164,-0.01212867027068181
3.168,-0.012133574541438564
3.172,-0.012142205096348734
3.176,-0.012146652596789907
3.18,-0.01214734977253474
3.184,-0.012146820880590384
3.188,-0.012148455637509301
3.192,-0.012152710813607073
3.196,-0.012153504151523607
3.2,-0.012153528192066533
3.204,-0.012153576273152384
3.208,-0.01215227808383442
3.212,-0.012151124137774007
3.216,-0.012148864326739032
3.22,-0.012144464907383709
3.224,-0.012144344704669081
3.228,-0.012143815812724727
3.232,-0.012139344271740626
3.236,-0.012139007704139674
3.24,-0.01214328692078037
3.244,-0.012150571205286726
3.248,-0.012155186989528376
3.2520000000000002,-0.012154874462470348
3.2560000000000002,-0.012156461138303414
3.2600000000000002,-0.012156965989704845
3.2640000000000002,-0.01215612457070246
3.2680000000000002,-0.012153143543379728
3.2720000000000002,-0.012154682138126946
3.2760000000000002,-0.012156268813960012
3.2800000000000002,-0.01215593224635906
3.2840000000000003,-0.012158720949338389
3.2880000000000003,-0.01215973065214125
3.2920000000000003,-0.01215836034119451
3.2960000000000003,-0.012154778300298647
3.3000000000000003,-0.012152662732521222
3.3040000000000003,-0.012150619286372576
3.3080000000000003,-0.01215013847551407
3.3120000000000003,-0.012149056651082433
3.3160000000000003,-0.012153311827180205
3.3200000000000003,-0.012157326597848723
3.3240000000000003,-0.012160884598201664
3.3280000000000003,-0.012162591476749359
3.332,-0.012161052882002142
3.336,-0.01216172601720405
3.34,-0.01216100480091629
3.344,-0.012157518922192126
3.348,-0.012153167583922653
3.352,-0.012151749191890063
3.356,-0.012152999300122177
3.36,-0.012153191624465579
3.364,-0.012153071421750953
3.368,-0.012152975259579252
3.372,-0.012154153246182589
3.376,-0.012154225367811366
3.38,-0.012153984962382113
3.384,-0.012153648394781159
3.388,-0.012146772799504534
3.392,-0.012146460272446506
3.396,-0.012155547597672255
3.4,-0.012157927611421855
3.404,-0.012154802340841571
3.408,-0.012147974826650797
3.412,-0.012144873596613438
3.416,-0.012143767731638876
3.42,-0.012147878664479096
3.424,-0.01215232616492027
3.428,-0.012149080691625359
3.432,-0.012149777867370192
3.436,-0.012152350205463194
3.44,-0.012152302124377344
3.444,-0.012153576273152384
3.448,-0.012153840719124561
3.452,-0.01215013847551407
3.456,-0.012150018272799445
3.46,-0.012152638691978298
3.464,-0.012153119502836802
3.468,-0.01215206171894809
3.472,-0.012152302124377344
3.476,-0.012152085759491017
3.48,-0.012151316462117407
3.484,-0.01215278293523585
3.488,-0.012154225367811366
3.492,-0.012152710813607073
3.496,-0.012149729786284341
3.5,-0.012145715015615823
3.504,-0.012146652596789907
3.508,-0.012153720516409934
3.512,-0.012156196692331237
3.516,-0.012155235070614227
3.52,-0.012151917475690539
3.524,-0.012150955853973529
3.528,-0.012150378880943323
3.532,-0.012150883732344754
3.536,-0.012153023340665103
3.54,-0.012153263746094354
3.544,-0.012152109800033941
3.548,-0.01215100393505938
3.552,-0.012152422327091971
3.556,-0.012154369611068916
3.56,-0.0121552110300713
3.564,-0.012155427394957629
3.568,-0.012157206395134098
3.572,-0.01215699003024777
3.576,-0.012155186989528376
3.58,-0.012153888800210412
3.584,-0.01215196555677639
3.588,-0.012148744124024405
3.592,-0.012147109367105486
3.596,-0.01214694108330501
3.6,-0.012148191191537124
3.604,-0.012148022907736648
3.608,-0.012146580475161131
3.612,-0.012145546731815345
3.616,-0.012144825515527587
3.62,-0.012143984096525203
3.624,-0.012140690542144441
3.628,-0.012139728920427431
3.632,-0.012142854191007716
3.636,-0.012145402488557793
3.64,-0.01214475339389881
3.644,-0.01214328692078037
3.648,-0.012142229136891659
3.652,-0.012139849123142058
3.656,-0.012138767298710421
3.66,-0.012137276785049054
3.664,-0.01213186766289087
3.668,-0.012129583811312971
3.672,-0.012134872730756528
3.676,-0.012134968892928229
3.68,-0.01212898279773984
3.684,-0.012129511689684194
3.688,-0.0121368440552764
3.692,-0.01214064246105859
3.696,-0.012139752960970357
3.7,-0.012136723852561773
3.704,-0.0121345602036985
3.708,-0.01213689213636225
3.712,-0.01213653152821837
3.716,-0.012132997568408358
3.72,-0.012135786271387687
3.724,-0.012139728920427431
3.728,-0.012140041447485459
3.732,-0.012137228703963204
3.736,-0.012133069690037133
3.74,-0.01212903087882569
3.744,-0.012122612053864643
3.748,-0.012121169621289129
3.7520000000000002,-0.012122948621465597
3.7560000000000002,-0.01212867027068181
3.7600000000000002,-0.01213547374432966
3.7640000000000002,-0.012139440433912328
3.7680000000000002,-0.012138935582510897
3.7720000000000002,-0.012136916176905176
3.7760000000000002,-0.01213775759590756
3.7800000000000002,-0.012139007704139674
3.7840000000000003,-0.012138550933824094
3.7880000000000003,-0.01213725274450613
3.7920000000000003,-0.01213547374432966
3.7960000000000003,-0.012131603216918693
3.8000000000000003,-0.012130833919545085
3.8040000000000003,-0.01213359858198149
3.8080000000000003,-0.012134584244241424
3.8120000000000003,-0.012133358176552237
3.8160000000000003,-0.01212912704099739
3.8200000000000003,-0.012127203797563369
3.8240000000000003,-0.012130569473572906
3.8280000000000003,-0.01212826158145208
3.8320000000000003,-0.012119342540026808
3.8360000000000003,-0.01212090517531695
3.84,-0.012131627257461617
3.844,-0.012135786271387687
3.848,-0.012135642028130137
3.852,-0.012137613352650008
3.856,-0.012139320231197702
3.86,-0.012139320231197702
3.864,-0.012136699812018849
3.868,-0.012133045649494209
3.872,-0.01212994441945685
3.876,-0.012127107635391668
3.88,-0.012126194094760508
3.884,-0.012124342972955263
3.888,-0.012121025378031577
3.892,-0.012117972229080069
3.896,-0.012115087363929036
3.9,-0.012110471579687386
3.904,-0.012100663038173878
3.908,-0.012096119375561003
3.912,-0.012102610322150825
3.916,-0.012103307497895658
3.92,-0.01210075920034558
3.924,-0.01210491821427165
3.928,-0.012109702282313778
3.932,-0.012107779038879756
3.936,-0.012099989902971972
3.94,-0.012097682010851147
3.944,-0.012098859997454484
3.948,-0.012097056956735089
3.952,-0.012093883605068955
3.956,-0.012092200767064186
3.96,-0.012090181361458464
3.964,-0.012087296496307432
3.968,-0.012086046388075318
3.972,-0.012084964563643682
3.976,-0.012083954860840821
3.98,-0.012082440306636529
3.984,-0.012077608157508551
3.988,-0.01207020367028757
3.992,-0.012073881873355135
3.996,-0.012081791211977546
4.0,-0.012082921117495034
4.0040000000000004,-0.01208020453614448
4.008,-0.012073737630097585
4.0120000000000005,-0.012077728360223177
4.016,-0.012083377887810614
4.0200000000000005,-0.012084964563643682
4.024,-0.012085445374502186
4.0280000000000005,-0.01208304132020966
4.032,-0.012076069562761334
4.0360000000000005,-0.012073136616524453
4.04,-0.012074530968014117
4.0440000000000005,-0.012075444508645278
4.048,-0.012075011778872623
4.0520000000000005,-0.012073088535438602
4.056,-0.012068929521512532
4.0600000000000005,-0.012069867102686616
4.064,-0.012073208738153228
4.0680000000000005,-0.012071093170375805
4.072,-0.012065299399530816
4.0760000000000005,-0.012069602656714438
4.08,-0.012080685347002984
4.0840000000000005,-0.012085974266446543
4.088,-0.012086334874590422
4.0920000000000005,-0.01208720033413573
4.096,-0.01208837832073907
4.1,-0.012087873469337639
4.104,-0.012084243347355923
4.108,-0.01208400294192667
4.112,-0.012086911847620629
4.116,-0.012087584982822535
4.12,-0.012087344577393282
4.124,-0.012085998306989467
4.128,-0.012082921117495034
4.132,-0.012088089834223966
4.136,-0.012095975132303453
4.14,-0.01209989374080027
4.144,-0.012098787875825709
4.148,-0.012097898375737473
4.152,-0.01210126405174701
4.156,-0.012105447106216007
4.16,-0.012108307930824113
4.164,-0.012109437836341599
4.168,-0.012108019444309009
4.172,-0.012105951957617437
4.176,-0.012104076795269265
4.18,-0.012102514159979124
4.184,-0.012099509092113466
4.188,-0.012096263618818555
4.192,-0.01209542219981617
4.196,-0.012095903010674676
4.2,-0.012096864632391686
4.204,-0.012096335740447332
4.208,-0.012097441605421894
4.212,-0.012101071727403608
4.216,-0.012101841024777217
4.22,-0.012096624226962433
4.224,-0.01209203248326371
4.228,-0.012100494754373402
4.232,-0.012111024512174667
4.236,-0.012114846958499783
4.24,-0.012117154850620608
4.244,-0.012118645364281975
4.248,-0.012120544567173071
4.252,-0.012122876499836822
4.256,-0.012125184391957648
4.26,-0.012127828851679427
4.264,-0.01212775673005065
4.268,-0.012125496919015676
4.272,-0.012121746594319334
4.276,-0.012119823350885314
4.28,-0.012120183959029193
4.284,-0.01212172255377641
4.288,-0.012123333270152402
4.292,-0.012123309229609476
4.296,-0.012117539499307413
4.3,-0.012107899241594383
4.304,-0.012108884903854318
4.308,-0.012115520093701692
4.312,-0.01211729909387816
4.316,-0.012120015675228716
4.32,-0.012125665202816152
4.324,-0.012129078959911539
4.328,-0.012130665635744607
4.332,-0.012131699379090394
4.336,-0.012131555135832842
4.34,-0.012130689676287533
4.344,-0.012128117338194529
4.348,-0.012127107635391668
4.352,-0.012129247243712017
4.356,-0.012131074324974336
4.36,-0.012131771500719169
4.364,-0.012132733122436179
4.368,-0.012133766865781966
4.372,-0.01213556990650136
4.376,-0.012136916176905176
4.38,-0.012136603649847148
4.384,-0.01213278120352203
4.388,-0.012128069257108678
4.392,-0.012127900973308202
4.396,-0.012133742825239041
4.4,-0.012138142244594363
4.404,-0.012137998001336813
4.408,-0.01213552182541551
4.412,-0.012131987865605497
4.416,-0.0121323725142923
4.42,-0.012138310528394841
4.424,-0.012141892569290704
4.428,-0.012140570339429816
4.432,-0.01213780567699341
4.436,-0.01213679597419055
4.44,-0.012138382650023616
4.444,-0.012140041447485459
4.448,-0.012143647528924249
4.452,-0.012147013204933787
4.456,-0.012146364110274805
4.46,-0.01214095498811662
4.464,-0.012136771933647624
4.468,-0.012139849123142058
4.472,-0.012143527326209623
4.476,-0.012149705745741415
4.48,-0.012156797705904368
4.484,-0.012160163381913905
4.488,-0.012162447233491807
4.492,-0.012160956719830439
4.496,-0.012157470841106275
4.5,-0.012151845354061764
4.5040000000000004,-0.012148287353708825
4.508,-0.01214694108330501
4.5120000000000005,-0.012144008137068129
4.516,-0.01214227721797751
4.5200000000000005,-0.012139488514998178
4.524,-0.012136675771475923
4.5280000000000005,-0.012141291555717573
4.532,-0.012146147745388476
4.5360000000000005,-0.012147974826650797
4.54,-0.012148792205110255
4.5440000000000005,-0.012149273015968761
4.548,-0.012149537461940939
4.5520000000000005,-0.012146099664302626
4.556,-0.012138310528394841
4.5600000000000005,-0.012137036379619801
4.564,-0.012137421028306606
4.5680000000000005,-0.012137877798622186
4.572,-0.012138238406766064
4.5760000000000005,-0.012132709081893255
4.58,-0.012128742392310586
4.5840000000000005,-0.01212506418924302
4.588,-0.01212177063486226
4.5920000000000005,-0.012124968027071319
4.596,-0.012130689676287533
4.6000000000000005,-0.01213552182541551
4.604,-0.012138286487851915
4.6080000000000005,-0.012137998001336813
4.612,-0.012138046082422664
4.616,-0.012138935582510897
4.62,-0.012137276785049054
4.624,-0.012135377582157958
4.628,-0.012134800609127753
4.632,-0.012134440000983874
4.636,-0.01213597859573109
4.64,-0.012134776568584827
4.644,-0.01213136281148944
4.648,-0.012134175555011695
4.652,-0.012138478812195317
4.656,-0.012139320231197702
4.66,-0.012138358609480692
4.664,-0.012134896771299454
4.668,-0.012130112703257326
4.672,-0.012130016541085625
4.676,-0.01213506505509993
4.68,-0.01213958467716988
4.684,-0.012142349339606284
4.688,-0.012143455204580848
4.692,-0.012142974393722342
4.696,-0.012142806109921866
4.7,-0.012142084893634107
4.704,-0.01214059437997274
4.708,-0.012138286487851915
4.712,-0.012137396987763682
4.716,-0.012137685474278783
4.72,-0.012137060420162727
4.724,-0.01213917598794015
4.728,-0.01214013760965716
4.732,-0.01213679597419055
4.736,-0.012136964257991026
4.74,-0.012139873163684983
4.744,-0.012146700677875757
4.748,-0.012150354840400397
4.752,-0.01214831139425175
4.756,-0.012142637826121388
4.76,-0.012141796407119003
4.764,-0.012144729353355886
4.768,-0.012147157448191337
4.772,-0.01215150878646081
4.776,-0.012154922543556197
4.78,-0.012153504151523607
4.784,-0.012154994665184974
4.788,-0.012155042746270824
4.792,-0.01215516294898545
4.796,-0.012157542962735052
4.8,-0.012158600746623763
4.804,-0.012157567003277976
4.808,-0.012154105165096738
4.812,-0.012150715448544276
4.816,-0.012150426962029174
4.82,-0.012147542096878142
4.824,-0.012145114002042691
4.828,-0.012145690975072896
4.832,-0.012146820880590384
4.836,-0.01214429662358323
4.84,-0.012141003069202471
4.844,-0.01214064246105859
4.848,-0.012141315596260499
4.852,-0.012143887934353502
4.856,-0.012150186556599921
4.86,-0.01215150878646081
4.864,-0.012148503718595152
4.868,-0.012147157448191337
4.872,-0.012147950786107871
4.876,-0.01215009039442822
4.88,-0.012150955853973529
4.884,-0.012152254043291493
4.888,-0.012152085759491017
4.892,-0.012150883732344754
4.896,-0.012152157881119792
4.9,-0.012154441732697693
4.904,-0.01215201363786224
4.908,-0.012152037678405166
4.912,-0.012150763529630126
4.916,-0.012147830583393245
4.92,-0.012146820880590384
4.924,-0.012148095029365423
4.928,-0.012149056651082433
4.932,-0.012149849988998967
4.936,-0.012147758461764468
4.94,-0.012142397420692135
4.944,-0.01214013760965716
4.948,-0.012140281852914712
4.952,-0.012139248109568927
4.956,-0.012146917042762086
4.96,-0.012154634057041095
4.964,-0.012157927611421855
4.968,-0.012157302557305799
4.972,-0.012153720516409934
4.976,-0.012150402921486248
4.98,-0.01215110009723108
4.984,-0.012156701543732667
4.988,-0.01216263955783521
4.992,-0.012164538760726306
4.996,-0.012162302990234256
5.0,-0.012159033476396418
5.0040000000000004,-0.012155066786813749
5.008,-0.012147878664479096
5.0120000000000005,-0.012143647528924249
5.016,-0.012147469975249367
5.0200000000000005,-0.012148383515880526
5.024,-0.012147830583393245
5.0280000000000005,-0.012144993799328064
5.032,-0.012143407123494997
5.0360000000000005,-0.012144681272270036
5.04,-0.012144032177611053
5.0440000000000005,-0.012145138042585615
5.048,-0.012144537029012484
5.0520000000000005,-0.012145979461588
5.056,-0.012149946151170668
5.0600000000000005,-0.012152446367634896
5.064,-0.012152470408177822
5.0680000000000005,-0.012152302124377344
5.072,-0.012149008569996582
5.0760000000000005,-0.012145186123671466
5.08,-0.012147734421221544
5.0840000000000005,-0.01214958554302679
5.088,-0.012150306759314547
5.0920000000000005,-0.012151148178316931
5.096,-0.012152085759491017
5.1000000000000005,-0.01215196555677639
5.104,-0.012149874029541893
5.1080000000000005,-0.012146340069731879
5.112,-0.01214278206937894
5.1160000000000005,-0.012143142677522818
5.12,-0.012145498650729494
5.124,-0.01214602754267385
5.128,-0.012144272583040306
5.132,-0.012145787137244598
5.136,-0.012146291988646028
5.14,-0.012148143110451273
5.144,-0.012150378880943323
5.148,-0.012150667367458427
5.152,-0.012149056651082433
5.156,-0.012145258245300243
5.16,-0.012141171353002947
5.164,-0.012141676204404378
5.168,-0.012142974393722342
5.172,-0.0121436956100101
5.176,-0.012142469542320912
5.18,-0.012140017406942535
5.184,-0.012139464474455254
5.188,-0.012142926312636491
5.192,-0.012147806542850319
5.196,-0.012149849988998967
5.2,-0.01215227808383442
5.204,-0.012153528192066533
5.208,-0.012150475043115025
5.212,-0.012148455637509301
5.216,-0.012153359908266055
5.22,-0.01215886519259594
5.224,-0.012160019138656353
5.228,-0.012157494881649201
5.232,-0.01215333586772313
5.236,-0.012152230002748569
5.24,-0.012152350205463194
5.244,-0.012149080691625359
5.248,-0.012147301691448889
5.252,-0.012145666934529972
5.256,-0.012151220299945708
5.26,-0.01215876903042424
5.264,-0.012158648827709614
5.268,-0.012156605381560966
5.272,-0.012158288219565735
5.276,-0.012159105598025194
5.28,-0.01215831226010866
5.284,-0.012157639124906753
5.288,-0.012153864759667486
5.292,-0.012148335434794676
5.296,-0.012148888367281957
5.3,-0.012151148178316931
5.304,-0.01214958554302679
5.308,-0.01214790270502202
5.312,-0.012150426962029174
5.316,-0.012152590610892447
5.32,-0.012153912840753336
5.324,-0.01215424940835429
5.328,-0.012150955853973529
5.332,-0.012148816245653182
5.336,-0.012153888800210412
5.34,-0.012155956286901984
5.344,-0.012155283151700077
5.348,-0.01215379263803871
5.352,-0.012149874029541893
5.356,-0.012143575407295474
5.36,-0.012142733988293089
5.364,-0.012144825515527587
5.368,-0.012146340069731879
5.372,-0.012147710380678618
5.376,-0.012146243907560177
5.38,-0.012140233771828862
5.384,-0.0121368440552764
5.388,-0.012140161650200086
5.392,-0.01214456106955541
5.396,-0.012148479678052227
5.4,-0.012150018272799445
5.404,-0.012149657664655564
5.408,-0.012148864326739032
5.412,-0.012147830583393245
5.416,-0.012148912407824881
5.42,-0.012149849988998967
5.424,-0.012146796840047458
5.428,-0.012146147745388476
5.432,-0.012148095029365423
5.436,-0.012150066353885295
5.44,-0.012151316462117407
5.444,-0.01214917685379706
5.448,-0.012146460272446506
5.452,-0.012146604515704056
5.456,-0.012144825515527587
5.46,-0.012139849123142058
5.464,-0.01214040205562934
5.468,-0.012145041880413914
5.472,-0.012148095029365423
5.476,-0.012149297056511686
5.48,-0.012148383515880526
5.484,-0.012146171785931402
5.488,-0.012142493582863836
5.492,-0.01214054629888689
5.496,-0.012143671569467175
5.5,-0.012147662299592769
5.5040000000000004,-0.01214694108330501
5.508,-0.012145979461588
5.5120000000000005,-0.012147325731991815
5.516,-0.012148503718595152
5.5200000000000005,-0.012145666934529972
5.524,-0.012141772366576079
5.5280000000000005,-0.012143551366752547
5.532,-0.012143767731638876
5.5360000000000005,-0.01214333500186622
5.54,-0.012148864326739032
5.5440000000000005,-0.012152350205463194
5.548,-0.012152999300122177
5.5520000000000005,-0.012152975259579252
5.556,-0.0121528310163217
5.5600000000000005,-0.012153624354238234
5.564,-0.012154802340841571
5.5680000000000005,-0.012156965989704845
5.572,-0.012156797705904368
5.5760000000000005,-0.01215475425975572
5.58,-0.012156220732874161
5.5840000000000005,-0.012158600746623763
5.588,-0.01215643709776049
5.5920000000000005,-0.01215150878646081
5.596,-0.01215100393505938
5.6000000000000005,-0.01215689386807607
5.604,-0.012157639124906753
5.6080000000000005,-0.01215196555677639
5.612,-0.012149297056511686
5.6160000000000005,-0.012151027975602306
5.62,-0.01215516294898545
5.6240000000000006,-0.012154393651611842
5.628,-0.01214922493488291
5.632,-0.012150859691801828
5.636,-0.012157927611421855
5.64,-0.012160692273858261
5.644,-0.012159081557482269
5.648,-0.012157038111333621
5.652,-0.012156148611245386
5.656,-0.012155235070614227
5.66,-0.012155643759843956
5.664,-0.01215182131351884
5.668,-0.01214912877271121
5.672,-0.012152181921662718
5.676,-0.012156268813960012
5.68,-0.012159754692684176
5.684,-0.012160692273858261
5.688,-0.012158552665537913
5.692,-0.012154393651611842
5.696,-0.01214698916439086
5.7,-0.012145690975072896
5.704,-0.01215150878646081
5.708,-0.012154898503013272
5.712,-0.012155595678758105
5.716,-0.012153840719124561
5.72,-0.012150210597142845
5.724,-0.01214917685379706
5.728,-0.012148239272622974
5.732,-0.01214552269127242
5.736,-0.012144008137068129
5.74,-0.012144945718242213
5.744,-0.012143214799151595
5.748,-0.01213643536604667
5.752,-0.012131795541262095
5.756,-0.012134728487498976
5.76,-0.012140882866487844
5.764,-0.012140834785401993
5.768,-0.012141171353002947
5.772,-0.012144080258696904
5.776,-0.012146724718418683
5.78,-0.012146075623759701
5.784,-0.012141387717889274
5.788,-0.012141964690919481
5.792,-0.012144873596613438
5.796,-0.012147806542850319
5.8,-0.012149393218683387
5.804,-0.01215004231334237
5.808,-0.012150306759314547
5.812,-0.012148575840223929
5.816,-0.012142541663949687
5.82,-0.012137108501248578
5.824,-0.012142421461235061
5.828,-0.012146580475161131
5.832,-0.012146676637332833
5.836,-0.012147566137421068
5.84,-0.012145739056158747
5.844,-0.012146364110274805
5.848,-0.012146748758961608
5.852,-0.01214227721797751
5.856,-0.012135233338900406
5.86,-0.012132156149405974
5.864,-0.012137949920250963
5.868,-0.012142421461235061
5.872,-0.01213780567699341
5.876,-0.012133358176552237
5.88,-0.01214013760965716
5.884,-0.012146724718418683
5.888,-0.012148647961852704
5.892,-0.012148431596966377
5.896,-0.012143166718065744
5.9,-0.012139969325856684
5.904,-0.01214227721797751
5.908,-0.012148816245653182
5.912,-0.012151677070261288
5.916,-0.012150499083657949
5.92,-0.012149008569996582
5.924,-0.012145666934529972
5.928,-0.012142950353179416
5.932,-0.012143262880237446
5.936,-0.012140786704316142
5.94,-0.012137541231021232
5.944,-0.012138959623053823
5.948,-0.012138695177081644
5.952,-0.012132444635921077
5.956,-0.01213145897366114
5.96,-0.01213862305545287
5.964,-0.012138022041879738
5.968,-0.012131290689860665
5.972,-0.012129848257285148
5.976,-0.012134944852385305
5.98,-0.012134271717183396
5.984,-0.012126771067790714
5.988,-0.012122443770064167
5.992,-0.012121626391604709
5.996,-0.012118164553423471
6.0,-0.012122708216036344
6.0040000000000004,-0.012129319365340792
6.008,-0.0121255209595586
6.0120000000000005,-0.012120256080657968
6.016,-0.01211491908012856
6.0200000000000005,-0.012116121107274823
6.024,-0.012124823783813769
6.0280000000000005,-0.01213136281148944
6.032,-0.01213333413600931
6.0360000000000005,-0.0121299925005427
6.04,-0.012124246810783562
6.0440000000000005,-0.01212186679703396
6.048,-0.012121265783460828
6.0520000000000005,-0.01212273225657927
6.056,-0.012123501553952878
6.0600000000000005,-0.012124463175669889
6.064,-0.012125665202816152
6.0680000000000005,-0.012124174689154787
6.072,-0.012119847391428238
6.0760000000000005,-0.012121746594319334
6.08,-0.012124415094584038
6.0840000000000005,-0.012124943986528395
6.088,-0.012127997135479903
6.0920000000000005,-0.012128429865252558
6.096,-0.012125184391957648
6.1000000000000005,-0.012122347607892466
6.104,-0.012122251445720765
6.1080000000000005,-0.012122804378208046
6.112,-0.012121626391604709
6.1160000000000005,-0.012121530229433007
6.12,-0.012121145580746203
6.1240000000000006,-0.012113668971896446
6.128,-0.01210902914711187
6.132000000000001,-0.012112154417692155
6.136,-0.012111120674346368
6.140000000000001,-0.012111288958146844
6.144,-0.012121337905089605
6.148,-0.012132011906148422
6.152,-0.01213095412225971
6.156,-0.012122251445720765
6.16,-0.012132204230491824
6.164,-0.012141652163861453
6.168,-0.012143960055982278
6.172,-0.012147301691448889
6.176,-0.012147373813077665
6.18,-0.012143623488381324
6.184,-0.012143623488381324
6.188,-0.012145210164214392
6.192,-0.012144128339782755
6.196,-0.012144849556070512
6.2,-0.012143214799151595
6.204,-0.012138695177081644
6.208,-0.012133358176552237
6.212,-0.012133358176552237
6.216,-0.012129199162626166
6.22,-0.012127227838106295
6.224,-0.01213333413600931
6.228,-0.012135593947044287
6.232,-0.012133887068496592
6.236,-0.012126025810960032
6.24,-0.012117876066908367
6.244,-0.012119919513057015
6.248,-0.012126987432677042
6.252,-0.012133021608951283
6.256,-0.01213136281148944
6.26,-0.01212994441945685
6.264,-0.0121277086489648
6.268,-0.012130761797916308
6.272,-0.012141531961146826
6.276,-0.012145306326386092
6.28,-0.012145258245300243
6.284,-0.012146868961676235
6.288,-0.012147325731991815
6.292,-0.012141796407119003
6.296,-0.012128357743623782
6.3,-0.012121962959205661
6.304,-0.012133406257638087
6.308,-0.012140618420515666
6.312,-0.012142637826121388
6.316,-0.01214232529906336
6.32,-0.012141051150288322
6.324,-0.012137396987763682
6.328,-0.012132516757549852
6.332,-0.012130737757373384
6.336,-0.012130665635744607
6.34,-0.012129631892398822
6.344,-0.012126001770417106
6.348,-0.012124535297298665
6.352,-0.012123477513409954
6.356,-0.01211852516156735
6.36,-0.012106504890104718
6.364,-0.012115087363929036
6.368,-0.012133382217095161
6.372,-0.012134536163155574
6.376,-0.012131266649317738
6.38,-0.012137685474278783
6.384,-0.012141195393545872
6.388,-0.012138815379796272
6.392,-0.012135161217271631
6.396,-0.012129800176199298
6.4,-0.012136122838988642
6.404,-0.012143863893810577
6.408,-0.012144368745212008
6.412,-0.012144128339782755
6.416,-0.012141556001689752
6.42,-0.012135810311930614
6.424,-0.012131266649317738
6.428,-0.012132204230491824
6.432,-0.012129776135656372
6.436,-0.012134127473925845
6.44,-0.01213725274450613
6.444,-0.012136170920074492
6.448,-0.012136050717359867
6.452,-0.012134440000983874
6.456,-0.012138478812195317
6.46,-0.012137565271564158
6.464,-0.012136579609304221
6.468,-0.012141772366576079
6.472,-0.012142854191007716
6.476,-0.012142349339606284
6.48,-0.01214085882594492
6.484,-0.012140257812371788
6.488,-0.012138430731109467
6.492,-0.012135666068673062
6.496,-0.012128069257108678
6.5,-0.012114125742212026
6.5040000000000004,-0.012115760499130945
6.508,-0.012129006838282764
6.5120000000000005,-0.012134488082069723
6.516,-0.012140738623230292
6.5200000000000005,-0.012142493582863836
6.524,-0.012139921244770834
6.5280000000000005,-0.01214109923137417
6.532,-0.012136771933647624
6.5360000000000005,-0.012134704446956052
6.54,-0.012133213933294685
6.5440000000000005,-0.012134752528041902
6.548,-0.012136507487675446
6.5520000000000005,-0.012143527326209623
6.556,-0.012151388583746184
6.5600000000000005,-0.012150883732344754
6.564,-0.01215328778663728
6.5680000000000005,-0.012155547597672255
6.572,-0.012154826381384497
6.5760000000000005,-0.01215374455695286
6.58,-0.012153359908266055
6.5840000000000005,-0.012152230002748569
6.588,-0.012151316462117407
6.5920000000000005,-0.012151027975602306
6.596,-0.012149753826827266
6.6000000000000005,-0.012144080258696904
6.604,-0.0121391279068543
6.6080000000000005,-0.012138526893281168
6.612,-0.01214287823155064
6.6160000000000005,-0.012147061286019637
6.62,-0.01215206171894809
6.6240000000000006,-0.01215593224635906
6.628,-0.012152638691978298
6.632000000000001,-0.012147421894163516
6.636,-0.012139151947397226
6.640000000000001,-0.012128357743623782
6.644,-0.012142397420692135
6.648000000000001,-0.01215643709776049
6.652,-0.01216131732797432
6.656000000000001,-0.01216191834154745
6.66,-0.012160235503542682
6.664,-0.012160259544085606
6.668,-0.012160211462999755
6.672,-0.012157687205992604
6.676,-0.012155763962558581
6.68,-0.01215516294898545
6.684,-0.01215155686754666
6.688,-0.012147205529277188
6.692,-0.012141772366576079
6.696,-0.012144825515527587
6.7,-0.012159658530512475
6.704,-0.012168048679993394
6.708,-0.012169418990940133
6.712,-0.012167856355649992
6.716,-0.012164779166155559
6.72,-0.012162062584805003
6.724,-0.012157927611421855
6.728,-0.012152951219036326
6.732,-0.012156004367987834
6.736,-0.012161485611774797
6.74,-0.012161966422633301
6.744,-0.012160283584628532
6.748,-0.012158648827709614
6.752,-0.012158913273681791
6.756,-0.012158264179022809
6.76,-0.01215648517884634
6.764,-0.012153552232609457
6.768,-0.012140257812371788
6.772,-0.012128550067967184
6.776,-0.01214475339389881
6.78,-0.012167087058276384
6.784,-0.012172448099348717
6.788,-0.012168241004336796
6.792,-0.012171558599260482
6.796,-0.012176294586216758
6.8,-0.0121731933561794
6.804,-0.012174130937353485
6.808,-0.012180766127200858
6.812,-0.012181751789460793
6.816,-0.012179564100054595
6.82,-0.012177280248476694
6.824,-0.012176174383502133
6.828,-0.012172496180434568
6.832,-0.012165644625700868
6.836,-0.012167688071849515
6.84,-0.01217273658586382
6.844,-0.012174179018439335
6.848,-0.012173794369752532
6.852,-0.0121731933561794
6.856,-0.012172976991293072
6.86,-0.012173626085952054
6.864,-0.012174539626583214
6.868,-0.012175381045585599
6.872,-0.012170428693742994
6.876,-0.01216117308471677
6.88,-0.012160956719830439
6.884,-0.012163841584981473
6.888,-0.012164851287784334
6.892,-0.012163240571408341
6.896,-0.01216679857176128
6.9,-0.012177376410648396
6.904,-0.012180718046115008
6.908,-0.012177544694448872
6.912,-0.012179467937882894
6.916,-0.012183819276152367
6.92,-0.012183723113980666
6.924,-0.012181511384031542
6.928,-0.01218054976231453
6.932,-0.01217816974856493
6.936,-0.012175381045585599
6.94,-0.012175164680699272
6.944,-0.012171630720889257
6.948,-0.012163625220095144
6.952,-0.012155908205816133
6.956,-0.012146388150817729
6.96,-0.012156100530159536
6.964,-0.012167904436735842
6.968,-0.012168024639450468
6.972,-0.01217273658586382
6.976,-0.012177520653905947
6.98,-0.012179540059511669
6.984,-0.012179564100054595
6.988,-0.012177953383678603
6.992,-0.01217648691056016
6.996,-0.012172135572290688
7.0,-0.012170572937000546
7.0040000000000004,-0.012172015369576062
7.008,-0.012171943247947287
7.0120000000000005,-0.012171630720889257
7.016,-0.012168409288137273
7.0200000000000005,-0.012163456936294668
7.024,-0.012162158746976704
7.0280000000000005,-0.012160836517115813
7.032,-0.0121617740982899
7.0360000000000005,-0.012162327030777182
7.04,-0.01216004317919928
7.0440000000000005,-0.01215146070537496
7.048,-0.012151148178316931
7.0520000000000005,-0.01216172601720405
7.056,-0.012166462004160326
7.0600000000000005,-0.012171774964146809
7.064,-0.01217095758568735
7.0680000000000005,-0.012166702409589579
7.072,-0.012170188288313743
7.0760000000000005,-0.012172351937177016
7.08,-0.012172856788578447
7.0840000000000005,-0.012172063450661913
7.088,-0.01217141435600293
7.0920000000000005,-0.012172424058805791
7.096,-0.012172760626406745
7.1000000000000005,-0.012172496180434568
7.104,-0.012172856788578447
7.1080000000000005,-0.012172231734462389
7.112,-0.012172087491204837
7.1160000000000005,-0.012172183653376538
7.12,-0.012171654761432183
7.1240000000000006,-0.012171222031659528
7.128,-0.012167928477278767
7.132000000000001,-0.012159346003454446
7.136,-0.012156557300475115
7.140000000000001,-0.012158552665537913
7.144,-0.012162206828062554
7.148000000000001,-0.0121687218151953
7.152,-0.012174876194184168
7.156000000000001,-0.012178746721595135
7.16,-0.012183001897692907
7.164000000000001,-0.0121846126140689
7.168,-0.012185814641215164
7.172,-0.012186535857502921
7.176,-0.012188098492793063
7.18,-0.012188531222565718
7.184,-0.012185814641215164
7.188,-0.012182881694978281
7.192,-0.012181679667832018
7.196,-0.012179491978425818
7.2,-0.01217603014024458
7.204,-0.012168144842165095
7.208,-0.012162399152405957
7.212,-0.012163745422809772
7.216,-0.01216141349014602
7.22,-0.012158168016851108
7.224,-0.012168096761079245
7.228,-0.012178121667479079
7.232,-0.012179107329739015
7.236,-0.012182064316518823
7.24,-0.012188050411707212
7.244,-0.01218785808736381
7.248,-0.012181751789460793
7.252,-0.012178289951279555
7.256,-0.012175501248300226
7.26,-0.012175909937529955
7.264,-0.01217542912667145
7.268,-0.012175501248300226
7.272,-0.012182040275975897
7.276,-0.01218694454673265
7.28,-0.012191271844459197
7.284,-0.012194300952867781
7.288,-0.012192449831062536
7.292,-0.01219050254708559
7.296,-0.012185285749270807
7.3,-0.012176559032188937
7.304,-0.012185357870899582
7.308,-0.01219543085838527
7.312,-0.012197065615304186
7.316,-0.012193627817665875
7.32,-0.012190021736227085
7.324,-0.012192858520292265
7.328,-0.012193820142009275
7.332,-0.01219105547957287
7.336,-0.012189925574055384
7.34,-0.012189685168626131
7.344,-0.012185093424927405
7.348,-0.012178386113451256
7.352,-0.012172928910207222
7.356,-0.012175236802328047
7.36,-0.012188459100936942
7.364,-0.012196464601731054
7.368,-0.012199085020909908
7.372,-0.012195190452956016
7.376,-0.012189949614598308
7.38,-0.012193050844635667
7.384,-0.012196344399016429
7.388,-0.012194349033953632
7.392,-0.012194421155582407
7.396,-0.0121961280341301
7.4,-0.01219607995304425
7.404,-0.012194469236668257
7.408,-0.012190382344370964
7.412,-0.012187882127906736
7.416,-0.012191343966087974
7.42,-0.012198147439735824
7.424,-0.012202114129318492
7.428,-0.012202859386149175
7.432,-0.012203869088952036
7.436,-0.012197594507248543
7.44,-0.012189300519939326
7.444,-0.012191872858032329
7.448,-0.012198027237021196
7.452,-0.012204950913383673
7.456,-0.012208124265049808
7.46,-0.012209085886766818
7.464,-0.012209879224683352
7.468,-0.01220663375138844
7.472,-0.012198628250594328
7.476,-0.012195382777299419
7.48,-0.012197714709963168
7.484,-0.012202763223977474
7.488,-0.012209470535453622
7.492,-0.01220927821111022
7.496,-0.012209302251653145
7.5,-0.012215047941412283
7.5040000000000004,-0.012217331792990184
7.508,-0.012220553225742168
7.5120000000000005,-0.01222389486120878
7.516,-0.012223558293607826
7.5200000000000005,-0.012222861117862993
7.524,-0.012224039104466332
7.5280000000000005,-0.012225890226271578
7.532,-0.01222531325324137
7.5360000000000005,-0.012223558293607826
7.54,-0.012220937874428973
7.5440000000000005,-0.01221293237363486
7.548,-0.01220516727827
7.5520000000000005,-0.012213004495263635
7.556,-0.012220817671714346
7.5600000000000005,-0.01222298132057762
7.564,-0.012223293847635649
7.5680000000000005,-0.012222596671890816
7.572,-0.012222332225918639
7.5760000000000005,-0.012223678496322454
7.58,-0.012224688199125314
7.5840000000000005,-0.012220505144656318
7.588,-0.012217860684934538
7.5920000000000005,-0.012220721509542645
7.596,-0.012227068212874915
7.6000000000000005,-0.012239809700625305
7.604,-0.012246949741874107
7.6080000000000005,-0.012243776390207973
7.612,-0.012238343227506863
7.6160000000000005,-0.012243800430750898
7.62,-0.012251541485572833
7.6240000000000006,-0.012256133229271559
7.628,-0.012253969580408284
7.632000000000001,-0.012250916431456775
7.636,-0.012254017661494135
7.640000000000001,-0.012255700499498904
7.644,-0.012256758283387615
7.648000000000001,-0.01225764778347585
7.652,-0.012257743945647551
7.656000000000001,-0.012256493837415438
7.66,-0.012258825770079187
7.664000000000001,-0.012261133662200012
7.668,-0.012260893256770761
7.672000000000001,-0.012259763351253273
7.676,-0.012257719905104625
7.68,-0.012252070377517188
7.684,-0.01224719014730336
7.688,-0.01224911339073738
7.692,-0.01224805560684867
7.696,-0.012247743079790641
7.7,-0.012248320052820848
7.704,-0.012249473998881261
7.708,-0.012247743079790641
7.712,-0.012240891525056941
7.716,-0.01223841534913564
7.72,-0.012239160605966323
7.724,-0.012244112957808927
7.728,-0.012250964512542626
7.732,-0.012255484134612577
7.736,-0.012256109188728633
7.74,-0.012249978850282691
7.744,-0.01224906530965153
7.748,-0.012251998255888413
7.752,-0.012252406945118142
7.756,-0.012249978850282691
7.76,-0.01224622852558635
7.764,-0.01224216567383198
7.768,-0.012238367268049789
7.772,-0.012233703402722288
7.776,-0.012228582767079206
7.78,-0.012227765388619747
7.784,-0.012229352064452815
7.788,-0.012225193050526745
7.792,-0.012222332225918639
7.796,-0.01222480840183994
7.8,-0.012225457496498922
7.804,-0.012224471834238986
7.808,-0.012221298482572852
7.812,-0.012225193050526745
7.816,-0.012232453294490174
7.82,-0.012233655321636437
7.824,-0.012228775091422608
7.828,-0.012221250401487001
7.832,-0.01221932715805298
7.836,-0.01221826937416427
7.84,-0.0122120188330037
7.844,-0.012203147872664279
7.848,-0.012201753521174613
7.852,-0.012203556561894008
7.856,-0.012204085453838363
7.86,-0.012204566264696869
7.864,-0.012204446061982243
7.868,-0.012200070683169844
7.872,-0.01219567126381452
7.876,-0.012193627817665875
7.88,-0.012197041574761262
7.884,-0.012200839980543454
7.888,-0.012200984223801004
7.892,-0.01220389312949496
7.896,-0.012205071116098299
7.9,-0.012201104426515631
7.904,-0.012192185385090358
7.908,-0.012192353668890835
7.912,-0.01219968603448304
7.916,-0.012203628683522783
7.92,-0.012203821007866185
7.924,-0.012202594940176998
7.928,-0.012203604642979858
7.932,-0.012206273143244562
7.936,-0.012209013765138043
7.94,-0.01220927821111022
7.944,-0.012207571332562527
7.948,-0.012208797400251714
7.952,-0.012212307319518802
7.956,-0.012213581468293842
7.96,-0.012215552792813713
7.964,-0.01221978392836856
7.968,-0.01222379869903708
7.972,-0.012225890226271578
7.976,-0.01222238030700449
7.98,-0.012221899496145983
7.984,-0.012225962347900353
7.988,-0.012225745983014026
7.992,-0.012228486604907506
7.996,-0.012231804199831192
8.0,-0.01223211672688922
8.004,-0.012228486604907506
8.008000000000001,-0.01222476032075409
8.012,-0.012225048807269193
8.016,-0.012224039104466332
8.02,-0.012219952212169037
8.024000000000001,-0.012220264739227065
8.028,-0.01222110615822945
8.032,-0.012219807968911485
8.036,-0.012218629982308148
8.040000000000001,-0.01221805300927794
8.044,-0.01221663461724535
8.048,-0.01221100913020084
8.052,-0.012206513548673815
8.056000000000001,-0.012209975386855053
8.06,-0.012212235197890027
8.064,-0.012210456197713559
8.068,-0.01220612889998701
8.072000000000001,-0.012200623615657125
8.076,-0.012194421155582407
8.08,-0.012189757290254906
8.084,-0.012186872425103875
8.088000000000001,-0.012184300087010871
8.092,-0.012179419856797043
8.096,-0.012166101396016447
8.1,-0.012156677503189743
8.104000000000001,-0.012163456936294668
8.108,-0.012173866491381307
8.112,-0.012177616816077649
8.116,-0.012177352370105471
8.120000000000001,-0.01217237597771994
8.124,-0.012171029707316126
8.128,-0.012172472139891642
8.132,-0.012173529923780353
8.136000000000001,-0.01217355396432328
8.14,-0.012174034775181784
8.144,-0.012172424058805791
8.148,-0.01217086142351565
8.152000000000001,-0.012169707477455237
8.156,-0.012166654328503728
8.16,-0.012162783801092761
8.164,-0.012155595678758105
8.168000000000001,-0.012142060853091182
8.172,-0.01213689213636225
8.176,-0.012141748326033153
8.18,-0.012142060853091182
8.184000000000001,-0.01214191660983363
8.188,-0.012141796407119003
8.192,-0.012140979028659545
8.196,-0.01213968083934158
8.2,-0.012138887501425047
8.204,-0.01213816628513729
8.208,-0.012135425663243809
8.212,-0.012131074324974336
8.216,-0.012127011473219967
8.22,-0.012122972662008524
8.224,-0.012115159485557813
8.228,-0.012108716620053842
8.232,-0.012103187295181032
8.236,-0.012100374551658775
8.24,-0.012100062024600747
8.244,-0.012104749930471174
8.248,-0.012105855795445736
8.252,-0.012098427267681828
8.256,-0.01209522987547277
8.26,-0.012097369483793117
8.264,-0.012098210902795501
8.268,-0.012098331105510129
8.272,-0.012096864632391686
8.276,-0.012094196132126983
8.28,-0.012091022780460849
8.284,-0.012086166590789945
8.288,-0.012081478684919518
8.292,-0.01207969968474305
8.296,-0.01207792068456658
8.3,-0.012074795413986296
8.304,-0.012072463481322545
8.308,-0.012069001643141307
8.312,-0.012064506061614282
8.316,-0.012060996142347192
8.32,-0.012057894912309833
8.324,-0.012052509830694573
8.328,-0.012043735032526853
8.332,-0.012033686085584094
8.336,-0.012030584855546735
8.34,-0.012032508098980755
8.344,-0.012032508098980755
8.348,-0.012031137788034016
8.352,-0.012032267693551502
8.356,-0.012038325910368668
8.36,-0.012040898248461673
8.364,-0.012041282897148476
8.368,-0.012039551978057858
8.372,-0.012036354585848797
8.376,-0.012034671747844028
8.38,-0.012033157193639737
8.384,-0.012030031923059454
8.388,-0.012025295936103176
8.392,-0.012020175300460095
8.396,-0.01201279485378204
8.4,-0.012002409339238325
8.404,-0.011995221216903672
8.408,-0.012000774582319408
8.412,-0.01201279485378204
8.416,-0.012018228016483149
8.42,-0.012023925625156437
8.424,-0.01202568058478998
8.428,-0.01202613735510556
8.432,-0.01202827696342591
8.436,-0.012025368057731953
8.44,-0.0120207522734903
8.444,-0.012015992245991099
8.448,-0.01201320354301177
8.452,-0.01201055908328999
8.456,-0.012007794420853585
8.46,-0.01200462106918745
8.464,-0.012000774582319408
8.468,-0.011998707095627835
8.472,-0.01199786567662545
8.476,-0.011996086676448981
8.48,-0.011990677554290797
8.484,-0.011987119553937858
8.488,-0.01199375474378523
8.492,-0.011997120419794768
8.496,-0.011995798189933878
8.5,-0.011996158798077756
8.504,-0.011995173135817822
8.508000000000001,-0.011992552716638967
8.512,-0.011984763580731183
8.516,-0.011986061770049147
8.52,-0.011996639608936262
8.524000000000001,-0.011998659014541984
8.528,-0.011996519406221637
8.532,-0.01199060543266202
8.536,-0.011987335918824185
8.540000000000001,-0.011990893919177124
8.544,-0.01199187958143706
8.548,-0.011988826432485552
8.552,-0.01198502802670336
8.556000000000001,-0.011985268432132613
8.56,-0.011986638743079352
8.564,-0.011985653080819418
8.568,-0.011982551850782059
8.572000000000001,-0.011981974877751852
8.576,-0.01198041224246171
8.58,-0.011975700296048358
8.584,-0.011972839471440252
8.588000000000001,-0.01196904106565806
8.592,-0.011964954173360765
8.596,-0.011960698997262993
8.6,-0.011957742010483186
8.604000000000001,-0.011954760983160454
8.608,-0.011952116523438675
8.612,-0.011952212685610376
8.616,-0.011953943604700994
8.620000000000001,-0.011954135929044396
8.624,-0.011953318550584938
8.628,-0.011953078145155685
8.632,-0.011954111888501472
8.636000000000001,-0.01195351087492834
8.64,-0.011951178942264589
8.644,-0.011949327820459344
8.648,-0.011950890455749487
8.652000000000001,-0.011950601969234384
8.656,-0.011947356495939473
8.66,-0.011947236293224847
8.664,-0.011952525212668404
8.668000000000001,-0.011958895956543598
8.672,-0.011960915362149322
8.676,-0.011959352726859178
8.68,-0.011963030929926744
8.684000000000001,-0.011962502037982388
8.688,-0.011958463226770945
8.692,-0.011961035564863947
8.696,-0.011962021227123884
8.700000000000001,-0.011962213551467286
8.704,-0.011963631943499876
8.708,-0.011960747078348844
8.712,-0.011957044834738353
8.716,-0.011953727239814667
8.72,-0.011946515076937088
8.724,-0.011939038468087332
8.728,-0.011931658021409277
8.732,-0.01192889335897287
8.736,-0.011925455561334558
8.74,-0.011923484236814686
8.744,-0.011920839777092908
8.748,-0.011913267006071449
8.752,-0.011904035437588148
8.756,-0.011895789531364782
8.76,-0.011890692936264628
8.764,-0.011895332761049203
8.768,-0.011895885693536484
8.772,-0.011886750287224884
8.776,-0.011878167813400566
8.78,-0.011877037907883078
8.784,-0.01187961024597608
8.788,-0.011880235300092138
8.792,-0.011875162745534908
8.796,-0.011872037474954623
8.8,-0.011876292651052394
8.804,-0.011876629218653349
8.808,-0.011873431826444288
8.812,-0.011868479474601684
8.816,-0.011863142474072273
8.82,-0.011857565068113612
8.824,-0.011854872527305983
8.828,-0.011851963621612026
8.832,-0.011851675135096922
8.836,-0.011854439797533329
8.84,-0.011854656162419656
8.844,-0.011851146243152567
8.848,-0.01184741995899915
8.852,-0.011844511053305194
8.856,-0.011841938715212191
8.86,-0.011839847187977693
8.864,-0.01183960678254844
8.868,-0.011837827782371971
8.872,-0.011834510187448286
8.876,-0.011829870362663709
8.88,-0.011830110768092962
8.884,-0.011829533795062755
8.888,-0.011828764497689147
8.892,-0.011831240673610448
8.896,-0.011836048782195501
8.9,-0.011839053850061159
8.904,-0.011842371444984847
8.908,-0.01184773248605718
8.912,-0.011849751891662902
8.916,-0.011849824013291677
8.92,-0.011845063985792475
8.924,-0.011844679337105672
8.928,-0.011848621986145414
8.932,-0.011850641391751137
8.936,-0.011852204027041279
8.94,-0.011852444432470532
8.944,-0.011853333932558765
8.948,-0.011854584040790879
8.952,-0.011852901202786112
8.956,-0.011850545229579436
8.96,-0.011857300622141435
8.964,-0.011867517852884674
8.968,-0.011871917272239997
8.972,-0.011872277880383876
8.976,-0.01186819098808658
8.98,-0.011867349569084197
8.984,-0.011866868758225691
8.988,-0.011868743920573861
8.992,-0.011876028205080217
8.996,-0.01188230278678371
9.0,-0.01188773594948482
9.004,-0.011888024435999922
9.008000000000001,-0.01188367309773045
9.012,-0.011882422989498336
9.016,-0.011885091489763041
9.02,-0.01188398562478848
9.024000000000001,-0.011882422989498336
9.028,-0.011886894530482436
9.032,-0.011889394746946664
9.036,-0.011889755355090542
9.040000000000001,-0.011896438626023765
9.044,-0.011903843113244746
9.048,-0.011907497275769386
9.052,-0.011906679897309928
9.056000000000001,-0.011907905964999115
9.06,-0.01191235346544029
9.064,-0.011918195317371129
9.068,-0.01192478242613265
9.072000000000001,-0.011928508710286067
9.076,-0.011928725075172394
9.08,-0.011926897993910073
9.084,-0.011925143034276529
9.088000000000001,-0.011923195750299584
9.092,-0.011924614142332174
9.096,-0.011928965480601647
9.1,-0.011932427318782884
9.104000000000001,-0.01193423035950228
9.108,-0.011928797196801169
9.112,-0.011927691331826607
9.116,-0.011934110156787652
9.120000000000001,-0.01194031261686237
9.124,-0.011946827603995116
9.128,-0.011951082780092888
9.132,-0.011954256131759024
9.136000000000001,-0.011959184443058702
9.14,-0.011962165470381435
9.144,-0.011961708700065856
9.148,-0.011958968078172375
9.152000000000001,-0.011952765618097657
9.156,-0.011947236293224847
9.16,-0.011951900158552348
9.164,-0.011959665253917208
9.168000000000001,-0.011965699430191448
9.172,-0.011965314781504645
9.176,-0.011963800227300352
9.18,-0.011966132159964104
9.184000000000001,-0.011966901457337711
9.188,-0.011971036430720857
9.192,-0.011973680890442637
9.196,-0.011973680890442637
9.200000000000001,-0.011972839471440252
9.204,-0.011975580093333731
9.208,-0.011982215283181104
9.212,-0.011985388634847239
9.216000000000001,-0.01198635025656425
9.22,-0.011986109851134998
9.224,-0.01198502802670336
9.228,-0.011982455688610357
9.232,-0.0119794506207447
9.236,-0.011975628174419582
9.24,-0.011975363728447404
9.244,-0.011977359093510201
9.248,-0.011979354458572998
9.252,-0.011982431648067431
9.256,-0.011983777918471246
9.26,-0.011985869445705745
9.264,-0.011984595296930705
9.268,-0.0119840183239005
9.272,-0.011990028459631815
9.276,-0.011991591094921957
9.28,-0.011990196743432291
9.284,-0.011993442216727202
9.288,-0.011996976176537217
9.292,-0.0119955337439617
9.296,-0.011994451919530063
9.3,-0.011992889284239921
9.304,-0.011993610500527678
9.308,-0.011998971541600014
9.312,-0.012003106514983158
9.316,-0.012002457420324176
9.32,-0.012000918825576959
9.324,-0.012002168933809072
9.328,-0.012005582690904461
9.332,-0.012010655245461691
9.336,-0.01201512678644579
9.34,-0.012019045394942607
9.344,-0.012021377327606358
9.348,-0.01201923771928601
9.352,-0.012014357489072182
9.356,-0.012008419474969641
9.36,-0.012004068136700168
9.364,-0.012003515204212887
9.368,-0.012002890150096831
9.372,-0.011999933163317024
9.376,-0.011995798189933878
9.38,-0.011996880014365515
9.384,-0.011996158798077756
9.388,-0.011995245257446597
9.392,-0.012000990947205735
9.396,-0.012007457853252631
9.4,-0.012006616434250246
9.404,-0.012004645109730375
9.408,-0.012006087542305892
9.412,-0.012006376028820993
9.416,-0.0120046691502733
9.42,-0.012001159231006212
9.424,-0.011995149095274896
9.428,-0.011994932730388569
9.432,-0.01200320267715486
9.436,-0.012005270163846431
9.44,-0.01200589521796249
9.444,-0.012007433812709705
9.448,-0.01200567885307616
9.452,-0.012004645109730375
9.456,-0.012002818028468054
9.46,-0.011995629906133402
9.464,-0.01199060543266202
9.468,-0.011991398770578554
9.472,-0.011987864810768542
9.476,-0.011991254527321003
9.48,-0.012001664082407642
9.484,-0.012002144893266148
9.488,-0.012005582690904461
9.492,-0.012015415272960893
9.496,-0.012019093476028458
9.5,-0.0120183722597407
9.504,-0.012020583989689825
9.508000000000001,-0.012023973706242287
9.512,-0.012025055530673923
9.516,-0.012023829462984735
9.52,-0.012021497530320984
9.524000000000001,-0.012015775881104772
9.528,-0.012016208610877427
9.532,-0.012023300571040379
9.536,-0.012028180801254208
9.540000000000001,-0.01203070505826136
9.544,-0.012031233950205717
9.548,-0.01203111374749109
9.552,-0.012029935760887752
9.556000000000001,-0.012028252922882983
9.56,-0.012026618165964066
9.564,-0.012026425841620664
9.568,-0.012023012084525277
9.572000000000001,-0.012017963570510971
9.576,-0.01201832417865485
9.58,-0.012019406003086488
9.584,-0.01201791548942512
9.588000000000001,-0.012013660313327349
9.592,-0.012014429610700957
9.596,-0.0120275076660523
9.6,-0.012038325910368668
9.604000000000001,-0.012043061897324946
9.608,-0.012046980505821763
9.612,-0.012050706789975179
9.616,-0.012053663776754988
9.620000000000001,-0.012055298533673904
9.624,-0.012055106209330502
9.628,-0.01205308680372478
9.632,-0.012050971235947358
9.636000000000001,-0.01205029810074545
9.64,-0.012049168195227963
9.644,-0.012050923154861507
9.648,-0.012056572682448944
9.652000000000001,-0.012059962399001405
9.656,-0.012058688250226367
9.66,-0.012052509830694573
9.664,-0.012055466817474382
9.668000000000001,-0.012068881440426681
9.672,-0.012076670576334466
9.676,-0.012081262320033192
9.68,-0.012080637265917134
9.684000000000001,-0.012079050590084068
9.688,-0.012083377887810614
9.692,-0.012086479117847973
9.696,-0.012088762969425874
9.700000000000001,-0.01209111894263255
9.704,-0.01209309026715242
9.708,-0.012095806848502975
9.712,-0.012099821619171494
9.716000000000001,-0.012100470713830476
9.72,-0.012096984835106314
9.724,-0.01209203248326371
9.728,-0.012096287659361481
9.732,-0.012104749930471174
9.736,-0.012108091565937784
9.74,-0.01210898106602602
9.744,-0.012113404525924269
9.748,-0.012113380485381343
9.752,-0.012111192795975143
9.756,-0.012113212201580867
9.76,-0.012117972229080069
9.764,-0.012120063756314565
9.768,-0.012121818715948111
9.772,-0.012122395688978316
9.776,-0.01212217932409199
9.78,-0.012124030445897235
9.784,-0.012121145580746203
9.788,-0.012114438269270054
9.792,-0.012108380052452888
9.796,-0.01211044753914446
9.8,-0.012120929215859876
9.804,-0.012121626391604709
9.808,-0.012122491851150018
9.812,-0.0121253286352152
9.816,-0.012124631459470367
9.82,-0.012123405391781177
9.824,-0.012120592648258922
9.828,-0.012115808580216795
9.832,-0.012116818283019656
9.836,-0.012121506188890081
9.84,-0.012125160351414721
9.844,-0.012129103000454465
9.848,-0.012131242608774814
9.852,-0.012130064622171475
9.856,-0.012129776135656372
9.86,-0.012130305027600728
9.864,-0.01212903087882569
9.868,-0.012127420162449696
9.872,-0.01212455933784159
9.876,-0.012121145580746203
9.88,-0.012117010607363058
9.884,-0.012117178891163535
9.888,-0.012121554269975932
9.892,-0.012119703148170687
9.896,-0.012118284756138097
9.9,-0.01212537671630105
9.904,-0.012129559770770045
9.908,-0.012127732689507726
9.912,-0.012124847824356693
9.916,-0.012124655500013291
9.92,-0.012126458540732686
9.924,-0.01212821350036623
9.928,-0.012127107635391668
9.932,-0.01212633833801806
9.936,-0.012127396121906771
9.94,-0.012126674905619013
9.944,-0.012125136310871797
9.948,-0.012121842756491035
9.952,-0.012122948621465597
9.956,-0.012130232905971953
9.96,-0.012134488082069723
9.964,-0.012135593947044287
9.968,-0.012134872730756528
9.972,-0.012136675771475923
9.976,-0.012137637393192933
9.98,-0.01213770951482171
9.984,-0.012137228703963204
9.988,-0.012139055785225525
9.992,-0.012143960055982278
9.996,-0.012145402488557793
10.0,-0.012140426096172264
10.004,-0.012135185257814556
10.008000000000001,-0.012138094163508513
10.012,-0.012142349339606284
10.016,-0.012147662299592769
10.02,-0.01215323970555143
10.024000000000001,-0.012157927611421855
10.028,-0.012160451868429008
10.032,-0.01216059611168656
10.036,-0.012160740354944112
10.040000000000001,-0.01216223086860548
10.044,-0.012159610449426624
10.048,-0.012152398286549045
10.052,-0.012152903137950475
10.056000000000001,-0.012163961787696098
10.06,-0.012171606680346333
10.064,-0.012171678801975108
10.068,-0.012171222031659528
10.072000000000001,-0.012161701976661124
10.076,-0.012154946584099123
10.08,-0.012161149044173843
10.084,-0.012167856355649992
10.088000000000001,-0.012172255775005315
10.092,-0.012174419423868588
10.096,-0.012175549329386076
10.1,-0.01217542912667145
10.104000000000001,-0.012174948315812945
10.108,-0.012174635788754915
10.112,-0.012174299221153963
10.116,-0.012171799004689735
10.120000000000001,-0.012170548896457621
10.124,-0.012166245639274
10.128,-0.012159370043997371
10.132,-0.012163817544438547
10.136000000000001,-0.012170789301886874
10.14,-0.01217401073463886
10.144,-0.012179828546026773
10.148,-0.01218831485767939
10.152000000000001,-0.012192762358120564
10.156,-0.012194589439382885
10.16,-0.012195478939471118
10.164,-0.012192497912148386
10.168000000000001,-0.012188338898222316
10.172,-0.012185237668184957
10.176,-0.012182208559776374
10.18,-0.012177953383678603
10.184000000000001,-0.012174179018439335
10.188,-0.012170428693742994
10.192,-0.012167856355649992
10.196,-0.0121663418014457
10.200000000000001,-0.012164033909324875
10.204,-0.012165860990587194
10.208,-0.012164322395839977
10.212,-0.012153552232609457
10.216000000000001,-0.012158432462823287
10.22,-0.0121731933561794
10.224,-0.012177929343135677
10.228,-0.01217694368087574
10.232000000000001,-0.01217405881572471
10.236,-0.012170717180258098
10.24,-0.012168817977367002
10.244,-0.012166486044703252
10.248,-0.012166822612304205
10.252,-0.0121686256530236
10.256,-0.012168385247594348
10.26,-0.012167784234021217
10.264,-0.012166942815018832
10.268,-0.01216461088235508
10.272,-0.012163168449779565
10.276,-0.01216319249032249
10.28,-0.012161942382090377
10.284,-0.012153456070437756
10.288,-0.012140305893457638
10.292,-0.012142253177434585
10.296,-0.012158192057394034
10.3,-0.012170981626230275
10.304,-0.012177688937706424
10.308,-0.012180790167743783
10.312,-0.012183482708551413
10.316,-0.012182569167920253
10.32,-0.012178866924309762
10.324,-0.01217639074838846
10.328,-0.012177232167390844
10.332,-0.012179347735168267
10.336,-0.01218040551905698
10.34,-0.012181631586746167
10.344,-0.012182352803033925
10.348,-0.012181847951632494
10.352,-0.012181246938059363
10.356,-0.012181511384031542
10.36,-0.012179924708198474
10.364,-0.01217278466694967
10.368,-0.012174828113098318
10.372,-0.012180068951456026
10.376,-0.012182545127377327
10.38,-0.012189901533512458
10.384,-0.012200238966970322
10.388,-0.012204998994469524
10.392,-0.012210095589569678
10.396,-0.012213653589922617
10.4,-0.012209398413824846
10.404,-0.01220511919718415
10.408,-0.01220379696732326
10.412,-0.012200984223801004
10.416,-0.012195839547614998
10.42,-0.012188843749623746
10.424,-0.012188579303651569
10.428,-0.012195238534041867
10.432,-0.01220521535935585
10.436,-0.012211538022145195
10.44,-0.01221567299552834
10.444,-0.012210119630112605
10.448,-0.012207162643332797
10.452,-0.012215937441500518
10.456,-0.012220913833886047
10.46,-0.012221562928545029
10.464,-0.012223558293607826
10.468,-0.012225866185728651
10.472,-0.012226515280387634
10.476,-0.012224495874781912
10.48,-0.012224471834238986
10.484,-0.012225072847812117
10.488,-0.0122234380908932
10.492,-0.012223606374693677
10.496,-0.012221322523115776
10.5,-0.012218341495793044
10.504,-0.0122143026845816
10.508000000000001,-0.01222019261759829
10.512,-0.012229111659023562
10.516,-0.012234328456838344
10.52,-0.012235049673126103
10.524000000000001,-0.012231948443088744
10.528,-0.012231010861914658
10.532,-0.012234328456838344
10.536,-0.012234881389325625
10.540000000000001,-0.01223115510517221
10.544,-0.012227020131789064
10.548,-0.012227885591334375
10.552,-0.012227981753506074
10.556000000000001,-0.012226395077673008
10.56,-0.01222476032075409
10.564,-0.012225385374870147
10.568,-0.012224784361297016
10.572000000000001,-0.012222212023204011
10.576,-0.01221850977959352
10.58,-0.01221704330647508
10.584,-0.012218317455250118
10.588000000000001,-0.012213220860149964
10.592,-0.012207379008219124
10.596,-0.012208196386678583
10.6,-0.012214543090010853
10.604000000000001,-0.012218581901222297
10.608,-0.012218750185022774
10.612,-0.012215096022498134
10.616,-0.0122097349814258
10.620000000000001,-0.012205551926956805
10.624,-0.012204422021439317
10.628,-0.012205407683699253
10.632,-0.01220704244061817
10.636000000000001,-0.01220699435953232
10.64,-0.012205095156641223
10.644,-0.012201585237374135
10.648,-0.012202546859091147
10.652000000000001,-0.012201344831944884
10.656,-0.012195262574584791
10.66,-0.012191608412060151
10.664,-0.012193988425809753
10.668000000000001,-0.012195334696213568
10.672,-0.012194805804269212
10.676,-0.012193964385266827
10.68,-0.012194493277211184
10.684000000000001,-0.012196272277387652
10.688,-0.01219684925041786
10.692,-0.012194228831239006
10.696,-0.012193339331150771
10.700000000000001,-0.012194950047526763
10.704,-0.012192497912148386
10.708,-0.012188098492793063
10.712,-0.012185405951985433
10.716000000000001,-0.012183434627465562
10.72,-0.012181799870546644
10.724,-0.012186367573702445
10.728,-0.012189252438853476
10.732000000000001,-0.01219100739848702
10.736,-0.01219237770943376
10.74,-0.012189661128083205
10.744,-0.01218817061442184
10.748000000000001,-0.012191295885002123
10.752,-0.012192497912148386
10.756,-0.012191993060746956
10.76,-0.012189853452426607
10.764,-0.01218552615470006
10.768,-0.012185718479043463
10.772,-0.012190406384913888
10.776,-0.012195791466529148
10.78,-0.012201801602260464
10.784,-0.012202282413118968
10.788,-0.012200671696742976
10.792,-0.012200431291313723
10.796,-0.012202643021262848
10.8,-0.012211610143773971
10.804,-0.012216274009101472
10.808,-0.012219904131083186
10.812,-0.012222139901575236
10.816,-0.012223293847635649
10.82,-0.0122233419287215
10.824,-0.012222308185375712
10.828,-0.012220505144656318
10.832,-0.012220841712257272
10.836,-0.012219182914795429
10.84,-0.012216274009101472
10.844,-0.012216658657788275
10.848,-0.012213725711551394
10.852,-0.01221120145454424
10.856,-0.012217163509189706
10.86,-0.012222308185375712
10.864,-0.01222617871278668
10.868,-0.012226202753329606
10.872,-0.012219519482396381
10.876,-0.012218702103936923
10.88,-0.01222704417233199
10.884,-0.012229712672596694
10.888,-0.012228318321107028
10.892,-0.01222795771296315
10.896,-0.012228029834591925
10.9,-0.012225986388443279
10.904,-0.01222262071243374
10.908,-0.012218245333621343
10.912,-0.012222548590804965
10.916,-0.01222891933468016
10.92,-0.012230409848341527
10.924,-0.012228558726536281
10.928,-0.01222069746899972
10.932,-0.012215913400957592
10.936,-0.012221298482572852
10.94,-0.012223822739580004
10.944,-0.012223462131436125
10.948,-0.012221707171802581
10.952,-0.012218798266108624
10.956,-0.012213485306122141
10.96,-0.01220781173799178
10.964,-0.01220653758921674
10.968,-0.012213461265579217
10.972,-0.012217980887649166
10.976,-0.012217908766020389
10.98,-0.012217187549732632
10.984,-0.012214206522409898
10.988,-0.012212571765490982
10.992,-0.012214158441324048
10.996,-0.01221557683335664
11.0,-0.01221110529237254
11.004,-0.012206874156817694
11.008000000000001,-0.012210480238256483
11.012,-0.012211538022145195
11.016,-0.012209927305769202
11.02,-0.012207787697448853
11.024000000000001,-0.012205455764785104
11.028,-0.012201993926603866
11.032,-0.012202594940176998
11.036,-0.012205407683699253
11.040000000000001,-0.01220557596749973
11.044,-0.012204806670126122
11.048,-0.012205720210757281
11.052,-0.012209013765138043
11.056000000000001,-0.012209855184140427
11.06,-0.012210143670655529
11.064,-0.012207066481161096
11.068,-0.012200383210227872
11.072000000000001,-0.01219963795339719
11.076,-0.012201320791401958
11.08,-0.012202787264520398
11.084,-0.012201032304886854
11.088000000000001,-0.012197161777475887
11.092,-0.012192930641921042
11.096,-0.012194349033953632
11.1,-0.012203869088952036
11.104000000000001,-0.012209638819254099
11.108,-0.012207114562246947
11.112,-0.012205720210757281
11.116,-0.012206705873017218
11.120000000000001,-0.012204229697095914
11.124,-0.012202787264520398
11.128,-0.012201993926603866
11.132,-0.012199181183081609
11.136000000000001,-0.012198916737109431
11.14,-0.01219735410181929
11.144,-0.012196753088246158
11.148,-0.012197209858561738
11.152000000000001,-0.012198796534394806
11.156,-0.012198484007336776
11.16,-0.01219425287178193
11.164,-0.012191536290431376
11.168000000000001,-0.012191175682287498
11.172,-0.012189492844282728
11.176,-0.012189012033424223
11.18,-0.012190935276858245
11.184000000000001,-0.012194950047526763
11.188,-0.012196777128789082
11.192,-0.012196103993587176
11.196,-0.012196512682816905
11.200000000000001,-0.012193411452779546
11.204,-0.012190887195772394
11.208,-0.012194300952867781
11.212,-0.012197378142362214
11.216000000000001,-0.012198219561364599
11.22,-0.012198339764079226
11.224,-0.012199998561541069
11.228,-0.0122005034129425
11.232000000000001,-0.012197666628877318
11.236,-0.012195142371870166
11.24,-0.01219932542633916
11.244,-0.012205359602613403
11.248000000000001,-0.012209133967852668
11.252,-0.01220704244061817
11.256,-0.012207210724418648
11.26,-0.012214495008925002
11.264,-0.01221699522538923
11.268,-0.012217692401134062
11.272,-0.012222548590804965
11.276,-0.012225000726183342
11.28,-0.012225794064099876
11.284,-0.012225745983014026
11.288,-0.012224712239668239
11.292,-0.012223991023380482
11.296,-0.01222242838809034
11.3,-0.012223774658494153
11.304,-0.012227164375046616
11.308,-0.012229448226624516
11.312,-0.01223252541611895
11.316,-0.012232934105348679
11.32,-0.012231395510601463
11.324,-0.012233607240550587
11.328,-0.01223252541611895
11.332,-0.012231395510601463
11.336,-0.012234015929780316
11.34,-0.012237285443618151
11.344,-0.012240074146597483
11.348,-0.01223577088941386
11.352,-0.012237020997645974
11.356,-0.012244882255182535
11.36,-0.012248632579878876
11.364,-0.012247983485219894
11.368,-0.012247118025674585
11.372,-0.012247502674361388
11.376,-0.012248584498793026
11.38,-0.012248704701507651
11.384,-0.012249498039424185
11.388,-0.01224892106639398
11.392,-0.012247382471646763
11.396,-0.012245819836356621
11.4,-0.012244569728124507
11.404,-0.012245290944412264
11.408,-0.012243295579349467
11.412,-0.012242718606319262
11.416,-0.012239016362708771
11.42,-0.012235578565070458
11.424,-0.012241324254829596
11.428,-0.012243127295548991
11.432,-0.0122394250519385
11.436,-0.012250459661141196
11.44,-0.012261662554144369
11.444,-0.012262816500204781
11.448,-0.012264018527351045
11.452,-0.012266662987072824
11.456,-0.012270918163170596
11.46,-0.012272601001175363
11.464,-0.012272504839003662
11.468,-0.012272552920089512
11.472,-0.012272312514660261
11.476,-0.012271639379458353
11.48,-0.012270389271226239
11.484,-0.012270100784711135
11.488,-0.012271062406428147
11.492,-0.012268177541277115
11.496,-0.012264018527351045
11.5,-0.012269379568423378
11.504,-0.01227550990686932
11.508000000000001,-0.012276351325871704
11.512,-0.012273057771490943
11.516,-0.012273202014748495
11.52,-0.01227921215047981
11.524000000000001,-0.012280149731653896
11.528,-0.012276495569129256
11.532,-0.012281616204772337
11.536,-0.012289693827195226
11.540000000000001,-0.01229418940872225
11.544,-0.0122942374898081
11.548,-0.012293420111348641
11.552,-0.012292458489631631
11.556000000000001,-0.012288179272990933
11.56,-0.01228236146160302
11.564,-0.0122805343803407
11.568,-0.012284284705037042
11.572000000000001,-0.012287866745932905
11.576,-0.012288179272990933
11.58,-0.012286953205301746
11.584,-0.012283491367120508
11.588000000000001,-0.012275485866326395
11.592,-0.01226733612227473
11.596,-0.012271014325342297
11.6,-0.01228002952893927
11.604000000000001,-0.012282337421060096
11.608,-0.012281736407486964
11.612,-0.012283731772549761
11.616,-0.0122828182319186
11.620000000000001,-0.012278490934192053
11.624,-0.012276134960985377
11.628,-0.012281664285858187
11.632,-0.012284885718610174
11.636000000000001,-0.012285222286211126
11.64,-0.012285078042953574
11.644,-0.012283731772549761
11.648,-0.012283443286034658
11.652000000000001,-0.01228317884006248
11.656,-0.01228048629925485
11.66,-0.012277192744874089
11.664,-0.012275846474470274
11.668000000000001,-0.012274836771667413
11.672,-0.012272961609319243
11.676,-0.012270220987425763
11.68,-0.012267840973676161
11.684000000000001,-0.012263609838121315
11.688,-0.012258417080849458
11.692,-0.012258849810622113
11.696,-0.0122622635677175
11.700000000000001,-0.012265268635583158
11.704,-0.01226034032428348
11.708,-0.01225957102690987
11.712,-0.012265989851870916
11.716000000000001,-0.012268634311592695
11.72,-0.012268081379105414
11.724,-0.012264018527351045
11.728,-0.012256758283387615
11.732000000000001,-0.012257840107819253
11.736,-0.012264042567893969
11.74,-0.012265316716669009
11.744,-0.012259883553967899
11.748000000000001,-0.012257407378046597
11.752,-0.012262503973146753
11.756,-0.01226322518943451
11.76,-0.012257960310533878
11.764000000000001,-0.01225860940519286
11.768,-0.012266494703272346
11.772,-0.012270172906339912
11.776,-0.012271158568599849
11.78,-0.012271663420001279
11.784,-0.012271062406428147
11.788,-0.012270389271226239
11.792,-0.012268658352135621
11.796,-0.012266230257300169
11.8,-0.012267576527703983
11.804,-0.012267071676302553
11.808,-0.012265533081555336
11.812,-0.012265388838297784
11.816,-0.012266230257300169
11.82,-0.012267937135847862
11.824,-0.012266254297843095
11.828,-0.012264691662552951
11.832,-0.012264307013866148
11.836,-0.012263537716492539
11.84,-0.012271062406428147
11.844,-0.012278178407134025
11.848,-0.012281231556085534
11.852,-0.012280005488396344
11.856,-0.012276423447500481
11.86,-0.012274524244609385
11.864,-0.012273706866149925
11.868,-0.012279765082967091
11.872,-0.012285679056526706
11.876,-0.012284837637524323
11.88,-0.01228144792097186
11.884,-0.01228277015083275
11.888,-0.012281760448029888
11.892,-0.01227688021781606
11.896,-0.012277168704331164
11.9,-0.012281664285858187
11.904,-0.012287890786475832
11.908,-0.012288828367649916
11.912,-0.012284765515895546
11.916,-0.012281616204772337
11.92,-0.01228368369146391
11.924,-0.012286039664670586
11.928,-0.01228678492150127
11.932,-0.012285823299784258
11.936,-0.012280438218169
11.94,-0.012280077610025121
11.944,-0.012282577826489349
11.948,-0.012281616204772337
11.952,-0.012277048501616537
11.956,-0.01227418767700843
11.96,-0.012272432717374887
11.964,-0.012270629676655492
11.968,-0.012274740609495712
11.972,-0.01227500505546789
11.976,-0.01227043735231209
11.98,-0.012269668054938482
11.984,-0.01227221635248856
11.988,-0.012274476163523534
11.992,-0.012275173339268367
11.996,-0.012275293541982993
12.0,-0.01227413959592258
12.004,-0.012264379135494923
12.008000000000001,-0.012259739310710348
12.012,-0.012263441554320837
12.016,-0.012265220554497308
12.02,-0.01226998058199651
12.024000000000001,-0.012275293541982993
12.028,-0.012276134960985377
12.032,-0.012272432717374887
12.036,-0.012273706866149925
12.040000000000001,-0.012276399406957555
12.044,-0.012277553353017967
12.048,-0.012279765082967091
12.052,-0.012280726704684103
12.056000000000001,-0.012278394772020352
12.06,-0.01227591859609905
12.064,-0.012277361028674565
12.068,-0.012280053569482195
12.072000000000001,-0.012282097015630843
12.076,-0.012278611136906679
12.08,-0.012273370298548972
12.084,-0.01227555798795517
12.088000000000001,-0.012277601434103818
12.092,-0.012277481231389192
12.096,-0.012277577393560894
12.1,-0.012277649515189669
12.104000000000001,-0.012278154366591099
12.108,-0.01227774567736137
12.112,-0.012274884852753264
12.116,-0.012274981014924965
12.120000000000001,-0.012277841839533071
12.124,-0.012277120623245314
12.128,-0.012277072542159463
12.132,-0.012277986082790623
12.136000000000001,-0.012276447488043405
12.14,-0.012278683258535456
12.144,-0.012281207515542607
12.148,-0.012280774785769954
12.152000000000001,-0.012277505271932117
12.156,-0.01227272120388999
12.16,-0.012266590865444047
12.164,-0.012268658352135621
12.168000000000001,-0.012275389704154694
12.172,-0.012277096582702388
12.176,-0.012274404041894758
12.18,-0.012272360595746112
12.184000000000001,-0.012272841406604616
12.188,-0.012275029096010815
12.192,-0.01227591859609905
12.196,-0.012275966677184901
12.200000000000001,-0.01227627920424293
12.204,-0.012277481231389192
12.208,-0.01227733698813164
12.212,-0.012276399406957555
12.216000000000001,-0.012275798393384423
12.22,-0.012275654150126871
12.224,-0.012276207082614152
12.228,-0.012275341623068843
12.232000000000001,-0.012274163636465506
12.236,-0.012273274136377271
12.24,-0.012273057771490943
12.244,-0.012271302811857399
12.248000000000001,-0.012270148865796986
12.252,-0.012268898757564872
12.256,-0.012266590865444047
12.26,-0.012264307013866148
12.264000000000001,-0.012263489635406688
12.268,-0.012256758283387615
12.272,-0.012244136998351852
12.276,-0.012247382471646763
12.280000000000001,-0.01225911425659429
12.284,-0.012270269068511613
12.288,-0.012273033730948018
12.292,-0.012268994919736573
12.296,-0.012271543217286652
12.3,-0.012276808096187284
12.304,-0.012277913961161846
12.308,-0.012278370731477427
12.312,-0.012277721636818445
12.316,-0.012274259798637206
12.32,-0.012272961609319243
12.324,-0.012277409109760416
12.328,-0.0122805343803407
12.332,-0.012281592164229412
12.336,-0.012279644880252466
12.34,-0.012273923231036253
12.344,-0.01226993250091066
12.348,-0.012269884419824809
12.352,-0.012263778121921792
12.356,-0.012258537283564085
12.36,-0.012264571459838326
12.364,-0.01226906704136535
12.368,-0.012272937568776317
12.372,-0.01227464444732401
12.376,-0.012273250095834345
12.38,-0.012270245027968687
12.384,-0.012268586230506844
12.388,-0.012274211717551355
12.392,-0.012281231556085534
12.396,-0.012280919029027504
12.4,-0.01227820244767695
12.404,-0.012276351325871704
12.408,-0.012275966677184901
12.412,-0.012277361028674565
12.416,-0.012280318015454372
12.42,-0.012280005488396344
12.424,-0.012268634311592695
12.428,-0.012262191446088724
12.432,-0.012271206649685697
12.436,-0.01227916406939396
12.44,-0.012278683258535456
12.444,-0.012281736407486964
12.448,-0.01228596754304181
12.452,-0.012286231989013987
12.456,-0.012283972177979012
12.46,-0.012280438218169
12.464,-0.012276808096187284
12.468,-0.012274043433750879
12.472,-0.012271230690228624
12.476,-0.01226952381168093
12.48,-0.012264667622010027
12.484,-0.012258801729536263
12.488,-0.012259763351253273
12.492,-0.012264210851694447
12.496,-0.012267937135847862
12.5,-0.012269355527880454
12.504,-0.012270317149597464
12.508000000000001,-0.012274452122980608
12.512,-0.012280245893825597
12.516,-0.012280293974911448
12.52,-0.012284164502322415
12.524000000000001,-0.01228601562412766
12.528,-0.012285655015983781
12.532,-0.012284020259064863
12.536,-0.012281616204772337
12.540000000000001,-0.012280173772196822
12.544,-0.012285126124039425
12.548,-0.012288587962220664
12.552,-0.012289068773079169
12.556000000000001,-0.012288924529821617
12.56,-0.012288876448735766
12.564,-0.012287530178331951
12.568,-0.012284573191552144
12.572000000000001,-0.01228240954268887
12.576,-0.012286736840415419
12.58,-0.01229104009759904
12.584,-0.012291232421942442
12.588000000000001,-0.012293347989719866
12.592,-0.01229546355749729
12.596,-0.012299598530880433
12.6,-0.012305488463897124
12.604000000000001,-0.012308541612848632
12.608,-0.012309383031851017
12.612,-0.012308132923618903
12.616,-0.012305536544982974
12.620000000000001,-0.012303180571776299
12.624,-0.012300439949882818
12.628,-0.012297146395502057
12.632,-0.012297218517130833
12.636000000000001,-0.01230241127440269
12.64,-0.01230149773377153
12.644,-0.012299189841650704
12.648,-0.012300007220110164
12.652000000000001,-0.01229738680093131
12.656,-0.012294501935780279
12.66,-0.01230113712562765
12.664,-0.0123079405992755
12.668000000000001,-0.01230880605882081
12.672,-0.012307339585702369
12.676,-0.012304478761094263
12.68,-0.012302723801460719
12.684000000000001,-0.012301065003998876
12.688,-0.012301281368885203
12.692,-0.01230181026082956
12.696,-0.012302194909516362
12.700000000000001,-0.012297458922560086
12.704,-0.012293949003292998
12.708,-0.012298252260476619
12.712,-0.012302146828430512
12.716000000000001,-0.012299526409251658
12.72,-0.01229190555714435
12.724,-0.01229382880057837
12.728,-0.01230012742282479
12.732000000000001,-0.012305632707154675
12.736,-0.012308132923618903
12.74,-0.012309022423707138
12.744,-0.012309911923795372
12.748000000000001,-0.012309334950765166
12.752,-0.012307459788416995
12.756,-0.01230596927475563
12.76,-0.012304719166523516
12.764000000000001,-0.012302603598746091
12.768,-0.012298468625362947
12.772,-0.012295679922383616
12.776,-0.012297026192787431
12.780000000000001,-0.012297362760388385
12.784,-0.012293660516777894
12.788,-0.01229455001686613
12.792,-0.012296160733242122
12.796000000000001,-0.01229241040854578
12.8,-0.012287385935074401
12.804,-0.012286256029556913
12.808,-0.012292674854517958
12.812,-0.012300680355312071
12.816,-0.01230205066625881
12.82,-0.012303445017748476
12.824,-0.012304887450323992
12.828,-0.012304647044894739
12.832,-0.012304142193493309
12.836,-0.012301930463544185
12.84,-0.01230012742282479
12.844,-0.012298973476764377
12.848,-0.012297795490161039
12.852,-0.012296280935956748
12.856,-0.012294622138494905
12.86,-0.01229113625977074
12.864,-0.012289693827195226
12.868,-0.012290775651626862
12.872,-0.01229135262465707
12.876,-0.01228971786773815
12.88,-0.012287674421589503
12.884,-0.012293852841121297
12.888,-0.012299430247079957
12.892,-0.012299814895766762
12.896,-0.012299814895766762
12.9,-0.01230255551766024
12.904,-0.012302170868973438
12.908,-0.012300992882370099
12.912,-0.012300199544453565
12.916,-0.012298011855047367
12.92,-0.012296304976499674
12.924,-0.012298108017219068
12.928,-0.012300488030968669
12.932,-0.012300391868796967
12.936,-0.012298516706448798
12.94,-0.012294838503381231
12.944,-0.01228642431335739
12.948,-0.01228317884006248
12.952,-0.01228769846213243
12.956,-0.01228596754304181
12.96,-0.012271687460544203
12.964,-0.012275029096010815
12.968,-0.012289910192081553
12.972,-0.012297026192787431
12.976,-0.012295992449441644
12.98,-0.01229378071949252
12.984,-0.012297242557673758
12.988,-0.012299069638936079
12.992,-0.012298564787534648
12.996,-0.01229743488201716
13.0,-0.012294261530351026
13.004,-0.012289188975793796
13.008000000000001,-0.012288900489278692
13.012,-0.012288515840591888
13.016,-0.012276976379987762
13.02,-0.012279692961338316
13.024000000000001,-0.012294934665552933
13.028,-0.012301521774314456
13.032,-0.01230322865286215
13.036,-0.01230231511223099
13.040000000000001,-0.012300992882370099
13.044,-0.012298083976676142
13.048,-0.012294261530351026
13.052,-0.012293468192434492
13.056000000000001,-0.012294141327636399
13.06,-0.012293347989719866
13.064,-0.012290463124568834
13.068,-0.012293420111348641
13.072000000000001,-0.012298444584820021
13.076,-0.012300872679655473
13.08,-0.01229911772002193
13.084,-0.012299550449794583
13.088000000000001,-0.012299935098481388
13.092,-0.012296761746815254
13.096,-0.01229479042229538
13.1,-0.012294069206007624
13.104000000000001,-0.01229743488201716
13.108,-0.012300319747168192
13.112,-0.012301377531056904
13.116,-0.012300415909339894
13.120000000000001,-0.012288419678420186
13.124,-0.012284404907751668
13.128,-0.012295343354782662
13.132,-0.012302723801460719
13.136000000000001,-0.01230159389594323
13.14,-0.012299983179567238
13.144,-0.012302844004175344
13.148,-0.012300968841827175
13.152000000000001,-0.012296569422471851
13.156,-0.012297146395502057
13.16,-0.01230159389594323
13.164,-0.012307700193846248
13.168000000000001,-0.01231058505899728
13.172,-0.01231104182931286
13.176,-0.01230926282913639
13.18,-0.012307868477646724
13.184000000000001,-0.012308469491219855
13.188,-0.012309022423707138
13.192,-0.012308782018277885
13.196,-0.012301473693228605
13.200000000000001,-0.012293997084378849
13.204,-0.012299286003822405
13.208,-0.012305368261182498
13.212,-0.012310344653568027
13.216000000000001,-0.012313253559261984
13.22,-0.012313061234918581
13.224,-0.012311162032027485
13.228,-0.012309527275108569
13.232000000000001,-0.012308613734477407
13.236,-0.01230697897755849
13.24,-0.012305464423354198
13.244,-0.012303445017748476
13.248000000000001,-0.012300752476940846
13.252,-0.012297074273873282
13.256,-0.01229418940872225
13.26,-0.012291256462485368
13.264000000000001,-0.012295391435868512
13.268,-0.012301377531056904
13.272,-0.012300896720198398
13.276,-0.012299310044365332
13.280000000000001,-0.012292746976146735
13.284,-0.012292386368002855
13.288,-0.012301714098657858
13.292,-0.012306858774843863
13.296000000000001,-0.012306906855929714
13.3,-0.012305776950412227
13.304,-0.012307315545159443
13.308,-0.012309647477823194
13.312000000000001,-0.012307652112760397
13.316,-0.012303396936662625
13.32,-0.01230236319331684
13.324,-0.012303348855576775
13.328,-0.01230322865286215
13.332,-0.012302723801460719
13.336,-0.012301113085084726
13.34,-0.012299887017395537
13.344,-0.012297867611789816
13.348,-0.012296737706272327
13.352,-0.01229479042229538
13.356,-0.012289261097422571
13.36,-0.012279885285681719
13.364,-0.012279043866679334
13.368,-0.01229012655696788
13.372,-0.01230063227422622
13.376,-0.012303469058291402
13.38,-0.012302122787887587
13.384,-0.012301641977029081
13.388,-0.012302699760917793
13.392,-0.01230255551766024
13.396,-0.012301473693228605
13.4,-0.01230181026082956
13.404,-0.01230277188254657
13.408,-0.012302964206889972
13.412,-0.012302844004175344
13.416,-0.01230236319331684
13.42,-0.012297338719845459
13.424,-0.012287722502675354
13.428,-0.012286664718786642
13.432,-0.012292746976146735
13.436,-0.012294141327636399
13.44,-0.012298805192963901
13.444,-0.012304887450323992
13.448,-0.012307171301901893
13.452,-0.012304935531409843
13.456,-0.012301377531056904
13.46,-0.01230469512598059
13.464,-0.012307555950588696
13.468,-0.012310224450853401
13.472,-0.012312532342974226
13.476,-0.012312267897002047
13.48,-0.012311186072570411
13.484,-0.012310008085967073
13.488,-0.012307652112760397
13.492,-0.012305488463897124
13.496,-0.012302531477117316
13.5,-0.012294718300666606
13.504,-0.012290511205654685
13.508000000000001,-0.012293708597863745
13.512,-0.012300560152597445
13.516,-0.012304647044894739
13.52,-0.012301569855400306
13.524000000000001,-0.012294405773608578
13.528,-0.012292939300490136
13.532,-0.012299983179567238
13.536,-0.012306137558556106
13.540000000000001,-0.012309791721080746
13.544,-0.012312364059173748
13.548,-0.012312267897002047
13.552,-0.012311618802343065
13.556000000000001,-0.01231419114043607
13.56,-0.01231346992414831
13.564,-0.012312580424060077
13.568,-0.012314575789122872
13.572000000000001,-0.012311522640171364
13.576,-0.012302483396031466
13.58,-0.01230200258517296
13.584,-0.012310897586055308
13.588000000000001,-0.012315801856812062
13.592,-0.012313542045777087
13.596,-0.012314551748579948
13.6,-0.01232205239797263
13.604000000000001,-0.012324167965750053
13.608,-0.012321475424942423
13.612,-0.012318133789475811
13.616,-0.012316931762329548
13.620000000000001,-0.012318830965220644
13.624,-0.012320802289740517
13.628,-0.012319840668023507
13.632,-0.012314960437809677
13.636000000000001,-0.01230880605882081
13.64,-0.012304839369238142
13.644,-0.012310224450853401
13.648,-0.012314840235095052
13.652000000000001,-0.012310825464426533
13.656,-0.012304839369238142
13.66,-0.012305007653038618
13.664,-0.012312748707860553
13.668000000000001,-0.012318830965220644
13.672,-0.012319480059879626
13.676,-0.01231661923527152
13.68,-0.012315585491925735
13.684000000000001,-0.012317220248844652
13.688,-0.012316787519071998
13.692,-0.012315393167582333
13.696,-0.012314840235095052
13.700000000000001,-0.012313085275461507
13.704,-0.012310969707684083
13.708,-0.012310849504969457
13.712,-0.012306690491043387
13.716000000000001,-0.012301353490513978
13.72,-0.012303396936662625
13.724,-0.012300728436397922
13.728,-0.012301978544630035
13.732000000000001,-0.012313566086320012
13.736,-0.012316979843415399
13.74,-0.012319359857165
13.744,-0.012322677452088687
13.748000000000001,-0.012325394033439241
13.752,-0.012323206344033043
13.756,-0.012318830965220644
13.76,-0.012322028357429704
13.764000000000001,-0.012324240087378828
13.768,-0.012323518871091071
13.772,-0.012321643708742901
13.776,-0.012319648343680104
13.780000000000001,-0.012318566519248467
13.784,-0.012317677019160232
13.788,-0.012315729735183285
13.792,-0.012314455586408247
13.796000000000001,-0.012313349721433685
13.8,-0.01231419114043607
13.804,-0.012314623870208723
13.808,-0.012313253559261984
13.812000000000001,-0.012309984045424148
13.816,-0.012302844004175344
13.82,-0.012303469058291402
13.824,-0.012310464856282653
13.828,-0.012319840668023507
13.832,-0.012326596060585504
13.836,-0.01232707687144401
13.84,-0.012329529006822387
13.844,-0.012330346385281845
13.848,-0.012327293236330337
13.852,-0.012324047763035428
13.856,-0.012324504533351007
13.86,-0.01232570656049727
13.864,-0.012326115249727
13.868,-0.012325874844297747
13.872,-0.012325033425295362
13.876,-0.012323278465661818
13.88,-0.012321763911457527
13.884,-0.012315393167582333
13.888,-0.012298011855047367
13.892,-0.012296208814327973
13.896,-0.012310032126509999
13.9,-0.012320850370826367
13.904,-0.012325129587467063
13.908,-0.012326499898413803
13.912,-0.012325922925383597
13.916,-0.01232241300611651
13.92,-0.012320634005940039
13.924,-0.012323903519777876
13.928,-0.012328254858047349
13.932,-0.012329456885193612
13.936,-0.012328254858047349
13.94,-0.01232753364175959
13.944,-0.012327293236330337
13.948,-0.012326235452441625
13.952,-0.012324768979323185
13.956,-0.012322388965573583
13.96,-0.012318470357076765
13.964,-0.01231346992414831
13.968,-0.012310344653568027
13.972,-0.012318782884134793
13.976,-0.012324865141494886
13.98,-0.01231972046530888
13.984,-0.012319023289564046
13.988,-0.012321884114172153
13.992,-0.012323038060232565
13.996,-0.012323590992719846
14.0,-0.012328639506734152
14.004,-0.012331764777314437
14.008000000000001,-0.012331524371885184
14.012,-0.012328976074335106
14.016,-0.012326475857870878
14.02,-0.012324937263123661
14.024000000000001,-0.012323206344033043
14.028,-0.012321523506028274
14.032,-0.012320345519424937
14.036,-0.012321980276343854
14.040000000000001,-0.012322316843944808
14.044,-0.012321908154715079
14.048,-0.012320826330283441
14.052,-0.012312844870032254
14.056000000000001,-0.012297002152244507
14.06,-0.012296256895413823
14.064,-0.012310104248138774
14.068,-0.012316595194728596
14.072000000000001,-0.012321427343856573
14.076,-0.012330514669082323
14.08,-0.01233342357477628
14.084,-0.012332437912516344
14.088000000000001,-0.01232880779053463
14.092,-0.012325538276696793
14.096,-0.012323590992719846
14.1,-0.012321908154715079
14.104000000000001,-0.01232073016811174
14.108,-0.01231890308684942
14.112,-0.012313662248491713
14.116,-0.012307315545159443
14.120000000000001,-0.012301161166170577
14.124,-0.012308493531762782
14.128,-0.012320345519424937
14.132,-0.012321571587114125
14.136000000000001,-0.01232387947923495
14.14,-0.012323398668376446
14.144,-0.01231839823544799
14.148,-0.012319744505851805
14.152000000000001,-0.012323855438692025
14.156,-0.012324240087378828
14.16,-0.012323663114348623
14.164,-0.012321355222227798
14.168000000000001,-0.012316955802872474
14.172,-0.012314407505322396
14.176,-0.01231474407292335
14.18,-0.0123146959918375
14.184000000000001,-0.012314070937721442
14.188,-0.012307315545159443
14.192,-0.01229738680093131
14.196,-0.012303589261006028
14.200000000000001,-0.012312700626774703
14.204,-0.01231342184306246
14.208,-0.012310609099540204
14.212,-0.012309695558909045
14.216000000000001,-0.012313397802519535
14.22,-0.01231606630278424
14.224,-0.01231383053229219
14.228,-0.012311137991484561
14.232000000000001,-0.01230885413990666
14.236,-0.012308589693934483
14.24,-0.012306402004528283
14.244,-0.012306377963985359
14.248000000000001,-0.012308830099363736
14.252,-0.012309935964338298
14.256,-0.012307363626245293
14.26,-0.012297867611789816
14.264000000000001,-0.012288900489278692
14.268,-0.012290415043482984
14.272,-0.012294934665552933
14.276,-0.01229748296310301
14.280000000000001,-0.012297795490161039
14.284,-0.01229555971966899
14.288,-0.012291064138141966
14.292,-0.012287986948647533
14.296000000000001,-0.012287866745932905
14.3,-0.012284452988837518
14.304,-0.01227921215047981
14.308,-0.012279140028851035
14.312000000000001,-0.012280726704684103
14.316,-0.01228048629925485
14.32,-0.012283803894178536
14.324,-0.012285342488925753
14.328000000000001,-0.012284308745579967
14.332,-0.012282265299431319
14.336,-0.01227971700188124
14.34,-0.012271230690228624
14.344,-0.01226449933820955
14.348,-0.01227185574434468
14.352,-0.012276567690758033
14.356,-0.012274524244609385
14.36,-0.01227226443357441
14.364,-0.012274908893296188
14.368,-0.012277913961161846
14.372,-0.0122758705150132
14.376,-0.012274307879723056
14.38,-0.012274572325695236
14.384,-0.012272480798460737
14.388,-0.01226957189276678
14.392,-0.012271663420001279
14.396,-0.012276231123157079
14.4,-0.012275966677184901
14.404,-0.012271543217286652
14.408,-0.0122668312708733
14.412,-0.012265893689699214
14.416,-0.01227094220371352
14.42,-0.012270797960455968
14.424,-0.012267023595216702
14.428,-0.012266855311416226
14.432,-0.012271999987602231
14.436,-0.012275293541982993
14.44,-0.012277024461073613
14.444,-0.012279644880252466
14.448,-0.012279813164052942
14.452,-0.012276471528586332
14.456,-0.012273490501263598
14.46,-0.012274067474293805
14.464,-0.012275149298725441
14.468,-0.012275966677184901
14.472,-0.012275149298725441
14.476,-0.012272528879546588
14.48,-0.012267384203360581
14.484,-0.01226221548663165
14.488,-0.012269139162994125
14.492,-0.01227678405564436
14.496,-0.012276159001528302
14.5,-0.012274572325695236
14.504,-0.012275966677184901
14.508000000000001,-0.012277889920618922
14.512,-0.01228089498848458
14.516,-0.01228368369146391
14.52,-0.012283611569835134
14.524000000000001,-0.012281327718257235
14.528,-0.012278683258535456
14.532,-0.012277481231389192
14.536,-0.012275774352841499
14.540000000000001,-0.012275077177096666
14.544,-0.01227505313655374
14.548,-0.012278442853106203
14.552,-0.012282842272461526
14.556000000000001,-0.012283851975264387
14.56,-0.012281279637171384
14.564,-0.012275485866326395
14.568,-0.012274428082437684
14.572000000000001,-0.012280846907398729
14.576,-0.012286640678243718
14.58,-0.012289068773079169
14.584,-0.012286953205301746
14.588000000000001,-0.01228414046177949
14.592,-0.01228774654321828
14.596,-0.012294357692522727
14.6,-0.012298588828077573
14.604000000000001,-0.012299911057938463
14.608,-0.012298468625362947
14.612,-0.012294838503381231
14.616,-0.012292386368002855
14.620000000000001,-0.01229555971966899
14.624,-0.012299021557850228
14.628,-0.012299141760564854
14.632,-0.012295078908810484
14.636000000000001,-0.012294814462838307
14.64,-0.012297675287446413
14.644,-0.012297002152244507
14.648,-0.012295078908810484
14.652000000000001,-0.012293804760035446
14.656,-0.012299382165994107
14.66,-0.012302892085261195
14.664,-0.012302627639289018
14.668000000000001,-0.0122987090307922
14.672,-0.012300944801284248
14.676,-0.01230830120741938
14.68,-0.012309911923795372
14.684000000000001,-0.012309070504792987
14.688,-0.01230519997738202
14.692,-0.012300560152597445
14.696,-0.012306642409957536
14.700000000000001,-0.012308950302078361
14.704,-0.01230976768053782
14.708,-0.012309527275108569
14.712,-0.012306089477470255
14.716000000000001,-0.012305945234212703
14.72,-0.012310416775196802
14.724,-0.01231154668071429
14.728,-0.012309022423707138
14.732000000000001,-0.01230830120741938
14.736,-0.01231008020759585
14.74,-0.012310368694110951
14.744,-0.01230880605882081
14.748000000000001,-0.012306185639641956
14.752,-0.01230205066625881
14.756,-0.012298877314592676
14.76,-0.012299766814680911
14.764000000000001,-0.012305103815210319
14.768,-0.012306498166699984
14.772,-0.012302916125804121
14.776,-0.01230012742282479
14.780000000000001,-0.012308974342621288
14.784,-0.012313998816092667
14.788,-0.012312075572658645
14.792,-0.012310729302254832
14.796000000000001,-0.012314094978264368
14.8,-0.012317652978617307
14.804,-0.012317196208301727
14.808,-0.012315633573011586
14.812000000000001,-0.012314311343150695
14.816,-0.012314984478352603
14.82,-0.01231428730260777
14.824,-0.012311907288858169
14.828000000000001,-0.012309094545335913
14.832,-0.012306642409957536
14.836,-0.012304406639465486
14.84,-0.012303180571776299
14.844000000000001,-0.012303156531233372
14.848,-0.012305776950412227
14.852,-0.012307676153303323
14.856,-0.012307604031674546
14.86,-0.012306450085614134
14.864,-0.012301329449971053
14.868,-0.012299141760564854
14.872,-0.012299189841650704
14.876,-0.01230063227422622
14.88,-0.012306642409957536
14.884,-0.012311258194199187
14.888,-0.012312676586231776
14.892,-0.012313518005234161
14.896,-0.012313590126862938
14.9,-0.0123146959918375
14.904,-0.012315297005410631
14.908,-0.012313445883605386
14.912,-0.012310657180626055
14.916,-0.012308685856106184
14.92,-0.012308541612848632
14.924,-0.012309575356194419
14.928,-0.012311570721257215
14.932,-0.012313181437633209
14.936,-0.012313614167405862
14.94,-0.012313493964691237
14.944,-0.012313349721433685
14.948,-0.012307531910045771
14.952,-0.01230205066625881
14.956,-0.012310344653568027
14.96,-0.012314070937721442
14.964,-0.01231108991039871
14.968,-0.01231616246495594
14.972,-0.012323038060232565
14.976,-0.012326043128098223
14.98,-0.01232616333081285
14.984,-0.012324985344209512
14.988,-0.012323759276520324
14.992,-0.012322028357429704
14.996,-0.012320249357253236
15.0,-0.012319552181508403
15.004,-0.012317797221874859
15.008000000000001,-0.012314527708037022
15.012,-0.012310777383340682
15.016,-0.012310801423883607
15.02,-0.012305175936839096
15.024000000000001,-0.012303036328518747
15.028,-0.0123125083024313
15.032,-0.012320369559967861
15.036,-0.01232438433063638
15.040000000000001,-0.01232561039832557
15.044,-0.012326740303843056
15.048,-0.012329553047365311
15.052,-0.012330995479940828
15.056000000000001,-0.012330081939309668
15.06,-0.012329673250079939
15.064,-0.012330971439397903
15.068,-0.012331043561026678
15.072000000000001,-0.012330130020395519
15.076,-0.01232931264193606
15.08,-0.012329120317592658
15.084,-0.012327197074158636
15.088000000000001,-0.012323783317063249
15.092,-0.012322869776432089
15.096,-0.012323158262947193
15.1,-0.01232488918203781
15.104000000000001,-0.012326692222757205
15.108,-0.012327725966102992
15.112,-0.01232803849316102
15.116,-0.012327389398502038
15.120000000000001,-0.012327966371532245
15.124,-0.012327413439044964
15.128,-0.01232464877660856
15.132,-0.012323687154891547
15.136000000000001,-0.012328879912163405
15.14,-0.012336500764270713
15.144,-0.01233799127793208
15.148,-0.012336380561556087
15.152000000000001,-0.012335827629068806
15.156,-0.012335467020924928
15.16,-0.012329336682478985
15.164,-0.012319119451735748
15.168000000000001,-0.01232616333081285
15.172,-0.012338832696934464
15.176,-0.012343159994661011
15.18,-0.012342871508145907
15.184000000000001,-0.012340539575482158
15.188,-0.012333279331518728
15.192,-0.012326139290269924
15.196,-0.012329577087908238
15.200000000000001,-0.01233246195305927
15.204,-0.012333688020748457
15.208,-0.012334289034321589
15.212,-0.012332798520660222
15.216000000000001,-0.012330057898766743
15.22,-0.012327509601216665
15.224,-0.012324768979323185
15.228,-0.012327317276873263
15.232000000000001,-0.012330105979852592
15.236,-0.012329048195963881
15.24,-0.012326932628186458
15.244,-0.012325081506381213
15.248000000000001,-0.012323446749462296
15.252,-0.012318542478705542
15.256,-0.012313037194375657
15.26,-0.012314864275637976
15.264000000000001,-0.012317701059703158
15.268,-0.012318927127392345
15.272,-0.012323230384575968
15.276,-0.012326187371355775
15.280000000000001,-0.012324192006292978
15.284,-0.01231972046530888
15.288,-0.012318157830018737
15.292,-0.012316907721786624
15.296000000000001,-0.012315633573011586
15.3,-0.01231616246495594
15.304,-0.012317917424589485
15.308,-0.012320032992366907
15.312000000000001,-0.012319407938250851
15.316,-0.012321908154715079
15.32,-0.012325874844297747
15.324,-0.012327822128274693
15.328000000000001,-0.012326523938956729
15.332,-0.012324937263123661
15.336,-0.012323566952176922
15.34,-0.012320706127568816
15.344000000000001,-0.012317725100246082
15.348,-0.012316426910928118
15.352,-0.012314503667494097
15.356,-0.012313181437633209
15.36,-0.012314383464779472
15.364,-0.012308469491219855
15.368,-0.012300560152597445
15.372,-0.012313445883605386
15.376,-0.012324552614436858
15.38,-0.012323038060232565
15.384,-0.012321908154715079
15.388,-0.012326115249727
15.392,-0.012330009817680893
15.396,-0.012330899317769126
15.4,-0.012330130020395519
15.404,-0.01232926456085021
15.408,-0.012328230817504423
15.412,-0.012326091209184074
15.416,-0.012324720898237334
15.42,-0.012323807357606175
15.424,-0.012322797654803314
15.428,-0.012321475424942423
15.432,-0.012318975208478196
15.436,-0.012317773181331933
15.44,-0.01231890308684942
15.444,-0.01231702792450125
15.448,-0.012310296572482176
15.452,-0.012309046464250063
15.456,-0.012317268329930502
15.46,-0.012321715830371676
15.464,-0.012318662681420168
15.468,-0.012317196208301727
15.472,-0.012319143492278674
15.476,-0.01231784530296071
15.48,-0.012315345086496482
15.484,-0.012317556816445606
15.488,-0.012319119451735748
15.492,-0.01232241300611651
15.496,-0.012328326979676124
15.5,-0.012329601128451162
15.504,-0.012328206776961498
15.508000000000001,-0.012327245155244486
15.512,-0.012325995047012372
15.516,-0.012325754641583121
15.52,-0.012326523938956729
15.524000000000001,-0.012325946965926522
15.528,-0.012325826763211896
15.532,-0.012326547979499653
15.536,-0.012326884547100608
15.540000000000001,-0.012325922925383597
15.544,-0.012323518871091071
15.548,-0.012320513803225413
15.552,-0.012320153195081535
15.556000000000001,-0.012318879046306495
15.56,-0.012313133356547358
15.564,-0.012317100046130026
15.568,-0.01232073016811174
15.572000000000001,-0.012320297438339086
15.576,-0.012326259492984552
15.58,-0.012329384763564835
15.584,-0.01232981749333749
15.588000000000001,-0.01232347079000522
15.592,-0.012313902653920966
15.596,-0.012316138424413016
15.6,-0.012324817060409035
15.604000000000001,-0.01232875970944878
15.608,-0.012329793452794564
15.612,-0.012328110614789797
15.616,-0.012323639073805697
15.620000000000001,-0.012322244722316033
15.624,-0.012321283100599021
15.628,-0.012319840668023507
15.632,-0.012314551748579948
15.636000000000001,-0.01231063314008313
15.64,-0.012312820829489328
15.644,-0.012313397802519535
15.648,-0.012311690923971842
15.652000000000001,-0.012310777383340682
15.656,-0.012312628505145928
15.66,-0.012313542045777087
15.664,-0.012312388099716675
15.668000000000001,-0.012312604464603001
15.672,-0.012318278032733363
15.676,-0.012319672384223029
15.68,-0.012318446316533841
15.684000000000001,-0.012319504100422552
15.688,-0.01232027339779616
15.692,-0.012319239654450375
15.696,-0.01231702792450125
15.700000000000001,-0.012312580424060077
15.704,-0.012312171734830346
15.708,-0.012314263262064844
15.712,-0.012314070937721442
15.716000000000001,-0.012315224883781855
15.72,-0.012315898018983763
15.724,-0.012315272964867705
15.728,-0.012314167099893143
15.732000000000001,-0.012309647477823194
15.736,-0.012303709463720653
15.74,-0.012301065003998876
15.744,-0.012302651679831942
15.748000000000001,-0.012308373329048156
15.752,-0.012312436180802525
15.756,-0.012313758410663414
15.76,-0.012311017788769934
15.764000000000001,-0.012310344653568027
15.768,-0.01231053697791143
15.772,-0.012304935531409843
15.776,-0.012300992882370099
15.780000000000001,-0.012308517572305706
15.784,-0.012313854572835115
15.788,-0.012312388099716675
15.792,-0.012315297005410631
15.796000000000001,-0.01231738853264513
15.8,-0.012317917424589485
15.804,-0.01231702792450125
15.808,-0.012316018221698389
15.812000000000001,-0.012315898018983763
15.816,-0.01231565761355451
15.82,-0.01231419114043607
15.824,-0.012311450518542589
15.828000000000001,-0.012311330315827963
15.832,-0.012311714964514766
15.836,-0.012313397802519535
15.84,-0.01231565761355451
15.844000000000001,-0.012316715397443221
15.848,-0.012314383464779472
15.852,-0.012312412140259599
15.856,-0.012310993748227009
15.860000000000001,-0.012308012720904276
15.864,-0.012303276733948
15.868,-0.012299598530880433
15.872,-0.012300848639112547
15.876,-0.012302603598746091
15.88,-0.012299838936309686
15.884,-0.012298468625362947
15.888,-0.012296785787358178
15.892,-0.012304839369238142
15.896,-0.012313542045777087
15.9,-0.012313542045777087
15.904,-0.012309935964338298
15.908,-0.012309960004881222
15.912,-0.012312868910575179
15.916,-0.012312580424060077
15.92,-0.012313061234918581
15.924,-0.012314094978264368
15.928,-0.012312652545688852
15.932,-0.012309647477823194
15.936,-0.01230378158534943
15.94,-0.012301834301372484
15.944,-0.012305536544982974
15.948,-0.012308469491219855
15.952,-0.01230976768053782
15.956,-0.01231017636976755
15.96,-0.012308325247962305
15.964,-0.012303853706978205
15.968,-0.012302170868973438
15.972,-0.01230063227422622
15.976,-0.012296401138671375
15.98,-0.012293588395149118
15.984,-0.012292145962573603
15.988,-0.012296208814327973
15.992,-0.012300824598569623
15.996,-0.012301065003998876
16.0,-0.012300560152597445
16.004,-0.012298805192963901
16.008,-0.012296689625186477
16.012,-0.012296905990072805
16.016000000000002,-0.01229606457107042
16.02,-0.012294958706095859
16.024,-0.012292194043659454
16.028,-0.01228866008384944
16.032,-0.012289814029909852
16.036,-0.012292145962573603
16.04,-0.012295703962926542
16.044,-0.012298925395678527
16.048000000000002,-0.01229834842264832
16.052,-0.012297026192787431
16.056,-0.012292530611260406
16.06,-0.012288491800048963
16.064,-0.012294670219580755
16.068,-0.012298925395678527
16.072,-0.01230012742282479
16.076,-0.01229834842264832
16.080000000000002,-0.012294141327636399
16.084,-0.012298997517307302
16.088,-0.012302723801460719
16.092,-0.012302194909516362
16.096,-0.012304118152950384
16.1,-0.012305873112583928
16.104,-0.012304358558379636
16.108,-0.012303973909692833
16.112000000000002,-0.012306329882899508
16.116,-0.012305680788240526
16.12,-0.012306209680184881
16.124,-0.012307820396560875
16.128,-0.01230738766678822
16.132,-0.01230601735584148
