time,channel1
0.0,-0.02147784508997342
0.004,-0.021477989333230973
0.008,-0.021477268116943216
0.012,-0.021475152549165794
0.016,-0.02147433517070633
0.02,-0.02147435921124926
0.024,-0.02147688346825641
0.028,-0.021481282887611735
0.032,-0.021483158049959903
0.036000000000000004,-0.0214827734012731
0.04,-0.021482100266071193
0.044,-0.021481835820099014
0.048,-0.02148205218498534
0.052000000000000005,-0.021481379049783436
0.056,-0.021480970360553707
0.06,-0.021481210765982958
0.064,-0.02148044146860935
0.068,-0.02148255703638677
0.07200000000000001,-0.021485489982623656
0.076,-0.021487533428772302
0.08,-0.02148988940197898
0.084,-0.021488951820804892
0.088,-0.021485225536651477
0.092,-0.021483662901361333
0.096,-0.021485201496108552
0.1,-0.021485898671853385
0.10400000000000001,-0.02148419179330569
0.108,-0.021484720685250046
0.112,-0.02148616311782556
0.116,-0.02148916818569122
0.12,-0.021479816414493293
0.124,-0.021476667103370085
0.128,-0.021474431332878033
0.132,-0.021475176589708718
0.136,-0.021475537197852595
0.14,-0.021475561238395523
0.14400000000000002,-0.021474888103193614
0.148,-0.02147440729233511
0.152,-0.021475032346451164
0.156,-0.021477003670971037
0.16,-0.021477171954771515
0.164,-0.021475032346451164
0.168,-0.021475152549165794
0.17200000000000001,-0.021476715184455934
0.176,-0.021477123873685663
0.18,-0.0214737341571332
0.184,-0.021471738792070403
0.188,-0.02147308506247422
0.192,-0.021472243643471833
0.196,-0.021468829886376446
0.2,-0.021467219170000454
0.20400000000000001,-0.021467098967285828
0.20800000000000002,-0.021464742994079154
0.212,-0.02146334864258949
0.216,-0.021464670872450377
0.22,-0.021464310264306497
0.224,-0.021464526629192824
0.228,-0.021462387020872477
0.232,-0.021460872466668186
0.23600000000000002,-0.021461184993726214
0.24,-0.02146253126413003
0.244,-0.021461737926213496
0.248,-0.021460872466668186
0.252,-0.021462459142501254
0.256,-0.021462387020872477
0.26,-0.02146084842612526
0.264,-0.02146007912875165
0.268,-0.021460199331466277
0.272,-0.02146181004784227
0.276,-0.021462483183044178
0.28,-0.021461112872097437
0.28400000000000003,-0.02145887710160539
0.28800000000000003,-0.02145988680440825
0.292,-0.021462507223587102
0.296,-0.021462194696529074
0.3,-0.021461521561327166
0.304,-0.02145988680440825
0.308,-0.02145623264188361
0.312,-0.021456617290570412
0.316,-0.021460439736895532
0.32,-0.021462338939786628
0.324,-0.02146217065598615
0.328,-0.021463156318246086
0.332,-0.021464166021048947
0.336,-0.021463661169647517
0.34,-0.021464021777791394
0.34400000000000003,-0.02146419006159187
0.34800000000000003,-0.02146140135861254
0.352,-0.021457891439345452
0.356,-0.021454117074106188
0.36,-0.021451737060356586
0.364,-0.021451376452212706
0.368,-0.02144983785746549
0.372,-0.021446520262541804
0.376,-0.02144546247865309
0.38,-0.02144769824914514
0.384,-0.021449789776379638
0.388,-0.021452794844245296
0.392,-0.021455847993196806
0.396,-0.021457170223057695
0.4,-0.02145604031754021
0.404,-0.02145531910125245
0.40800000000000003,-0.021455751831025105
0.41200000000000003,-0.021454020911934487
0.41600000000000004,-0.021452001506328762
0.42,-0.021451063925154678
0.424,-0.021451280290041005
0.428,-0.021451881303614136
0.432,-0.021450559073753248
0.436,-0.02145253039827312
0.44,-0.021457170223057695
0.444,-0.021455799912110954
0.448,-0.021451640898184885
0.452,-0.021450462911581546
0.456,-0.021449164722263582
0.46,-0.021447265519372486
0.464,-0.021447265519372486
0.468,-0.021450823519725427
0.47200000000000003,-0.02145587203373973
0.47600000000000003,-0.02145604031754021
0.48,-0.021452915046959925
0.484,-0.021451328371126857
0.488,-0.02145601627699728
0.492,-0.02146176196675642
0.496,-0.021462747629016357
0.5,-0.02146140135861254
0.504,-0.021459598317893146
0.508,-0.021458131844774707
0.512,-0.021457410628486946
0.516,-0.021458252047489332
0.52,-0.021459526196264372
0.524,-0.021460415696352604
0.528,-0.021462603385758804
0.532,-0.021463060156074385
0.536,-0.021461016709925736
0.54,-0.021459165588120492
0.544,-0.021456328804055312
0.548,-0.021455391222881225
0.552,-0.021453828587591085
0.556,-0.021452818884788224
0.56,-0.021455150817451973
0.5640000000000001,-0.021456497087855787
0.5680000000000001,-0.021456809614913815
0.5720000000000001,-0.021457170223057695
0.5760000000000001,-0.021456809614913815
0.58,-0.021455487385052926
0.584,-0.02145459788496469
0.588,-0.021454790209308093
0.592,-0.021455295060709523
0.596,-0.021457218304143544
0.6,-0.02146015125038043
0.604,-0.021462362980329552
0.608,-0.021462459142501254
0.612,-0.02146332460204656
0.616,-0.021465752696882015
0.62,-0.021463925615619692
0.624,-0.021459165588120492
0.628,-0.021458540534004436
0.632,-0.021459910844951174
0.636,-0.02145892518269124
0.64,-0.021457626993373276
0.644,-0.0214576510339162
0.648,-0.02145623264188361
0.652,-0.021454237276820814
0.656,-0.02145500657419442
0.66,-0.021461377318069616
0.664,-0.02146322843987486
0.668,-0.021460007007122875
0.672,-0.02145861265563321
0.676,-0.021458420331289807
0.68,-0.021459165588120492
0.684,-0.021459646398978998
0.6880000000000001,-0.021459766601693624
0.6920000000000001,-0.021459526196264372
0.6960000000000001,-0.02145897326377709
0.7000000000000001,-0.021458756898890763
0.704,-0.021458011642060078
0.708,-0.021456304763512384
0.712,-0.021457074060885994
0.716,-0.021459189628663417
0.72,-0.021462747629016357
0.724,-0.02146541612928106
0.728,-0.021464141980506023
0.732,-0.021462963993902684
0.736,-0.02146303611553146
0.74,-0.021462483183044178
0.744,-0.021459550236807297
0.748,-0.021456713452742113
0.752,-0.021456665371656265
0.756,-0.021458901142148313
0.76,-0.02146140135861254
0.764,-0.02146426218322065
0.768,-0.021464622791364525
0.772,-0.021464117939963095
0.776,-0.021461978331642748
0.78,-0.0214598387233224
0.784,-0.021458179925860556
0.788,-0.021457266385229396
0.792,-0.021457867398802528
0.796,-0.021458853061062464
0.8,-0.02145921366920634
0.804,-0.021459694480064847
0.808,-0.02146084842612526
0.812,-0.021460920547754034
0.8160000000000001,-0.02146156964241302
0.8200000000000001,-0.02146308419661731
0.8240000000000001,-0.02146332460204656
0.8280000000000001,-0.021463060156074385
0.8320000000000001,-0.02146226681815785
0.836,-0.02146149752078424
0.84,-0.021466257548283445
0.844,-0.021467507656515557
0.848,-0.021468349075517944
0.852,-0.02146810867008869
0.856,-0.021469791508093458
0.86,-0.021468397156603793
0.864,-0.021465055521137182
0.868,-0.021464887237336704
0.872,-0.021465127642765956
0.876,-0.02146358904801874
0.88,-0.021462338939786628
0.884,-0.02146181004784227
0.888,-0.021461689845127644
0.892,-0.0214624110614154
0.896,-0.021464214102134796
0.9,-0.021465392088738135
0.904,-0.021463132277703162
0.908,-0.02146176196675642
0.912,-0.02146253126413003
0.916,-0.02146344480476119
0.92,-0.021462098534357373
0.924,-0.021459958926037026
0.928,-0.021458997304320014
0.932,-0.021459189628663417
0.936,-0.021459670439521922
0.9400000000000001,-0.02146015125038043
0.9440000000000001,-0.021460583980153082
0.9480000000000001,-0.021459261750292193
0.9520000000000001,-0.02145714618251477
0.9560000000000001,-0.021457434669029874
0.96,-0.021460055088208727
0.964,-0.02145921366920634
0.968,-0.021456905777085516
0.972,-0.021455992236454356
0.976,-0.021456088398626057
0.98,-0.02145628072296946
0.984,-0.021457723155544978
0.988,-0.021458035682603006
0.992,-0.02145820396640348
0.996,-0.021458492452918584
1.0,-0.021460055088208727
1.004,-0.02146171388567057
1.008,-0.021464334304849425
1.012,-0.021465223804937657
1.016,-0.02146382945344799
1.02,-0.021464550669735752
1.024,-0.02146546421036691
1.028,-0.021465704615796163
1.032,-0.021467002805114127
1.036,-0.021466714318599023
1.04,-0.021465945021225417
1.044,-0.021465079561680107
1.048,-0.021464021777791394
1.052,-0.021465969061768342
1.056,-0.021468853926919374
1.06,-0.02146830099443209
1.064,-0.02146911837289155
1.068,-0.021470729089267542
1.072,-0.021470921413610945
1.076,-0.02147113777849727
1.08,-0.021471378183926526
1.084,-0.021471883035327956
1.088,-0.02147217152184306
1.092,-0.021472291724557686
1.096,-0.021472532129986937
1.1,-0.0214737341571332
1.104,-0.021475176589708718
1.108,-0.021476715184455934
1.112,-0.021477821049430496
1.116,-0.021478638427889954
1.12,-0.02147871054951873
1.124,-0.021479143279291384
1.1280000000000001,-0.021479311563091862
1.1320000000000001,-0.021477628725087093
1.1360000000000001,-0.021476162251968654
1.1400000000000001,-0.02147743640074369
1.1440000000000001,-0.02148089823892493
1.1480000000000001,-0.021482124306614118
1.1520000000000001,-0.021479263482006013
1.156,-0.021476042049254025
1.16,-0.02147541699513797
1.164,-0.0214760180087111
1.168,-0.021476739224998858
1.172,-0.021477580644001244
1.176,-0.02147851822517533
1.18,-0.02147628245468328
1.184,-0.02147426304907756
1.188,-0.021473782238219052
1.192,-0.0214733495084464
1.196,-0.02147267637324449
1.2,-0.021472435967815236
1.204,-0.021472796575959116
1.208,-0.02147322930573177
1.212,-0.021473445670618097
1.216,-0.021471474346098227
1.22,-0.021469238575606175
1.224,-0.02146962322429298
1.228,-0.02147003191352271
1.232,-0.021468132710631613
1.236,-0.021465969061768342
1.24,-0.021465632494167386
1.244,-0.02146683452131365
1.248,-0.021466065223940043
1.252,-0.021466618156427322
1.256,-0.02146601714285419
1.26,-0.021463372683132413
1.264,-0.02146217065598615
1.268,-0.021461088831554512
1.272,-0.021459165588120492
1.276,-0.021457530831201575
1.28,-0.021454549803878842
1.284,-0.021453804547048157
1.288,-0.021455487385052926
1.292,-0.021455751831025105
1.296,-0.02145435747953544
1.3,-0.021453876668676933
1.304,-0.021453155452389176
1.308,-0.02145125624949808
1.312,-0.021450198465609367
1.316,-0.021450438871038622
1.32,-0.02145202554687169
1.324,-0.021452193830672164
1.328,-0.02145084756026835
1.332,-0.021451544736013184
1.336,-0.021452362114472642
1.34,-0.021453011209131623
1.344,-0.02145166493872781
1.348,-0.02145048695212447
1.352,-0.021451857263071212
1.356,-0.021452722722616523
1.36,-0.021452362114472642
1.364,-0.02145267464153067
1.368,-0.021454790209308093
1.372,-0.021455799912110954
1.3760000000000001,-0.021455559506681703
1.3800000000000001,-0.021453708384876456
1.3840000000000001,-0.021452794844245296
1.3880000000000001,-0.021452722722616523
1.3920000000000001,-0.02145262656044482
1.3960000000000001,-0.021453876668676933
1.4000000000000001,-0.021455559506681703
1.4040000000000001,-0.021455847993196806
1.408,-0.02145491041202272
1.412,-0.02145471808767932
1.416,-0.02145522293908075
1.42,-0.021454934452565647
1.424,-0.02145176110089951
1.428,-0.021449597452036236
1.432,-0.02145065523592495
1.436,-0.021452891006416997
1.44,-0.02145582395265388
1.444,-0.02145495849310857
1.448,-0.02145459788496469
1.452,-0.02145668941219919
1.456,-0.021458540534004436
1.46,-0.021458684777261986
1.464,-0.021457843358259603
1.468,-0.021458011642060078
1.472,-0.02145820396640348
1.476,-0.021456905777085516
1.48,-0.021457338506858173
1.484,-0.02146007912875165
1.488,-0.021460583980153082
1.492,-0.021460824385582333
1.496,-0.0214623148992437
1.5,-0.02146334864258949
1.504,-0.021462603385758804
1.508,-0.021462050453271524
1.512,-0.021462459142501254
1.516,-0.021463733291276293
1.52,-0.021462651466844656
1.524,-0.0214598387233224
1.528,-0.02145873285834784
1.532,-0.02145861265563321
1.536,-0.021456569209484563
1.54,-0.021455679709396328
1.544,-0.02145705002034307
1.548,-0.021459814682779473
1.552,-0.02146034357472383
1.556,-0.021458372250203958
1.56,-0.02145815588531763
1.564,-0.02145943003409267
1.568,-0.021463661169647517
1.572,-0.02146652199425562
1.576,-0.021467531697058482
1.58,-0.021468349075517944
1.584,-0.02146911837289155
1.588,-0.021469959791893936
1.592,-0.021469094332348625
1.596,-0.021466233507740518
1.6,-0.02146272358847343
1.604,-0.021460127209837504
1.608,-0.02145887710160539
1.612,-0.021457891439345452
1.616,-0.021455487385052926
1.62,-0.02145166493872781
1.624,-0.02144983785746549
1.6280000000000001,-0.021451953425242913
1.6320000000000001,-0.021454117074106188
1.6360000000000001,-0.02145637688514116
1.6400000000000001,-0.02145866073671906
1.6440000000000001,-0.02145892518269124
1.6480000000000001,-0.021460535899067233
1.6520000000000001,-0.021461882169471046
1.6560000000000001,-0.021462627426301728
1.6600000000000001,-0.021464238142677724
1.6640000000000001,-0.021464694912993302
1.668,-0.02146577673742494
1.672,-0.021466473913169772
1.676,-0.021466161386111744
1.68,-0.021465945021225417
1.684,-0.021465969061768342
1.688,-0.02146582481851079
1.692,-0.02146693068348535
1.696,-0.021467724021401884
1.7,-0.021467820183573585
1.704,-0.021468902008005223
1.708,-0.021468974129634
1.712,-0.021469454940492506
1.716,-0.02147080121089632
1.72,-0.021471546467727004
1.724,-0.02147113777849727
1.728,-0.021470873332525096
1.732,-0.021471089697411423
1.736,-0.02147130606229775
1.74,-0.021471642629898702
1.744,-0.021472003238042582
1.748,-0.02147190707587088
1.752,-0.021471474346098227
1.756,-0.021471378183926526
1.76,-0.021471233940668973
1.764,-0.0214738303193049
1.768,-0.021476450738483754
1.772,-0.021477772968344647
1.776,-0.02147902307657676
1.78,-0.021479912576664994
1.784,-0.021478277819746077
1.788,-0.021477051752056886
1.792,-0.0214758256843677
1.796,-0.021475080427537017
1.8,-0.021474791941021913
1.804,-0.021474840022107762
1.808,-0.02147419092744878
1.812,-0.021473301427360546
1.816,-0.021472508089444012
1.82,-0.021470705048724618
1.824,-0.021469358778320805
1.828,-0.02146664219697025
1.832,-0.021464021777791394
1.836,-0.021463420764218262
1.84,-0.02146404581833432
1.844,-0.02146435834539235
1.848,-0.021464574710278676
1.852,-0.02146486319679378
1.856,-0.021465488250909836
1.86,-0.021465969061768342
1.864,-0.021467892305202362
1.868,-0.021469334737777877
1.872,-0.021468853926919374
1.8760000000000001,-0.021466161386111744
1.8800000000000001,-0.021461689845127644
1.8840000000000001,-0.021459093466491715
1.8880000000000001,-0.02145873285834784
1.8920000000000001,-0.02145911750703464
1.8960000000000001,-0.021459958926037026
1.9000000000000001,-0.021461978331642748
1.9040000000000001,-0.02146156964241302
1.9080000000000001,-0.0214599348854941
1.9120000000000001,-0.02146084842612526
1.9160000000000001,-0.021462122574900298
1.92,-0.02146368521019044
1.924,-0.021464622791364525
1.928,-0.021465728656339087
1.932,-0.021465560372538613
1.936,-0.02146587289959664
1.94,-0.021465199764394732
1.944,-0.02146445450756405
1.948,-0.021462891872273907
1.952,-0.02146181004784227
1.956,-0.021461834088385198
1.96,-0.021464069858877246
1.964,-0.02146582481851079
1.968,-0.021465392088738135
1.972,-0.021464166021048947
1.976,-0.021462362980329552
1.98,-0.021464574710278676
1.984,-0.021468517359318418
1.988,-0.021472387886729387
1.992,-0.02147291677867374
1.996,-0.0214712579812119
2.0,-0.02147226768401476
2.004,-0.021474431332878033
2.008,-0.02147527275188042
2.012,-0.02147440729233511
2.016,-0.021474383251792184
2.02,-0.02147414284636293
2.024,-0.021473878400390754
2.028,-0.021474527495049734
2.032,-0.02147474385993606
2.036,-0.021474166886905857
2.04,-0.021473012940845443
2.044,-0.021472628292158638
2.048,-0.021472628292158638
2.052,-0.02147395052201953
2.056,-0.021474479413963885
2.06,-0.021474166886905857
2.064,-0.02147491214373654
2.068,-0.021475993968168176
2.072,-0.021477364279114917
2.076,-0.02147952792797819
2.08,-0.021480417428066424
2.084,-0.021480249144265946
2.088,-0.021479335603634787
2.092,-0.021478734590061655
2.096,-0.021479239441463086
2.1,-0.02147815761703145
2.104,-0.02147683538717056
2.108,-0.021478229738660225
2.112,-0.02148053763078105
2.116,-0.021481066522725408
2.12,-0.021481691576841464
2.124,-0.02148433603656324
2.128,-0.02148565826642413
2.132,-0.021485345739366103
2.136,-0.021484528360906644
2.14,-0.021485730388052907
2.144,-0.021486764131398692
2.148,-0.0214874372666006
2.152,-0.02148678817194162
2.156,-0.02148556210425243
2.16,-0.02148541786099488
2.164,-0.021484215833848616
2.168,-0.021483158049959903
2.172,-0.0214826772391014
2.176,-0.021483109968874054
2.18,-0.021483446536475007
2.184,-0.021484047550048138
2.188,-0.021484287955477393
2.192,-0.021482797441816026
2.196,-0.021481980063356568
2.2,-0.021484287955477393
2.204,-0.021488783537004418
2.208,-0.021491620321069597
2.212,-0.021493255077988514
2.216,-0.021492942550930486
2.22,-0.021490466375009183
2.224,-0.021488495050489314
2.228,-0.0214872449422572
2.232,-0.021487485347686453
2.236,-0.021488326766688836
2.24,-0.021487317063885975
2.244,-0.021486860293570394
2.248,-0.021487581509858154
2.2520000000000002,-0.021487653631486928
2.2560000000000002,-0.0214872449422572
2.2600000000000002,-0.021486956455742095
2.2640000000000002,-0.021486619888141142
2.2680000000000002,-0.021485538063709505
2.2720000000000002,-0.02148455240144957
2.2760000000000002,-0.021483879266247664
2.2800000000000002,-0.02148157137412684
2.2840000000000003,-0.021479311563091862
2.2880000000000003,-0.02147911923874846
2.2920000000000003,-0.021480561671323978
2.2960000000000003,-0.021482484914757998
2.3000000000000003,-0.021482797441816026
2.3040000000000003,-0.02148130692815466
2.308,-0.021479047117119683
2.312,-0.02147806145485975
2.316,-0.021477772968344647
2.32,-0.021477676806172945
2.324,-0.021477724887258794
2.328,-0.02147729215748614
2.332,-0.021475633360024296
2.336,-0.021475320832966268
2.34,-0.02147577760328185
2.344,-0.021475344873509192
2.348,-0.02147486406265069
2.352,-0.021474671738307288
2.356,-0.02147395052201953
2.36,-0.02147291677867374
2.364,-0.021472027278585507
2.368,-0.02147099353523972
2.372,-0.021470224237866112
2.376,-0.021469767467550534
2.38,-0.021469767467550534
2.384,-0.02146921453506325
2.388,-0.021467868264659438
2.392,-0.02146846927823257
2.396,-0.021471065656868498
2.4,-0.021472435967815236
2.404,-0.021473061021931295
2.408,-0.02147322930573177
2.412,-0.021471594548812853
2.416,-0.02147003191352271
2.42,-0.021471474346098227
2.424,-0.021471834954242104
2.428,-0.021471738792070403
2.432,-0.02147113777849727
2.436,-0.02147024827840904
2.44,-0.02146911837289155
2.444,-0.021469503021578355
2.448,-0.021469046251262777
2.452,-0.02146628158882637
2.456,-0.021462122574900298
2.46,-0.02146048781798138
2.464,-0.02146176196675642
2.468,-0.021463733291276293
2.472,-0.021467098967285828
2.476,-0.021470921413610945
2.48,-0.021472003238042582
2.484,-0.021472435967815236
2.488,-0.021472435967815236
2.492,-0.021469358778320805
2.496,-0.021466618156427322
2.5,-0.021465969061768342
2.504,-0.021467002805114127
2.508,-0.02146765189977311
2.512,-0.021468228872803315
2.516,-0.021468902008005223
2.52,-0.0214690702918057
2.524,-0.02147003191352271
2.528,-0.02147075312981047
2.532,-0.021468829886376446
2.536,-0.02146618542665467
2.54,-0.021463973696705545
2.544,-0.02146368521019044
2.548,-0.021465728656339087
2.552,-0.021465945021225417
2.556,-0.0214644064264782
2.56,-0.021464310264306497
2.564,-0.02146476703462208
2.568,-0.021464622791364525
2.572,-0.02146354096693289
2.576,-0.02146217065598615
2.58,-0.021461040750468664
2.584,-0.021459141547577568
2.588,-0.02145668941219919
2.592,-0.021454549803878842
2.596,-0.021452722722616523
2.6,-0.021453395857818428
2.604,-0.021454477682250065
2.608,-0.02145394879030571
2.612,-0.0214509918035259
2.616,-0.0214507994791825
2.62,-0.02145116008732638
2.624,-0.021450943722440052
2.628,-0.02145212170904339
2.632,-0.021453227574017953
2.636,-0.02145180918198536
2.64,-0.021451544736013184
2.644,-0.021452794844245296
2.648,-0.02145358818216183
2.652,-0.021451737060356586
2.656,-0.021449909979094267
2.66,-0.021449549370950387
2.664,-0.021448707951948004
2.668,-0.021447097235572008
2.672,-0.021447097235572008
2.676,-0.021446472181455952
2.68,-0.021446063492226223
2.684,-0.021445486519196016
2.688,-0.021444260451506828
2.692,-0.02144486146507996
2.696,-0.021445077829966287
2.7,-0.021444933586708737
2.704,-0.021446015411140374
2.708,-0.021447121276114936
2.712,-0.021447890573488542
2.716,-0.02144755400588759
2.72,-0.021448106938374872
2.724,-0.021448948357377255
2.728,-0.021449116641177733
2.732,-0.021448996438463104
2.736,-0.02144947724932161
2.74,-0.021450318668323996
2.744,-0.021450967762982977
2.748,-0.021451280290041005
2.7520000000000002,-0.021450270587238144
2.7560000000000002,-0.02145007826289474
2.7600000000000002,-0.021450871600811276
2.7640000000000002,-0.02145111200624053
2.7680000000000002,-0.02145166493872781
2.7720000000000002,-0.02145116008732638
2.7760000000000002,-0.021449621492579164
2.7800000000000002,-0.021448491587061674
2.7840000000000003,-0.021448227141089498
2.7880000000000003,-0.021448275222175347
2.7920000000000003,-0.02144829926271827
2.7960000000000003,-0.021447746330230992
2.8000000000000003,-0.02144654430308473
2.8040000000000003,-0.02144582308679697
2.8080000000000003,-0.021446496221998877
2.8120000000000003,-0.021446664505799354
2.816,-0.021446832789599832
2.82,-0.021447938654574394
2.824,-0.02144846754651875
2.828,-0.02144820310054657
2.832,-0.021448347343804124
2.836,-0.02144865987086215
2.84,-0.02144805885728902
2.844,-0.021448683911405076
2.848,-0.02144998210072304
2.852,-0.02144957341149331
2.856,-0.021450174425066443
2.86,-0.02145015038452352
2.864,-0.02144897239792018
2.868,-0.021447986735660243
2.872,-0.021448347343804124
2.876,-0.02144942916823576
2.88,-0.021450318668323996
2.884,-0.021450270587238144
2.888,-0.021449958060180116
2.892,-0.021449284924978208
2.896,-0.02144673662742813
2.9,-0.021446135613855
2.904,-0.02144740976263004
2.908,-0.021450631195382024
2.912,-0.021452915046959925
2.916,-0.02145293908750285
2.92,-0.02145135241166978
2.924,-0.021452049587414614
2.928,-0.021453612222704754
2.932,-0.021454165155192037
2.936,-0.021452842925331148
2.94,-0.021451472614384407
2.944,-0.02145216979012924
2.948,-0.021453924749762786
2.952,-0.021455439303967077
2.956,-0.021453636263247682
2.96,-0.021451785141442435
2.964,-0.021449958060180116
2.968,-0.021447674208602215
2.972,-0.0214462317760267
2.976,-0.021446712586885207
2.98,-0.02144865987086215
2.984,-0.021450559073753248
2.988,-0.02145084756026835
2.992,-0.021451208168412228
2.996,-0.02145212170904339
3.0,-0.021453227574017953
3.004,-0.021453900709219858
3.008,-0.021454525763335917
3.012,-0.021457122141971846
3.016,-0.02145870881780491
3.02,-0.021457771236630827
3.024,-0.021454117074106188
3.028,-0.0214488041141197
3.032,-0.021445510559738944
3.036,-0.02144527015430969
3.04,-0.02144563076245357
3.044,-0.021445173992137988
3.048,-0.021444428735307306
3.052,-0.02144459701910778
3.056,-0.021444837424537035
3.06,-0.02144637601928425
3.064,-0.02144791461403147
3.068,-0.021447986735660243
3.072,-0.021448227141089498
3.076,-0.02144923684389236
3.08,-0.021450102303437666
3.084,-0.021450414830495697
3.088,-0.021449717654750865
3.092,-0.021449669573665012
3.096,-0.021449260884435283
3.1,-0.02144779441131684
3.104,-0.021446856830142757
3.108,-0.021446472181455952
3.112,-0.02144618369494085
3.116,-0.02144522207322384
3.12,-0.021442553572959135
3.124,-0.02144010143758076
3.128,-0.021439644667265178
3.132,-0.021439163856406672
3.136,-0.021438274356318437
3.14,-0.021437697383288233
3.144,-0.021437937788717484
3.148,-0.021439163856406672
3.152,-0.02144051012681049
3.156,-0.02144101497821192
3.16,-0.021440582248439262
3.164,-0.021439260018578373
3.168,-0.02143942830237885
3.172,-0.02144120730255532
3.176,-0.021443106505446417
3.18,-0.021445390357024315
3.184,-0.021445414397567242
3.188,-0.021442289126986955
3.192,-0.02143856284283354
3.196,-0.021435437572253257
3.2,-0.02143339412610461
3.204,-0.021430677544754057
3.208,-0.021428105206661052
3.212,-0.021426855098428937
3.216,-0.021426278125398733
3.22,-0.02142740803091622
3.224,-0.021428345612090303
3.228,-0.021428081166118128
3.232,-0.021426782976800163
3.236,-0.02142461932793689
3.24,-0.021422648003417016
3.244,-0.021424090435992534
3.248,-0.021425869436169004
3.2520000000000002,-0.02142846581480493
3.2560000000000002,-0.02143111027452671
3.2600000000000002,-0.021432913315246105
3.2640000000000002,-0.02143421150456407
3.2680000000000002,-0.021434836558680125
3.2720000000000002,-0.021436254950712715
3.2760000000000002,-0.02144010143758076
3.2800000000000002,-0.02144212084318648
3.2840000000000003,-0.02144293822164594
3.2880000000000003,-0.021444140248792203
3.2920000000000003,-0.021445246113766765
3.2960000000000003,-0.02144618369494085
3.3000000000000003,-0.021446712586885207
3.3040000000000003,-0.021446592384170578
3.3080000000000003,-0.021446832789599832
3.3120000000000003,-0.02144690491122861
3.3160000000000003,-0.021445029748880438
3.3200000000000003,-0.02144084669441144
3.3240000000000003,-0.021436855964285847
3.3280000000000003,-0.021434475950536245
3.332,-0.021433995139677742
3.336,-0.021436519396684894
3.34,-0.021438298396861365
3.344,-0.021440053356494907
3.348,-0.02144303438381764
3.352,-0.02144462105965071
3.356,-0.021444909546165812
3.36,-0.021445342275938466
3.364,-0.02144596733005452
3.368,-0.021446977032857382
3.372,-0.021445486519196016
3.376,-0.021442914181103015
3.38,-0.021441688113413824
3.384,-0.021442048721557704
3.388,-0.02144349115413322
3.392,-0.021446255816569625
3.396,-0.02144731360045834
3.4,-0.02144637601928425
3.404,-0.02144618369494085
3.408,-0.021446351978741326
3.412,-0.021446015411140374
3.416,-0.021445390357024315
3.42,-0.02144536631648139
3.424,-0.02144582308679697
3.428,-0.021447025113943235
3.432,-0.021447986735660243
3.436,-0.021450126343980594
3.44,-0.0214509918035259
3.444,-0.021451737060356586
3.448,-0.02145303524967455
3.452,-0.02145334777673258
3.456,-0.021452602519901894
3.46,-0.02145212170904339
3.464,-0.021452217871215092
3.468,-0.02145303524967455
3.472,-0.02145303524967455
3.476,-0.02145257847935897
3.48,-0.021451833222528287
3.484,-0.02145116008732638
3.488,-0.021451640898184885
3.492,-0.021450679276467873
3.496,-0.02144779441131684
3.5,-0.02144370751901955
3.504,-0.021440942856583142
3.508,-0.021440125478123684
3.512,-0.02143673576157122
3.516,-0.021433754734248488
3.52,-0.021432047855700794
3.524,-0.02143111027452671
3.528,-0.02143074966638283
3.532,-0.021428586017519558
3.536,-0.021425941557797777
3.54,-0.021423825990020354
3.544,-0.021421662341157083
3.548,-0.02142070071944007
3.552,-0.021421301733013202
3.556,-0.021422191233101438
3.56,-0.02142243163853069
3.564,-0.021421734462785856
3.568,-0.02142202294930096
3.572,-0.021424162557621307
3.576,-0.021425052057709542
3.58,-0.021425028017166618
3.584,-0.021425340544224646
3.588,-0.021427335909287443
3.592,-0.021429355314893164
3.596,-0.02143060542312528
3.6,-0.021431687247556917
3.604,-0.02143171128809984
3.608,-0.021432456544930523
3.612,-0.02143608666691224
3.616,-0.021438274356318437
3.62,-0.02143933214020715
3.624,-0.02144161599178505
3.628,-0.02144308246490349
3.632,-0.02144202468101478
3.636,-0.02143882728880572
3.64,-0.021436206869626866
3.644,-0.021434788477594276
3.648,-0.02143303351796073
3.652,-0.021432360382758822
3.656,-0.021431591085385216
3.66,-0.021430148652809698
3.664,-0.021429956328466296
3.668,-0.021430124612266774
3.672,-0.02143226422058712
3.676,-0.021433995139677742
3.68,-0.02143454807216502
3.684,-0.02143445190999332
3.688,-0.021433826855877264
3.692,-0.02143454807216502
3.696,-0.021436928085914624
3.7,-0.02144010143758076
3.704,-0.021441231343098246
3.708,-0.02144048608626756
3.712,-0.021440365883552935
3.716,-0.021442962262188864
3.72,-0.021445246113766765
3.724,-0.021445486519196016
3.728,-0.021445847127339896
3.732,-0.0214462317760267
3.736,-0.021446664505799354
3.74,-0.021446664505799354
3.744,-0.021447674208602215
3.748,-0.02144873199249093
3.7520000000000002,-0.021448179060003646
3.7560000000000002,-0.02144745784371589
3.7600000000000002,-0.02144791461403147
3.7640000000000002,-0.0214485156276046
3.7680000000000002,-0.021447866532945618
3.7720000000000002,-0.021446952992314458
3.7760000000000002,-0.021446087532769147
3.7800000000000002,-0.021445799046254044
3.7840000000000003,-0.02144471722182241
3.7880000000000003,-0.021443058424360565
3.7920000000000003,-0.02144075053223974
3.7960000000000003,-0.021439115775320823
3.8000000000000003,-0.021438202234689663
3.8040000000000003,-0.02143805799143211
3.8080000000000003,-0.021437529099487755
3.8120000000000003,-0.02143673576157122
3.8160000000000003,-0.021436014545283464
3.8200000000000003,-0.02143536545062448
3.8240000000000003,-0.021436062626369313
3.8280000000000003,-0.021436687680485372
3.8320000000000003,-0.02143731273460143
3.8360000000000003,-0.021437481018401903
3.84,-0.021437721423831158
3.844,-0.02143745697785898
3.848,-0.0214370002075434
3.852,-0.021438202234689663
3.856,-0.021440125478123684
3.86,-0.021440798613325592
3.864,-0.02144101497821192
3.868,-0.021440942856583142
3.872,-0.021439909113237357
3.876,-0.02143764930220238
3.88,-0.02143512504519523
3.884,-0.021432913315246105
3.888,-0.021429956328466296
3.892,-0.021429764004122893
3.896,-0.021431903612443244
3.9,-0.021433874936963113
3.904,-0.021435653937139584
3.908,-0.021435076964109376
3.912,-0.021436327072341492
3.916,-0.021437865667088708
3.92,-0.021437481018401903
3.924,-0.021436928085914624
3.928,-0.0214346201937938
3.932,-0.021431543004299364
3.936,-0.02142906682837806
3.94,-0.021427696517431323
3.944,-0.021426758936257236
3.948,-0.021427480152544996
3.952,-0.02142699934168649
3.956,-0.021426662774085534
3.96,-0.021427191666029893
3.964,-0.021426879138971865
3.968,-0.02142659065245676
3.972,-0.021426758936257236
3.976,-0.021426927220057713
3.98,-0.021425556909110972
3.984,-0.021423585584591103
3.988,-0.02142147001681368
3.992,-0.021421181530298577
3.996,-0.021423008611560896
4.0,-0.02142344134133355
4.0040000000000004,-0.02142312881427552
4.008,-0.021423176895361374
4.0120000000000005,-0.02142288840884627
4.016,-0.02142211911147266
4.0200000000000005,-0.021420267989667417
4.024,-0.021419402530122107
4.0280000000000005,-0.021418969800349453
4.032,-0.021418993840892377
4.0360000000000005,-0.02141750332723101
4.04,-0.021415892610855018
4.0440000000000005,-0.02141457038099413
4.048,-0.021413584718734193
4.0520000000000005,-0.021413488556562492
4.056,-0.021414378056650727
4.0600000000000005,-0.02141512331348141
4.064,-0.021415772408140393
4.0680000000000005,-0.021418993840892377
4.072,-0.02142050839509667
4.0760000000000005,-0.02142046031401082
4.08,-0.02142086900324055
4.0840000000000005,-0.021421542138442454
4.088,-0.021422143152015585
4.0920000000000005,-0.021421806584414633
4.096,-0.02142125365192735
4.1,-0.02142175850332878
4.104,-0.02142187870604341
4.108,-0.021421806584414633
4.112,-0.021419907381523537
4.116,-0.021417791813746114
4.12,-0.021421806584414633
4.124,-0.021425148219881243
4.128,-0.021425148219881243
4.132,-0.021424523165765187
4.136,-0.021423321138618924
4.14,-0.021423513462962326
4.144,-0.021424234679250084
4.148,-0.021425196300967096
4.152,-0.021424595287393964
4.156,-0.021424258719793008
4.16,-0.021426157922684104
4.164,-0.021428441774262005
4.168,-0.021430389058238953
4.172,-0.021433153720675356
4.176,-0.021435846261482986
4.18,-0.02143856284283354
4.184,-0.021440413964638787
4.188,-0.021441303464727023
4.192,-0.02144216892427233
4.196,-0.02144358731630492
4.2,-0.0214438517622771
4.204,-0.021442745897302537
4.208,-0.021439861032151505
4.212,-0.021437192531886803
4.216,-0.02143536545062448
4.22,-0.02143344220719046
4.224,-0.02142973996357997
4.228,-0.021425148219881243
4.232,-0.021422912449389195
4.236,-0.021423056692646745
4.24,-0.02142522034151002
4.244,-0.02142764843634547
4.248,-0.021428898544577586
4.252,-0.021429355314893164
4.256,-0.021430076531180925
4.26,-0.021428610058062483
4.264,-0.02142461932793689
4.268,-0.02142115748975565
4.272,-0.021419017881435302
4.276,-0.021418344746233393
4.28,-0.02141649362442815
4.284,-0.021414522299908277
4.288,-0.02141324815113324
4.292,-0.021412767340274735
4.296,-0.021412863502446436
4.3,-0.02141344047547664
4.304,-0.02141264713756011
4.308,-0.021410771975211938
4.312,-0.021409209339921794
4.316,-0.021407238015401925
4.32,-0.02140557921794008
4.324,-0.021403463650162657
4.328,-0.021403511731248506
4.332,-0.021405507096311303
4.336,-0.02140658892074294
4.34,-0.0214075024613741
4.344,-0.021409113177750093
4.348,-0.02141019500218173
4.352,-0.021410916218469488
4.356,-0.02140887277232084
4.36,-0.021406516799114164
4.364,-0.021406276393684913
4.368,-0.021407069731601447
4.372,-0.021406709123457567
4.376,-0.021404954163824024
4.38,-0.021405362853053753
4.384,-0.021407550542459953
4.388,-0.021410723894126085
4.392,-0.021412959664618137
4.396,-0.021412839461903508
4.4,-0.021411757637471874
4.404,-0.021409209339921794
4.408,-0.021406925488343893
4.412,-0.021405747501740558
4.416,-0.02140466567730892
4.42,-0.021404281028622116
4.424,-0.021404281028622116
4.428,-0.021405795582826407
4.432,-0.02140694952888682
4.436,-0.0214075986235458
4.44,-0.021408055393861383
4.444,-0.0214095939886086
4.448,-0.02141293562407521
4.452,-0.021414906948595082
4.456,-0.021416060894655496
4.46,-0.02141699847582958
4.464,-0.021419017881435302
4.468,-0.02142228739527314
4.472,-0.021423633665676952
4.476,-0.021424258719793008
4.48,-0.021427576314716697
4.484,-0.021430533301496503
4.488,-0.021430268855524324
4.492,-0.021429259152721463
4.496,-0.02142817732828983
4.5,-0.02142781672014595
4.5040000000000004,-0.021428297531004455
4.508,-0.021429715923037045
4.5120000000000005,-0.021431951693529093
4.516,-0.02143430766673577
4.5200000000000005,-0.02143430766673577
4.524,-0.021433923018048966
4.5280000000000005,-0.021435028883023528
4.532,-0.021436928085914624
4.5360000000000005,-0.021438538802290616
4.54,-0.02144010143758076
4.5440000000000005,-0.021442313167529883
4.548,-0.02144399600553465
4.5520000000000005,-0.02144582308679697
4.556,-0.02144690491122861
4.5600000000000005,-0.021448395424889972
4.564,-0.021452386155015567
4.5680000000000005,-0.02145563162831048
4.572,-0.021456713452742113
4.5760000000000005,-0.021457025979800145
4.58,-0.021459598317893146
4.5840000000000005,-0.02146181004784227
4.588,-0.021462002372185672
4.5920000000000005,-0.021460944588296962
4.596,-0.021462146615443226
4.6000000000000005,-0.021464141980506023
4.604,-0.021466161386111744
4.6080000000000005,-0.021468974129634
4.612,-0.021470416562209514
4.616,-0.021469695345921757
4.62,-0.021468950089091075
4.624,-0.02146796442683114
4.628,-0.02146743553488678
4.632,-0.02146628158882637
4.636,-0.02146344480476119
4.64,-0.021461088831554512
4.644,-0.021459093466491715
4.648,-0.02145830012857518
4.652,-0.021456569209484563
4.656,-0.021454141114649113
4.66,-0.021452001506328762
4.664,-0.021451232208955156
4.668,-0.0214508956413542
4.672,-0.02144983785746549
4.676,-0.021448034816746096
4.68,-0.02144654430308473
4.684,-0.02144618369494085
4.688,-0.021446928951771534
4.692,-0.02144820310054657
4.696,-0.021448227141089498
4.7,-0.021444693181279482
4.704,-0.021440822653868517
4.708,-0.021439163856406672
4.712,-0.021437841626545783
4.716,-0.021435197166824006
4.72,-0.021433923018048966
4.724,-0.021434884639765978
4.728,-0.02143659151831367
4.732,-0.02143832243740429
4.736,-0.02144060628898219
4.74,-0.021441423667441648
4.744,-0.0214417602350426
4.748,-0.021442337208072808
4.752,-0.02144409216770635
4.756,-0.021444909546165812
4.76,-0.021442361248615732
4.764,-0.021439404261835927
4.768,-0.021439356180750074
4.772,-0.02144010143758076
4.776,-0.021438803248262795
4.78,-0.021437769504917006
4.784,-0.021438755167176943
4.788,-0.021440293761924162
4.792,-0.021442962262188864
4.796,-0.02144481338399411
4.8,-0.02144563076245357
4.804,-0.021444693181279482
4.808,-0.021444116208249278
4.812,-0.02144368347847662
4.816,-0.021444116208249278
4.82,-0.021445582681367717
4.824,-0.021445534600281868
4.828,-0.021445173992137988
4.832,-0.0214460394516833
4.836,-0.021446255816569625
4.84,-0.021445943289511597
4.844,-0.021445895208425745
4.848,-0.021447746330230992
4.852,-0.021450030181808893
4.856,-0.02145166493872781
4.86,-0.02145156877655611
4.864,-0.021450054222351817
4.868,-0.02144765016805929
4.872,-0.021446448140913028
4.876,-0.021447578046430514
4.88,-0.02144974169529379
4.884,-0.021449597452036236
4.888,-0.021448707951948004
4.892,-0.021447674208602215
4.896,-0.021448948357377255
4.9,-0.021451472614384407
4.904,-0.021452097668500463
4.908,-0.02145084756026835
4.912,-0.021449405127692833
4.916,-0.021449669573665012
4.92,-0.021449958060180116
4.924,-0.02144933300606406
4.928,-0.021447626127516366
4.932,-0.021447674208602215
4.936,-0.021448106938374872
4.94,-0.021447626127516366
4.944,-0.021449405127692833
4.948,-0.021451376452212706
4.952,-0.021451184127869304
4.956,-0.02145015038452352
4.96,-0.02145007826289474
4.964,-0.021450270587238144
4.968,-0.021450679276467873
4.972,-0.021451087965697602
4.976,-0.021450030181808893
4.98,-0.021449813816922566
4.984,-0.02145111200624053
4.988,-0.02145152069547026
4.992,-0.021450438871038622
4.996,-0.021450607154839096
5.0,-0.021451232208955156
5.0040000000000004,-0.02145156877655611
5.008,-0.021452145749586315
5.0120000000000005,-0.021452145749586315
5.016,-0.021452217871215092
5.0200000000000005,-0.02145202554687169
5.024,-0.021453371817275503
5.0280000000000005,-0.021456953858171368
5.032,-0.02145921366920634
5.0360000000000005,-0.02146007912875165
5.04,-0.021460175290923353
5.0440000000000005,-0.021461209034269138
5.048,-0.021461786007299345
5.0520000000000005,-0.021461834088385198
5.056,-0.021463204399331935
5.0600000000000005,-0.021463901575076768
5.064,-0.021463661169647517
5.0680000000000005,-0.021463781372362142
5.072,-0.021461737926213496
5.0760000000000005,-0.021458011642060078
5.08,-0.021456328804055312
5.0840000000000005,-0.021456833655456743
5.088,-0.021457314466315245
5.0920000000000005,-0.021457867398802528
5.096,-0.02145921366920634
5.1000000000000005,-0.021461016709925736
5.104,-0.02146007912875165
5.1080000000000005,-0.021458636696176137
5.112,-0.021458540534004436
5.1160000000000005,-0.021457266385229396
5.12,-0.0214553671823383
5.124,-0.02145500657419442
5.128,-0.021456160520254834
5.132,-0.021460415696352604
5.136,-0.021464286223763573
5.14,-0.021466978764571203
5.144,-0.02146642583208392
5.148,-0.021463925615619692
5.152,-0.021462098534357373
5.156,-0.021460608020696006
5.16,-0.021457675074459125
5.164,-0.021455198898537822
5.168,-0.021454549803878842
5.172,-0.021453323736189654
5.176,-0.021450126343980594
5.18,-0.021446472181455952
5.184,-0.021444260451506828
5.188,-0.02144430853259268
5.192,-0.021445173992137988
5.196,-0.02144462105965071
5.2,-0.021441423667441648
5.204,-0.02143805799143211
5.208,-0.021437529099487755
5.212,-0.02143832243740429
5.216,-0.021438274356318437
5.22,-0.02143841859957599
5.224,-0.021440894775497293
5.228,-0.02144192851884308
5.232,-0.021440558207896337
5.236,-0.021439548505093477
5.24,-0.021439284059121298
5.244,-0.021438490721204767
5.248,-0.02143745697785898
5.252,-0.021436807883199998
5.256,-0.02143714445080095
5.26,-0.021436110707455165
5.264,-0.021434115342392368
5.268,-0.021432961396331954
5.272,-0.021432336342215898
5.276,-0.02143171128809984
5.28,-0.02143171128809984
5.284,-0.021432240180044197
5.288,-0.0214325286665593
5.292,-0.02143380281533434
5.296,-0.021435052923566452
5.3,-0.021434475950536245
5.304,-0.021433562409905085
5.308,-0.021435798180397137
5.312,-0.0214370002075434
5.316,-0.021436615558856596
5.32,-0.021434788477594276
5.324,-0.021431687247556917
5.328,-0.021427936922860574
5.332,-0.02142440296305056
5.336,-0.021419474651750883
5.34,-0.021415892610855018
5.344,-0.021415387759453588
5.348,-0.02141649362442815
5.352,-0.021417166759630058
5.356,-0.021416806151486178
5.36,-0.021416685948771552
5.364,-0.021417623529945636
5.368,-0.021419859300437688
5.372,-0.021422311435816063
5.376,-0.02142466740902274
5.38,-0.021424907814451992
5.384,-0.021424090435992534
5.388,-0.021421950827672183
5.392,-0.021418585151662648
5.396,-0.021415844529769166
5.4,-0.021416445543342297
5.404,-0.02141836878677632
5.408,-0.021418585151662648
5.412,-0.02141658978659985
5.416,-0.021414426137736576
5.42,-0.021413969367420998
5.424,-0.02141461846207998
5.428,-0.021414233813393174
5.432,-0.021412406732130854
5.436,-0.021411084502269966
5.44,-0.02141029116435343
5.444,-0.02140983439403785
5.448,-0.021408391961462336
5.452,-0.02140776690734628
5.456,-0.021407790947889204
5.46,-0.021406156190970287
5.464,-0.021405266690882052
5.468,-0.021407310137030698
5.472,-0.021410675813040236
5.476,-0.021411901880729424
5.48,-0.021411252786070444
5.484,-0.021410627731954384
5.488,-0.021410531569782683
5.492,-0.02140841600200526
5.496,-0.021404016582649937
5.5,-0.021401804852700813
5.5040000000000004,-0.02140339152853388
5.508,-0.021406805285629268
5.5120000000000005,-0.02141005075892418
5.516,-0.021411805718557723
5.5200000000000005,-0.021411637434757245
5.524,-0.021411445110413846
5.5280000000000005,-0.02141069985358316
5.532,-0.021410315204896356
5.5360000000000005,-0.021412406732130854
5.54,-0.021412358651045005
5.5440000000000005,-0.021410267123810507
5.548,-0.02140709377214437
5.5520000000000005,-0.021405747501740558
5.556,-0.02140533881251083
5.5600000000000005,-0.02140466567730892
5.564,-0.021403343447448032
5.5680000000000005,-0.02140228566355932
5.572,-0.021400073933610195
5.5760000000000005,-0.021396564014343106
5.58,-0.021393126216704795
5.5840000000000005,-0.021392260757159484
5.588,-0.021391154892184922
5.5920000000000005,-0.02138853447300607
5.596,-0.021388101743233412
5.6000000000000005,-0.021389375892008452
5.604,-0.021388414270291443
5.6080000000000005,-0.021385505364597487
5.612,-0.021383125350847885
5.6160000000000005,-0.02138192332370162
5.62,-0.021381394431757267
5.6240000000000006,-0.021381706958815295
5.628,-0.02138324555356251
5.632,-0.02138350999953469
5.636,-0.02138259645890353
5.64,-0.02138233201293135
5.644,-0.021383173431933734
5.648,-0.021384351418537072
5.652,-0.02138492839156728
5.656,-0.021383726364421016
5.66,-0.02138182716152992
5.664,-0.02137954330995202
5.668,-0.021379062499093514
5.672,-0.02137954330995202
5.676,-0.021378846134207187
5.68,-0.021378822093664263
5.684,-0.02137939906669447
5.688,-0.021379591391037872
5.692,-0.021381178066870937
5.696,-0.02138314939139081
5.7,-0.0213845677834234
5.704,-0.02138497647265313
5.708,-0.021386370824142794
5.712,-0.02138802962160464
5.716,-0.02138752477020321
5.72,-0.021386515067400347
5.724,-0.021386515067400347
5.728,-0.021386466986314495
5.732,-0.021387476689117356
5.736,-0.021389928824495735
5.74,-0.02139120297327077
5.744,-0.021391251054356623
5.748,-0.021391900149015604
5.752,-0.021393727230277926
5.756,-0.02139649189271433
5.76,-0.02139964120383754
5.764,-0.02140315112310463
5.768,-0.02140598790716981
5.772,-0.021407839028975056
5.776,-0.02140944974535105
5.78,-0.02140983439403785
5.784,-0.021411132583355814
5.788,-0.021410122880552954
5.792,-0.021408968934492543
5.796,-0.021408127515490157
5.8,-0.0214075986235458
5.804,-0.02140471375839477
5.808,-0.02140122787967061
5.812,-0.021402045258130067
5.816,-0.021403920420478235
5.82,-0.021403680015048984
5.824,-0.021403415569076805
5.828,-0.02140471375839477
5.832,-0.02140517052871035
5.836,-0.021404353150250893
5.84,-0.021403006879847076
5.844,-0.02140339152853388
5.848,-0.021403824258306534
5.852,-0.021403944461021163
5.856,-0.021403631933963135
5.86,-0.021403920420478235
5.864,-0.021404232947536267
5.868,-0.021403343447448032
5.872,-0.021403223244733403
5.876,-0.021403319406905104
5.88,-0.021401660609443263
5.884,-0.021399857568723868
5.888,-0.02139995373089557
5.892,-0.02140233374464517
5.896,-0.021403511731248506
5.9,-0.02140375213667776
5.904,-0.021402934758218303
5.908,-0.0214028385960466
5.912,-0.021404353150250893
5.916,-0.02140694952888682
5.92,-0.0214095939886086
5.924,-0.021411998042901125
5.928,-0.0214141616917644
5.932,-0.021415507962168213
5.936,-0.02141466654316583
5.94,-0.02141339239439079
5.944,-0.0214119740023582
5.948,-0.021410531569782683
5.952,-0.02141036328598221
5.956,-0.021408536204719886
5.96,-0.0214052186097962
5.964,-0.021402550109531498
5.968,-0.021400218176867745
5.972,-0.021397165027916238
5.976,-0.021393174297790644
5.98,-0.021390770243498117
5.984,-0.021388895081149946
5.988,-0.021388318108119742
5.992,-0.021390024986667436
5.996,-0.02139274156801799
6.0,-0.02139557835208317
6.0040000000000004,-0.021396660176514808
6.008,-0.021397020784658688
6.0120000000000005,-0.02139625148728508
6.016,-0.021397429473888417
6.0200000000000005,-0.021399833528180943
6.024,-0.021399617163294613
6.0280000000000005,-0.021398823825378083
6.032,-0.02139803048746155
6.0360000000000005,-0.02139709290628746
6.04,-0.021395193703396365
6.0440000000000005,-0.021393270459962345
6.048,-0.021391491459785875
6.0520000000000005,-0.02139187610847268
6.056,-0.021391539540871727
6.0600000000000005,-0.02138867871626362
6.064,-0.02138699587825885
6.0680000000000005,-0.02138771709454661
6.072,-0.021388414270291443
6.0760000000000005,-0.021387644972917834
6.08,-0.021386731432286674
6.0840000000000005,-0.021385962134913065
6.088,-0.02138543324296871
6.0920000000000005,-0.02138502455373898
6.096,-0.021386130418713543
6.1000000000000005,-0.021385769810569662
6.104,-0.021383846567135642
6.1080000000000005,-0.021381779080444068
6.112,-0.02138004816135345
6.1160000000000005,-0.021378822093664263
6.12,-0.021379615431580797
6.1240000000000006,-0.021382524337274753
6.128,-0.021382908985961558
6.132000000000001,-0.02138365424279224
6.136,-0.02138548132405456
6.140000000000001,-0.021386130418713543
6.144,-0.02138593809437014
6.148,-0.021384207175279522
6.152,-0.02138451970233755
6.156,-0.02138610637817062
6.16,-0.021387572851289057
6.164,-0.021388294067576814
6.168,-0.021387476689117356
6.172,-0.021386130418713543
6.176,-0.02138598617545599
6.18,-0.02138507263482483
6.184,-0.021383774445506865
6.188,-0.021383966769850268
6.192,-0.021384399499622925
6.196,-0.02138329363464836
6.2,-0.021382091607502096
6.204,-0.02137978371538127
6.208,-0.021378749972035486
6.212,-0.021379735634295422
6.216,-0.021380480891126104
6.22,-0.021381202107413864
6.224,-0.02137887017475011
6.228,-0.021375504498740577
6.232,-0.021374711160824043
6.236,-0.021374398633766015
6.24,-0.021373965903993358
6.244,-0.02137273983630417
6.248,-0.02137360529584948
6.252,-0.021374687120281118
6.256,-0.021374470755394788
6.26,-0.021374038025622134
6.264,-0.021373677417478254
6.268,-0.021372763876847094
6.272,-0.021372283065988592
6.276,-0.021372667714675393
6.28,-0.02137341297150608
6.284,-0.021373028322819274
6.288,-0.021373172566076824
6.292,-0.021373989944536285
6.296,-0.02137466307973819
6.3,-0.021374879444624517
6.304,-0.021375865106884454
6.308,-0.021375312174397174
6.312,-0.021374230349965537
6.316,-0.021374903485167445
6.32,-0.021376466120457585
6.324,-0.021376826728601465
6.328,-0.021376778647515613
6.332,-0.021376225715028334
6.336,-0.021376874809687314
6.34,-0.021379062499093514
6.344,-0.02138156271555774
6.348,-0.021383269594105435
6.352,-0.021384327377994148
6.356,-0.021385697688940886
6.36,-0.021387332445859806
6.364,-0.02138908740549335
6.368,-0.02139156358141465
6.372,-0.02139401571679303
6.376,-0.021395410068282692
6.38,-0.021396828460315286
6.384,-0.021397189068459162
6.388,-0.02139709290628746
6.392,-0.02139841513614835
6.396,-0.021399400798408286
6.4,-0.021401300001299382
6.404,-0.021403920420478235
6.408,-0.021406204272056136
6.412,-0.021407718826260427
6.416,-0.02140836792091941
6.42,-0.021409113177750093
6.424,-0.021410844096840714
6.428,-0.02141211824561575
6.432,-0.021412767340274735
6.436,-0.0214141616917644
6.44,-0.021415844529769166
6.444,-0.02141567624596869
6.448,-0.02141380108362052
6.452,-0.021412959664618137
6.456,-0.02141161339421432
6.46,-0.021411036421184113
6.464,-0.021411733596928946
6.468,-0.021412839461903508
6.472,-0.02141356067819127
6.476,-0.021415195435110185
6.48,-0.021416613827142775
6.484,-0.021415099272938484
6.488,-0.021412959664618137
6.492,-0.021411036421184113
6.496,-0.021407646704631654
6.5,-0.02140562729902593
6.5040000000000004,-0.02140430506916504
6.508,-0.02140279051496075
6.5120000000000005,-0.021403030920390004
6.516,-0.021403607893420207
6.5200000000000005,-0.021404232947536267
6.524,-0.021405242650339128
6.5280000000000005,-0.021405963866626885
6.532,-0.021405915785541033
6.5360000000000005,-0.02140440123133674
6.54,-0.02140223758247347
6.5440000000000005,-0.021400650906640402
6.548,-0.02140009797415312
6.5520000000000005,-0.021400819190440876
6.556,-0.0214028385960466
6.5600000000000005,-0.021404737798937697
6.564,-0.021403728096134833
6.5680000000000005,-0.02140262223116027
6.572,-0.02140238182573102
6.5760000000000005,-0.021400747068812103
6.58,-0.021399160392979035
6.5840000000000005,-0.021399352717322438
6.588,-0.021399737366009242
6.5920000000000005,-0.02140050666338285
6.596,-0.021402069298672992
6.6000000000000005,-0.021404329109707965
6.604,-0.021407430339745324
6.6080000000000005,-0.021410122880552954
6.612,-0.02141101238064119
6.6160000000000005,-0.021411998042901125
6.62,-0.021413320272762014
6.6240000000000006,-0.02141440209719365
6.628,-0.021416661908228628
6.632000000000001,-0.021418464948948022
6.636,-0.021418897678720676
6.640000000000001,-0.021418296665147545
6.644,-0.021417166759630058
6.648000000000001,-0.021417527367773935
6.652,-0.021416373421713524
6.656000000000001,-0.02141353663764834
6.66,-0.021411998042901125
6.664,-0.02141060369141146
6.668,-0.0214074062992024
6.672,-0.02140262223116027
6.676,-0.02139887190646393
6.68,-0.021398102609090322
6.684,-0.0213982708928908
6.688,-0.021399376757865362
6.692,-0.021399472920037063
6.696,-0.02139762179823182
6.7,-0.021397693919860593
6.704,-0.02139887190646393
6.708,-0.021399232514607812
6.712,-0.02139908827135026
6.716,-0.021399064230807334
6.72,-0.021399857568723868
6.724,-0.02140298283930415
6.728,-0.02140430506916504
6.732,-0.021404473352965518
6.736,-0.021404088704278713
6.74,-0.0214031270825617
6.744,-0.02140288667713245
6.748,-0.021404088704278713
6.752,-0.021406540839657092
6.756,-0.021406829326172192
6.76,-0.02140644467748539
6.764,-0.021406877407258044
6.768,-0.021407935191146754
6.772,-0.021408968934492543
6.776,-0.02140894489394962
6.78,-0.02140776690734628
6.784,-0.021407646704631654
6.788,-0.021407742866803355
6.792,-0.021407382258659475
6.796,-0.021406925488343893
6.8,-0.02140675720454342
6.804,-0.021406324474770762
6.808,-0.021405651339568857
6.812,-0.02140406466373579
6.816,-0.02140101151478428
6.82,-0.021400578785011625
6.824,-0.021399977771438494
6.828,-0.021399064230807334
6.832,-0.02139803048746155
6.836,-0.021396467852171405
6.84,-0.021396371689999704
6.844,-0.02139649189271433
6.848,-0.021397742000946445
6.852,-0.021400819190440876
6.856,-0.021404184866450415
6.86,-0.021407430339745324
6.864,-0.021408728529063288
6.868,-0.021407069731601447
6.872,-0.02140584366391226
6.876,-0.021407189934316073
6.88,-0.021406011947712734
6.884,-0.02140355981233436
6.888,-0.021403199204190478
6.892,-0.021403992542107012
6.896,-0.02140375213667776
6.9,-0.021403848298849462
6.904,-0.021404281028622116
6.908,-0.021404761839480622
6.912,-0.021405002244909873
6.916,-0.021404617596223068
6.92,-0.021404882042195247
6.924,-0.02140548305576838
6.928,-0.021405146488167427
6.932,-0.02140548305576838
6.936,-0.021405795582826407
6.94,-0.021405555177397156
6.944,-0.02140608406934151
6.948,-0.021406276393684913
6.952,-0.02140507436653865
6.956,-0.02140567538011178
6.96,-0.021407935191146754
6.964,-0.021409906515666627
6.968,-0.02141101238064119
6.972,-0.02141151723204262
6.976,-0.021410796015754862
6.98,-0.021410002677838328
6.984,-0.021410387326525133
6.988,-0.021412094205072826
6.992,-0.021412406732130854
6.996,-0.021410844096840714
7.0,-0.02140745438028825
7.0040000000000004,-0.02140471375839477
7.008,-0.021404954163824024
7.0120000000000005,-0.021406276393684913
7.016,-0.021407165893773148
7.0200000000000005,-0.02140918529937887
7.024,-0.021412094205072826
7.0280000000000005,-0.0214119740023582
7.032,-0.02140904105612132
7.0360000000000005,-0.02140836792091941
7.04,-0.021408295799290634
7.0440000000000005,-0.021407286096487774
7.048,-0.02140690144780097
7.0520000000000005,-0.021406781245086343
7.056,-0.021408440042548188
7.0600000000000005,-0.02140923338046472
7.064,-0.021409473785893973
7.0680000000000005,-0.021409161258835945
7.072,-0.021408608326348662
7.0760000000000005,-0.021408632366891587
7.08,-0.021409353583179348
7.0840000000000005,-0.021409714191323224
7.088,-0.02141029116435343
7.0920000000000005,-0.02140954590752275
7.096,-0.02140944974535105
7.1000000000000005,-0.021411661475300173
7.104,-0.02141440209719365
7.1080000000000005,-0.021414738664794604
7.112,-0.021412190367244528
7.1160000000000005,-0.021411228745527516
7.12,-0.02141005075892418
7.1240000000000006,-0.02140851216417696
7.128,-0.021406685082914642
7.132000000000001,-0.021405002244909873
7.136,-0.021403920420478235
7.140000000000001,-0.021403199204190478
7.144,-0.021403463650162657
7.148000000000001,-0.021402069298672992
7.152,-0.02139995373089557
7.156000000000001,-0.02139891998754978
7.16,-0.021399160392979035
7.164000000000001,-0.021399472920037063
7.168,-0.021399833528180943
7.172,-0.02140019413632482
7.176,-0.021399496960579988
7.18,-0.021398655541577605
7.184,-0.021397717960403517
7.188,-0.021397020784658688
7.192,-0.021398439176691278
7.196,-0.021399713325466314
7.2,-0.021399929690352645
7.204,-0.021398655541577605
7.208,-0.02139901614972148
7.212,-0.021399617163294613
7.216,-0.021398583419948828
7.22,-0.021398078568547398
7.224,-0.021398895947006856
7.228,-0.021398463217234202
7.232,-0.021398054528004473
7.236,-0.02139791028474692
7.24,-0.02139786220366107
7.244,-0.021397429473888417
7.248,-0.021395626433169022
7.252,-0.021394448446565684
7.256,-0.02139401571679303
7.26,-0.021392356919331185
7.264,-0.021391779946300978
7.268,-0.02139264540584629
7.272,-0.021393006013990166
7.276,-0.02139298197344724
7.28,-0.02139298197344724
7.284,-0.02139430420330813
7.288,-0.021395770676426572
7.292,-0.02139690058194406
7.296,-0.021396467852171405
7.3,-0.02139531390611099
7.304,-0.0213961793656563
7.308,-0.021398968068635633
7.312,-0.02140120383912768
7.316,-0.021402309704102243
7.32,-0.021402910717675375
7.324,-0.021402550109531498
7.328,-0.021400891312069653
7.332,-0.021400915352612578
7.336,-0.02140151636618571
7.34,-0.02140262223116027
7.344,-0.021404136785364566
7.348,-0.02140584366391226
7.352,-0.021406661042371718
7.356,-0.02140694952888682
7.36,-0.021407646704631654
7.364,-0.021408536204719886
7.368,-0.0214095939886086
7.372,-0.021410074799467105
7.376,-0.02141096429955534
7.38,-0.021410844096840714
7.384,-0.02141170955638602
7.388,-0.021413416434933715
7.392,-0.021414089570135623
7.396,-0.021414930989138006
7.4,-0.021416445543342297
7.404,-0.021419041921978226
7.408,-0.021419450611207955
7.412,-0.021420772841068848
7.416,-0.021422215273644362
7.42,-0.021423224976447223
7.424,-0.021423681746762804
7.428,-0.021424595287393964
7.432,-0.0214255809496539
7.436,-0.021427191666029893
7.44,-0.0214279609634035
7.444,-0.02142827349046153
7.448,-0.021427768639060096
7.452,-0.02142755227417377
7.456,-0.021427840760688873
7.46,-0.02142755227417377
7.464,-0.021427359949830367
7.468,-0.02142892258512051
7.472,-0.021430389058238953
7.476,-0.021431470882670587
7.48,-0.021431470882670587
7.484,-0.021432095936786646
7.488,-0.02143228826113005
7.492,-0.021429715923037045
7.496,-0.021428105206661052
7.5,-0.021427119544401116
7.5040000000000004,-0.021426206003769956
7.508,-0.021425340544224646
7.5120000000000005,-0.021426470449742135
7.516,-0.02142827349046153
7.5200000000000005,-0.021426879138971865
7.524,-0.021426350247027506
7.5280000000000005,-0.02142791288231765
7.532,-0.021427888841774725
7.5360000000000005,-0.021427624395802546
7.54,-0.02142654257137091
7.5440000000000005,-0.021426302165941657
7.548,-0.021426254084855805
7.5520000000000005,-0.021426350247027506
7.556,-0.021426206003769956
7.5600000000000005,-0.021426350247027506
7.564,-0.021426109841598255
7.5680000000000005,-0.021426758936257236
7.572,-0.02142892258512051
7.5760000000000005,-0.021430389058238953
7.58,-0.021430220774438475
7.5840000000000005,-0.02142978804466582
7.588,-0.021429523598693642
7.5920000000000005,-0.021426302165941657
7.596,-0.02142404235490668
7.6000000000000005,-0.021426350247027506
7.604,-0.021429547639236567
7.6080000000000005,-0.02143120643669841
7.612,-0.021431567044842288
7.6160000000000005,-0.02143202381515787
7.62,-0.021433273923389982
7.6240000000000006,-0.021433370085561683
7.628,-0.021434596153250874
7.632000000000001,-0.021437673342745305
7.636,-0.02143841859957599
7.640000000000001,-0.02143512504519523
7.644,-0.021432913315246105
7.648000000000001,-0.02143202381515787
7.652,-0.021431038152897933
7.656000000000001,-0.02143060542312528
7.66,-0.021431831490814467
7.664000000000001,-0.02143267290981685
7.668,-0.021433322004475834
7.672000000000001,-0.021434139382935292
7.676,-0.021433009477417806
7.68,-0.0214302448149814
7.684,-0.021429403395979017
7.688,-0.021429499558150718
7.692,-0.021427528233630845
7.696,-0.02142603771996948
7.7,-0.021426061760512403
7.704,-0.02142897066620636
7.708,-0.021432913315246105
7.712,-0.02143454807216502
7.716,-0.021435605856053735
7.72,-0.02143627899125564
7.724,-0.021436158788541014
7.728,-0.021437288694058504
7.732,-0.0214369040453717
7.736,-0.02143589434256884
7.74,-0.021436615558856596
7.744,-0.02143745697785898
7.748,-0.02143587030202591
7.752,-0.021433562409905085
7.756,-0.02143317776121828
7.76,-0.0214347163559655
7.764,-0.021436206869626866
7.768,-0.021437120410258026
7.772,-0.021438298396861365
7.776,-0.021438586883376465
7.78,-0.021436711721028297
7.784,-0.02143596646419761
7.788,-0.02143637515342734
7.792,-0.02143637515342734
7.796,-0.02143572605876836
7.8,-0.021435653937139584
7.804,-0.021435245247909854
7.808,-0.021435245247909854
7.812,-0.021435702018225436
7.816,-0.021436567477770743
7.82,-0.021438442640118915
7.824,-0.021438130113060887
7.828,-0.02143678384265707
7.832,-0.021435413531710332
7.836,-0.021434836558680125
7.84,-0.021435677977682508
7.844,-0.021435677977682508
7.848,-0.021434932720851826
7.852,-0.021433658572076787
7.856,-0.021432360382758822
7.86,-0.021433249882847057
7.864,-0.02143430766673577
7.868,-0.021435052923566452
7.872,-0.021436327072341492
7.876,-0.021435293328995707
7.88,-0.021432047855700794
7.884,-0.021428345612090303
7.888,-0.0214281532877469
7.892,-0.021429042787835136
7.896,-0.0214279609634035
7.9,-0.021425653071282674
7.904,-0.02142471549010859
7.908,-0.021423585584591103
7.912,-0.021422816287217494
7.916,-0.02142353750350525
7.92,-0.021422143152015585
7.924,-0.021421542138442454
7.928,-0.021423633665676952
7.932,-0.021425797314540227
7.936,-0.02142654257137091
7.94,-0.021426951260600638
7.944,-0.02142673489571431
7.948,-0.02142517226042417
7.952,-0.02142659065245676
7.956,-0.02142959572032242
7.96,-0.021431398761041814
7.964,-0.02143151896375644
7.968,-0.021431398761041814
7.972,-0.021431831490814467
7.976,-0.021433874936963113
7.98,-0.02143589434256884
7.984,-0.021435605856053735
7.988,-0.02143688000482877
7.992,-0.021438538802290616
7.996,-0.021439380221293
8.0,-0.021440630329525114
8.004,-0.021441543870156274
8.008000000000001,-0.021441856397214302
8.012,-0.021442385289158657
8.016,-0.021442793978388386
8.02,-0.021444140248792203
8.024000000000001,-0.021444669140736557
8.028,-0.021446760667971056
8.032,-0.02144942916823576
8.036,-0.02144988593855134
8.040000000000001,-0.021448996438463104
8.044,-0.021449645533122088
8.048,-0.021450703317010798
8.052,-0.02145130433058393
8.056000000000001,-0.0214509918035259
8.06,-0.02144988593855134
8.064,-0.02144947724932161
8.068,-0.021449789776379638
8.072000000000001,-0.021449813816922566
8.076,-0.021448900276291403
8.08,-0.021450703317010798
8.084,-0.021451833222528287
8.088000000000001,-0.02145404495247741
8.092,-0.02145531910125245
8.096,-0.021455030614737348
8.1,-0.021455487385052926
8.104000000000001,-0.021456064358083133
8.108,-0.02145604031754021
8.112,-0.0214553671823383
8.116,-0.02145450172279299
8.120000000000001,-0.021454549803878842
8.124,-0.02145267464153067
8.128,-0.02144974169529379
8.132,-0.02144882815466263
8.136000000000001,-0.021449717654750865
8.14,-0.02145135241166978
8.144,-0.02145130433058393
8.148,-0.02145152069547026
8.152000000000001,-0.021451087965697602
8.156,-0.021449260884435283
8.16,-0.021448948357377255
8.164,-0.02144923684389236
8.168000000000001,-0.02144865987086215
8.172,-0.021448948357377255
8.176,-0.021450006141265965
8.18,-0.02145029462778107
8.184000000000001,-0.02145015038452352
8.188,-0.021448948357377255
8.192,-0.021447842492402693
8.196,-0.02144618369494085
8.2,-0.02144536631648139
8.204,-0.02144358731630492
8.208,-0.021442241045901107
8.212,-0.02144060628898219
8.216,-0.021440293761924162
8.22,-0.02144051012681049
8.224,-0.021440005275409058
8.228,-0.02144125538364117
8.232,-0.02144099093766899
8.236,-0.02143873112663402
8.24,-0.021436471315599042
8.244,-0.02143577413985421
8.248,-0.021435798180397137
8.252,-0.02143486059922305
8.256,-0.021433995139677742
8.26,-0.02143317776121828
8.264,-0.021433105639589507
8.268,-0.021433754734248488
8.272,-0.021432913315246105
8.276,-0.021432624828731
8.28,-0.02143303351796073
8.284,-0.021432745031445627
8.288,-0.021431951693529093
8.292,-0.021431398761041814
8.296,-0.02143166320701399
8.3,-0.021432312301672973
8.304,-0.02143267290981685
8.308,-0.021432408463844674
8.312,-0.0214325286665593
8.316,-0.021433153720675356
8.32,-0.021433754734248488
8.324,-0.02143353836936216
8.328,-0.02143084582855453
8.332,-0.02142868217969126
8.336,-0.021427888841774725
8.34,-0.021427624395802546
8.344,-0.02142750419308792
8.348,-0.021427624395802546
8.352,-0.021427023382229415
8.356,-0.021425773273997303
8.36,-0.021425869436169004
8.364,-0.021425508828025124
8.368,-0.02142430680087886
8.372,-0.021422744165588717
8.376,-0.021420796881611772
8.38,-0.02141918616523578
8.384,-0.02141764757048856
8.388,-0.02141582048922624
8.392,-0.02141404148904977
8.396,-0.02141228652941623
8.4,-0.021411998042901125
8.404,-0.021413176029504464
8.408,-0.021413921286335146
8.412,-0.02141461846207998
8.416,-0.021415195435110185
8.42,-0.021416181097370122
8.424,-0.02142074880052592
8.428,-0.02142522034151002
8.432,-0.021425532868568048
8.436,-0.02142421063870716
8.44,-0.021423970233277908
8.444,-0.02142389811164913
8.448,-0.021422503760159466
8.452,-0.021422071030386812
8.456,-0.021422816287217494
8.46,-0.02142334517916185
8.464,-0.021423633665676952
8.468,-0.021423249016990147
8.472,-0.021423297098076
8.476,-0.02142298457101797
8.48,-0.02142243163853069
8.484,-0.021421421935727828
8.488,-0.021420388192382043
8.492,-0.02142115748975565
8.496,-0.02142243163853069
8.5,-0.021421806584414633
8.504,-0.02142106132758395
8.508000000000001,-0.021420724759982995
8.512,-0.02142074880052592
8.516,-0.02142125365192735
8.52,-0.0214211094086698
8.524000000000001,-0.021420147786952788
8.528,-0.021418585151662648
8.532,-0.021417166759630058
8.536,-0.021413103907875687
8.540000000000001,-0.021408151556033084
8.544,-0.02140466567730892
8.548,-0.021402069298672992
8.552,-0.021401660609443263
8.556000000000001,-0.021401155758041832
8.56,-0.021403271325819255
8.564,-0.02140735821811655
8.568,-0.021410411367068057
8.572000000000001,-0.021411421069870918
8.576,-0.021412166326701603
8.58,-0.021413680880905894
8.584,-0.0214140655295927
8.588000000000001,-0.02141356067819127
8.592,-0.021413849164706372
8.596,-0.02141320007004739
8.6,-0.021412214407787452
8.604000000000001,-0.021411805718557723
8.608,-0.021412046123986977
8.612,-0.02141096429955534
8.616,-0.02140868044797744
8.620000000000001,-0.021409569948065674
8.624,-0.021412262488873304
8.628,-0.02141380108362052
8.632,-0.02141344047547664
8.636000000000001,-0.02141315198896154
8.64,-0.02141471462425168
8.644,-0.021415459881082365
8.648,-0.021415772408140393
8.652000000000001,-0.021418056259718293
8.656,-0.02142046031401082
8.66,-0.02142156617898538
8.664,-0.021423465381876478
8.668000000000001,-0.021426013679426554
8.672,-0.02142714358494404
8.676,-0.021427383990373295
8.68,-0.02142791288231765
8.684000000000001,-0.021427119544401116
8.688,-0.021424835692823215
8.692,-0.02142598963888363
8.696,-0.021428610058062483
8.700000000000001,-0.021430148652809698
8.704,-0.021431639166471065
8.708,-0.021432961396331954
8.712,-0.02143279311253148
8.716,-0.02143226422058712
8.72,-0.021433610490990938
8.724,-0.02143404322076359
8.728,-0.021434115342392368
8.732,-0.021435509693882034
8.736,-0.02143688000482877
8.74,-0.02143688000482877
8.744,-0.021435605856053735
8.748,-0.021432552707102225
8.752,-0.02142892258512051
8.756,-0.021427023382229415
8.76,-0.02142791288231765
8.764,-0.02142923511217854
8.768,-0.021429475517607793
8.772,-0.021427792679603024
8.776,-0.02142673489571431
8.78,-0.021426278125398733
8.784,-0.021425340544224646
8.788,-0.02142435488196471
8.792,-0.021424378922507637
8.796,-0.02142507609825247
8.8,-0.021424499125222263
8.804,-0.021423585584591103
8.808,-0.021421950827672183
8.812,-0.02141983525989476
8.816,-0.02142034011129619
8.82,-0.021423008611560896
8.824,-0.021423224976447223
8.828,-0.021421421935727828
8.832,-0.021420532435639593
8.836,-0.02142070071944007
8.84,-0.021420580516725445
8.844,-0.021421229611384426
8.848,-0.021421229611384426
8.852,-0.021419979503152314
8.856,-0.02141969101663721
8.86,-0.02142125365192735
8.864,-0.021422095070929736
8.868,-0.021422912449389195
8.872,-0.021423729827848653
8.876,-0.021424595287393964
8.88,-0.02142485973336614
8.884,-0.02142546074693927
8.888,-0.021423633665676952
8.892,-0.021419979503152314
8.896,-0.021418945759806525
8.9,-0.02142029203021034
8.904,-0.02142161426007123
8.908,-0.021421902746586334
8.912,-0.021421734462785856
8.916,-0.021420820922154696
8.92,-0.02142211911147266
8.924,-0.021420893043783473
8.928,-0.021418296665147545
8.932,-0.02141613301628427
8.936,-0.021413512597105416
8.94,-0.021412358651045005
8.944,-0.021411541272585544
8.948,-0.02141043540761098
8.952,-0.02141045944815391
8.956,-0.021410820056297786
8.96,-0.02141029116435343
8.964,-0.021408752569606216
8.968,-0.02140634851531369
8.972,-0.02140543497468253
8.976,-0.02140675720454342
8.98,-0.021408488123634037
8.984,-0.0214074062992024
8.988,-0.02140543497468253
8.992,-0.021403944461021163
8.996,-0.021403367487990956
9.0,-0.02140182889324374
9.004,-0.021400338379582374
9.008000000000001,-0.021399304636236585
9.012,-0.02139877574429223
9.016,-0.021399472920037063
9.02,-0.021400338379582374
9.024000000000001,-0.021401804852700813
9.028,-0.021401636568900338
9.032,-0.02140019413632482
9.036,-0.021399496960579988
9.040000000000001,-0.02139995373089557
9.044,-0.021399376757865362
9.048,-0.02140086727152673
9.052,-0.021402502028445645
9.056000000000001,-0.021403054960932928
9.06,-0.021403992542107012
9.064,-0.021404112744821638
9.068,-0.02140466567730892
9.072000000000001,-0.021405362853053753
9.076,-0.021404184866450415
9.08,-0.021406156190970287
9.084,-0.021407839028975056
9.088000000000001,-0.021407430339745324
9.092,-0.021408343880376487
9.096,-0.02141033924543928
9.1,-0.021410315204896356
9.104000000000001,-0.021410988340098264
9.108,-0.0214119740023582
9.112,-0.021411156623898742
9.116,-0.021409377623722272
9.120000000000001,-0.02140776690734628
9.124,-0.021406276393684913
9.128,-0.021406925488343893
9.132,-0.021409978637295404
9.136000000000001,-0.021412334610502078
9.14,-0.021413728961991743
9.144,-0.0214140655295927
9.148,-0.021413055826789838
9.152000000000001,-0.02141202208344405
9.156,-0.021411252786070444
9.16,-0.02141101238064119
9.164,-0.0214096901507803
9.168000000000001,-0.021408488123634037
9.172,-0.021408079434404308
9.176,-0.021407117812687296
9.18,-0.02140694952888682
9.184000000000001,-0.021407189934316073
9.188,-0.02140644467748539
9.192,-0.02140603598825566
9.196,-0.021404954163824024
9.200000000000001,-0.021404329109707965
9.204,-0.02140365597450606
9.208,-0.021401901014872514
9.212,-0.021400626866097477
9.216000000000001,-0.02139959312275169
9.22,-0.021396467852171405
9.224,-0.021392525203131663
9.228,-0.02139315025724772
9.232,-0.021396924622486987
9.236,-0.02139995373089557
9.24,-0.021400674947183326
9.244,-0.021401300001299382
9.248,-0.021401636568900338
9.252,-0.02140262223116027
9.256,-0.02140440123133674
9.26,-0.0214052186097962
9.264,-0.021404858001652323
9.268,-0.0214048339611094
9.272,-0.021404785880023546
9.276,-0.021405026285452797
9.28,-0.021406204272056136
9.284,-0.02140603598825566
9.288,-0.02140598790716981
9.292,-0.021407334177573623
9.296,-0.021408440042548188
9.3,-0.021408295799290634
9.304,-0.02140868044797744
9.308,-0.021408728529063288
9.312,-0.0214075024613741
9.316,-0.021408656407434515
9.32,-0.021412070164529902
9.324,-0.021413079867332763
9.328,-0.021412094205072826
9.332,-0.021411421069870918
9.336,-0.02141060369141146
9.34,-0.02140892085340669
9.344,-0.021407117812687296
9.348,-0.021406564880200016
9.352,-0.021407887110060905
9.356,-0.021408992975035467
9.36,-0.02140827175874771
9.364,-0.021405963866626885
9.368,-0.021404497393508443
9.372,-0.02140613215042736
9.376,-0.021411733596928946
9.38,-0.02141558008379699
9.384,-0.02141704655691543
9.388,-0.021417022516372505
9.392,-0.021416181097370122
9.396,-0.021416565746056927
9.4,-0.021417695651574413
9.404,-0.021416012813569644
9.408,-0.02141365684036297
9.412,-0.021413488556562492
9.416,-0.021414281894479026
9.42,-0.021414185732307325
9.424,-0.02141324815113324
9.428,-0.021412815421360584
9.432,-0.02141151723204262
9.436,-0.0214095939886086
9.44,-0.021407790947889204
9.444,-0.021406637001828793
9.448,-0.021408127515490157
9.452,-0.021409209339921794
9.456,-0.02140904105612132
9.46,-0.02140942570480812
9.464,-0.0214096901507803
9.468,-0.021408223677661858
9.472,-0.021408079434404308
9.476,-0.02140932954263642
9.48,-0.021408536204719886
9.484,-0.021407021650515595
9.488,-0.021406685082914642
9.492,-0.021407069731601447
9.496,-0.021407165893773148
9.5,-0.021406564880200016
9.504,-0.02140608406934151
9.508000000000001,-0.021404593555680144
9.512,-0.021404449312422594
9.516,-0.021404473352965518
9.52,-0.021404088704278713
9.524000000000001,-0.02140202121758714
9.528,-0.021400915352612578
9.532,-0.021400530703925776
9.536,-0.021401035555327207
9.540000000000001,-0.02140161252835741
9.544,-0.0214027424338749
9.548,-0.02140178081215789
9.552,-0.021400626866097477
9.556000000000001,-0.02140110767695598
9.56,-0.021402718393331972
9.564,-0.021403199204190478
9.568,-0.021400939393155505
9.572000000000001,-0.02139959312275169
9.576,-0.02139918443352196
9.58,-0.021398751703749306
9.584,-0.021399304636236585
9.588000000000001,-0.021400025852524346
9.592,-0.021401179798584757
9.596,-0.02140178081215789
9.6,-0.021401540406728637
9.604000000000001,-0.021400626866097477
9.608,-0.02140122787967061
9.612,-0.021401852933786665
9.616,-0.02140247798790272
9.620000000000001,-0.0214031270825617
9.624,-0.02140548305576838
9.628,-0.0214075024613741
9.632,-0.021408127515490157
9.636000000000001,-0.021409666110237376
9.64,-0.021409473785893973
9.644,-0.021408656407434515
9.648,-0.02141050752923976
9.652000000000001,-0.021411180664441667
9.656,-0.021410267123810507
9.66,-0.021410771975211938
9.664,-0.021412599056474257
9.668000000000001,-0.02141238269158793
9.672,-0.02141036328598221
9.676,-0.021409473785893973
9.68,-0.021410796015754862
9.684000000000001,-0.021413608759277118
9.688,-0.02141481078642338
9.692,-0.021415099272938484
9.696,-0.02141613301628427
9.700000000000001,-0.021416685948771552
9.704,-0.02141649362442815
9.708,-0.021415243516196034
9.712,-0.02141481078642338
9.716000000000001,-0.021414930989138006
9.72,-0.021414450178279504
9.724,-0.021413464516019567
9.728,-0.021413320272762014
9.732,-0.02141339239439079
9.736,-0.021413464516019567
9.74,-0.021414137651221472
9.744,-0.021415892610855018
9.748,-0.021416950394743728
9.752,-0.021415940691940867
9.756,-0.021415195435110185
9.76,-0.021416782110943253
9.764,-0.02141740716505931
9.768,-0.021415556043254066
9.772,-0.021412959664618137
9.776,-0.021410651772497312
9.78,-0.021411493191499695
9.784,-0.02141353663764834
9.788,-0.021413728961991743
9.792,-0.02141298370516106
9.796,-0.02141375300253467
9.8,-0.021415003110766783
9.804,-0.021415291597281887
9.808,-0.021415892610855018
9.812,-0.02141791201646074
9.816,-0.021416926354200803
9.82,-0.021414642502622903
9.824,-0.021412550975388408
9.828,-0.021411132583355814
9.832,-0.02141202208344405
9.836,-0.021414113610678548
9.84,-0.021415243516196034
9.844,-0.021415532002711138
9.848,-0.021415339678367735
9.852,-0.021414329975564875
9.856,-0.021413921286335146
9.86,-0.02141353663764834
9.864,-0.021413224110590313
9.868,-0.02141329623221909
9.872,-0.021414089570135623
9.876,-0.021414594421537054
9.88,-0.02141517139456726
9.884,-0.02141567624596869
9.888,-0.021415507962168213
9.892,-0.021416012813569644
9.896,-0.021417791813746114
9.9,-0.021418705354377274
9.904,-0.021419522732836732
9.908,-0.0214210132464981
9.912,-0.02142065263835422
9.916,-0.021420772841068848
9.92,-0.021421590219528306
9.924,-0.021421830624957557
9.928,-0.021421590219528306
9.932,-0.02142074880052592
9.936,-0.021419811219351836
9.94,-0.02141928232740748
9.944,-0.021417527367773935
9.948,-0.021414906948595082
9.952,-0.021411733596928946
9.956,-0.021410267123810507
9.96,-0.021409858434580778
9.964,-0.021407117812687296
9.968,-0.02140380021776361
9.972,-0.02140161252835741
9.976,-0.021403199204190478
9.98,-0.021404545474594295
9.984,-0.021403463650162657
9.988,-0.02140223758247347
9.992,-0.021401348082385235
9.996,-0.02140214142030177
10.0,-0.02140298283930415
10.004,-0.0214026462717032
10.008000000000001,-0.021403511731248506
10.012,-0.021403944461021163
10.016,-0.021402718393331972
10.02,-0.0214028385960466
10.024000000000001,-0.021404353150250893
10.028,-0.02140634851531369
10.032,-0.021407550542459953
10.036,-0.02140786306951798
10.040000000000001,-0.021408151556033084
10.044,-0.021407646704631654
10.048,-0.02140735821811655
10.052,-0.02140983439403785
10.056000000000001,-0.021412599056474257
10.06,-0.02141320007004739
10.064,-0.021413416434933715
10.068,-0.02141394532687807
10.072000000000001,-0.021415339678367735
10.076,-0.021416445543342297
10.08,-0.02141572432705454
10.084,-0.021414906948595082
10.088000000000001,-0.02141512331348141
10.092,-0.021414450178279504
10.096,-0.021416661908228628
10.1,-0.021419065962521154
10.104000000000001,-0.021420147786952788
10.108,-0.021419642935551358
10.112,-0.021420027584238163
10.116,-0.02142043627346789
10.120000000000001,-0.021419065962521154
10.124,-0.021416205137913046
10.128,-0.021415604124339915
10.132,-0.02141639746225645
10.136000000000001,-0.02141613301628427
10.14,-0.02141709463800128
10.144,-0.021417599489402712
10.148,-0.02141745524614516
10.152000000000001,-0.021418296665147545
10.156,-0.021418945759806525
10.16,-0.021419474651750883
10.164,-0.021418440908405095
10.168000000000001,-0.02141466654316583
10.172,-0.021411252786070444
10.176,-0.02141045944815391
10.18,-0.02141137298878507
10.184000000000001,-0.021410651772497312
10.188,-0.02140841600200526
10.192,-0.021406973569429746
10.196,-0.021408031353318455
10.200000000000001,-0.02141137298878507
10.204,-0.021414882908052157
10.208,-0.021418296665147545
10.212,-0.02142034011129619
10.216000000000001,-0.02142086900324055
10.22,-0.021420724759982995
10.224,-0.021420219908581565
10.228,-0.021419763138265987
10.232000000000001,-0.021419859300437688
10.236,-0.02141928232740748
10.24,-0.021418128381347067
10.244,-0.021418849597634824
10.248,-0.021420484354553744
10.252,-0.021421590219528306
10.256,-0.021422071030386812
10.26,-0.02141973909772306
10.264,-0.02141973909772306
10.268,-0.02142137385464198
10.272,-0.021420580516725445
10.276,-0.021420412232924967
10.28,-0.021419546773379657
10.284,-0.021416565746056927
10.288,-0.02141481078642338
10.292,-0.0214141616917644
10.296,-0.02141404148904977
10.3,-0.02141558008379699
10.304,-0.021416974435286656
10.308,-0.02141704655691543
10.312,-0.021416685948771552
10.316,-0.02141675807040033
10.32,-0.021418344746233393
10.324,-0.02141887363817775
10.328,-0.021418488989490947
10.332,-0.021418104340804142
10.336,-0.021417695651574413
10.34,-0.021416205137913046
10.344,-0.021414185732307325
10.348,-0.021416806151486178
10.352,-0.021421301733013202
10.356,-0.021423777908934506
10.36,-0.02142262396287409
10.364,-0.02141978717880891
10.368,-0.021418537070576796
10.372,-0.02141690231365788
10.376,-0.02141531563782481
10.38,-0.02141471462425168
10.384,-0.021413368353847866
10.388,-0.021412959664618137
10.392,-0.021411757637471874
10.396,-0.02140877661014914
10.4,-0.02140567538011178
10.404,-0.021403103042018777
10.408,-0.021400771109355027
10.412,-0.02139762179823182
10.416,-0.02139420804113643
10.42,-0.021393270459962345
10.424,-0.02139214055444486
10.428,-0.021390217311010838
10.432,-0.021391539540871727
10.436,-0.02139406379787888
10.44,-0.021395770676426572
10.444,-0.02139675633868651
10.448,-0.02139776604148937
10.452,-0.021398992109178557
10.456,-0.02140050666338285
10.46,-0.021403872339392387
10.464,-0.02140548305576838
10.468,-0.021405531136854228
10.472,-0.021407021650515595
10.476,-0.021408800650692065
10.48,-0.021409521866979822
10.484,-0.021409810353494926
10.488,-0.021411637434757245
10.492,-0.021414137651221472
10.496,-0.021415892610855018
10.5,-0.021417311002887608
10.504,-0.021416685948771552
10.508000000000001,-0.021415291597281887
10.512,-0.02141497907022386
10.516,-0.02141558008379699
10.52,-0.021415556043254066
10.524000000000001,-0.02141639746225645
10.528,-0.021417479286688086
10.532,-0.021416878273114955
10.536,-0.02141608493519842
10.540000000000001,-0.021417527367773935
10.544,-0.021419570813922584
10.548,-0.021419907381523537
10.552,-0.02141750332723101
10.556000000000001,-0.021415411799996512
10.56,-0.02141420977285025
10.564,-0.021414834826966305
10.568,-0.021416181097370122
10.572000000000001,-0.021417214840715907
10.576,-0.021418633232748497
10.58,-0.021417719692117337
10.584,-0.021416157056827197
10.588000000000001,-0.02141521947565311
10.592,-0.02141558008379699
10.596,-0.021413873205249297
10.6,-0.02141344047547664
10.604000000000001,-0.021412599056474257
10.608,-0.02141156531312847
10.612,-0.021411036421184113
10.616,-0.021411421069870918
10.620000000000001,-0.021411685515843097
10.624,-0.021410771975211938
10.628,-0.02140894489394962
10.632,-0.02140827175874771
10.636000000000001,-0.021409618029151523
10.64,-0.021411300867156292
10.644,-0.02141043540761098
10.648,-0.021407839028975056
10.652000000000001,-0.02140658892074294
10.656,-0.02140618023151321
10.66,-0.021406925488343893
10.664,-0.021408848731777917
10.668000000000001,-0.021410675813040236
10.672,-0.021412238448330376
10.676,-0.021414329975564875
10.68,-0.021415868570312094
10.684000000000001,-0.021414498259365353
10.688,-0.021412358651045005
10.692,-0.02141110854281289
10.696,-0.021412094205072826
10.700000000000001,-0.021413512597105416
10.704,-0.02141394532687807
10.708,-0.02141298370516106
10.712,-0.02141238269158793
10.716000000000001,-0.02141339239439079
10.72,-0.021414113610678548
10.724,-0.02141375300253467
10.728,-0.02141192592127235
10.732000000000001,-0.02141060369141146
10.736,-0.021410675813040236
10.74,-0.02141312794841861
10.744,-0.02141457038099413
10.748000000000001,-0.021411998042901125
10.752,-0.02141055561032561
10.756,-0.021411757637471874
10.76,-0.021412334610502078
10.764,-0.02141228652941623
10.768,-0.0214119740023582
10.772,-0.021410747934669013
10.776,-0.02140928146155057
10.78,-0.02140887277232084
10.784,-0.02140995459675248
10.788,-0.021410170961638806
10.792,-0.021409882475123702
10.796,-0.021409521866979822
10.8,-0.02140658892074294
10.804,-0.021403030920390004
10.808,-0.021403415569076805
10.812,-0.021404473352965518
10.816,-0.021404954163824024
10.82,-0.02140562729902593
10.824,-0.02140735821811655
10.828,-0.021408728529063288
10.832,-0.0214074062992024
10.836,-0.021406468718028315
10.84,-0.02140497820436695
10.844,-0.021403439609619733
10.848,-0.021403535771791434
10.852,-0.021405747501740558
10.856,-0.021406805285629268
10.86,-0.021404906082738172
10.864,-0.021403439609619733
10.868,-0.02140365597450606
10.872,-0.021403271325819255
10.876,-0.021404112744821638
10.88,-0.021405362853053753
10.884,-0.021407286096487774
10.888,-0.02140983439403785
10.892,-0.021412046123986977
10.896,-0.021412767340274735
10.9,-0.02141329623221909
10.904,-0.021412959664618137
10.908,-0.021412214407787452
10.912,-0.021411132583355814
10.916,-0.021409473785893973
10.92,-0.021407382258659475
10.924,-0.021407165893773148
10.928,-0.021408199637118933
10.932,-0.02140944974535105
10.936,-0.021409209339921794
10.94,-0.021409473785893973
10.944,-0.021411036421184113
10.948,-0.02141192592127235
10.952,-0.02141151723204262
10.956,-0.021411421069870918
10.96,-0.021412214407787452
10.964,-0.021413007745703986
10.968,-0.02141380108362052
10.972,-0.02141461846207998
10.976,-0.0214145463404512
10.98,-0.02141389724579222
10.984,-0.021413079867332763
10.988,-0.02141192592127235
10.992,-0.021411132583355814
10.996,-0.02140995459675248
11.0,-0.021407718826260427
11.004,-0.021404617596223068
11.008000000000001,-0.021400001811981418
11.012,-0.02139762179823182
11.016,-0.021397549676603043
11.02,-0.021399905649809717
11.024000000000001,-0.0214028385960466
11.028,-0.021404112744821638
11.032,-0.021402309704102243
11.036,-0.0214005547444687
11.040000000000001,-0.021399472920037063
11.044,-0.021399376757865362
11.048,-0.02139786220366107
11.052,-0.02139593896022705
11.056000000000001,-0.0213961793656563
11.06,-0.021396011081855824
11.064,-0.021394496527651533
11.068,-0.02139425612222228
11.072000000000001,-0.021393486824848672
11.076,-0.021391395297614173
11.08,-0.021389712459609408
11.084,-0.02139096256784152
11.088000000000001,-0.021393607027563297
11.092,-0.021394688851994935
11.096,-0.02139492925742419
11.1,-0.021393991676250102
11.104000000000001,-0.02139288581127554
11.108,-0.0213938955140784
11.112,-0.021394472487108608
11.116,-0.0213959870413129
11.120000000000001,-0.021396708257600656
11.124,-0.021396131284570453
11.128,-0.021396515933257254
11.132,-0.021396203406199226
11.136000000000001,-0.021394736933080787
11.14,-0.021394184000593505
11.144,-0.021394496527651533
11.148,-0.021395289865568067
11.152000000000001,-0.021395410068282692
11.156,-0.0213934147032199
11.16,-0.021391515500328803
11.164,-0.02139137125707125
11.168000000000001,-0.021391251054356623
11.172,-0.021391443378700026
11.176,-0.021392164594987783
11.18,-0.02139315025724772
11.184000000000001,-0.02139425612222228
11.188,-0.021396227446742154
11.192,-0.021398246852347876
11.196,-0.02139894402809271
11.200000000000001,-0.021399328676779513
11.204,-0.021398992109178557
11.208,-0.02139851129832005
11.212,-0.021398487257777127
11.216000000000001,-0.02139831897397665
11.22,-0.02139822281180495
11.224,-0.02139851129832005
11.228,-0.021399232514607812
11.232000000000001,-0.021400482622839924
11.236,-0.021401636568900338
11.24,-0.021401588487814486
11.244,-0.02140170869052911
11.248000000000001,-0.021402405866273944
11.252,-0.02140161252835741
11.256,-0.021400939393155505
11.26,-0.021401179798584757
11.264,-0.021402502028445645
11.268,-0.021404281028622116
11.272,-0.02140709377214437
11.276,-0.021408127515490157
11.28,-0.021405963866626885
11.284,-0.021402213541930542
11.288,-0.02139995373089557
11.292,-0.021398583419948828
11.296,-0.021398343014519577
11.3,-0.02139752563606012
11.304,-0.02139690058194406
11.308,-0.021397790082032294
11.312,-0.02139913635243611
11.316,-0.0214003624201253
11.32,-0.02140146828509986
11.324,-0.021402670312246123
11.328,-0.0214031270825617
11.332,-0.02140375213667776
11.336,-0.021403944461021163
11.34,-0.021404281028622116
11.344,-0.021405555177397156
11.348,-0.021404377190793817
11.352,-0.02140161252835741
11.356,-0.021400122014696044
11.36,-0.021399232514607812
11.364,-0.02139863150103468
11.368,-0.021399472920037063
11.372,-0.021400025852524346
11.376,-0.021400122014696044
11.38,-0.021400073933610195
11.384,-0.02139766987931767
11.388,-0.021394496527651533
11.392,-0.021391803986843903
11.396,-0.02138918356766505
11.4,-0.021387644972917834
11.404,-0.021386370824142794
11.408,-0.021386683351200822
11.412,-0.021386515067400347
11.416,-0.021384639905052176
11.42,-0.021382115648045024
11.424,-0.021381947364244546
11.428,-0.02138182716152992
11.432,-0.021381274229042638
11.436,-0.02138223585075965
11.44,-0.02138278878324693
11.444,-0.02138319747247666
11.448,-0.02138411101310782
11.452,-0.021387909418890013
11.456,-0.02139156358141465
11.46,-0.021393727230277926
11.464,-0.021394087838421803
11.468,-0.02139461673036616
11.472,-0.02139492925742419
11.476,-0.021394087838421803
11.48,-0.021392765608560915
11.484,-0.021391491459785875
11.488,-0.02139137125707125
11.492,-0.021392597324760437
11.496,-0.02139288581127554
11.5,-0.02139278964910384
11.504,-0.021392813689646767
11.508000000000001,-0.021393631068106225
11.512,-0.021394688851994935
11.516,-0.021395145622310516
11.52,-0.021395049460138815
11.524000000000001,-0.021392597324760437
11.528,-0.021391395297614173
11.532,-0.021392212676073635
11.536,-0.021393054095076018
11.540000000000001,-0.021393823392449628
11.544,-0.02139492925742419
11.548,-0.021396467852171405
11.552,-0.02139791028474692
11.556000000000001,-0.021399376757865362
11.56,-0.02140029029849652
11.564,-0.0214003624201253
11.568,-0.02139894402809271
11.572000000000001,-0.02139557835208317
11.576,-0.021392453081502887
11.58,-0.021391659743586353
11.584,-0.021391755905758054
11.588000000000001,-0.02139197227064438
11.592,-0.02139334258159112
11.596,-0.021393534905934524
11.6,-0.021392044392273157
11.604000000000001,-0.021390169229924986
11.608,-0.021388486391920217
11.612,-0.02138877487843532
11.616,-0.02138836618920559
11.620000000000001,-0.021386515067400347
11.624,-0.021385649607855037
11.628,-0.02138644294577157
11.632,-0.02138497647265313
11.636000000000001,-0.02138288494541863
11.64,-0.021380625134383657
11.644,-0.021378749972035486
11.648,-0.021377668147603848
11.652000000000001,-0.021380384728954403
11.656,-0.021382163729130873
11.66,-0.021383846567135642
11.664,-0.021384183134736594
11.668000000000001,-0.021382307972388426
11.672,-0.021380240485696853
11.676,-0.021378701890949637
11.68,-0.02137889421529304
11.684000000000001,-0.02137887017475011
11.688,-0.021376922890773167
11.692,-0.021374350552680162
11.696,-0.021372980241733425
11.700000000000001,-0.02137168205241546
11.704,-0.02137040790364042
11.708,-0.02137197053893056
11.712,-0.021374230349965537
11.716000000000001,-0.021374470755394788
11.72,-0.02137365337693533
11.724,-0.02137341297150608
11.728,-0.021373292768791453
11.732000000000001,-0.02137442267430894
11.736,-0.021376514201543437
11.74,-0.021378509566606235
11.744,-0.02137887017475011
11.748000000000001,-0.021377740269232625
11.752,-0.02137725945837412
11.756,-0.021378557647692083
11.76,-0.021378509566606235
11.764000000000001,-0.021377908553033103
11.768,-0.021377139255659493
11.772,-0.021377668147603848
11.776,-0.02137930290452277
11.78,-0.021380336647868554
11.784,-0.02137918270180814
11.788,-0.02137721137728827
11.792,-0.021376225715028334
11.796,-0.021376105512313708
11.8,-0.02137822108009113
11.804,-0.0213800000802676
11.808,-0.021378509566606235
11.812,-0.021377403701631673
11.816,-0.021376898850230242
11.82,-0.021375504498740577
11.824,-0.021373773579649955
11.828,-0.021372259025445664
11.832,-0.021371008917213552
11.836,-0.021371513768614982
11.84,-0.02137209074164519
11.844,-0.02137055214689797
11.848,-0.021371008917213552
11.852,-0.021374302471594313
11.856,-0.02137822108009113
11.86,-0.021380649174926582
11.864,-0.021380625134383657
11.868,-0.02137963947212372
11.872,-0.021380024120810526
11.876,-0.021379927958638825
11.88,-0.021378798053121338
11.884,-0.02137822108009113
11.888,-0.021378437444977458
11.892,-0.021379375026151542
11.896,-0.021378509566606235
11.9,-0.021377980674661876
11.904,-0.021378846134207187
11.908,-0.02137899037746474
11.912,-0.021377379661088745
11.916,-0.021377956634118952
11.92,-0.021380528972211956
11.924,-0.021382187769673797
11.928,-0.02138132231012849
11.932,-0.021380769377641207
11.936,-0.02138045685058318
11.94,-0.02138146655338604
11.944,-0.021383269594105435
11.948,-0.021383437877905913
11.952,-0.02138319747247666
11.956,-0.021382933026504482
11.96,-0.021382548377817678
11.964,-0.02138197140478747
11.968,-0.021381129985785088
11.972,-0.021381033823613387
11.976,-0.02138050493166903
11.98,-0.02137927886397984
11.984,-0.021380601093840733
11.988,-0.021382019485873323
11.992,-0.021382716661618156
11.996,-0.021383726364421016
12.0,-0.02138365424279224
12.004,-0.02138278878324693
12.008000000000001,-0.021382812823789857
12.012,-0.02138264453998938
12.016,-0.021381346350671415
12.02,-0.021380024120810526
12.024000000000001,-0.0213799039180959
12.028,-0.02138091362089876
12.032,-0.021380384728954403
12.036,-0.021379230782893992
12.040000000000001,-0.021379567350494944
12.044,-0.02137899037746474
12.048,-0.021376153593399557
12.052,-0.021374735201366967
12.056000000000001,-0.021375143890596696
12.06,-0.0213753362149401
12.064,-0.02137478328245282
12.068,-0.021373364890420226
12.072000000000001,-0.02137197053893056
12.076,-0.021372619633589544
12.08,-0.021374687120281118
12.084,-0.021375913187970306
12.088000000000001,-0.02137507176896792
12.092,-0.021374590958109417
12.096,-0.02137624975557126
12.1,-0.021378317242262832
12.104000000000001,-0.021377668147603848
12.108,-0.02137721137728827
12.112,-0.021377980674661876
12.116,-0.021378798053121338
12.120000000000001,-0.021377547944889223
12.124,-0.02137624975557126
12.128,-0.02137557662036935
12.132,-0.021375985309599083
12.136000000000001,-0.021376874809687314
12.14,-0.021377932593576027
12.144,-0.02137877401257841
12.148,-0.021380120282982227
12.152000000000001,-0.021380745337098283
12.156,-0.021381202107413864
12.16,-0.021381105945242163
12.164,-0.021382259891302574
12.168000000000001,-0.021384808188852654
12.172,-0.021386635270114973
12.176,-0.021385962134913065
12.18,-0.021385192837539455
12.184000000000001,-0.0213868516350013
12.188,-0.021388053662147563
12.192,-0.021388750837892396
12.196,-0.021389063364950424
12.200000000000001,-0.021389207608207977
12.204,-0.02138908740549335
12.208,-0.021388582554091918
12.212,-0.021389880743409882
12.216000000000001,-0.02139081832458397
12.22,-0.021390337513725464
12.224,-0.021389351851465527
12.228,-0.02138867871626362
12.232000000000001,-0.021388991243321647
12.236,-0.021389520135266005
12.24,-0.02138944801363723
12.244,-0.021388414270291443
12.248000000000001,-0.021387572851289057
12.252,-0.021388654675720695
12.256,-0.02139105873001322
12.26,-0.0213917078246722
12.264000000000001,-0.021390433675897165
12.268,-0.021390361554268388
12.272,-0.02139146741924295
12.276,-0.021392453081502887
12.280000000000001,-0.02139329450050527
12.284,-0.021393871473535477
12.288,-0.021392957932904317
12.292,-0.021391755905758054
12.296,-0.021392092473359006
12.3,-0.021393270459962345
12.304,-0.021392525203131663
12.308,-0.021391779946300978
12.312,-0.02139192418955853
12.316,-0.021391275094899548
12.32,-0.021390842365126894
12.324,-0.021390169229924986
12.328,-0.021390674081326416
12.332,-0.021391659743586353
12.336,-0.021392597324760437
12.34,-0.021392308838245333
12.344,-0.02139278964910384
12.348,-0.02139192418955853
12.352,-0.021389111446036276
12.356,-0.02138649102685742
12.36,-0.021385192837539455
12.364,-0.021385288999711156
12.368,-0.021385409202425786
12.372,-0.021385625567312112
12.376,-0.021387644972917834
12.38,-0.021389327810922603
12.384,-0.021390626000240567
12.388,-0.02139197227064438
12.392,-0.02139274156801799
12.396,-0.02139365510864915
12.4,-0.02139401571679303
12.404,-0.021395602392626095
12.408,-0.021397790082032294
12.412,-0.021397982406375696
12.416,-0.021396059162941676
12.42,-0.021395866838598274
12.424,-0.021397381392802565
12.428,-0.021397742000946445
12.432,-0.0213961793656563
12.436,-0.021397140987373314
12.44,-0.021399617163294613
12.444,-0.02139964120383754
12.448,-0.02139800644691862
12.452,-0.02139745351443134
12.456,-0.021399256555150736
12.46,-0.021399713325466314
12.464,-0.021399496960579988
12.468,-0.021400122014696044
12.472,-0.021400482622839924
12.476,-0.021401684649986187
12.48,-0.021402261623016394
12.484,-0.021402502028445645
12.488,-0.021404593555680144
12.492,-0.021405867704455184
12.496,-0.021405555177397156
12.5,-0.02140380021776361
12.504,-0.021402910717675375
12.508000000000001,-0.02140480992056647
12.512,-0.021406564880200016
12.516,-0.021407286096487774
12.52,-0.021409473785893973
12.524000000000001,-0.021409882475123702
12.528,-0.021407478420831176
12.532,-0.021406011947712734
12.536,-0.02140644467748539
12.540000000000001,-0.021406637001828793
12.544,-0.02140644467748539
12.548,-0.021405194569253275
12.552,-0.021405362853053753
12.556000000000001,-0.021407213974858997
12.56,-0.02140887277232084
12.564,-0.02140995459675248
12.568,-0.021412839461903508
12.572000000000001,-0.02141365684036297
12.576,-0.02141344047547664
12.58,-0.021412502894302556
12.584,-0.021412454813216707
12.588000000000001,-0.02141380108362052
12.592,-0.021414738664794604
12.596,-0.021412454813216707
12.6,-0.021409858434580778
12.604000000000001,-0.021408968934492543
12.608,-0.02140868044797744
12.612,-0.02140882469123499
12.616,-0.021408608326348662
12.620000000000001,-0.02140836792091941
12.624,-0.021407238015401925
12.628,-0.021405603258483005
12.632,-0.0214052186097962
12.636000000000001,-0.021405266690882052
12.64,-0.02140440123133674
12.644,-0.02140170869052911
12.648,-0.02139904019026441
12.652000000000001,-0.021399400798408286
12.656,-0.021399256555150736
12.66,-0.021397742000946445
12.664,-0.02139750159551719
12.668000000000001,-0.0213961793656563
12.672,-0.02139406379787888
12.676,-0.02139288581127554
12.68,-0.021391755905758054
12.684000000000001,-0.0213890393244075
12.688,-0.02138598617545599
12.692,-0.021385793851112587
12.696,-0.021389255689293826
12.700000000000001,-0.021394857135795413
12.704,-0.021398703622663454
12.708,-0.021401396163471084
12.712,-0.02140288667713245
12.716000000000001,-0.021404232947536267
12.72,-0.021404112744821638
12.724,-0.021402670312246123
12.728,-0.021400795149897952
12.732000000000001,-0.02139822281180495
12.736,-0.021395361987196843
12.74,-0.021394688851994935
12.744,-0.021395770676426572
12.748000000000001,-0.021396708257600656
12.752,-0.021396972703572836
12.756,-0.021395001379052963
12.76,-0.021392933892361393
12.764000000000001,-0.02139110681109907
12.768,-0.021390241351553763
12.772,-0.02139040963535424
12.776,-0.02139081832458397
12.780000000000001,-0.021392260757159484
12.784,-0.021394496527651533
12.788,-0.02139452056819446
12.792,-0.021393582987020373
12.796000000000001,-0.021392573284217512
12.8,-0.021391082770556145
12.804,-0.021388967202778723
12.808,-0.02138709204043055
12.812,-0.02138584193219844
12.816,-0.02138516879699653
12.82,-0.0213847601077668
12.824,-0.021384086972564893
12.828,-0.021382548377817678
12.832,-0.02138146655338604
12.836,-0.021381682918272367
12.84,-0.021382187769673797
12.844,-0.0213824762561889
12.848,-0.02138156271555774
12.852,-0.021381202107413864
12.856,-0.021380697256012434
12.86,-0.021380841499269984
12.864,-0.021382428175103052
12.868,-0.021382692621075228
12.872,-0.02138223585075965
12.876,-0.02138132231012849
12.88,-0.021381586756100666
12.884,-0.0213822839318455
12.888,-0.02138259645890353
12.892,-0.021380528972211956
12.896,-0.021378798053121338
12.9,-0.021378918255835964
12.904,-0.021379471188323243
12.908,-0.02138014432352515
12.912,-0.021380625134383657
12.916,-0.02137978371538127
12.92,-0.021378148958462354
12.924,-0.021376658444800987
12.928,-0.02137548045819765
12.932,-0.021375961269056155
12.936,-0.021377620066518
12.94,-0.02137817299900528
12.944,-0.021377427742174597
12.948,-0.021377692188146776
12.952,-0.021377788350318477
12.956,-0.021377475823260446
12.96,-0.021378557647692083
12.964,-0.021380336647868554
12.968,-0.021380985742527534
12.972,-0.021380240485696853
12.976,-0.021378942296378888
12.98,-0.02137963947212372
12.984,-0.021380793418184135
12.988,-0.02138137039121434
12.992,-0.02138182716152992
12.996,-0.0213819954453304
13.0,-0.02138187524261577
13.004,-0.021382668580532303
13.008000000000001,-0.02138341383736299
13.012,-0.02138375040496394
13.016,-0.02138389464822149
13.02,-0.021383846567135642
13.024000000000001,-0.021384038891479044
13.028,-0.02138492839156728
13.032,-0.02138593809437014
13.036,-0.0213868516350013
13.040000000000001,-0.021387548810746133
13.044,-0.021387885378347085
13.048,-0.021388005581061714
13.052,-0.021387789216175384
13.056000000000001,-0.0213868516350013
13.06,-0.021384952432110204
13.064,-0.021385361121339933
13.068,-0.0213891354865792
13.072000000000001,-0.02139197227064438
13.076,-0.021392933892361393
13.08,-0.02139233287878826
13.084,-0.02139228479770241
13.088000000000001,-0.02139406379787888
13.092,-0.02139685250085821
13.096,-0.02139822281180495
13.1,-0.02139740543334549
13.104000000000001,-0.021395193703396365
13.108,-0.021393871473535477
13.112,-0.021393198338333568
13.116,-0.021393366622134046
13.120000000000001,-0.0213961793656563
13.124,-0.021398751703749306
13.128,-0.021400338379582374
13.132,-0.02140105959587013
13.136000000000001,-0.021400626866097477
13.14,-0.0213982708928908
13.144,-0.021397790082032294
13.148,-0.021398150690176174
13.152000000000001,-0.021396876541401134
13.156,-0.021395145622310516
13.16,-0.02139533794665392
13.164,-0.021396059162941676
13.168000000000001,-0.021397044825201612
13.172,-0.02139791028474692
13.176,-0.021397477554974266
13.18,-0.02139480905470956
13.184000000000001,-0.021392188635530707
13.188,-0.02139137125707125
13.192,-0.02139004902721036
13.196,-0.02138735648640273
13.200000000000001,-0.021386226580885244
13.204,-0.02138680355391545
13.208,-0.021386418905228646
13.212,-0.02138661122957205
13.216000000000001,-0.021386274661971093
13.22,-0.021385769810569662
13.224,-0.021385553445683336
13.228,-0.021385048594281905
13.232000000000001,-0.02138360616170639
13.236,-0.02138223585075965
13.24,-0.021382524337274753
13.244,-0.021382668580532303
13.248000000000001,-0.021382404134560128
13.252,-0.021381081904699235
13.256,-0.021382307972388426
13.26,-0.0213845677834234
13.264000000000001,-0.02138567364839796
13.268,-0.021384736067223877
13.272,-0.02138314939139081
13.276,-0.021382356053474275
13.280000000000001,-0.02138187524261577
13.284,-0.021381586756100666
13.288,-0.0213799039180959
13.292,-0.0213800000802676
13.296000000000001,-0.021382572418360602
13.3,-0.02138341383736299
13.304,-0.021381490593928965
13.308,-0.021381634837186518
13.312000000000001,-0.021382428175103052
13.316,-0.02138338979682006
13.32,-0.021383461918448837
13.324,-0.021382043526416247
13.328,-0.02138004816135345
13.332,-0.021378509566606235
13.336,-0.02137776430977555
13.34,-0.021378798053121338
13.344,-0.021379519269409095
13.348,-0.021380480891126104
13.352,-0.021381105945242163
13.356,-0.02138091362089876
13.36,-0.021380601093840733
13.364,-0.0213799039180959
13.368,-0.021378918255835964
13.372,-0.021378317242262832
13.376,-0.021378846134207187
13.38,-0.021379158661265215
13.384,-0.021378966336921813
13.388,-0.021377475823260446
13.392,-0.021375744904169828
13.396,-0.02137478328245282
13.4,-0.02137497560679622
13.404,-0.021373292768791453
13.408,-0.021371105079385253
13.412,-0.021371706092958385
13.416,-0.021372980241733425
13.42,-0.021374735201366967
13.424,-0.02137670652588684
13.428,-0.02137502368788207
13.432,-0.021373028322819274
13.436,-0.021371489728072058
13.44,-0.021371032957756476
13.444,-0.021372451349789066
13.448,-0.021372571552503692
13.452,-0.02137259559304662
13.456,-0.02137206670110226
13.46,-0.02137187437675886
13.464,-0.021370864673956
13.468,-0.021369566484638034
13.472,-0.021369061633236604
13.476,-0.021370287700925795
13.48,-0.021372210944359815
13.484,-0.021372667714675393
13.488,-0.02137209074164519
13.492,-0.021372018620016413
13.496,-0.021371153160471102
13.5,-0.021370480025269197
13.504,-0.02136954244409511
13.508000000000001,-0.021367450916860608
13.512,-0.021367018187087954
13.516,-0.021366849903287476
13.52,-0.021365527673426588
13.524000000000001,-0.021365551713969512
13.528,-0.021365167065282707
13.532,-0.02136252260556093
13.536,-0.021361320578414666
13.540000000000001,-0.021361681186558543
13.544,-0.021364758376052978
13.548,-0.021369181835951233
13.552,-0.021371489728072058
13.556000000000001,-0.021373220647162676
13.56,-0.021376634404258063
13.564,-0.021379591391037872
13.568,-0.02137899037746474
13.572000000000001,-0.021378245120634055
13.576,-0.021378100877376505
13.58,-0.021376826728601465
13.584,-0.021375264093311322
13.588000000000001,-0.021373821660735808
13.592,-0.021372042660559337
13.596,-0.02137064830906967
13.6,-0.02136990305223899
13.604000000000001,-0.021369157795408305
13.608,-0.02137081659287015
13.612,-0.021374590958109417
13.616,-0.021378461485520382
13.620000000000001,-0.02137978371538127
13.624,-0.021378341282805757
13.628,-0.021377427742174597
13.632,-0.02137603339068493
13.636000000000001,-0.021375143890596696
13.64,-0.021374542877023565
13.644,-0.02137415822833676
13.648,-0.021373701458021182
13.652000000000001,-0.021373533174220704
13.656,-0.02137310044444805
13.66,-0.021371153160471102
13.664,-0.021369566484638034
13.668000000000001,-0.021368460619663472
13.672,-0.021369350119751707
13.676,-0.02137072043069845
13.68,-0.021371706092958385
13.684000000000001,-0.021371850336215935
13.688,-0.021371658011872532
13.692,-0.02137168205241546
13.696,-0.021371706092958385
13.700000000000001,-0.021371249322642803
13.704,-0.021372619633589544
13.708,-0.02137406206616506
13.712,-0.021373629336392405
13.716000000000001,-0.021373052363362198
13.72,-0.02137213882273104
13.724,-0.021372451349789066
13.728,-0.021373461052591927
13.732000000000001,-0.021376562282629286
13.736,-0.02137812491791943
13.74,-0.021377403701631673
13.744,-0.02137425439050846
13.748000000000001,-0.021372379228160293
13.752,-0.021371609930786684
13.756,-0.021371850336215935
13.76,-0.021370984876670628
13.764000000000001,-0.021371153160471102
13.768,-0.021371946498387636
13.772,-0.021371129119928178
13.776,-0.021367931727719114
13.780000000000001,-0.021364926659853456
13.784,-0.02136485453822468
13.788,-0.02136632101134312
13.792,-0.021368003849347894
13.796000000000001,-0.021369326079208783
13.8,-0.021369253957580006
13.804,-0.021368965471064903
13.808,-0.021369350119751707
13.812000000000001,-0.02137117720101403
13.816,-0.021370984876670628
13.82,-0.021370864673956
13.824,-0.021372451349789066
13.828,-0.02137502368788207
13.832,-0.021375312174397174
13.836,-0.021374038025622134
13.84,-0.021373292768791453
13.844,-0.021372787917390022
13.848,-0.02137273983630417
13.852,-0.021372787917390022
13.856,-0.021373533174220704
13.86,-0.021373989944536285
13.864,-0.021373941863450433
13.868,-0.02137475924190989
13.872,-0.02137557662036935
13.876,-0.021375552579826426
13.88,-0.021376634404258063
13.884,-0.021376922890773167
13.888,-0.021376369958285884
13.892,-0.021376057431227856
13.896,-0.021376922890773167
13.9,-0.021378148958462354
13.904,-0.021379471188323243
13.908,-0.021379423107237394
13.912,-0.02137826916117698
13.916,-0.021376922890773167
13.92,-0.02137670652588684
13.924,-0.02137836532334868
13.928,-0.021379158661265215
13.932,-0.021378052796290653
13.936,-0.021376393998828812
13.94,-0.0213754323771118
13.944,-0.02137557662036935
13.948,-0.021376273796114183
13.952,-0.021376129552856633
13.956,-0.021376826728601465
13.96,-0.021378509566606235
13.964,-0.02138031260732563
13.968,-0.021382548377817678
13.972,-0.021383630202249315
13.976,-0.021383221513019586
13.98,-0.021381346350671415
13.984,-0.021379375026151542
13.988,-0.021378293201719908
13.992,-0.021378509566606235
13.996,-0.02137903845855059
14.0,-0.021380480891126104
14.004,-0.021382716661618156
14.008000000000001,-0.021385192837539455
14.012,-0.021386010215998917
14.016,-0.021388342148662667
14.02,-0.021392044392273157
14.024000000000001,-0.021393318541048197
14.028,-0.02139324641941942
14.032,-0.021394688851994935
14.036,-0.02139791028474692
14.040000000000001,-0.021401179798584757
14.044,-0.021403848298849462
14.048,-0.021406108109884435
14.052,-0.021405915785541033
14.056000000000001,-0.021404761839480622
14.06,-0.021402069298672992
14.064,-0.0214003624201253
14.068,-0.021400939393155505
14.072000000000001,-0.021404473352965518
14.076,-0.021408199637118933
14.08,-0.021409569948065674
14.084,-0.02140827175874771
14.088000000000001,-0.021405386893596678
14.092,-0.02140365597450606
14.096,-0.021402910717675375
14.1,-0.02140238182573102
14.104000000000001,-0.021400915352612578
14.108,-0.021399929690352645
14.112,-0.021401348082385235
14.116,-0.02140247798790272
14.120000000000001,-0.02140355981233436
14.124,-0.021404281028622116
14.128,-0.021405651339568857
14.132,-0.021408079434404308
14.136000000000001,-0.021409161258835945
14.14,-0.021411348948242145
14.144,-0.021412719259188882
14.148,-0.0214118778401865
14.152000000000001,-0.02140877661014914
14.156,-0.021405747501740558
14.16,-0.021402862636589526
14.164,-0.021401684649986187
14.168000000000001,-0.021399617163294613
14.172,-0.02139694866302991
14.176,-0.021394328243851058
14.18,-0.02139156358141465
14.184000000000001,-0.021389880743409882
14.188,-0.021387837297261236
14.192,-0.021384038891479044
14.196,-0.021379062499093514
14.200000000000001,-0.021377620066518
14.204,-0.0213777162286897
14.208,-0.021378798053121338
14.212,-0.021380240485696853
14.216000000000001,-0.02138031260732563
14.22,-0.021380024120810526
14.224,-0.021378822093664263
14.228,-0.021377499863803374
14.232000000000001,-0.02137802875574773
14.236,-0.021378509566606235
14.24,-0.021376826728601465
14.244,-0.021373581255306556
14.248000000000001,-0.02137233114707444
14.252,-0.021373773579649955
14.256,-0.021374494795937716
14.26,-0.02137528813385425
14.264000000000001,-0.021376466120457585
14.268,-0.021376658444800987
14.272,-0.021375504498740577
14.276,-0.02137478328245282
14.280000000000001,-0.021373869741821656
14.284,-0.02137233114707444
14.288,-0.021371609930786684
14.292,-0.021373388930963154
14.296000000000001,-0.021375624701455202
14.3,-0.021376153593399557
14.304,-0.021377091174573645
14.308,-0.021378437444977458
14.312000000000001,-0.021379879877552972
14.316,-0.02138086553981291
14.32,-0.02138182716152992
14.324,-0.021382356053474275
14.328000000000001,-0.021382668580532303
14.332,-0.021383966769850268
14.336,-0.02138543324296871
14.34,-0.021386875675544224
14.344,-0.021385962134913065
14.348,-0.021385264959168232
14.352,-0.02138680355391545
14.356,-0.021388750837892396
14.36,-0.021388390229748516
14.364,-0.02138644294577157
14.368,-0.02138334171573421
14.372,-0.02138206756695917
14.376,-0.021380432810040255
14.38,-0.02137899037746474
14.384,-0.02137817299900528
14.388,-0.021379471188323243
14.392,-0.02138507263482483
14.396,-0.021392549243674588
14.4,-0.021397477554974266
14.404,-0.0213982708928908
14.408,-0.021395770676426572
14.412,-0.021395361987196843
14.416,-0.021395650473711947
14.42,-0.02139533794665392
14.424,-0.021396275527828003
14.428,-0.02139766987931767
14.432,-0.02139776604148937
14.436,-0.021399256555150736
14.44,-0.021400386460668223
14.444,-0.02140170869052911
14.448,-0.021401804852700813
14.452,-0.02140019413632482
14.456,-0.02139901614972148
14.46,-0.02139791028474692
14.464,-0.02139851129832005
14.468,-0.02139913635243611
14.472,-0.02139887190646393
14.476,-0.02139904019026441
14.48,-0.021397982406375696
14.484,-0.021397044825201612
14.488,-0.021398847865921007
14.492,-0.021402045258130067
14.496,-0.02140416082590749
14.5,-0.0214028385960466
14.504,-0.021402694352789048
14.508000000000001,-0.021404112744821638
14.512,-0.02140690144780097
14.516,-0.021408800650692065
14.52,-0.021408536204719886
14.524000000000001,-0.021407069731601447
14.528,-0.021408127515490157
14.532,-0.021408488123634037
14.536,-0.021407286096487774
14.540000000000001,-0.021407238015401925
14.544,-0.021407478420831176
14.548,-0.0214051224476245
14.552,-0.0214027424338749
14.556000000000001,-0.02140182889324374
14.56,-0.02140173273107204
14.564,-0.021403030920390004
14.568,-0.021403223244733403
14.572000000000001,-0.021403030920390004
14.576,-0.021403535771791434
14.58,-0.02140420890699334
14.584,-0.021404617596223068
14.588000000000001,-0.021405242650339128
14.592,-0.02140618023151321
14.596,-0.02140776690734628
14.6,-0.02140791115060383
14.604000000000001,-0.021407526501917025
14.608,-0.02140776690734628
14.612,-0.021408055393861383
14.616,-0.0214074062992024
14.620000000000001,-0.021407550542459953
14.624,-0.021408295799290634
14.628,-0.02140735821811655
14.632,-0.021404761839480622
14.636000000000001,-0.0214027424338749
14.64,-0.021403199204190478
14.644,-0.021402718393331972
14.648,-0.021400819190440876
14.652000000000001,-0.021398246852347876
14.656,-0.021395746635883648
14.66,-0.021393847432992552
14.664,-0.021392765608560915
14.668000000000001,-0.021391130851641998
14.672,-0.021390746202955193
14.676,-0.02139091448675567
14.68,-0.02139197227064438
14.684000000000001,-0.021391299135442472
14.688,-0.021389375892008452
14.692,-0.0213891354865792
14.696,-0.021389159527122125
14.700000000000001,-0.021389207608207977
14.704,-0.02138863063517777
14.708,-0.02138802962160464
14.712,-0.02138759689183198
14.716000000000001,-0.021386923756630077
14.72,-0.02138680355391545
14.724,-0.021385769810569662
14.728,-0.02138206756695917
14.732000000000001,-0.0213798077559242
14.736,-0.021380745337098283
14.74,-0.021383846567135642
14.744,-0.021387164162059328
14.748000000000001,-0.021389568216351854
14.752,-0.021390361554268388
14.756,-0.021391659743586353
14.76,-0.021392621365303365
14.764000000000001,-0.02139197227064438
14.768,-0.02139110681109907
14.772,-0.02139334258159112
14.776,-0.021396828460315286
14.780000000000001,-0.021398703622663454
14.784,-0.02139978544709509
14.788,-0.021398391095605426
14.792,-0.0213961793656563
14.796000000000001,-0.021395794716969497
14.8,-0.021395386027739768
14.804,-0.021393534905934524
14.808,-0.021393582987020373
14.812000000000001,-0.02139480905470956
14.816,-0.021395458149368544
14.82,-0.02139593896022705
14.824,-0.021396299568370927
14.828000000000001,-0.021396684217057732
14.832,-0.02139699674411576
14.836,-0.021397309271173788
14.84,-0.02139634764945678
14.844000000000001,-0.02139420804113643
14.848,-0.02139355894647745
14.852,-0.02139365510864915
14.856,-0.02139406379787888
14.86,-0.02139406379787888
14.864,-0.02139480905470956
14.868,-0.02139553027099732
14.872,-0.02139490521688126
14.876,-0.02139442440602276
14.88,-0.021392717527475066
14.884,-0.021388919121692874
14.888,-0.02138689971608715
14.892,-0.02138964033798063
14.896,-0.021393174297790644
14.9,-0.021395145622310516
14.904,-0.0213959870413129
14.908,-0.021396804419772358
14.912,-0.021396299568370927
14.916,-0.021396299568370927
14.92,-0.021395770676426572
14.924,-0.021394496527651533
14.928,-0.021392933892361393
14.932,-0.021393703189735
14.936,-0.021394544608737385
14.94,-0.021395121581767592
14.944,-0.021395241784482218
14.948,-0.021394135919507656
14.952,-0.02139442440602276
14.956,-0.021394640770909086
14.96,-0.021393943595164253
14.964,-0.02139329450050527
14.968,-0.02139490521688126
14.972,-0.021396564014343106
14.976,-0.021397717960403517
14.98,-0.02139603512239875
14.984,-0.021393054095076018
14.988,-0.021391635703043428
14.992,-0.021392597324760437
14.996,-0.021393510865391596
15.0,-0.0213938955140784
15.004,-0.021392933892361393
15.008000000000001,-0.021392020351730233
15.012,-0.021394376324936907
15.016,-0.021394448446565684
15.02,-0.021392525203131663
15.024000000000001,-0.021391779946300978
15.028,-0.021392068432816082
15.032,-0.0213934147032199
15.036,-0.02139516966285344
15.040000000000001,-0.021394640770909086
15.044,-0.021392405000417034
15.048,-0.021393126216704795
15.052,-0.02139283773018969
15.056000000000001,-0.021391491459785875
15.06,-0.02139028943263961
15.064,-0.021389207608207977
15.068,-0.021388005581061714
15.072000000000001,-0.02138625062142817
15.076,-0.021383726364421016
15.08,-0.021381658877729443
15.084,-0.021380793418184135
15.088000000000001,-0.021380601093840733
15.092,-0.021381274229042638
15.096,-0.021382404134560128
15.1,-0.021385096675367754
15.104000000000001,-0.021387693054003683
15.108,-0.02138995286503866
15.112,-0.02139120297327077
15.116,-0.021392092473359006
15.120000000000001,-0.021394328243851058
15.124,-0.021395794716969497
15.128,-0.021397381392802565
15.132,-0.02139593896022705
15.136000000000001,-0.021393102176161867
15.14,-0.021393102176161867
15.144,-0.02139298197344724
15.148,-0.02139156358141465
15.152000000000001,-0.021390938527298595
15.156,-0.021392356919331185
15.16,-0.021394087838421803
15.164,-0.021393607027563297
15.168000000000001,-0.021391275094899548
15.172,-0.021389856702866958
15.176,-0.021389904783952807
15.18,-0.021391803986843903
15.184000000000001,-0.021394472487108608
15.188,-0.021395217743939293
15.192,-0.021395145622310516
15.196,-0.02139507350068174
15.200000000000001,-0.021394135919507656
15.204,-0.021393054095076018
15.208,-0.02139156358141465
15.212,-0.021390842365126894
15.216000000000001,-0.02138980862178111
15.22,-0.02138872679734947
15.224,-0.021387957499975862
15.228,-0.021387837297261236
15.232000000000001,-0.02138557748622626
15.236,-0.021385457283511634
15.24,-0.02138699587825885
15.244,-0.021388101743233412
15.248000000000001,-0.02139096256784152
15.252,-0.02139365510864915
15.256,-0.021393102176161867
15.26,-0.021392621365303365
15.264000000000001,-0.0213913231759854
15.268,-0.02139004902721036
15.272,-0.021389904783952807
15.276,-0.021388919121692874
15.280000000000001,-0.021389399932551376
15.284,-0.021389976905581583
15.288,-0.021389760540695257
15.292,-0.021389472054180153
15.296000000000001,-0.02138872679734947
15.3,-0.021388991243321647
15.304,-0.021389712459609408
15.308,-0.02139009710829621
15.312000000000001,-0.021388077702690488
15.316,-0.021386130418713543
15.32,-0.0213845677834234
15.324,-0.021382764742704004
15.328000000000001,-0.021381658877729443
15.332,-0.02138300514813326
15.336,-0.021384279296908296
15.34,-0.021382860904875706
15.344000000000001,-0.02138278878324693
15.348,-0.021383630202249315
15.352,-0.0213845677834234
15.356,-0.0213847601077668
15.36,-0.02138375040496394
15.364,-0.02138206756695917
15.368,-0.02138014432352515
15.372,-0.021379086539636438
15.376,-0.021379110580179366
15.38,-0.021379711593752498
15.384,-0.02137903845855059
15.388,-0.021377475823260446
15.392,-0.021376129552856633
15.396,-0.02137786047194725
15.4,-0.021382307972388426
15.404,-0.021384784148309726
15.408,-0.021385553445683336
15.412,-0.021386947797173
15.416,-0.021388197905405113
15.42,-0.021387693054003683
15.424,-0.021387693054003683
15.428,-0.021387572851289057
15.432,-0.021385361121339933
15.436,-0.02138156271555774
15.44,-0.021377571985432147
15.444,-0.02137492752571037
15.448,-0.02137451883648064
15.452,-0.021374951566253294
15.456,-0.02137548045819765
15.46,-0.021375216012225473
15.464,-0.02137538429602595
15.468,-0.02137557662036935
15.472,-0.02137466307973819
15.476,-0.021373893782364584
15.48,-0.02137365337693533
15.484,-0.02137483136353867
15.488,-0.02137694693131609
15.492,-0.02137968755320957
15.496,-0.021379471188323243
15.5,-0.021379423107237394
15.504,-0.02138105786415631
15.508000000000001,-0.0213824762561889
15.512,-0.02138250029673183
15.516,-0.021381009783070462
15.52,-0.021382115648045024
15.524000000000001,-0.02138721224314518
15.528,-0.02139283773018969
15.532,-0.02139461673036616
15.536,-0.021393823392449628
15.540000000000001,-0.021393102176161867
15.544,-0.021393991676250102
15.548,-0.02139365510864915
15.552,-0.02139406379787888
15.556000000000001,-0.021394881176338337
15.56,-0.021397381392802565
15.564,-0.02140050666338285
15.568,-0.021401949095958366
15.572000000000001,-0.021404040623192865
15.576,-0.021406564880200016
15.58,-0.021408103474947232
15.584,-0.02140932954263642
15.588000000000001,-0.021411853799643575
15.592,-0.0214142578539361
15.596,-0.021414690583708755
15.6,-0.02141461846207998
15.604000000000001,-0.02141776777320319
15.608,-0.021419306367950405
15.612,-0.02141745524614516
15.616,-0.021417527367773935
15.620000000000001,-0.021419522732836732
15.624,-0.02142175850332878
15.628,-0.021420412232924967
15.632,-0.02141969101663721
15.636000000000001,-0.021421662341157083
15.64,-0.02142457124685104
15.644,-0.02142582135508315
15.648,-0.021426109841598255
15.652000000000001,-0.021426470449742135
15.656,-0.02142497993608077
15.66,-0.021423489422419402
15.664,-0.02142262396287409
15.668000000000001,-0.021420820922154696
15.672,-0.021419354449036254
15.676,-0.021419763138265987
15.68,-0.021421806584414633
15.684000000000001,-0.021424138517078382
15.688,-0.02142654257137091
15.692,-0.021427864801231798
15.696,-0.021427624395802546
15.700000000000001,-0.021427191666029893
15.704,-0.021423417300790625
15.708,-0.02141959485446551
15.712,-0.021420051624781087
15.716000000000001,-0.021420989205955174
15.72,-0.02142070071944007
15.724,-0.021421421935727828
15.728,-0.021423994273820832
15.732000000000001,-0.021425797314540227
15.736,-0.021426518530827984
15.74,-0.021428441774262005
15.744,-0.021429667841951192
15.748000000000001,-0.021430725625839905
15.752,-0.021430797747468682
15.756,-0.021430052490637997
15.76,-0.02142892258512051
15.764000000000001,-0.02142764843634547
15.768,-0.021427432071459144
15.772,-0.02142846581480493
15.776,-0.02142918703109269
15.780000000000001,-0.02142817732828983
15.784,-0.02142714358494404
15.788,-0.021426350247027506
15.792,-0.021425340544224646
15.796000000000001,-0.021426206003769956
15.8,-0.021425917517254853
15.804,-0.02142406639544961
15.808,-0.021423417300790625
15.812000000000001,-0.021424691449565665
15.816,-0.021425845395626076
15.82,-0.021425845395626076
15.824,-0.021425508828025124
15.828000000000001,-0.02142435488196471
15.832,-0.021423224976447223
15.836,-0.021423176895361374
15.84,-0.021422816287217494
15.844000000000001,-0.02142125365192735
15.848,-0.021419210205778704
15.852,-0.0214166378676857
15.856,-0.021415363718910663
15.860000000000001,-0.021413921286335146
15.864,-0.0214140655295927
15.868,-0.021414233813393174
15.872,-0.021413584718734193
15.876,-0.02141320007004739
15.88,-0.02141394532687807
15.884,-0.0214141616917644
15.888,-0.0214118778401865
15.892,-0.021407839028975056
15.896,-0.02140517052871035
15.9,-0.02140658892074294
15.904,-0.021405747501740558
15.908,-0.02140416082590749
15.912,-0.02140406466373579
15.916,-0.02140375213667776
15.92,-0.021403631933963135
15.924,-0.021403343447448032
15.928,-0.021403079001475853
15.932,-0.02140339152853388
15.936,-0.021403920420478235
15.94,-0.02140170869052911
15.944,-0.02139887190646393
15.948,-0.02139904019026441
15.952,-0.02140009797415312
15.956,-0.02140161252835741
15.96,-0.021403968501564088
15.964,-0.021405555177397156
15.968,-0.021407238015401925
15.972,-0.021406540839657092
15.976,-0.0214051224476245
15.98,-0.02140471375839477
15.984,-0.0214053147719679
15.988,-0.021405266690882052
15.992,-0.021404593555680144
15.996,-0.02140416082590749
16.0,-0.021403607893420207
16.004,-0.021403343447448032
16.008,-0.02140365597450606
16.012,-0.021404641636765996
16.016000000000002,-0.02140507436653865
16.02,-0.021405194569253275
16.024,-0.02140507436653865
16.028,-0.021403944461021163
16.032,-0.021402550109531498
16.036,-0.021400795149897952
16.04,-0.021400314339039446
16.044,-0.02140120383912768
16.048000000000002,-0.02140069898772625
16.052,-0.021400170095781896
16.056,-0.021400915352612578
16.06,-0.021401275960756458
16.064,-0.021399352717322438
16.068,-0.021396828460315286
16.072,-0.021394496527651533
16.076,-0.02139315025724772
16.080000000000002,-0.02139146741924295
16.084,-0.02138980862178111
16.088,-0.021388919121692874
16.092,-0.021388822959521173
16.096,-0.02139156358141465
16.1,-0.021395121581767592
16.104,-0.02139904019026441
16.108,-0.021403319406905104
16.112000000000002,-0.021405146488167427
16.116,-0.021405603258483005
16.12,-0.021404785880023546
16.124,-0.021404521434051367
16.128,-0.021404425271879666
16.132,-0.021405242650339128
16.136,-0.02140699760997267
16.14,-0.021407189934316073
16.144000000000002,-0.02140658892074294
16.148,-0.02140581962336933
16.152,-0.02140497820436695
16.156,-0.02140543497468253
16.16,-0.021405963866626885
16.164,-0.02140543497468253
16.168,-0.021405026285452797
16.172,-0.021404088704278713
16.176000000000002,-0.021403271325819255
16.18,-0.021401275960756458
16.184,-0.0214003624201253
16.188,-0.021401660609443263
16.192,-0.021403030920390004
16.196,-0.021403968501564088
16.2,-0.02140603598825566
16.204,-0.02140745438028825
16.208000000000002,-0.021406276393684913
16.212,-0.021404232947536267
16.216,-0.021403872339392387
16.22,-0.02140262223116027
16.224,-0.021401348082385235
16.228,-0.02139995373089557
16.232,-0.021398583419948828
16.236,-0.02139690058194406
