time,channel4
0.0,6.640719172245563E-4
0.004,6.649373767698657E-4
0.008,6.604177546999161E-4
0.012,6.606581601291688E-4
0.016,6.633747414797236E-4
0.02,6.638074712523784E-4
0.024,6.65874957943951E-4
0.028,6.685674987515806E-4
0.032,6.71428323359687E-4
0.036000000000000004,6.705869043573027E-4
0.04,6.717648909606406E-4
0.044,6.702503367563491E-4
0.048,6.605379574145424E-4
0.052000000000000005,6.396707661554137E-4
0.056,6.208710615878576E-4
0.06,5.99667302727775E-4
0.064,5.845458012277843E-4
0.068,5.81684976619678E-4
0.07200000000000001,5.940177751403383E-4
0.076,6.130819256800722E-4
0.08,6.344539683406315E-4
0.084,6.583262274654182E-4
0.088,6.733996478795586E-4
0.092,6.773182563763764E-4
0.096,6.777750266919564E-4
0.1,6.746978371975227E-4
0.10400000000000001,6.692165934105627E-4
0.108,6.725101477913237E-4
0.112,6.738564181951386E-4
0.116,6.710196341299574E-4
0.12,6.685194176657301E-4
0.124,6.693127555822638E-4
0.128,6.71524485531388E-4
0.132,6.709955935870323E-4
0.136,6.732313640790817E-4
0.14,6.745055128541207E-4
0.14400000000000002,6.76092188687188E-4
0.148,6.769336076895723E-4
0.152,6.76092188687188E-4
0.156,6.729188370210533E-4
0.16,6.725822694200996E-4
0.164,6.713802422738365E-4
0.168,6.764047157452165E-4
0.17200000000000001,6.752267291418785E-4
0.176,6.736400533088111E-4
0.18,6.728467153922775E-4
0.184,6.733275262507828E-4
0.188,6.741208641673164E-4
0.192,6.722697423620712E-4
0.196,6.707551881577796E-4
0.2,6.719572153040428E-4
0.20400000000000001,6.725582288771743E-4
0.20800000000000002,6.701060934987974E-4
0.212,6.717168098747901E-4
0.216,6.738564181951386E-4
0.22,6.765008779169175E-4
0.224,6.737602560234375E-4
0.228,6.726784315918006E-4
0.232,6.74721877740448E-4
0.23600000000000002,6.778471483207322E-4
0.24,6.777990672348817E-4
0.244,6.754190534852807E-4
0.248,6.778711888636575E-4
0.252,6.791693781816217E-4
0.256,6.752267291418785E-4
0.26,6.746497561116722E-4
0.264,6.756113778286827E-4
0.268,6.763566346593659E-4
0.272,6.747699588262985E-4
0.276,6.742170263390175E-4
0.28,6.770778509471239E-4
0.28400000000000003,6.760441076013374E-4
0.28800000000000003,6.726784315918006E-4
0.292,6.691204312388617E-4
0.296,6.670048634614384E-4
0.3,6.680866878930753E-4
0.304,6.701301340417227E-4
0.308,6.711398368445838E-4
0.312,6.715485260743132E-4
0.316,6.698897286124701E-4
0.32,6.671250661760647E-4
0.324,6.656826336005489E-4
0.328,6.657547552293247E-4
0.332,6.665000120600078E-4
0.336,6.662596066307552E-4
0.34,6.674616337770183E-4
0.34400000000000003,6.677501202921217E-4
0.34800000000000003,6.666202147746342E-4
0.352,6.691925528676375E-4
0.356,6.710196341299574E-4
0.36,6.698897286124701E-4
0.364,6.697454853549185E-4
0.368,6.651056605703426E-4
0.372,6.705388232714522E-4
0.376,6.741449047102417E-4
0.38,6.74265107424868E-4
0.384,6.71428323359687E-4
0.388,6.685915392945059E-4
0.392,6.708273097865554E-4
0.396,6.727265126776512E-4
0.4,6.693848772110396E-4
0.404,6.681347689789259E-4
0.40800000000000003,6.680626473501501E-4
0.41200000000000003,6.682309311506269E-4
0.41600000000000004,6.703224583851249E-4
0.42,6.700339718700216E-4
0.424,6.723899450766975E-4
0.428,6.726063099630248E-4
0.432,6.737842965663628E-4
0.436,6.734717695083344E-4
0.44,6.729188370210533E-4
0.444,6.71163877387509E-4
0.448,6.688079041808333E-4
0.452,6.716687287889396E-4
0.456,6.714042828167617E-4
0.46,6.702022556704985E-4
0.464,6.710436746728827E-4
0.468,6.704186205568259E-4
0.47200000000000003,6.702984178421996E-4
0.47600000000000003,6.707792287007049E-4
0.48,6.734958100512596E-4
0.484,6.69697404269068E-4
0.488,6.721735801903701E-4
0.492,6.706830665290038E-4
0.496,6.676299175774952E-4
0.5,6.673895121482425E-4
0.504,6.679905257213743E-4
0.508,6.707311476148543E-4
0.512,6.736881343946617E-4
0.516,6.753228913135796E-4
0.52,6.739766209097649E-4
0.524,6.742410668819427E-4
0.528,6.731111613644553E-4
0.532,6.727505532205764E-4
0.536,6.765729995456932E-4
0.54,6.722216612762206E-4
0.544,6.717889315035659E-4
0.548,6.72894796478128E-4
0.552,6.726303505059501E-4
0.556,6.728226748493522E-4
0.56,6.744814723111954E-4
0.5640000000000001,6.739525803668396E-4
0.5680000000000001,6.721976207332954E-4
0.5720000000000001,6.748901615409249E-4
0.5760000000000001,6.719572153040428E-4
0.58,6.721014585615943E-4
0.584,6.758037021720849E-4
0.588,6.77101891490049E-4
0.592,6.736881343946617E-4
0.596,6.730871208215301E-4
0.6,6.715725666172385E-4
0.604,6.724861072483986E-4
0.608,6.735679316800353E-4
0.612,6.713802422738365E-4
0.616,6.734717695083344E-4
0.62,6.735679316800353E-4
0.624,6.728707559352028E-4
0.628,6.715725666172385E-4
0.632,6.711157963016585E-4
0.636,6.726303505059501E-4
0.64,6.715966071601638E-4
0.644,6.732313640790817E-4
0.648,6.737602560234375E-4
0.652,6.741689452531669E-4
0.656,6.731352019073806E-4
0.66,6.720533774757438E-4
0.664,6.732073235361564E-4
0.668,6.741208641673164E-4
0.672,6.72077418018669E-4
0.676,6.681107284360006E-4
0.68,6.661153633732036E-4
0.684,6.686636609232817E-4
0.6880000000000001,6.689281068954596E-4
0.6920000000000001,6.67966485178449E-4
0.6960000000000001,6.665480931458584E-4
0.7000000000000001,6.640719172245563E-4
0.704,6.665240526029331E-4
0.708,6.659230390298015E-4
0.712,6.699858907841711E-4
0.716,6.683030527794027E-4
0.72,6.65418187628371E-4
0.724,6.670289040043636E-4
0.728,6.673173905194668E-4
0.732,6.719091342181922E-4
0.736,6.71524485531388E-4
0.74,6.66788498575111E-4
0.744,6.728707559352028E-4
0.748,6.771259320329743E-4
0.752,6.709234719582565E-4
0.756,6.695772015544417E-4
0.76,6.71524485531388E-4
0.764,6.721014585615943E-4
0.768,6.742410668819427E-4
0.772,6.742410668819427E-4
0.776,6.72990958649829E-4
0.78,6.712840801021354E-4
0.784,6.699137691553954E-4
0.788,6.714523639026123E-4
0.792,6.722697423620712E-4
0.796,6.703224583851249E-4
0.8,6.744574317682702E-4
0.804,6.72077418018669E-4
0.808,6.692165934105627E-4
0.812,6.667163769463352E-4
0.8160000000000001,6.681588095218511E-4
0.8200000000000001,6.6943295829689E-4
0.8240000000000001,6.709475125011817E-4
0.8280000000000001,6.717168098747901E-4
0.8320000000000001,6.744814723111954E-4
0.836,6.75635418371608E-4
0.84,6.785683646084902E-4
0.844,6.802992836991092E-4
0.848,6.78736648408967E-4
0.852,6.71524485531388E-4
0.856,6.517631592468213E-4
0.86,6.28756359667344E-4
0.864,6.092594793549553E-4
0.868,5.94186058940815E-4
0.872,5.911088694463812E-4
0.876,6.029127760226856E-4
0.88,6.187554938104344E-4
0.884,6.331798195655926E-4
0.888,6.56210659687995E-4
0.892,6.761162292301132E-4
0.896,6.820782838755787E-4
0.9,6.826071758199345E-4
0.904,6.826552569057851E-4
0.908,6.764047157452165E-4
0.912,6.746497561116722E-4
0.916,6.751546075131027E-4
0.92,6.718610531323417E-4
0.924,6.698416475266196E-4
0.928,6.744333912253449E-4
0.932,6.756113778286827E-4
0.936,6.724861072483986E-4
0.9400000000000001,6.727265126776512E-4
0.9440000000000001,6.715966071601638E-4
0.9480000000000001,6.717648909606406E-4
0.9520000000000001,6.717889315035659E-4
0.9560000000000001,6.683030527794027E-4
0.96,6.679424446355237E-4
0.964,6.663798093453816E-4
0.968,6.679905257213743E-4
0.972,6.696012420973669E-4
0.976,6.704186205568259E-4
0.98,6.71428323359687E-4
0.984,6.734477289654091E-4
0.988,6.721976207332954E-4
0.992,6.72438026162548E-4
0.996,6.751546075131027E-4
1.0,6.720293369328185E-4
1.004,6.698897286124701E-4
1.008,6.702262962134238E-4
1.012,6.704667016426765E-4
1.016,6.67702039206271E-4
1.02,6.630622144216952E-4
1.024,6.638315117953037E-4
1.028,6.691444717817869E-4
1.032,6.689040663525343E-4
1.036,6.6669233640341E-4
1.04,6.687357825520575E-4
1.044,6.728226748493522E-4
1.048,6.731592424503059E-4
1.052,6.707792287007049E-4
1.056,6.699137691553954E-4
1.06,6.712600395592101E-4
1.064,6.700339718700216E-4
1.068,6.732794451649322E-4
1.072,6.72798634306427E-4
1.076,6.696252826402922E-4
1.08,6.679424446355237E-4
1.084,6.695531610115164E-4
1.088,6.719572153040428E-4
1.092,6.723178234479217E-4
1.096,6.703464989280501E-4
1.1,6.706349854431532E-4
1.104,6.712840801021354E-4
1.108,6.671731472619152E-4
1.112,6.66788498575111E-4
1.116,6.70707107071929E-4
1.12,6.683030527794027E-4
1.124,6.674856743199436E-4
1.1280000000000001,6.703464989280501E-4
1.1320000000000001,6.685194176657301E-4
1.1360000000000001,6.676779986633458E-4
1.1400000000000001,6.667404174892605E-4
1.1440000000000001,6.661153633732036E-4
1.1480000000000001,6.682068906077017E-4
1.1520000000000001,6.691204312388617E-4
1.156,6.690723501530111E-4
1.16,6.670289040043636E-4
1.164,6.668606202038868E-4
1.168,6.652258632849689E-4
1.172,6.649854578557162E-4
1.176,6.639517145099299E-4
1.18,6.658989984868762E-4
1.184,6.667404174892605E-4
1.188,6.625333224773394E-4
1.192,6.659470795727268E-4
1.196,6.681588095218511E-4
1.2,6.657547552293247E-4
1.204,6.641921199391826E-4
1.208,6.640959577674815E-4
1.212,6.645767686259868E-4
1.216,6.651056605703426E-4
1.22,6.644325253684352E-4
1.224,6.626535251919657E-4
1.228,6.627737279065921E-4
1.232,6.649373767698657E-4
1.236,6.647450524264637E-4
1.24,6.637353496236026E-4
1.244,6.616919034749552E-4
1.248,6.664519309741573E-4
1.252,6.672693094336163E-4
1.256,6.662115255449047E-4
1.26,6.665961742317089E-4
1.264,6.646248497118373E-4
1.268,6.658028363151753E-4
1.272,6.661394039161289E-4
1.276,6.649373767698657E-4
1.28,6.6486525514109E-4
1.284,6.626535251919657E-4
1.288,6.661153633732036E-4
1.292,6.614274575027772E-4
1.296,6.594320924399803E-4
1.3,6.613793764169266E-4
1.304,6.598407816697098E-4
1.308,6.583743085512687E-4
1.312,6.591916870107277E-4
1.316,6.582541058366424E-4
1.32,6.602975519852898E-4
1.324,6.59864822212635E-4
1.328,6.620525116188341E-4
1.332,6.61499579131553E-4
1.336,6.623890792197878E-4
1.34,6.594320924399803E-4
1.344,6.580137004073898E-4
1.348,6.575569300918098E-4
1.352,6.577011733493614E-4
1.356,6.556336866577888E-4
1.36,6.589032004956245E-4
1.364,6.57941578778614E-4
1.368,6.579656193215393E-4
1.372,6.588070383239234E-4
1.3760000000000001,6.572444030337813E-4
1.3800000000000001,6.580137004073898E-4
1.3840000000000001,6.580858220361656E-4
1.3880000000000001,6.610668493588982E-4
1.3920000000000001,6.624131197627131E-4
1.3960000000000001,6.629420117070689E-4
1.4000000000000001,6.599129032984856E-4
1.4040000000000001,6.581819842078667E-4
1.408,6.601052276418877E-4
1.412,6.582541058366424E-4
1.416,6.553211595997603E-4
1.42,6.578454166069129E-4
1.424,6.572924841196319E-4
1.428,6.597205789550835E-4
1.432,6.590234032102509E-4
1.436,6.589753221244003E-4
1.44,6.584223896371193E-4
1.444,6.582060247507918E-4
1.448,6.59408051897055E-4
1.452,6.603456330711403E-4
1.456,6.582300652937171E-4
1.46,6.571001597762298E-4
1.464,6.571482408620804E-4
1.468,6.587108761522225E-4
1.472,6.593840113541298E-4
1.476,6.633507009367983E-4
1.48,6.62316957591012E-4
1.484,6.62220795419311E-4
1.488,6.601052276418877E-4
1.492,6.575569300918098E-4
1.496,6.583021869224929E-4
1.5,6.60778362843795E-4
1.504,6.617159440178805E-4
1.508,6.582541058366424E-4
1.512,6.59672497869233E-4
1.516,6.612591737023004E-4
1.52,6.602735114423645E-4
1.524,6.577973355210624E-4
1.528,6.545278216832266E-4
1.532,6.538546864813192E-4
1.536,6.554413623143866E-4
1.54,6.567155110894255E-4
1.544,6.575088490059593E-4
1.548,6.550807541705077E-4
1.552,6.558500515441161E-4
1.556,6.566193489177246E-4
1.56,6.541191324534972E-4
1.564,6.511621456736897E-4
1.568,6.519314430472982E-4
1.572,6.529411458501593E-4
1.576,6.524362944487287E-4
1.58,6.539748891959456E-4
1.584,6.541672135393476E-4
1.588,6.560423758875182E-4
1.592,6.555375244860877E-4
1.596,6.547682271124792E-4
1.6,6.552009568851339E-4
1.604,6.555134839431624E-4
1.608,6.53373875622814E-4
1.612,6.561625786021446E-4
1.616,6.574607679201087E-4
1.62,6.578934976927635E-4
1.624,6.549605514558814E-4
1.6280000000000001,6.534940783374403E-4
1.6320000000000001,6.54383578425675E-4
1.6360000000000001,6.555134839431624E-4
1.6400000000000001,6.539748891959456E-4
1.6440000000000001,6.546961054837034E-4
1.6480000000000001,6.587108761522225E-4
1.6520000000000001,6.600811870989624E-4
1.6560000000000001,6.585906734375961E-4
1.6600000000000001,6.553692406856108E-4
1.6640000000000001,6.552490379709845E-4
1.668,6.574126868342582E-4
1.672,6.630862549646205E-4
1.676,6.672212283477658E-4
1.68,6.677501202921217E-4
1.684,6.611870520735246E-4
1.688,6.441423071395127E-4
1.692,6.193084262977154E-4
1.696,5.979844647230067E-4
1.7,5.847381255711864E-4
1.704,5.723332054217504E-4
1.708,5.77501922150682E-4
1.712,5.935129237389076E-4
1.716,6.115673714757805E-4
1.72,6.348386170274357E-4
1.724,6.57677132806436E-4
1.728,6.65874957943951E-4
1.732,6.654662687142215E-4
1.736,6.647210118835384E-4
1.74,6.61042808815973E-4
1.744,6.603696736140656E-4
1.748,6.607302817579446E-4
1.752,6.600571465560372E-4
1.756,6.602494708994392E-4
1.76,6.575809706347351E-4
1.764,6.573646057484077E-4
1.768,6.567395516323508E-4
1.772,6.585185518088203E-4
1.776,6.568116732611266E-4
1.78,6.584464301800445E-4
1.784,6.613793764169266E-4
1.788,6.607062412150193E-4
1.792,6.578454166069129E-4
1.796,6.60682200672094E-4
1.8,6.579175382356887E-4
1.804,6.544797405973761E-4
1.808,6.55104794713433E-4
1.812,6.554894434002372E-4
1.816,6.564270245743224E-4
1.82,6.564029840313971E-4
1.824,6.585906734375961E-4
1.828,6.568357138040519E-4
1.832,6.550326730846572E-4
1.836,6.594561329829056E-4
1.84,6.589272410385498E-4
1.844,6.586387545234467E-4
1.848,6.57941578778614E-4
1.852,6.569318759757529E-4
1.856,6.560423758875182E-4
1.86,6.565231867460235E-4
1.864,6.587589572380729E-4
1.868,6.572684435767066E-4
1.872,6.589753221244003E-4
1.8760000000000001,6.590474437531761E-4
1.8800000000000001,6.577011733493614E-4
1.8840000000000001,6.595042140687561E-4
1.8880000000000001,6.602494708994392E-4
1.8920000000000001,6.595042140687561E-4
1.8960000000000001,6.614034169598519E-4
1.9000000000000001,6.632545387650973E-4
1.9040000000000001,6.627256468207416E-4
1.9080000000000001,6.619803899900583E-4
1.9120000000000001,6.63591106366051E-4
1.9160000000000001,6.625333224773394E-4
1.92,6.608985655584214E-4
1.924,6.615476602174035E-4
1.928,6.626535251919657E-4
1.932,6.634228225655741E-4
1.936,6.594320924399803E-4
1.94,6.59864822212635E-4
1.944,6.589032004956245E-4
1.948,6.579656193215393E-4
1.952,6.574607679201087E-4
1.956,6.566674300035751E-4
1.96,6.571001597762298E-4
1.964,6.541191324534972E-4
1.968,6.499360779845014E-4
1.972,6.508496186156613E-4
1.976,6.533979161657392E-4
1.98,6.553932812285361E-4
1.984,6.550807541705077E-4
1.988,6.51186186216615E-4
1.992,6.501524428708287E-4
1.996,6.522439701053266E-4
2.0,6.552009568851339E-4
2.004,6.566433894606498E-4
2.008,6.553932812285361E-4
2.012,6.541672135393476E-4
2.016,6.535902405091414E-4
2.02,6.566674300035751E-4
2.024,6.539748891959456E-4
2.028,6.570761192333045E-4
2.032,6.551288352563582E-4
2.036,6.540950919105719E-4
2.04,6.543595378827498E-4
2.044,6.56210659687995E-4
2.048,6.563789434884719E-4
2.052,6.53373875622814E-4
2.056,6.530853891077109E-4
2.06,6.554173217714614E-4
2.064,6.54383578425675E-4
2.068,6.558019704582655E-4
2.072,6.558500515441161E-4
2.076,6.562587407738455E-4
2.08,6.542393351681234E-4
2.084,6.546239838549277E-4
2.088,6.557298488294897E-4
2.092,6.552249974280592E-4
2.096,6.558500515441161E-4
2.1,6.519314430472982E-4
2.104,6.516910376180455E-4
2.108,6.501043617849782E-4
2.112,6.499841590703519E-4
2.116,6.514506321887929E-4
2.12,6.488302130099391E-4
2.124,6.503688077571561E-4
2.128,6.521718484765508E-4
2.132,6.532777134511129E-4
2.136,6.532536729081876E-4
2.14,6.527728620496824E-4
2.144,6.521237673907003E-4
2.148,6.512823483883161E-4
2.152,6.535902405091414E-4
2.156,6.513785105600171E-4
2.16,6.504168888430066E-4
2.164,6.51546794360494E-4
2.168,6.489744562674907E-4
2.172,6.483494021514338E-4
2.176,6.509217402444371E-4
2.18,6.51090024044914E-4
2.184,6.50080321242053E-4
2.188,6.499120374415761E-4
2.192,6.531575107364867E-4
2.196,6.53926808110095E-4
2.2,6.516910376180455E-4
2.204,6.502005239566792E-4
2.208,6.500081996132772E-4
2.212,6.499120374415761E-4
2.216,6.481089967221812E-4
2.22,6.470752533763948E-4
2.224,6.491186995250422E-4
2.228,6.469310101188433E-4
2.232,6.431085637937263E-4
2.236,6.471233344622454E-4
2.24,6.474358615202739E-4
2.244,6.464742398032633E-4
2.248,6.485176859519107E-4
2.2520000000000002,6.489744562674907E-4
2.2560000000000002,6.461857532881601E-4
2.2600000000000002,6.457770640584307E-4
2.2640000000000002,6.450318072277475E-4
2.2680000000000002,6.444067531116907E-4
2.2720000000000002,6.447914017984949E-4
2.2760000000000002,6.440701855107369E-4
2.2800000000000002,6.432047259654275E-4
2.2840000000000003,6.435893746522317E-4
2.2880000000000003,6.42435428591819E-4
2.2920000000000003,6.392139958398337E-4
2.2960000000000003,6.372426713199621E-4
2.3000000000000003,6.417382528469863E-4
2.3040000000000003,6.421469420767158E-4
2.308,6.395024823549368E-4
2.312,6.392620769256842E-4
2.316,6.369061037190084E-4
2.32,6.378196443501684E-4
2.324,6.400794553851431E-4
2.328,6.399352121275915E-4
2.332,6.3887742823888E-4
2.336,6.396467256124884E-4
2.34,6.425556313064452E-4
2.344,6.436374557380822E-4
2.348,6.409689554733778E-4
2.352,6.420267393620894E-4
2.356,6.442384693112138E-4
2.36,6.438297800814844E-4
2.364,6.413776447031074E-4
2.368,6.417382528469863E-4
2.372,6.432047259654275E-4
2.376,6.413536041601821E-4
2.38,6.409689554733778E-4
2.384,6.393101580115348E-4
2.388,6.412334014455558E-4
2.392,6.4024773918562E-4
2.396,6.390216714964315E-4
2.4,6.370743875194852E-4
2.404,6.362089279741758E-4
2.408,6.369301442619336E-4
2.412,6.374109551204389E-4
2.416,6.380119686935705E-4
2.42,6.362570090600263E-4
2.424,6.388533876959548E-4
2.428,6.413536041601821E-4
2.432,6.431085637937263E-4
2.436,6.426998745639968E-4
2.44,6.408006716729011E-4
2.444,6.400313742992926E-4
2.448,6.420988609908652E-4
2.452,6.442144287682885E-4
2.456,6.449116045131212E-4
2.46,6.433489692229791E-4
2.464,6.406564284153495E-4
2.468,6.442384693112138E-4
2.472,6.48181118350957E-4
2.476,6.489744562674907E-4
2.48,6.484696048660602E-4
2.484,6.456809018867296E-4
2.488,6.459453478589075E-4
2.492,6.44430793654616E-4
2.496,6.427479556498474E-4
2.5,6.452481721140749E-4
2.504,6.460655505735338E-4
2.508,6.425556313064452E-4
2.512,6.451520099423738E-4
2.516,6.457049424296549E-4
2.52,6.433489692229791E-4
2.524,6.415218879606589E-4
2.528,6.406083473294989E-4
2.532,6.403919824431715E-4
2.536,6.448154423414201E-4
2.54,6.482291994368075E-4
2.544,6.501284023279034E-4
2.548,6.519074025043729E-4
2.552,6.541672135393476E-4
2.556,6.467867668612917E-4
2.56,6.292612110687745E-4
2.564,6.051966276005857E-4
2.568,5.796415304710305E-4
2.572,5.62813150423346E-4
2.576,5.556731091745427E-4
2.58,5.684145969249324E-4
2.584,5.895221936133138E-4
2.588,6.061582493175962E-4
2.592,6.29213129982924E-4
2.596,6.509938618732129E-4
2.6,6.565953083747993E-4
2.604,6.592638086395034E-4
2.608,6.588791599526992E-4
2.612,6.55104794713433E-4
2.616,6.508736591585866E-4
2.62,6.488302130099391E-4
2.624,6.505130510147077E-4
2.628,6.497918347269497E-4
2.632,6.483494021514338E-4
2.636,6.50537091557633E-4
2.64,6.528930647643087E-4
2.644,6.530132674789351E-4
2.648,6.525324566204298E-4
2.652,6.481570778080317E-4
2.656,6.496475914693981E-4
2.66,6.515708349034193E-4
2.664,6.500081996132772E-4
2.668,6.475079831490497E-4
2.672,6.471473750051706E-4
2.676,6.452241315711496E-4
2.68,6.466906046895907E-4
2.684,6.51186186216615E-4
2.688,6.474599020631991E-4
2.692,6.446471585409433E-4
2.696,6.478445507500033E-4
2.7,6.481089967221812E-4
2.704,6.465944425178896E-4
2.708,6.465704019749643E-4
2.712,6.482291994368075E-4
2.716,6.48541726494836E-4
2.72,6.467146452325159E-4
2.724,6.489504157245654E-4
2.728,6.488061724670138E-4
2.732,6.494552671259961E-4
2.736,6.476281858636759E-4
2.74,6.485657670377613E-4
2.744,6.485898075806864E-4
2.748,6.529651863930845E-4
2.7520000000000002,6.524362944487287E-4
2.7560000000000002,6.513544700170919E-4
2.7600000000000002,6.531575107364867E-4
2.7640000000000002,6.536142810520667E-4
2.7680000000000002,6.511140645878393E-4
2.7720000000000002,6.514506321887929E-4
2.7760000000000002,6.546961054837034E-4
2.7800000000000002,6.550086325417319E-4
2.7840000000000003,6.529892269360098E-4
2.7880000000000003,6.514025511029424E-4
2.7920000000000003,6.529651863930845E-4
2.7960000000000003,6.532777134511129E-4
2.8000000000000003,6.528930647643087E-4
2.8040000000000003,6.529651863930845E-4
2.8080000000000003,6.539989297388708E-4
2.8120000000000003,6.521478079336255E-4
2.816,6.510179024161382E-4
2.82,6.513785105600171E-4
2.824,6.532055918223371E-4
2.828,6.525324566204298E-4
2.832,6.513304294741666E-4
2.836,6.499120374415761E-4
2.84,6.499120374415761E-4
2.844,6.520997268477751E-4
2.848,6.50729415901035E-4
2.852,6.493110238684445E-4
2.856,6.497197130981739E-4
2.86,6.473877804344233E-4
2.864,6.477003074924517E-4
2.868,6.467867668612917E-4
2.872,6.472916182627223E-4
2.876,6.45440496457477E-4
2.88,6.464742398032633E-4
2.884,6.437816989956338E-4
2.888,6.417622933899116E-4
2.892,6.435172530234559E-4
2.896,6.449596855989718E-4
2.9,6.449596855989718E-4
2.904,6.467146452325159E-4
2.908,6.439499827961107E-4
2.912,6.462578749169359E-4
2.916,6.452481721140749E-4
2.92,6.467146452325159E-4
2.924,6.486619292094622E-4
2.928,6.471233344622454E-4
2.932,6.464261587174128E-4
2.936,6.457530235155054E-4
2.94,6.458732262301317E-4
2.944,6.46546361432039E-4
2.948,6.473637398914981E-4
2.952,6.466425236037401E-4
2.956,6.459934289447581E-4
2.96,6.488782940957896E-4
2.964,6.50080321242053E-4
2.968,6.497437536410992E-4
2.972,6.495514292976972E-4
2.976,6.490706184391917E-4
2.98,6.445029152833918E-4
2.984,6.425556313064452E-4
2.988,6.441182665965875E-4
2.992,6.435172530234559E-4
2.996,6.455847397150285E-4
3.0,6.453443342857759E-4
3.004,6.461617127452349E-4
3.008,6.466184830608148E-4
3.012,6.446711990838685E-4
3.016,6.452722126570001E-4
3.02,6.456568613438043E-4
3.024,6.483013210655833E-4
3.028,6.478926318358539E-4
3.032,6.471954560910212E-4
3.036,6.477724291212275E-4
3.04,6.467627263183665E-4
3.044,6.443586720258402E-4
3.048,6.460655505735338E-4
3.052,6.465223208891139E-4
3.056,6.471714155480959E-4
3.06,6.482532399797328E-4
3.064,6.483253616085086E-4
3.068,6.468348479471423E-4
3.072,6.458251451442812E-4
3.076,6.464982803461886E-4
3.08,6.46810807404217E-4
3.084,6.484455643231349E-4
3.088,6.456328208008791E-4
3.092,6.445990774550927E-4
3.096,6.451520099423738E-4
3.1,6.443105909399896E-4
3.104,6.45897266773057E-4
3.108,6.473637398914981E-4
3.112,6.489263751816402E-4
3.116,6.474839426061244E-4
3.12,6.487821319240886E-4
3.124,6.508736591585866E-4
3.128,6.496956725552487E-4
3.132,6.468829290329928E-4
3.136,6.484215237802096E-4
3.14,6.486138481236117E-4
3.144,6.484215237802096E-4
3.148,6.467627263183665E-4
3.152,6.452722126570001E-4
3.156,6.460655505735338E-4
3.16,6.449356450560465E-4
3.164,6.477964696641528E-4
3.168,6.479887940075549E-4
3.172,6.474599020631991E-4
3.176,6.479407129217044E-4
3.18,6.484936454089855E-4
3.184,6.482532399797328E-4
3.188,6.466906046895907E-4
3.192,6.458251451442812E-4
3.196,6.458732262301317E-4
3.2,6.464742398032633E-4
3.204,6.448154423414201E-4
3.208,6.47003131747619E-4
3.212,6.475079831490497E-4
3.216,6.451520099423738E-4
3.22,6.44623117998018E-4
3.224,6.450318072277475E-4
3.228,6.458491856872065E-4
3.232,6.449356450560465E-4
3.236,6.450318072277475E-4
3.24,6.447192801697191E-4
3.244,6.42435428591819E-4
3.248,6.432047259654275E-4
3.2520000000000002,6.462338343740107E-4
3.2560000000000002,6.458011046013559E-4
3.2600000000000002,6.437816989956338E-4
3.2640000000000002,6.439019017102602E-4
3.2680000000000002,6.452000910282243E-4
3.2720000000000002,6.464261587174128E-4
3.2760000000000002,6.441182665965875E-4
3.2800000000000002,6.44166347682438E-4
3.2840000000000003,6.436374557380822E-4
3.2880000000000003,6.462819154598612E-4
3.2920000000000003,6.471954560910212E-4
3.2960000000000003,6.442625098541391E-4
3.3000000000000003,6.449596855989718E-4
3.3040000000000003,6.437816989956338E-4
3.3080000000000003,6.402717797285453E-4
3.3120000000000003,6.411131987309295E-4
3.3160000000000003,6.411853203597053E-4
3.3200000000000003,6.412093609026305E-4
3.3240000000000003,6.430604827078758E-4
3.3280000000000003,6.444548341975412E-4
3.332,6.446952396267938E-4
3.336,6.448394828843454E-4
3.34,6.45536658629178E-4
3.344,6.43156644879577E-4
3.348,6.43156644879577E-4
3.352,6.444067531116907E-4
3.356,6.473156588056475E-4
3.36,6.48734050838238E-4
3.364,6.474358615202739E-4
3.368,6.479166723787791E-4
3.372,6.483253616085086E-4
3.376,6.48181118350957E-4
3.38,6.442384693112138E-4
3.384,6.426037123922958E-4
3.388,6.458491856872065E-4
3.392,6.463059560027865E-4
3.396,6.462819154598612E-4
3.4,6.451039288565233E-4
3.404,6.45536658629178E-4
3.408,6.483013210655833E-4
3.412,6.479166723787791E-4
3.416,6.489744562674907E-4
3.42,6.50272645585455E-4
3.424,6.484215237802096E-4
3.428,6.481570778080317E-4
3.432,6.464021181744875E-4
3.436,6.397428877841895E-4
3.44,6.446471585409433E-4
3.444,6.497197130981739E-4
3.448,6.494312265830708E-4
3.452,6.514987132746435E-4
3.456,6.52917105307234E-4
3.46,6.514506321887929E-4
3.464,6.424113880488936E-4
3.468,6.200296425854734E-4
3.472,5.932484777667297E-4
3.476,5.743766515703977E-4
3.48,5.592070689845565E-4
3.484,5.599282852723144E-4
3.488,5.800742602436852E-4
3.492,5.974796133215762E-4
3.496,6.198373182420712E-4
3.5,6.417622933899116E-4
3.504,6.545518622261519E-4
3.508,6.587349166951476E-4
3.512,6.570761192333045E-4
3.516,6.549845919988066E-4
3.52,6.555375244860877E-4
3.524,6.532296323652624E-4
3.528,6.521478079336255E-4
3.532,6.524362944487287E-4
3.536,6.558981326299666E-4
3.54,6.558260110011908E-4
3.544,6.531334701935614E-4
3.548,6.525324566204298E-4
3.552,6.53470037794515E-4
3.556,6.549365109129561E-4
3.56,6.519074025043729E-4
3.564,6.493110238684445E-4
3.568,6.506572942722592E-4
3.572,6.514987132746435E-4
3.576,6.514265916458677E-4
3.58,6.514746727317182E-4
3.584,6.514506321887929E-4
3.588,6.52460334991654E-4
3.592,6.562587407738455E-4
3.596,6.532055918223371E-4
3.6,6.53830645938394E-4
3.604,6.557779299153403E-4
3.608,6.521237673907003E-4
3.612,6.512823483883161E-4
3.616,6.550807541705077E-4
3.62,6.55561565029013E-4
3.624,6.535902405091414E-4
3.628,6.528449836784582E-4
3.632,6.550807541705077E-4
3.636,6.532296323652624E-4
3.64,6.545278216832266E-4
3.644,6.55657727200714E-4
3.648,6.577732949781371E-4
3.652,6.604177546999161E-4
3.656,6.591676464678025E-4
3.66,6.607062412150193E-4
3.664,6.616919034749552E-4
3.668,6.608264439296456E-4
3.672,6.616197818461794E-4
3.676,6.584704707229698E-4
3.68,6.560904569733688E-4
3.684,6.585185518088203E-4
3.688,6.600090654701866E-4
3.692,6.615236196744782E-4
3.696,6.596965384121583E-4
3.7,6.596244167833825E-4
3.704,6.572684435767066E-4
3.708,6.566433894606498E-4
3.712,6.536623621379172E-4
3.716,6.532536729081876E-4
3.72,6.528209431355329E-4
3.724,6.512102267595403E-4
3.728,6.513304294741666E-4
3.732,6.522439701053266E-4
3.736,6.536142810520667E-4
3.74,6.527247809638318E-4
3.744,6.508736591585866E-4
3.748,6.49623550926473E-4
3.7520000000000002,6.487100102953128E-4
3.7560000000000002,6.499360779845014E-4
3.7600000000000002,6.504409293859319E-4
3.7640000000000002,6.521237673907003E-4
3.7680000000000002,6.50729415901035E-4
3.7720000000000002,6.477483885783022E-4
3.7760000000000002,6.489744562674907E-4
3.7800000000000002,6.518112403326719E-4
3.7840000000000003,6.519074025043729E-4
3.7880000000000003,6.491427400679675E-4
3.7920000000000003,6.448394828843454E-4
3.7960000000000003,6.434210908517549E-4
3.8000000000000003,6.449596855989718E-4
3.8040000000000003,6.500081996132772E-4
3.8080000000000003,6.470271722905444E-4
3.8120000000000003,6.431806854225022E-4
3.8160000000000003,6.410651176450789E-4
3.8200000000000003,6.438297800814844E-4
3.8240000000000003,6.426998745639968E-4
3.8280000000000003,6.45440496457477E-4
3.8320000000000003,6.446711990838685E-4
3.8360000000000003,6.436614962810075E-4
3.84,6.429643205361747E-4
3.844,6.42435428591819E-4
3.848,6.431806854225022E-4
3.852,6.449116045131212E-4
3.856,6.468588884900675E-4
3.86,6.493350644113698E-4
3.864,6.471473750051706E-4
3.868,6.452241315711496E-4
3.872,6.460655505735338E-4
3.876,6.507053753581097E-4
3.88,6.523401322770277E-4
3.884,6.516910376180455E-4
3.888,6.515227538175687E-4
3.892,6.516669970751202E-4
3.896,6.517871997897466E-4
3.9,6.509698213302877E-4
3.904,6.486859697523875E-4
3.908,6.495273887547719E-4
3.912,6.487100102953128E-4
3.916,6.480128345504802E-4
3.92,6.497197130981739E-4
3.924,6.506572942722592E-4
3.928,6.513063889312413E-4
3.932,6.494071860401456E-4
3.936,6.524362944487287E-4
3.94,6.514506321887929E-4
3.944,6.47267577719797E-4
3.948,6.504168888430066E-4
3.952,6.451039288565233E-4
3.956,6.465223208891139E-4
3.96,6.48541726494836E-4
3.964,6.459934289447581E-4
3.968,6.46354037088637E-4
3.972,6.488542535528644E-4
3.976,6.47003131747619E-4
3.98,6.46546361432039E-4
3.984,6.477003074924517E-4
3.988,6.512102267595403E-4
3.992,6.488302130099391E-4
3.996,6.478685912929286E-4
4.0,6.46354037088637E-4
4.0040000000000004,6.479166723787791E-4
4.008,6.481089967221812E-4
4.0120000000000005,6.48637888666537E-4
4.016,6.458011046013559E-4
4.0200000000000005,6.455847397150285E-4
4.024,6.483494021514338E-4
4.0280000000000005,6.445269558263169E-4
4.032,6.44983726141897E-4
4.0360000000000005,6.44983726141897E-4
4.04,6.427479556498474E-4
4.0440000000000005,6.396226850695631E-4
4.048,6.377956038072432E-4
4.0520000000000005,6.404641040719473E-4
4.056,6.408727933016769E-4
4.0600000000000005,6.425556313064452E-4
4.064,6.44166347682438E-4
4.0680000000000005,6.431806854225022E-4
4.072,6.432047259654275E-4
4.0760000000000005,6.415940095894347E-4
4.08,6.387331849813284E-4
4.0840000000000005,6.403439013573211E-4
4.088,6.433008881371286E-4
4.0920000000000005,6.434691719376053E-4
4.096,6.426758340210716E-4
4.1,6.430604827078758E-4
4.104,6.417142123040611E-4
4.108,6.409449149304526E-4
4.112,6.399832932134421E-4
4.116,6.397428877841895E-4
4.12,6.405843067865737E-4
4.124,6.403919824431715E-4
4.128,6.378196443501684E-4
4.132,6.351030629996137E-4
4.136,6.338048736816495E-4
4.14,6.380119686935705E-4
4.144,6.404160229860968E-4
4.148,6.395505634407873E-4
4.152,6.374590362062894E-4
4.156,6.359444820019978E-4
4.16,6.379158065218694E-4
4.164,6.388533876959548E-4
4.168,6.402958202714705E-4
4.172,6.418824961045379E-4
4.176,6.417382528469863E-4
4.18,6.431326043366517E-4
4.184,6.440701855107369E-4
4.188,6.425796718493705E-4
4.192,6.386610633525526E-4
4.196,6.378196443501684E-4
4.2,6.390697525822821E-4
4.204,6.398630904988158E-4
4.208,6.438778611673349E-4
4.212,6.440701855107369E-4
4.216,6.465223208891139E-4
4.22,6.451039288565233E-4
4.224,6.440942260536622E-4
4.228,6.39887131041741E-4
4.232,6.381802524940474E-4
4.236,6.421469420767158E-4
4.24,6.414738068748084E-4
4.244,6.401034959280684E-4
4.248,6.422911853342674E-4
4.252,6.432287665083528E-4
4.256,6.418824961045379E-4
4.26,6.407285500441253E-4
4.264,6.413055230743316E-4
4.268,6.414497663318831E-4
4.272,6.4116127981678E-4
4.276,6.416420906752853E-4
4.28,6.428681583644737E-4
4.284,6.430364421649505E-4
4.288,6.413055230743316E-4
4.292,6.415459285035842E-4
4.296,6.398150094129653E-4
4.3,6.382283335798979E-4
4.304,6.397669283271147E-4
4.308,6.405121851577979E-4
4.312,6.390457120393568E-4
4.316,6.400073337563673E-4
4.32,6.3887742823888E-4
4.324,6.379879281506452E-4
4.328,6.391899552969084E-4
4.332,6.405362257007231E-4
4.336,6.43156644879577E-4
4.34,6.46354037088637E-4
4.344,6.482051588938822E-4
4.348,6.48637888666537E-4
4.352,6.372907524058126E-4
4.356,6.150772907428691E-4
4.36,5.90171288272296E-4
4.364,5.679578266093524E-4
4.368,5.553125010306638E-4
4.372,5.559135146037953E-4
4.376,5.768768680346252E-4
4.38,5.913733154185592E-4
4.384,6.146686015131396E-4
4.388,6.409449149304526E-4
4.392,6.54191254082273E-4
4.396,6.50633253729334E-4
4.4,6.512823483883161E-4
4.404,6.504409293859319E-4
4.408,6.464501992603381E-4
4.412,6.459453478589075E-4
4.416,6.467146452325159E-4
4.42,6.504890104717824E-4
4.424,6.484936454089855E-4
4.428,6.46810807404217E-4
4.432,6.476762669495264E-4
4.436,6.473396993485728E-4
4.44,6.484455643231349E-4
4.444,6.526045782492056E-4
4.448,6.537104432237676E-4
4.452,6.522199295624013E-4
4.456,6.512823483883161E-4
4.46,6.499120374415761E-4
4.464,6.513544700170919E-4
4.468,6.518112403326719E-4
4.472,6.514746727317182E-4
4.476,6.525084160775045E-4
4.48,6.502245644996045E-4
4.484,6.48541726494836E-4
4.488,6.497918347269497E-4
4.492,6.498399158128003E-4
4.496,6.491667806108928E-4
4.5,6.488782940957896E-4
4.5040000000000004,6.48998496810416E-4
4.508,6.489504157245654E-4
4.5120000000000005,6.495273887547719E-4
4.516,6.504168888430066E-4
4.5200000000000005,6.479407129217044E-4
4.524,6.462338343740107E-4
4.5280000000000005,6.488782940957896E-4
4.532,6.519554835902235E-4
4.5360000000000005,6.515708349034193E-4
4.54,6.526045782492056E-4
4.5440000000000005,6.522199295624013E-4
4.548,6.525324566204298E-4
4.5520000000000005,6.507053753581097E-4
4.556,6.537104432237676E-4
4.5600000000000005,6.546239838549277E-4
4.564,6.550326730846572E-4
4.5680000000000005,6.557779299153403E-4
4.572,6.536383215949919E-4
4.5760000000000005,6.536383215949919E-4
4.58,6.502245644996045E-4
4.5840000000000005,6.501524428708287E-4
4.588,6.467146452325159E-4
4.5920000000000005,6.520756863048498E-4
4.596,6.514025511029424E-4
4.6000000000000005,6.500322401562024E-4
4.604,6.50729415901035E-4
4.6080000000000005,6.507534564439603E-4
4.612,6.492629427825938E-4
4.616,6.473877804344233E-4
4.62,6.450558477706727E-4
4.624,6.477724291212275E-4
4.628,6.474839426061244E-4
4.632,6.47003131747619E-4
4.636,6.466665641466654E-4
4.64,6.445029152833918E-4
4.644,6.427479556498474E-4
4.648,6.407525905870505E-4
4.652,6.428200772786232E-4
4.656,6.417863339328369E-4
4.66,6.429162394503243E-4
4.664,6.433730097659044E-4
4.668,6.444788747404665E-4
4.672,6.445990774550927E-4
4.676,6.435893746522317E-4
4.68,6.458491856872065E-4
4.684,6.469550506617686E-4
4.688,6.45079888313598E-4
4.692,6.426758340210716E-4
4.696,6.437816989956338E-4
4.7,6.435412935663811E-4
4.704,6.44430793654616E-4
4.708,6.455606991721033E-4
4.712,6.453924153716265E-4
4.716,6.464261587174128E-4
4.72,6.469069695759181E-4
4.724,6.473637398914981E-4
4.728,6.477964696641528E-4
4.732,6.473877804344233E-4
4.736,6.472435371768717E-4
4.74,6.453443342857759E-4
4.744,6.454885775433276E-4
4.748,6.482291994368075E-4
4.752,6.494793076689214E-4
4.756,6.477003074924517E-4
4.76,6.44983726141897E-4
4.764,6.471233344622454E-4
4.768,6.491186995250422E-4
4.772,6.491667806108928E-4
4.776,6.50729415901035E-4
4.78,6.490706184391917E-4
4.784,6.468588884900675E-4
4.788,6.450558477706727E-4
4.792,6.447673612555696E-4
4.796,6.448394828843454E-4
4.8,6.443827125687654E-4
4.804,6.442384693112138E-4
4.808,6.45079888313598E-4
4.812,6.429162394503243E-4
4.816,6.453924153716265E-4
4.82,6.466665641466654E-4
4.824,6.447192801697191E-4
4.828,6.445990774550927E-4
4.832,6.450558477706727E-4
4.836,6.4161805013236E-4
4.84,6.420507799050147E-4
4.844,6.422431042484169E-4
4.848,6.427479556498474E-4
4.852,6.422671447913421E-4
4.856,6.419546177333136E-4
4.86,6.430604827078758E-4
4.864,6.471954560910212E-4
4.868,6.433970503088296E-4
4.872,6.4207482044794E-4
4.876,6.421229015337905E-4
4.88,6.434451313946802E-4
4.884,6.419786582762389E-4
4.888,6.40896833844602E-4
4.892,6.438538206244096E-4
4.896,6.462578749169359E-4
4.9,6.426998745639968E-4
4.904,6.409449149304526E-4
4.908,6.407045095012E-4
4.912,6.419786582762389E-4
4.916,6.38324495751599E-4
4.92,6.39430360726161E-4
4.924,6.402236986426947E-4
4.928,6.421229015337905E-4
4.932,6.438538206244096E-4
4.936,6.421229015337905E-4
4.94,6.399352121275915E-4
4.944,6.38781266067179E-4
4.948,6.397669283271147E-4
4.952,6.392139958398337E-4
4.956,6.402717797285453E-4
4.96,6.396707661554137E-4
4.964,6.4024773918562E-4
4.968,6.400554148422179E-4
4.972,6.408247122158263E-4
4.976,6.412334014455558E-4
4.98,6.390216714964315E-4
4.984,6.395505634407873E-4
4.988,6.365454955751294E-4
4.992,6.389976309535063E-4
4.996,6.412574419884811E-4
5.0,6.403679419002463E-4
5.0040000000000004,6.366176172039052E-4
5.008,6.416901717611358E-4
5.0120000000000005,6.408487527587516E-4
5.016,6.383004552086737E-4
5.0200000000000005,6.376273200067663E-4
5.024,6.387331849813284E-4
5.0280000000000005,6.413776447031074E-4
5.032,6.411853203597053E-4
5.0360000000000005,6.399352121275915E-4
5.04,6.389495498676557E-4
5.0440000000000005,6.405121851577979E-4
5.048,6.406083473294989E-4
5.0520000000000005,6.401756175568442E-4
5.056,6.38781266067179E-4
5.0600000000000005,6.38781266067179E-4
5.064,6.39430360726161E-4
5.0680000000000005,6.358483198302969E-4
5.072,6.341414412826031E-4
5.0760000000000005,6.339731574821263E-4
5.08,6.358964009161473E-4
5.0840000000000005,6.367618604614568E-4
5.088,6.357281171156705E-4
5.0920000000000005,6.342376034543042E-4
5.096,6.371705496911863E-4
5.1000000000000005,6.399352121275915E-4
5.104,6.382523741228232E-4
5.1080000000000005,6.379879281506452E-4
5.112,6.4024773918562E-4
5.1160000000000005,6.366176172039052E-4
5.12,6.38060049779421E-4
5.124,6.422190637054916E-4
5.128,6.427719961927726E-4
5.132,6.406323878724242E-4
5.136,6.399832932134421E-4
5.14,6.407525905870505E-4
5.144,6.451279693994485E-4
5.148,6.4207482044794E-4
5.152,6.419305771903884E-4
5.156,6.411372392738547E-4
5.16,6.4207482044794E-4
5.164,6.410651176450789E-4
5.168,6.418584555616127E-4
5.172,6.38781266067179E-4
5.176,6.419786582762389E-4
5.18,6.382523741228232E-4
5.184,6.40896833844602E-4
5.188,6.420267393620894E-4
5.192,6.425796718493705E-4
5.196,6.466184830608148E-4
5.2,6.493110238684445E-4
5.204,6.508496186156613E-4
5.208,6.475560642349001E-4
5.212,6.38781266067179E-4
5.216,6.188276154392102E-4
5.22,5.93561004824758E-4
5.224,5.712754215330388E-4
5.228,5.55697149717468E-4
5.232,5.544710820282795E-4
5.236,5.738237190831167E-4
5.24,5.900991666435202E-4
5.244,6.074564386355605E-4
5.248,6.309200085306178E-4
5.252,6.439019017102602E-4
5.256,6.481089967221812E-4
5.26,6.463059560027865E-4
5.264,6.424113880488936E-4
5.268,6.379398470647947E-4
5.272,6.393582390973853E-4
5.276,6.408727933016769E-4
5.28,6.440221044248864E-4
5.284,6.44430793654616E-4
5.288,6.413295636172569E-4
5.292,6.401756175568442E-4
5.296,6.420988609908652E-4
5.3,6.391659147539831E-4
5.304,6.394784418120115E-4
5.308,6.415459285035842E-4
5.312,6.421469420767158E-4
5.316,6.448154423414201E-4
5.32,6.456568613438043E-4
5.324,6.427719961927726E-4
5.328,6.433489692229791E-4
5.332,6.447673612555696E-4
5.336,6.460174694876832E-4
5.34,6.442384693112138E-4
5.344,6.441903882253633E-4
5.348,6.455126180862527E-4
5.352,6.499601185274266E-4
5.356,6.51642956532195E-4
5.36,6.486138481236117E-4
5.364,6.452241315711496E-4
5.368,6.471473750051706E-4
5.372,6.475801047778254E-4
5.376,6.499841590703519E-4
5.38,6.52003564676074E-4
5.384,6.519314430472982E-4
5.388,6.525084160775045E-4
5.392,6.533498350798887E-4
5.396,6.536864026808424E-4
5.4,6.540229702817961E-4
5.404,6.534459972515898E-4
5.408,6.530373080218603E-4
5.412,6.507534564439603E-4
5.416,6.537104432237676E-4
5.42,6.531094296506361E-4
5.424,6.514746727317182E-4
5.428,6.535421594232909E-4
5.432,6.545278216832266E-4
5.436,6.541672135393476E-4
5.44,6.533257945369634E-4
5.444,6.515948754463445E-4
5.448,6.534940783374403E-4
5.452,6.540950919105719E-4
5.456,6.525324566204298E-4
5.46,6.523641728199529E-4
5.464,6.512823483883161E-4
5.468,6.479887940075549E-4
5.472,6.484455643231349E-4
5.476,6.500081996132772E-4
5.48,6.50729415901035E-4
5.484,6.496956725552487E-4
5.488,6.473156588056475E-4
5.492,6.458732262301317E-4
5.496,6.444788747404665E-4
5.5,6.428200772786232E-4
5.5040000000000004,6.433008881371286E-4
5.508,6.423392664201179E-4
5.5120000000000005,6.451520099423738E-4
5.516,6.459934289447581E-4
5.5200000000000005,6.43252807051278E-4
5.524,6.414978474177336E-4
5.5280000000000005,6.409449149304526E-4
5.532,6.426998745639968E-4
5.5360000000000005,6.415459285035842E-4
5.54,6.405121851577979E-4
5.5440000000000005,6.396707661554137E-4
5.548,6.377475227213926E-4
5.5520000000000005,6.403919824431715E-4
5.556,6.403198608143958E-4
5.5600000000000005,6.375311578350652E-4
5.564,6.402958202714705E-4
5.5680000000000005,6.430364421649505E-4
5.572,6.423873475059685E-4
5.5760000000000005,6.410891581880042E-4
5.58,6.407766311299758E-4
5.5840000000000005,6.405121851577979E-4
5.588,6.418584555616127E-4
5.5920000000000005,6.418344150186874E-4
5.596,6.413055230743316E-4
5.6000000000000005,6.405121851577979E-4
5.604,6.429883610791E-4
5.6080000000000005,6.412334014455558E-4
5.612,6.408247122158263E-4
5.6160000000000005,6.426758340210716E-4
5.62,6.410891581880042E-4
5.6240000000000006,6.4116127981678E-4
5.628,6.402958202714705E-4
5.632,6.402958202714705E-4
5.636,6.421950231625663E-4
5.64,6.411853203597053E-4
5.644,6.393822796403106E-4
5.648,6.398150094129653E-4
5.652,6.415459285035842E-4
5.656,6.435172530234559E-4
5.66,6.410651176450789E-4
5.664,6.378196443501684E-4
5.668,6.400073337563673E-4
5.672,6.408727933016769E-4
5.676,6.3887742823888E-4
5.68,6.413536041601821E-4
5.684,6.419546177333136E-4
5.688,6.4024773918562E-4
5.692,6.382283335798979E-4
5.696,6.383725768374494E-4
5.7,6.389976309535063E-4
5.704,6.380119686935705E-4
5.708,6.383004552086737E-4
5.712,6.3750711729214E-4
5.716,6.352953873430158E-4
5.72,6.379879281506452E-4
5.724,6.417142123040611E-4
5.728,6.415459285035842E-4
5.732,6.391178336681326E-4
5.736,6.373388334916632E-4
5.74,6.377475227213926E-4
5.744,6.369782253477842E-4
5.748,6.390937931252073E-4
5.752,6.403679419002463E-4
5.756,6.412814825314063E-4
5.76,6.393822796403106E-4
5.764,6.378917659789441E-4
5.768,6.403679419002463E-4
5.772,6.415940095894347E-4
5.776,6.431806854225022E-4
5.78,6.427960367356979E-4
5.784,6.39887131041741E-4
5.788,6.405362257007231E-4
5.792,6.382764146657484E-4
5.796,6.414738068748084E-4
5.8,6.416420906752853E-4
5.804,6.406804689582747E-4
5.808,6.39430360726161E-4
5.812,6.383725768374494E-4
5.816,6.36329130688802E-4
5.82,6.373388334916632E-4
5.824,6.390216714964315E-4
5.828,6.398150094129653E-4
5.832,6.396948066983389E-4
5.836,6.38060049779421E-4
5.84,6.388293471530295E-4
5.844,6.394544012690863E-4
5.848,6.385408606379263E-4
5.852,6.405602662436484E-4
5.856,6.404881446148726E-4
5.86,6.381562119511221E-4
5.864,6.376273200067663E-4
5.868,6.389014687818052E-4
5.872,6.407766311299758E-4
5.876,6.388293471530295E-4
5.88,6.401515770139189E-4
5.884,6.401515770139189E-4
5.888,6.37146509148261E-4
5.892,6.378917659789441E-4
5.896,6.399111715846663E-4
5.9,6.3979096887004E-4
5.904,6.397669283271147E-4
5.908,6.373869145775136E-4
5.912,6.346462926840337E-4
5.916,6.343337656260052E-4
5.92,6.316171842754505E-4
5.924,6.327951708787883E-4
5.928,6.395505634407873E-4
5.932,6.389495498676557E-4
5.936,6.394784418120115E-4
5.94,6.390937931252073E-4
5.944,6.370984280624105E-4
5.948,6.393822796403106E-4
5.952,6.413536041601821E-4
5.956,6.419786582762389E-4
5.96,6.412334014455558E-4
5.964,6.405121851577979E-4
5.968,6.386129822667021E-4
5.972,6.401275364709937E-4
5.976,6.408006716729011E-4
5.98,6.384687390091505E-4
5.984,6.380119686935705E-4
5.988,6.402717797285453E-4
5.992,6.414016852460327E-4
5.996,6.428441178215485E-4
6.0,6.469550506617686E-4
6.0040000000000004,6.445029152833918E-4
6.008,6.450558477706727E-4
6.0120000000000005,6.440942260536622E-4
6.016,6.43252807051278E-4
6.0200000000000005,6.443586720258402E-4
6.024,6.418584555616127E-4
6.0280000000000005,6.407766311299758E-4
6.032,6.412334014455558E-4
6.0360000000000005,6.409929960163031E-4
6.04,6.447914017984949E-4
6.0440000000000005,6.432287665083528E-4
6.048,6.438297800814844E-4
6.0520000000000005,6.435412935663811E-4
6.056,6.465704019749643E-4
6.0600000000000005,6.506092131864088E-4
6.064,6.499841590703519E-4
6.0680000000000005,6.455126180862527E-4
6.072,6.323624411061336E-4
6.0760000000000005,6.072881548350837E-4
6.08,5.860363148891506E-4
6.0840000000000005,5.69111772669765E-4
6.088,5.566828119774038E-4
6.0920000000000005,5.647123533144418E-4
6.096,5.844736795990085E-4
6.1000000000000005,6.027444922222087E-4
6.104,6.259436161450882E-4
6.1080000000000005,6.452481721140749E-4
6.112,6.553692406856108E-4
6.1160000000000005,6.53926808110095E-4
6.12,6.52917105307234E-4
6.1240000000000006,6.493831454972203E-4
6.128,6.480849561792559E-4
6.132000000000001,6.499120374415761E-4
6.136,6.503928483000813E-4
6.140000000000001,6.465944425178896E-4
6.144,6.462578749169359E-4
6.148,6.474839426061244E-4
6.152,6.480368750934055E-4
6.156,6.474839426061244E-4
6.16,6.480849561792559E-4
6.164,6.483974832372844E-4
6.168,6.474118209773486E-4
6.172,6.468588884900675E-4
6.176,6.479887940075549E-4
6.18,6.461136316593843E-4
6.184,6.483253616085086E-4
6.188,6.460415100306085E-4
6.192,6.442384693112138E-4
6.196,6.430364421649505E-4
6.2,6.452241315711496E-4
6.204,6.463059560027865E-4
6.208,6.484936454089855E-4
6.212,6.472435371768717E-4
6.216,6.455126180862527E-4
6.22,6.464021181744875E-4
6.224,6.467867668612917E-4
6.228,6.51186186216615E-4
6.232,6.52917105307234E-4
6.236,6.50729415901035E-4
6.24,6.485176859519107E-4
6.244,6.479887940075549E-4
6.248,6.512102267595403E-4
6.252,6.508015375298108E-4
6.256,6.48541726494836E-4
6.26,6.482051588938822E-4
6.264,6.503207266713055E-4
6.268,6.526045782492056E-4
6.272,6.552490379709845E-4
6.276,6.52460334991654E-4
6.28,6.509217402444371E-4
6.284,6.508015375298108E-4
6.288,6.519795241331487E-4
6.292,6.526286187921309E-4
6.296,6.496716320123234E-4
6.3,6.495514292976972E-4
6.304,6.523641728199529E-4
6.308,6.538546864813192E-4
6.312,6.544797405973761E-4
6.316,6.537344837666929E-4
6.32,6.498879968986508E-4
6.324,6.477964696641528E-4
6.328,6.486859697523875E-4
6.332,6.486619292094622E-4
6.336,6.463059560027865E-4
6.34,6.430364421649505E-4
6.344,6.417863339328369E-4
6.348,6.4116127981678E-4
6.352,6.413536041601821E-4
6.356,6.407766311299758E-4
6.36,6.427719961927726E-4
6.364,6.466665641466654E-4
6.368,6.458732262301317E-4
6.372,6.453443342857759E-4
6.376,6.441423071395127E-4
6.38,6.435893746522317E-4
6.384,6.429402799932494E-4
6.388,6.428200772786232E-4
6.392,6.456087802579538E-4
6.396,6.407045095012E-4
6.4,6.434691719376053E-4
6.404,6.459453478589075E-4
6.408,6.427239151069221E-4
6.412,6.414257257889578E-4
6.416,6.404400635290221E-4
6.42,6.434210908517549E-4
6.424,6.443586720258402E-4
6.428,6.449596855989718E-4
6.432,6.426998745639968E-4
6.436,6.4161805013236E-4
6.44,6.437576584527086E-4
6.444,6.420267393620894E-4
6.448,6.409689554733778E-4
6.452,6.435412935663811E-4
6.456,6.456809018867296E-4
6.46,6.438057395385591E-4
6.464,6.406564284153495E-4
6.468,6.390697525822821E-4
6.472,6.416661312182105E-4
6.476,6.431085637937263E-4
6.48,6.437816989956338E-4
6.484,6.43156644879577E-4
6.488,6.452962531999254E-4
6.492,6.446711990838685E-4
6.496,6.409449149304526E-4
6.5,6.405121851577979E-4
6.5040000000000004,6.408247122158263E-4
6.508,6.388293471530295E-4
6.5120000000000005,6.419546177333136E-4
6.516,6.445029152833918E-4
6.5200000000000005,6.447433207126443E-4
6.524,6.44430793654616E-4
6.5280000000000005,6.423152258771927E-4
6.532,6.426517934781463E-4
6.5360000000000005,6.472194966339464E-4
6.54,6.448635234272707E-4
6.5440000000000005,6.418824961045379E-4
6.548,6.414738068748084E-4
6.5520000000000005,6.419546177333136E-4
6.556,6.414257257889578E-4
6.5600000000000005,6.432287665083528E-4
6.564,6.442625098541391E-4
6.5680000000000005,6.420267393620894E-4
6.572,6.410891581880042E-4
6.5760000000000005,6.410651176450789E-4
6.58,6.408727933016769E-4
6.5840000000000005,6.403439013573211E-4
6.588,6.396948066983389E-4
6.5920000000000005,6.405602662436484E-4
6.596,6.384206579232999E-4
6.6000000000000005,6.3933419855446E-4
6.604,6.388533876959548E-4
6.6080000000000005,6.413055230743316E-4
6.612,6.417142123040611E-4
6.6160000000000005,6.408727933016769E-4
6.62,6.450558477706727E-4
6.6240000000000006,6.405362257007231E-4
6.628,6.387572255242537E-4
6.632000000000001,6.386851038954779E-4
6.636,6.390216714964315E-4
6.640000000000001,6.364974144892789E-4
6.644,6.367859010043821E-4
6.648000000000001,6.359444820019978E-4
6.652,6.328432519646389E-4
6.656000000000001,6.341414412826031E-4
6.66,6.335885087953221E-4
6.664,6.313527383032725E-4
6.668,6.335644682523968E-4
6.672,6.339731574821263E-4
6.676,6.330115357651157E-4
6.68,6.34862657570361E-4
6.684,6.344539683406315E-4
6.688,6.337087115099484E-4
6.692,6.3430972508308E-4
6.696,6.366176172039052E-4
6.7,6.353675089717915E-4
6.704,6.345741710552579E-4
6.708,6.338048736816495E-4
6.712,6.34862657570361E-4
6.716,6.338048736816495E-4
6.72,6.348866981132862E-4
6.724,6.348866981132862E-4
6.728,6.325066843636852E-4
6.732,6.336125493382473E-4
6.736,6.365214550322042E-4
6.74,6.372426713199621E-4
6.744,6.412574419884811E-4
6.748,6.401756175568442E-4
6.752,6.397188472412642E-4
6.756,6.405602662436484E-4
6.76,6.383485362945242E-4
6.764,6.393101580115348E-4
6.768,6.368339820902327E-4
6.772,6.341174007396779E-4
6.776,6.343337656260052E-4
6.78,6.345501305123326E-4
6.784,6.361368063454E-4
6.788,6.367137793756063E-4
6.792,6.355838738581189E-4
6.796,6.352713468000905E-4
6.8,6.370263064336347E-4
6.804,6.3705034697656E-4
6.808,6.368099415473074E-4
6.812,6.355357927722684E-4
6.816,6.372667118628874E-4
6.82,6.390937931252073E-4
6.824,6.39887131041741E-4
6.828,6.39887131041741E-4
6.832,6.399592526705168E-4
6.836,6.407045095012E-4
6.84,6.382283335798979E-4
6.844,6.387091444384032E-4
6.848,6.392861174686095E-4
6.852,6.369782253477842E-4
6.856,6.390457120393568E-4
6.86,6.376994416355421E-4
6.864,6.362089279741758E-4
6.868,6.3705034697656E-4
6.872,6.38060049779421E-4
6.876,6.374349956633642E-4
6.88,6.3933419855446E-4
6.884,6.3933419855446E-4
6.888,6.388293471530295E-4
6.892,6.374109551204389E-4
6.896,6.385408606379263E-4
6.9,6.364974144892789E-4
6.904,6.383485362945242E-4
6.908,6.419065366474632E-4
6.912,6.452722126570001E-4
6.916,6.502966861283803E-4
6.92,6.489504157245654E-4
6.924,6.413776447031074E-4
6.928,6.293333326975503E-4
6.932,6.065669385473258E-4
6.936,5.787279898398705E-4
6.94,5.590628257270048E-4
6.944,5.471867975219247E-4
6.948,5.579569607524427E-4
6.952,5.799780980719841E-4
6.956,5.968545592055193E-4
6.96,6.220250076482702E-4
6.964,6.400794553851431E-4
6.968,6.464742398032633E-4
6.972,6.504649699288571E-4
6.976,6.515948754463445E-4
6.98,6.453443342857759E-4
6.984,6.439019017102602E-4
6.988,6.469069695759181E-4
6.992,6.435172530234559E-4
6.996,6.441423071395127E-4
7.0,6.433970503088296E-4
7.0040000000000004,6.420267393620894E-4
7.008,6.414257257889578E-4
7.0120000000000005,6.456087802579538E-4
7.016,6.474839426061244E-4
7.0200000000000005,6.441182665965875E-4
7.024,6.411853203597053E-4
7.0280000000000005,6.43156644879577E-4
7.032,6.403919824431715E-4
7.0360000000000005,6.416901717611358E-4
7.04,6.428681583644737E-4
7.0440000000000005,6.397188472412642E-4
7.048,6.379158065218694E-4
7.0520000000000005,6.416420906752853E-4
7.056,6.417863339328369E-4
7.0600000000000005,6.422671447913421E-4
7.064,6.426758340210716E-4
7.0680000000000005,6.440701855107369E-4
7.072,6.422911853342674E-4
7.0760000000000005,6.435172530234559E-4
7.08,6.472435371768717E-4
7.0840000000000005,6.463780776315623E-4
7.088,6.472194966339464E-4
7.0920000000000005,6.47003131747619E-4
7.096,6.448394828843454E-4
7.1000000000000005,6.467146452325159E-4
7.104,6.455126180862527E-4
7.1080000000000005,6.462338343740107E-4
7.112,6.459934289447581E-4
7.1160000000000005,6.502486050425297E-4
7.12,6.518352808755971E-4
7.1240000000000006,6.476281858636759E-4
7.128,6.461617127452349E-4
7.132000000000001,6.45079888313598E-4
7.136,6.460895911164591E-4
7.140000000000001,6.489504157245654E-4
7.144,6.480128345504802E-4
7.148000000000001,6.472194966339464E-4
7.152,6.468348479471423E-4
7.156000000000001,6.429162394503243E-4
7.16,6.428200772786232E-4
7.164000000000001,6.43252807051278E-4
7.168,6.426758340210716E-4
7.172,6.435893746522317E-4
7.176,6.43974023339036E-4
7.18,6.418344150186874E-4
7.184,6.422190637054916E-4
7.188,6.431326043366517E-4
7.192,6.409689554733778E-4
7.196,6.394544012690863E-4
7.2,6.392861174686095E-4
7.204,6.397428877841895E-4
7.208,6.394063201832357E-4
7.212,6.391418742110579E-4
7.216,6.395505634407873E-4
7.22,6.393582390973853E-4
7.224,6.367859010043821E-4
7.228,6.395024823549368E-4
7.232,6.429162394503243E-4
7.236,6.383485362945242E-4
7.24,6.33300022280219E-4
7.244,6.339971980250515E-4
7.248,6.370743875194852E-4
7.252,6.389495498676557E-4
7.256,6.387091444384032E-4
7.26,6.386851038954779E-4
7.264,6.396948066983389E-4
7.268,6.382042930369726E-4
7.272,6.403919824431715E-4
7.276,6.414738068748084E-4
7.28,6.375792389209158E-4
7.284,6.383004552086737E-4
7.288,6.370984280624105E-4
7.292,6.340212385679768E-4
7.296,6.378917659789441E-4
7.3,6.389014687818052E-4
7.304,6.369541848048589E-4
7.308,6.382523741228232E-4
7.312,6.395265228978621E-4
7.316,6.399832932134421E-4
7.32,6.399352121275915E-4
7.324,6.410170365592284E-4
7.328,6.412093609026305E-4
7.332,6.401515770139189E-4
7.336,6.422431042484169E-4
7.34,6.400073337563673E-4
7.344,6.396226850695631E-4
7.348,6.392620769256842E-4
7.352,6.386370228096274E-4
7.356,6.381081308652716E-4
7.36,6.409929960163031E-4
7.364,6.432768475942033E-4
7.368,6.429402799932494E-4
7.372,6.384446984662252E-4
7.376,6.373869145775136E-4
7.38,6.367378199185316E-4
7.384,6.375551983779905E-4
7.388,6.399111715846663E-4
7.392,6.407045095012E-4
7.396,6.393101580115348E-4
7.4,6.395024823549368E-4
7.404,6.398630904988158E-4
7.408,6.421469420767158E-4
7.412,6.403439013573211E-4
7.416,6.364252928605031E-4
7.42,6.357040765727453E-4
7.424,6.37146509148261E-4
7.428,6.388293471530295E-4
7.432,6.400794553851431E-4
7.436,6.409208743875273E-4
7.44,6.401515770139189E-4
7.444,6.377956038072432E-4
7.448,6.380360092364958E-4
7.452,6.396948066983389E-4
7.456,6.392139958398337E-4
7.46,6.397428877841895E-4
7.464,6.390457120393568E-4
7.468,6.401275364709937E-4
7.472,6.387091444384032E-4
7.476,6.368339820902327E-4
7.48,6.360406441736989E-4
7.484,6.38060049779421E-4
7.488,6.373388334916632E-4
7.492,6.335885087953221E-4
7.496,6.339971980250515E-4
7.5,6.360887252595494E-4
7.5040000000000004,6.353675089717915E-4
7.508,6.3705034697656E-4
7.5120000000000005,6.357761982015211E-4
7.516,6.380840903223463E-4
7.5200000000000005,6.391899552969084E-4
7.524,6.383966173803747E-4
7.5280000000000005,6.374590362062894E-4
7.532,6.348866981132862E-4
7.5360000000000005,6.327230492500126E-4
7.54,6.323384005632083E-4
7.5440000000000005,6.314489004749736E-4
7.548,6.361368063454E-4
7.5520000000000005,6.368099415473074E-4
7.556,6.346222521411084E-4
7.5600000000000005,6.328432519646389E-4
7.564,6.340933601967526E-4
7.5680000000000005,6.314489004749736E-4
7.572,6.310161707023189E-4
7.5760000000000005,6.331798195655926E-4
7.58,6.333961844519199E-4
7.5840000000000005,6.384687390091505E-4
7.588,6.390937931252073E-4
7.5920000000000005,6.384687390091505E-4
7.596,6.400554148422179E-4
7.6000000000000005,6.363772117746526E-4
7.604,6.357281171156705E-4
7.6080000000000005,6.351030629996137E-4
7.612,6.345741710552579E-4
7.6160000000000005,6.370263064336347E-4
7.62,6.347424548557347E-4
7.6240000000000006,6.319777924193294E-4
7.628,6.282034271800629E-4
7.632000000000001,6.282515082659135E-4
7.636,6.280832244654367E-4
7.640000000000001,6.332519411943684E-4
7.644,6.375311578350652E-4
7.648000000000001,6.36329130688802E-4
7.652,6.342856845401547E-4
7.656000000000001,6.301747516999346E-4
7.66,6.294054543263261E-4
7.664000000000001,6.292371705258492E-4
7.668,6.314969815608242E-4
7.672000000000001,6.369782253477842E-4
7.676,6.365454955751294E-4
7.68,6.359444820019978E-4
7.684,6.357761982015211E-4
7.688,6.358483198302969E-4
7.692,6.377475227213926E-4
7.696,6.370743875194852E-4
7.7,6.356079144010442E-4
7.704,6.364012523175778E-4
7.708,6.360646847166242E-4
7.712,6.368099415473074E-4
7.716,6.375311578350652E-4
7.72,6.361368063454E-4
7.724,6.341654818255284E-4
7.728,6.345260899694073E-4
7.732,6.350549819137631E-4
7.736,6.382523741228232E-4
7.74,6.39238036382759E-4
7.744,6.382764146657484E-4
7.748,6.358964009161473E-4
7.752,6.325307249066105E-4
7.756,6.320979951339558E-4
7.76,6.335644682523968E-4
7.764,6.369301442619336E-4
7.768,6.384927795520757E-4
7.772,6.411131987309295E-4
7.776,6.442625098541391E-4
7.78,6.433008881371286E-4
7.784,6.285159542380914E-4
7.788,6.046917761991552E-4
7.792,5.824783145362116E-4
7.796,5.633901234535524E-4
7.8,5.524035953367068E-4
7.804,5.560817984042722E-4
7.808,5.768287869487746E-4
7.812,5.958448564026582E-4
7.816,6.175534666641712E-4
7.82,6.378436848930937E-4
7.824,6.459453478589075E-4
7.828,6.475079831490497E-4
7.832,6.483013210655833E-4
7.836,6.457530235155054E-4
7.84,6.46546361432039E-4
7.844,6.44887563970196E-4
7.848,6.451520099423738E-4
7.852,6.43156644879577E-4
7.856,6.445990774550927E-4
7.86,6.436614962810075E-4
7.864,6.426037123922958E-4
7.868,6.445269558263169E-4
7.872,6.435893746522317E-4
7.876,6.43709577366858E-4
7.88,6.428200772786232E-4
7.884,6.426037123922958E-4
7.888,6.415699690465094E-4
7.892,6.384446984662252E-4
7.896,6.371945902341116E-4
7.9,6.405121851577979E-4
7.904,6.426758340210716E-4
7.908,6.452000910282243E-4
7.912,6.435172530234559E-4
7.916,6.415940095894347E-4
7.92,6.411131987309295E-4
7.924,6.390457120393568E-4
7.928,6.392139958398337E-4
7.932,6.425075502205947E-4
7.936,6.455126180862527E-4
7.94,6.482291994368075E-4
7.944,6.485657670377613E-4
7.948,6.479166723787791E-4
7.952,6.465704019749643E-4
7.956,6.457530235155054E-4
7.96,6.445269558263169E-4
7.964,6.440942260536622E-4
7.968,6.510419429590635E-4
7.972,6.480849561792559E-4
7.976,6.459934289447581E-4
7.98,6.479647534646297E-4
7.984,6.487100102953128E-4
7.988,6.483974832372844E-4
7.992,6.488061724670138E-4
7.996,6.466184830608148E-4
8.0,6.449356450560465E-4
8.004,6.489504157245654E-4
8.008000000000001,6.499120374415761E-4
8.012,6.497677941840245E-4
8.016,6.49359104954295E-4
8.02,6.459213073159823E-4
8.024000000000001,6.471714155480959E-4
8.028,6.479166723787791E-4
8.032,6.478445507500033E-4
8.036,6.467867668612917E-4
8.040000000000001,6.44623117998018E-4
8.044,6.401756175568442E-4
8.048,6.361608468883252E-4
8.052,6.373628740345883E-4
8.056000000000001,6.386129822667021E-4
8.06,6.37146509148261E-4
8.064,6.394063201832357E-4
8.068,6.39238036382759E-4
8.072000000000001,6.390697525822821E-4
8.076,6.391418742110579E-4
8.08,6.366656982897558E-4
8.084,6.37146509148261E-4
8.088000000000001,6.361127658024747E-4
8.092,6.377956038072432E-4
8.096,6.364733739463536E-4
8.1,6.379879281506452E-4
8.104000000000001,6.388293471530295E-4
8.108,6.368820631760831E-4
8.112,6.345741710552579E-4
8.116,6.319297113334789E-4
8.120000000000001,6.348866981132862E-4
8.124,6.379879281506452E-4
8.128,6.39238036382759E-4
8.132,6.384687390091505E-4
8.136000000000001,6.372186307770368E-4
8.14,6.388533876959548E-4
8.144,6.389495498676557E-4
8.148,6.371705496911863E-4
8.152000000000001,6.394784418120115E-4
8.156,6.409449149304526E-4
8.16,6.407766311299758E-4
8.164,6.413776447031074E-4
8.168000000000001,6.407766311299758E-4
8.172,6.359204414590726E-4
8.176,6.346462926840337E-4
8.18,6.337808331387242E-4
8.184000000000001,6.362329685171011E-4
8.188,6.334683060806957E-4
8.192,6.335644682523968E-4
8.196,6.35415590057642E-4
8.2,6.364012523175778E-4
8.204,6.394063201832357E-4
8.208,6.358483198302969E-4
8.212,6.341654818255284E-4
8.216,6.368339820902327E-4
8.22,6.38781266067179E-4
8.224,6.379879281506452E-4
8.228,6.377475227213926E-4
8.232,6.377715632643179E-4
8.236,6.371224686053358E-4
8.24,6.354396306005673E-4
8.244,6.3522326571424E-4
8.248,6.341654818255284E-4
8.252,6.33300022280219E-4
8.256,6.330115357651157E-4
8.26,6.309200085306178E-4
8.264,6.334442655377705E-4
8.268,6.345020494264821E-4
8.272,6.3522326571424E-4
8.276,6.341654818255284E-4
8.28,6.331798195655926E-4
8.284,6.317614275330021E-4
8.288,6.367859010043821E-4
8.292,6.359444820019978E-4
8.296,6.335644682523968E-4
8.3,6.308959679876926E-4
8.304,6.280351433795861E-4
8.308,6.305594003867388E-4
8.312,6.310402112452442E-4
8.316,6.33492346623621E-4
8.32,6.33300022280219E-4
8.324,6.302468733287103E-4
8.328,6.264003864606682E-4
8.332,6.290208056395219E-4
8.336,6.322422383915074E-4
8.34,6.324826438207599E-4
8.344,6.32578805992461E-4
8.348,6.344299277977063E-4
8.352,6.353194278859411E-4
8.356,6.318816302476283E-4
8.36,6.326509276212368E-4
8.364,6.332519411943684E-4
8.368,6.311604139598705E-4
8.372,6.291410083541483E-4
8.376,6.29213129982924E-4
8.38,6.309200085306178E-4
8.384,6.324586032778347E-4
8.388,6.314489004749736E-4
8.392,6.330596168509663E-4
8.396,6.319297113334789E-4
8.4,6.329394141363399E-4
8.404,6.342616439972295E-4
8.408,6.342135629113789E-4
8.412,6.328913330504894E-4
8.416,6.330836573938915E-4
8.42,6.34405887254781E-4
8.424,6.339250763962757E-4
8.428,6.332519411943684E-4
8.432,6.312565761315716E-4
8.436,6.281553460942125E-4
8.44,6.288044407531945E-4
8.444,6.291890894399988E-4
8.448,6.306074814725893E-4
8.452,6.317854680759274E-4
8.456,6.306796031013651E-4
8.46,6.296939408414292E-4
8.464,6.274822108923051E-4
8.468,6.267850351474724E-4
8.472,6.234433996808607E-4
8.476,6.259676566880135E-4
8.48,6.273139270918282E-4
8.484,6.28756359667344E-4
8.488,6.29213129982924E-4
8.492,6.294294948692514E-4
8.496,6.263282648318924E-4
8.5,6.276745352357071E-4
8.504,6.268090756903977E-4
8.508000000000001,6.263042242889671E-4
8.512,6.277947379503335E-4
8.516,6.242367375973944E-4
8.52,6.233712780520849E-4
8.524000000000001,6.266888729757713E-4
8.528,6.262080621172661E-4
8.532,6.274100892635293E-4
8.536,6.26472508089444E-4
8.540000000000001,6.256070485441346E-4
8.544,6.248377511705261E-4
8.548,6.258474539733872E-4
8.552,6.265927108040704E-4
8.556000000000001,6.236357240242628E-4
8.56,6.264244270035935E-4
8.564,6.277947379503335E-4
8.568,6.309200085306178E-4
8.572000000000001,6.31665265361301E-4
8.576,6.310161707023189E-4
8.58,6.335885087953221E-4
8.584,6.368099415473074E-4
8.588000000000001,6.329634546792652E-4
8.592,6.251262376856293E-4
8.596,6.117837363621079E-4
8.6,5.898587612142676E-4
8.604000000000001,5.678616644376514E-4
8.608,5.508169195036395E-4
8.612,5.503601491880594E-4
8.616,5.685347996395588E-4
8.620000000000001,5.85242976972617E-4
8.624,6.024800462500309E-4
8.628,6.239963321681418E-4
8.632,6.418344150186874E-4
8.636000000000001,6.451039288565233E-4
8.64,6.442625098541391E-4
8.644,6.409929960163031E-4
8.648,6.3750711729214E-4
8.652000000000001,6.355357927722684E-4
8.656,6.374590362062894E-4
8.66,6.369301442619336E-4
8.664,6.394544012690863E-4
8.668000000000001,6.369782253477842E-4
8.672,6.364252928605031E-4
8.676,6.335644682523968E-4
8.68,6.364493334034284E-4
8.684000000000001,6.370263064336347E-4
8.688,6.379398470647947E-4
8.692,6.376994416355421E-4
8.696,6.358483198302969E-4
8.700000000000001,6.364012523175778E-4
8.704,6.366416577468305E-4
8.708,6.383485362945242E-4
8.712,6.40896833844602E-4
8.716,6.400794553851431E-4
8.72,6.380119686935705E-4
8.724,6.364974144892789E-4
8.728,6.372186307770368E-4
8.732,6.411372392738547E-4
8.736,6.423392664201179E-4
8.74,6.438297800814844E-4
8.744,6.441423071395127E-4
8.748,6.440701855107369E-4
8.752,6.410651176450789E-4
8.756,6.395746039837126E-4
8.76,6.402236986426947E-4
8.764,6.408247122158263E-4
8.768,6.441423071395127E-4
8.772,6.437336179097833E-4
8.776,6.439980638819611E-4
8.78,6.459693884018328E-4
8.784,6.469550506617686E-4
8.788,6.489023346387149E-4
8.792,6.457049424296549E-4
8.796,6.460415100306085E-4
8.8,6.464982803461886E-4
8.804,6.456809018867296E-4
8.808,6.492389022396686E-4
8.812,6.485176859519107E-4
8.816,6.473637398914981E-4
8.82,6.484455643231349E-4
8.824,6.44887563970196E-4
8.828,6.464021181744875E-4
8.832,6.485898075806864E-4
8.836,6.483494021514338E-4
8.84,6.465944425178896E-4
8.844,6.460415100306085E-4
8.848,6.442865503970644E-4
8.852,6.441903882253633E-4
8.856,6.438778611673349E-4
8.86,6.435172530234559E-4
8.864,6.440221044248864E-4
8.868,6.433970503088296E-4
8.872,6.428200772786232E-4
8.876,6.399592526705168E-4
8.88,6.387091444384032E-4
8.884,6.415940095894347E-4
8.888,6.39887131041741E-4
8.892,6.386610633525526E-4
8.896,6.401515770139189E-4
8.9,6.402717797285453E-4
8.904,6.406804689582747E-4
8.908,6.429883610791E-4
8.912,6.416420906752853E-4
8.916,6.401515770139189E-4
8.92,6.40896833844602E-4
8.924,6.413536041601821E-4
8.928,6.384206579232999E-4
8.932,6.388293471530295E-4
8.936,6.395746039837126E-4
8.94,6.394063201832357E-4
8.944,6.389495498676557E-4
8.948,6.381802524940474E-4
8.952,6.4161805013236E-4
8.956,6.423152258771927E-4
8.96,6.409449149304526E-4
8.964,6.39238036382759E-4
8.968,6.398630904988158E-4
8.972,6.389014687818052E-4
8.976,6.393101580115348E-4
8.98,6.408727933016769E-4
8.984,6.420507799050147E-4
8.988,6.412334014455558E-4
8.992,6.416901717611358E-4
8.996,6.399111715846663E-4
9.0,6.382283335798979E-4
9.004,6.405843067865737E-4
9.008000000000001,6.396707661554137E-4
9.012,6.392861174686095E-4
9.016,6.399352121275915E-4
9.02,6.419065366474632E-4
9.024000000000001,6.413536041601821E-4
9.028,6.416661312182105E-4
9.032,6.407045095012E-4
9.036,6.382283335798979E-4
9.040000000000001,6.381321714081968E-4
9.044,6.376754010926168E-4
9.048,6.383004552086737E-4
9.052,6.405362257007231E-4
9.056000000000001,6.386610633525526E-4
9.06,6.38973590410581E-4
9.064,6.396948066983389E-4
9.068,6.396707661554137E-4
9.072000000000001,6.386129822667021E-4
9.076,6.388533876959548E-4
9.08,6.380119686935705E-4
9.084,6.371705496911863E-4
9.088000000000001,6.377475227213926E-4
9.092,6.370263064336347E-4
9.096,6.376513605496916E-4
9.1,6.382764146657484E-4
9.104000000000001,6.374590362062894E-4
9.108,6.360166036307736E-4
9.112,6.364493334034284E-4
9.116,6.378917659789441E-4
9.120000000000001,6.363772117746526E-4
9.124,6.354636711434926E-4
9.128,6.350790224566884E-4
9.132,6.35872360373222E-4
9.136000000000001,6.357040765727453E-4
9.14,6.382523741228232E-4
9.144,6.369541848048589E-4
9.148,6.377715632643179E-4
9.152000000000001,6.376994416355421E-4
9.156,6.374109551204389E-4
9.16,6.376273200067663E-4
9.164,6.366176172039052E-4
9.168000000000001,6.383966173803747E-4
9.172,6.419546177333136E-4
9.176,6.392620769256842E-4
9.18,6.382764146657484E-4
9.184000000000001,6.405121851577979E-4
9.188,6.373869145775136E-4
9.192,6.360406441736989E-4
9.196,6.368099415473074E-4
9.200000000000001,6.353434684288662E-4
9.204,6.347905359415853E-4
9.208,6.323624411061336E-4
9.212,6.326028465353863E-4
9.216000000000001,6.335644682523968E-4
9.22,6.347905359415853E-4
9.224,6.338529547674999E-4
9.228,6.344539683406315E-4
9.232,6.345260899694073E-4
9.236,6.351030629996137E-4
9.24,6.356079144010442E-4
9.244,6.371945902341116E-4
9.248,6.382283335798979E-4
9.252,6.362089279741758E-4
9.256,6.374830767492147E-4
9.26,6.36689738832681E-4
9.264,6.30847886901842E-4
9.268,6.288044407531945E-4
9.272,6.31665265361301E-4
9.276,6.3476649539866E-4
9.28,6.335644682523968E-4
9.284,6.333240628231441E-4
9.288,6.351992251713147E-4
9.292,6.342135629113789E-4
9.296,6.350549819137631E-4
9.3,6.343337656260052E-4
9.304,6.324826438207599E-4
9.308,6.332279006514432E-4
9.312,6.323143600202831E-4
9.316,6.301507111570093E-4
9.32,6.32122035676881E-4
9.324,6.300785895282335E-4
9.328,6.285640353239419E-4
9.332,6.313286977603473E-4
9.336,6.314489004749736E-4
9.34,6.314489004749736E-4
9.344,6.329874952221905E-4
9.348,6.333481033660694E-4
9.352,6.322422383915074E-4
9.356,6.341654818255284E-4
9.36,6.360887252595494E-4
9.364,6.346943737698842E-4
9.368,6.326028465353863E-4
9.372,6.365214550322042E-4
9.376,6.36329130688802E-4
9.38,6.356559954868947E-4
9.384,6.396707661554137E-4
9.388,6.364974144892789E-4
9.392,6.375311578350652E-4
9.396,6.384206579232999E-4
9.4,6.38781266067179E-4
9.404,6.436855368239328E-4
9.408,6.474358615202739E-4
9.412,6.45536658629178E-4
9.416,6.399592526705168E-4
9.42,6.21736521133167E-4
9.424,5.969507213772204E-4
9.428,5.745449353708746E-4
9.432,5.610341502468764E-4
9.436,5.505524735314616E-4
9.44,5.574040282651618E-4
9.444,5.766364626053726E-4
9.448,5.937052480823097E-4
9.452,6.154138583438228E-4
9.456,6.341895223684537E-4
9.46,6.404641040719473E-4
9.464,6.443586720258402E-4
9.468,6.444548341975412E-4
9.472,6.42170982619641E-4
9.476,6.409929960163031E-4
9.48,6.402236986426947E-4
9.484,6.377956038072432E-4
9.488,6.383485362945242E-4
9.492,6.383966173803747E-4
9.496,6.3750711729214E-4
9.5,6.403439013573211E-4
9.504,6.402958202714705E-4
9.508000000000001,6.404881446148726E-4
9.512,6.405843067865737E-4
9.516,6.403679419002463E-4
9.52,6.394784418120115E-4
9.524000000000001,6.405843067865737E-4
9.528,6.407766311299758E-4
9.532,6.411131987309295E-4
9.536,6.409449149304526E-4
9.540000000000001,6.3979096887004E-4
9.544,6.3887742823888E-4
9.548,6.365454955751294E-4
9.552,6.373869145775136E-4
9.556000000000001,6.38973590410581E-4
9.56,6.372426713199621E-4
9.564,6.365695361180547E-4
9.568,6.3887742823888E-4
9.572000000000001,6.402236986426947E-4
9.576,6.423152258771927E-4
9.58,6.438538206244096E-4
9.584,6.440701855107369E-4
9.588000000000001,6.391178336681326E-4
9.592,6.385408606379263E-4
9.596,6.3933419855446E-4
9.6,6.423392664201179E-4
9.604000000000001,6.421229015337905E-4
9.608,6.407766311299758E-4
9.612,6.391659147539831E-4
9.616,6.433008881371286E-4
9.620000000000001,6.457770640584307E-4
9.624,6.461376722023096E-4
9.628,6.438297800814844E-4
9.632,6.456328208008791E-4
9.636000000000001,6.453924153716265E-4
9.64,6.443105909399896E-4
9.644,6.469550506617686E-4
9.648,6.464261587174128E-4
9.652000000000001,6.467627263183665E-4
9.656,6.45440496457477E-4
9.66,6.441903882253633E-4
9.664,6.435412935663811E-4
9.668000000000001,6.436855368239328E-4
9.672,6.433970503088296E-4
9.676,6.431806854225022E-4
9.68,6.418584555616127E-4
9.684000000000001,6.401756175568442E-4
9.688,6.397428877841895E-4
9.692,6.390216714964315E-4
9.696,6.368099415473074E-4
9.700000000000001,6.372186307770368E-4
9.704,6.347905359415853E-4
9.708,6.355117522293431E-4
9.712,6.383966173803747E-4
9.716000000000001,6.367378199185316E-4
9.72,6.351511440854642E-4
9.724,6.339250763962757E-4
9.728,6.348386170274357E-4
9.732,6.371224686053358E-4
9.736,6.346703332269589E-4
9.74,6.346462926840337E-4
9.744,6.354877116864178E-4
9.748,6.342135629113789E-4
9.752,6.345260899694073E-4
9.756,6.329634546792652E-4
9.76,6.3476649539866E-4
9.764,6.361368063454E-4
9.768,6.34958819742062E-4
9.772,6.352953873430158E-4
9.776,6.338529547674999E-4
9.78,6.328913330504894E-4
9.784,6.324586032778347E-4
9.788,6.326990087070874E-4
9.792,6.308959679876926E-4
9.796,6.314969815608242E-4
9.8,6.3476649539866E-4
9.804,6.336125493382473E-4
9.808,6.326509276212368E-4
9.812,6.324105221919841E-4
9.816,6.295977786697283E-4
9.82,6.301747516999346E-4
9.824,6.333481033660694E-4
9.828,6.336606304240979E-4
9.832,6.343337656260052E-4
9.836,6.339731574821263E-4
9.84,6.342135629113789E-4
9.844,6.364252928605031E-4
9.848,6.365454955751294E-4
9.852,6.352953873430158E-4
9.856,6.326028465353863E-4
9.86,6.323384005632083E-4
9.864,6.339731574821263E-4
9.868,6.337327520528737E-4
9.872,6.342376034543042E-4
9.876,6.336365898811726E-4
9.88,6.328913330504894E-4
9.884,6.336846709670231E-4
9.888,6.353434684288662E-4
9.892,6.314489004749736E-4
9.896,6.309200085306178E-4
9.9,6.329394141363399E-4
9.904,6.328192114217136E-4
9.908,6.329394141363399E-4
9.912,6.33492346623621E-4
9.916,6.357281171156705E-4
9.92,6.36689738832681E-4
9.924,6.360887252595494E-4
9.928,6.340212385679768E-4
9.932,6.342856845401547E-4
9.936,6.324586032778347E-4
9.94,6.344299277977063E-4
9.944,6.357040765727453E-4
9.948,6.310402112452442E-4
9.952,6.29766062470205E-4
9.956,6.344539683406315E-4
9.96,6.342376034543042E-4
9.964,6.329153735934147E-4
9.968,6.323384005632083E-4
9.972,6.319777924193294E-4
9.976,6.33300022280219E-4
9.98,6.331798195655926E-4
9.984,6.317614275330021E-4
9.988,6.328192114217136E-4
9.992,6.321701167627316E-4
9.996,6.32578805992461E-4
10.0,6.326990087070874E-4
10.004,6.341174007396779E-4
10.008000000000001,6.336606304240979E-4
10.012,6.343818467118557E-4
10.016,6.349828602849873E-4
10.02,6.334442655377705E-4
10.024000000000001,6.340212385679768E-4
10.028,6.347905359415853E-4
10.032,6.334202249948452E-4
10.036,6.327711303358632E-4
10.040000000000001,6.332519411943684E-4
10.044,6.323624411061336E-4
10.048,6.322662789344326E-4
10.052,6.324345627349094E-4
10.056000000000001,6.311363734169452E-4
10.06,6.340452791109021E-4
10.064,6.358964009161473E-4
10.068,6.33492346623621E-4
10.072000000000001,6.342616439972295E-4
10.076,6.306555625584399E-4
10.08,6.307276841872157E-4
10.084,6.284678731522409E-4
10.088000000000001,6.304632382150377E-4
10.092,6.322181978485821E-4
10.096,6.336365898811726E-4
10.1,6.298862651848314E-4
10.104000000000001,6.299583868136072E-4
10.108,6.302949544145608E-4
10.112,6.283236298946893E-4
10.116,6.274581703493798E-4
10.120000000000001,6.276985757786324E-4
10.124,6.295256570409525E-4
10.128,6.301507111570093E-4
10.132,6.31208495045721E-4
10.136000000000001,6.315691031896E-4
10.14,6.289727245536714E-4
10.144,6.287804002102693E-4
10.148,6.28660197495643E-4
10.152000000000001,6.270494811196504E-4
10.156,6.285640353239419E-4
10.16,6.294054543263261E-4
10.164,6.296218192126535E-4
10.168000000000001,6.297179813843545E-4
10.172,6.270254405767251E-4
10.176,6.304391976721124E-4
10.18,6.318095086188525E-4
10.184000000000001,6.310642517881694E-4
10.188,6.303670760433366E-4
10.192,6.286361569527177E-4
10.196,6.285880758668672E-4
10.200000000000001,6.285880758668672E-4
10.204,6.273139270918282E-4
10.208,6.279149406649598E-4
10.212,6.301987922428599E-4
10.216000000000001,6.301507111570093E-4
10.22,6.300785895282335E-4
10.224,6.334202249948452E-4
10.228,6.356559954868947E-4
10.232000000000001,6.368099415473074E-4
10.236,6.325547654495357E-4
10.24,6.148128447706912E-4
10.244,5.87983598866097E-4
10.248,5.65818218289004E-4
10.252,5.469223515497468E-4
10.256,5.393976616141393E-4
10.26,5.551682577731122E-4
10.264,5.75578678716661E-4
10.268,5.923108965926444E-4
10.272,6.184910478382565E-4
10.276,6.378917659789441E-4
10.28,6.441423071395127E-4
10.284,6.45079888313598E-4
10.288,6.442384693112138E-4
10.292,6.407045095012E-4
10.296,6.407045095012E-4
10.3,6.410170365592284E-4
10.304,6.37603279463841E-4
10.308,6.382283335798979E-4
10.312,6.360646847166242E-4
10.316,6.339731574821263E-4
10.32,6.348145764845104E-4
10.324,6.343818467118557E-4
10.328,6.379158065218694E-4
10.332,6.387331849813284E-4
10.336,6.387331849813284E-4
10.34,6.357040765727453E-4
10.344,6.368339820902327E-4
10.348,6.38973590410581E-4
10.352,6.414257257889578E-4
10.356,6.437576584527086E-4
10.36,6.433008881371286E-4
10.364,6.407045095012E-4
10.368,6.373628740345883E-4
10.372,6.386129822667021E-4
10.376,6.411853203597053E-4
10.38,6.401515770139189E-4
10.384,6.422190637054916E-4
10.388,6.398150094129653E-4
10.392,6.422671447913421E-4
10.396,6.431806854225022E-4
10.4,6.390937931252073E-4
10.404,6.385408606379263E-4
10.408,6.402958202714705E-4
10.412,6.4253159076352E-4
10.416,6.395505634407873E-4
10.42,6.387091444384032E-4
10.424,6.388293471530295E-4
10.428,6.390937931252073E-4
10.432,6.399111715846663E-4
10.436,6.422190637054916E-4
10.44,6.430604827078758E-4
10.444,6.419786582762389E-4
10.448,6.413536041601821E-4
10.452,6.408487527587516E-4
10.456,6.409689554733778E-4
10.46,6.416661312182105E-4
10.464,6.436134151951569E-4
10.468,6.413776447031074E-4
10.472,6.4161805013236E-4
10.476,6.427239151069221E-4
10.48,6.412093609026305E-4
10.484,6.397188472412642E-4
10.488,6.375311578350652E-4
10.492,6.403919824431715E-4
10.496,6.39430360726161E-4
10.5,6.359685225449231E-4
10.504,6.353194278859411E-4
10.508000000000001,6.370743875194852E-4
10.512,6.342856845401547E-4
10.516,6.350549819137631E-4
10.52,6.353434684288662E-4
10.524000000000001,6.326509276212368E-4
10.528,6.326028465353863E-4
10.532,6.345020494264821E-4
10.536,6.344299277977063E-4
10.540000000000001,6.314729410178989E-4
10.544,6.313286977603473E-4
10.548,6.33300022280219E-4
10.552,6.345741710552579E-4
10.556000000000001,6.342616439972295E-4
10.56,6.329394141363399E-4
10.564,6.296458597555788E-4
10.568,6.295016164980272E-4
10.572000000000001,6.32578805992461E-4
10.576,6.333721439089947E-4
10.58,6.337327520528737E-4
10.584,6.347424548557347E-4
10.588000000000001,6.341895223684537E-4
10.592,6.326749681641621E-4
10.596,6.314008193891231E-4
10.6,6.318335491617778E-4
10.604000000000001,6.300785895282335E-4
10.608,6.294535354121767E-4
10.612,6.336125493382473E-4
10.616,6.341895223684537E-4
10.620000000000001,6.342135629113789E-4
10.624,6.353434684288662E-4
10.628,6.3522326571424E-4
10.632,6.313767788461978E-4
10.636000000000001,6.317373869900768E-4
10.64,6.335885087953221E-4
10.644,6.332038601085179E-4
10.648,6.325547654495357E-4
10.652000000000001,6.346462926840337E-4
10.656,6.325307249066105E-4
10.66,6.323384005632083E-4
10.664,6.336846709670231E-4
10.668000000000001,6.355838738581189E-4
10.672,6.334202249948452E-4
10.676,6.313286977603473E-4
10.68,6.331798195655926E-4
10.684000000000001,6.313767788461978E-4
10.688,6.303670760433366E-4
10.692,6.311844545027958E-4
10.696,6.283717109805398E-4
10.700000000000001,6.303670760433366E-4
10.704,6.301507111570093E-4
10.708,6.299343462706819E-4
10.712,6.284438326093156E-4
10.716000000000001,6.317854680759274E-4
10.72,6.322422383915074E-4
10.724,6.307517247301408E-4
10.728,6.296458597555788E-4
10.732000000000001,6.295256570409525E-4
10.736,6.298381840989808E-4
10.74,6.280832244654367E-4
10.744,6.308959679876926E-4
10.748000000000001,6.312806166744967E-4
10.752,6.26929278405024E-4
10.756,6.265205891752946E-4
10.76,6.276745352357071E-4
10.764,6.272418054630524E-4
10.768,6.237078456530386E-4
10.772,6.235636023954871E-4
10.776,6.248377511705261E-4
10.78,6.243569403120207E-4
10.784,6.276745352357071E-4
10.788,6.264484675465188E-4
10.792,6.239482510822913E-4
10.796,6.235155213096365E-4
10.8,6.257512918016861E-4
10.804,6.280832244654367E-4
10.808,6.264484675465188E-4
10.812,6.262561432031166E-4
10.816,6.274100892635293E-4
10.82,6.26376345917743E-4
10.824,6.236357240242628E-4
10.828,6.269533189479493E-4
10.832,6.277226163215577E-4
10.836,6.284678731522409E-4
10.84,6.274341298064545E-4
10.844,6.266407918899209E-4
10.848,6.271696838342767E-4
10.852,6.246454268271238E-4
10.856,6.277226163215577E-4
10.86,6.300545489853083E-4
10.864,6.289727245536714E-4
10.868,6.256310890870598E-4
10.872,6.218807643907186E-4
10.876,6.23924210539366E-4
10.88,6.275302919781556E-4
10.884,6.275543325210809E-4
10.888,6.282515082659135E-4
10.892,6.24116534882768E-4
10.896,6.28299589351764E-4
10.9,6.276264541498567E-4
10.904,6.273620081776787E-4
10.908,6.23924210539366E-4
10.912,6.223375347062986E-4
10.916,6.196930749845196E-4
10.92,6.21544196789765E-4
10.924,6.242367375973944E-4
10.928,6.249579538851524E-4
10.932,6.270014000337998E-4
10.936,6.257512918016861E-4
10.94,6.252945214861061E-4
10.944,6.22650061764327E-4
10.948,6.239001699964407E-4
10.952,6.23106832079907E-4
10.956,6.253906836578072E-4
10.96,6.232991564233091E-4
10.964,6.216403589614659E-4
10.968,6.224577374209249E-4
10.972,6.24116534882768E-4
10.976,6.234193591379355E-4
10.98,6.207748994161565E-4
10.984,6.207989399590818E-4
10.988,6.212316697317365E-4
10.992,6.198853993279218E-4
10.996,6.182266018660786E-4
11.0,6.17168817977367E-4
11.004,6.184670072953313E-4
11.008000000000001,6.217124805902417E-4
11.012,6.22000967105345E-4
11.016,6.19092061411388E-4
11.02,6.182746829519291E-4
11.024000000000001,6.175294261212459E-4
11.028,6.165437638613101E-4
11.032,6.165918449471607E-4
11.036,6.175775072070964E-4
11.040000000000001,6.195007506411176E-4
11.044,6.220490481911955E-4
11.048,6.20726818330306E-4
11.052,6.207989399590818E-4
11.056000000000001,6.272177649201271E-4
11.06,6.315450626466747E-4
11.064,6.307517247301408E-4
11.068,6.269533189479493E-4
11.072000000000001,6.136588987102786E-4
11.076,5.916618019336623E-4
11.08,5.682703536673808E-4
11.084,5.510813654758174E-4
11.088000000000001,5.396861481292424E-4
11.092,5.468742704638962E-4
11.096,5.67741461723025E-4
11.1,5.819975036777064E-4
11.104000000000001,6.070958304916816E-4
11.108,6.270735216625756E-4
11.112,6.363772117746526E-4
11.116,6.381562119511221E-4
11.120000000000001,6.345741710552579E-4
11.124,6.290208056395219E-4
11.128,6.274341298064545E-4
11.132,6.284438326093156E-4
11.136000000000001,6.280351433795861E-4
11.14,6.296939408414292E-4
11.144,6.294535354121767E-4
11.148,6.264003864606682E-4
11.152000000000001,6.276024136069314E-4
11.156,6.287323191244187E-4
11.16,6.323624411061336E-4
11.164,6.328672925075641E-4
11.168000000000001,6.309200085306178E-4
11.172,6.278668595791093E-4
11.176,6.283236298946893E-4
11.18,6.27650494692782E-4
11.184000000000001,6.280111028366609E-4
11.188,6.268811973191735E-4
11.192,6.292852516116998E-4
11.196,6.309200085306178E-4
11.200000000000001,6.289486840107461E-4
11.204,6.28756359667344E-4
11.208,6.284919136951661E-4
11.212,6.303670760433366E-4
11.216000000000001,6.296458597555788E-4
11.22,6.297179813843545E-4
11.224,6.30222832785785E-4
11.228,6.340452791109021E-4
11.232000000000001,6.307517247301408E-4
11.236,6.313767788461978E-4
11.24,6.316412248183758E-4
11.244,6.316171842754505E-4
11.248000000000001,6.323864816490589E-4
11.252,6.323624411061336E-4
11.256,6.33300022280219E-4
11.26,6.334202249948452E-4
11.264,6.331317384797421E-4
11.268,6.333240628231441E-4
11.272,6.347184143128095E-4
11.276,6.335644682523968E-4
11.28,6.344539683406315E-4
11.284,6.360887252595494E-4
11.288,6.345501305123326E-4
11.292,6.351751846283895E-4
11.296,6.343818467118557E-4
11.3,6.333240628231441E-4
11.304,6.318095086188525E-4
11.308,6.324345627349094E-4
11.312,6.323143600202831E-4
11.316,6.311604139598705E-4
11.32,6.313767788461978E-4
11.324,6.283717109805398E-4
11.328,6.251502782285546E-4
11.332,6.276264541498567E-4
11.336,6.287323191244187E-4
11.34,6.278909001220345E-4
11.344,6.255108863724335E-4
11.348,6.250300755139282E-4
11.352,6.249098727993019E-4
11.356,6.252464404002556E-4
11.36,6.254868458295082E-4
11.364,6.244771430266471E-4
11.368,6.204623723581281E-4
11.372,6.207989399590818E-4
11.376,6.209191426737081E-4
11.38,6.205825750727543E-4
11.384,6.213037913605123E-4
11.388,6.223134941633733E-4
11.392,6.237318861959639E-4
11.396,6.229625888223555E-4
11.4,6.218086427619428E-4
11.404,6.185631694670322E-4
11.408,6.20270048014726E-4
11.412,6.195007506411176E-4
11.416,6.194286290123418E-4
11.42,6.183468045807049E-4
11.424,6.220730887341208E-4
11.428,6.241405754256933E-4
11.432,6.19356507383566E-4
11.436,6.170245747198154E-4
11.44,6.170966963485912E-4
11.444,6.196209533557438E-4
11.448,6.201498453000996E-4
11.452,6.164235611466839E-4
11.456,6.151974934574954E-4
11.46,6.155100205155238E-4
11.464,6.166639665759365E-4
11.468,6.201017642142491E-4
11.472,6.212557102746617E-4
11.476,6.218326833048681E-4
11.48,6.228664266506544E-4
11.484,6.218567238477933E-4
11.488,6.194767100981923E-4
11.492,6.176977099217228E-4
11.496,6.184670072953313E-4
11.5,6.202219669288754E-4
11.504,6.188756965250607E-4
11.508000000000001,6.185150883811818E-4
11.512,6.169524530910397E-4
11.516,6.192122641260144E-4
11.52,6.217605616760923E-4
11.524000000000001,6.211595481029607E-4
11.528,6.18899737067986E-4
11.532,6.179140748080502E-4
11.536,6.170005341768901E-4
11.540000000000001,6.159427502881786E-4
11.544,6.162793178891323E-4
11.548,6.176496288358722E-4
11.552,6.181304396943775E-4
11.556000000000001,6.166399260330112E-4
11.56,6.163273989749828E-4
11.564,6.170005341768901E-4
11.568,6.171928585202923E-4
11.572000000000001,6.213518724463628E-4
11.576,6.199575209566976E-4
11.58,6.170726558056659E-4
11.584,6.191161019543133E-4
11.588000000000001,6.20270048014726E-4
11.592,6.190199397826122E-4
11.596,6.192843857547902E-4
11.6,6.168562909193386E-4
11.604000000000001,6.197171155274449E-4
11.608,6.204864129010534E-4
11.612,6.19092061411388E-4
11.616,6.185872100099575E-4
11.620000000000001,6.192603452118649E-4
11.624,6.173851828636944E-4
11.628,6.179140748080502E-4
11.632,6.20270048014726E-4
11.636000000000001,6.206787372444554E-4
11.64,6.198373182420712E-4
11.644,6.190680208684628E-4
11.648,6.191401424972386E-4
11.652000000000001,6.181544802373028E-4
11.656,6.182987234948544E-4
11.66,6.193324668406407E-4
11.664,6.199815614996228E-4
11.668000000000001,6.202940885576512E-4
11.672,6.204623723581281E-4
11.676,6.200536831283985E-4
11.68,6.185872100099575E-4
11.684000000000001,6.187554938104344E-4
11.688,6.214239940751386E-4
11.692,6.230587509940564E-4
11.696,6.217605616760923E-4
11.700000000000001,6.196449938986691E-4
11.704,6.212076291888112E-4
11.708,6.186593316387333E-4
11.712,6.199575209566976E-4
11.716000000000001,6.235155213096365E-4
11.72,6.212557102746617E-4
11.724,6.201498453000996E-4
11.728,6.194767100981923E-4
11.732000000000001,6.196449938986691E-4
11.736,6.179140748080502E-4
11.74,6.161831557174312E-4
11.744,6.178419531792744E-4
11.748000000000001,6.197892371562207E-4
11.752,6.188035748962849E-4
11.756,6.161350746315807E-4
11.76,6.170005341768901E-4
11.764000000000001,6.168082098334881E-4
11.768,6.173611423207691E-4
11.772,6.182506424090038E-4
11.776,6.200777236713238E-4
11.78,6.214961157039144E-4
11.784,6.19813277699146E-4
11.788,6.163514395179081E-4
11.792,6.171928585202923E-4
11.796,6.170486152627406E-4
11.8,6.178419531792744E-4
11.804,6.172649801490681E-4
11.808,6.175053855783206E-4
11.812,6.203421696435018E-4
11.816,6.212557102746617E-4
11.82,6.187314532675091E-4
11.824,6.161110340886554E-4
11.828,6.161110340886554E-4
11.832,6.166399260330112E-4
11.836,6.154138583438228E-4
11.84,6.122885877635385E-4
11.844,6.12961722965446E-4
11.848,6.14884966399467E-4
11.852,6.166158854900859E-4
11.856,6.168562909193386E-4
11.86,6.18442966752406E-4
11.864,6.179140748080502E-4
11.868,6.14428196083887E-4
11.872,6.145964798843638E-4
11.876,6.163033584320575E-4
11.88,6.172168990632175E-4
11.884,6.184670072953313E-4
11.888,6.171928585202923E-4
11.892,6.153657772579723E-4
11.896,6.163033584320575E-4
11.9,6.184670072953313E-4
11.904,6.205585345298291E-4
11.908,6.213037913605123E-4
11.912,6.215201562468397E-4
11.916,6.14788804227766E-4
11.92,5.947870725139466E-4
11.924,5.70289759273103E-4
11.928,5.502399464734332E-4
11.932,5.366089586348086E-4
11.936,5.348539990012645E-4
11.94,5.521872304503795E-4
11.944,5.723572459646756E-4
11.948,5.91180991075157E-4
11.952,6.126491959074175E-4
11.956,6.299343462706819E-4
11.96,6.322181978485821E-4
11.964,6.291890894399988E-4
11.968,6.280832244654367E-4
11.972,6.244290619407965E-4
11.976,6.25919575602163E-4
11.98,6.26472508089444E-4
11.984,6.260878594026398E-4
11.988,6.250781565997788E-4
11.992,6.238040078247397E-4
11.996,6.245252241124976E-4
12.0,6.227221833931028E-4
12.004,6.220730887341208E-4
12.008000000000001,6.238040078247397E-4
12.012,6.224817779638502E-4
12.016,6.198613587849965E-4
12.02,6.215682373326901E-4
12.024000000000001,6.197171155274449E-4
12.028,6.196690344415944E-4
12.032,6.196449938986691E-4
12.036,6.207989399590818E-4
12.040000000000001,6.217605616760923E-4
12.044,6.219528860194944E-4
12.048,6.201498453000996E-4
12.052,6.198853993279218E-4
12.056000000000001,6.18899737067986E-4
12.06,6.175775072070964E-4
12.064,6.19356507383566E-4
12.068,6.224336968779997E-4
12.072000000000001,6.219769265624197E-4
12.076,6.25102197142704E-4
12.08,6.23924210539366E-4
12.084,6.215922778756154E-4
12.088000000000001,6.215682373326901E-4
12.092,6.209191426737081E-4
12.096,6.201498453000996E-4
12.1,6.219528860194944E-4
12.104000000000001,6.236838051101133E-4
12.108,6.262321026601913E-4
12.112,6.241886565115438E-4
12.116,6.216403589614659E-4
12.120000000000001,6.232991564233091E-4
12.124,6.243569403120207E-4
12.128,6.279149406649598E-4
12.132,6.271216027484262E-4
12.136000000000001,6.261118999455651E-4
12.14,6.281553460942125E-4
12.144,6.258474539733872E-4
12.148,6.248137106276008E-4
12.152000000000001,6.256310890870598E-4
12.156,6.26376345917743E-4
12.16,6.277466568644829E-4
12.164,6.270014000337998E-4
12.168000000000001,6.262321026601913E-4
12.172,6.239722916252165E-4
12.176,6.232991564233091E-4
12.18,6.215922778756154E-4
12.184000000000001,6.192603452118649E-4
12.188,6.199815614996228E-4
12.192,6.205585345298291E-4
12.196,6.170486152627406E-4
12.200000000000001,6.168322503764133E-4
12.204,6.152936556291965E-4
12.208,6.163995206037586E-4
12.212,6.152215340004207E-4
12.216000000000001,6.14428196083887E-4
12.22,6.145483987985133E-4
12.224,6.159427502881786E-4
12.228,6.173851828636944E-4
12.232000000000001,6.174332639495449E-4
12.236,6.175775072070964E-4
12.24,6.164716422325344E-4
12.244,6.160629530028049E-4
12.248000000000001,6.171207368915165E-4
12.252,6.165918449471607E-4
12.256,6.16255277346207E-4
12.26,6.163514395179081E-4
12.264000000000001,6.164956827754597E-4
12.268,6.185631694670322E-4
12.272,6.198373182420712E-4
12.276,6.185631694670322E-4
12.280000000000001,6.197171155274449E-4
12.284,6.204383318152028E-4
12.288,6.192603452118649E-4
12.292,6.201979263859502E-4
12.296,6.19909439870847E-4
12.3,6.216884400473165E-4
12.304,6.217124805902417E-4
12.308,6.205825750727543E-4
12.312,6.216643995043912E-4
12.316,6.189958992396871E-4
12.32,6.168322503764133E-4
12.324,6.175534666641712E-4
12.328,6.23659764567188E-4
12.332,6.222654130775228E-4
12.336,6.203421696435018E-4
12.34,6.198853993279218E-4
12.344,6.181063991514522E-4
12.348,6.173130612349186E-4
12.352,6.212076291888112E-4
12.356,6.181063991514522E-4
12.36,6.180342775226764E-4
12.364,6.216884400473165E-4
12.368,6.197411560703702E-4
12.372,6.163514395179081E-4
12.376,6.156542637730754E-4
12.38,6.160629530028049E-4
12.384,6.130819256800722E-4
12.388,6.139473852253818E-4
12.392,6.131780878517733E-4
12.396,6.111586822460511E-4
12.4,6.13418493281026E-4
12.404,6.127213175361933E-4
12.408,6.13154047308848E-4
12.412,6.143079933692607E-4
12.416,6.155100205155238E-4
12.42,6.170486152627406E-4
12.424,6.156061826872249E-4
12.428,6.131300067659228E-4
12.432,6.146926420560649E-4
12.436,6.161350746315807E-4
12.44,6.182266018660786E-4
12.444,6.189478181538365E-4
12.448,6.199575209566976E-4
12.452,6.185872100099575E-4
12.456,6.134906149098017E-4
12.46,6.151734529145701E-4
12.464,6.148609258565418E-4
12.468,6.149090069423923E-4
12.472,6.145003177126627E-4
12.476,6.133704121951754E-4
12.48,6.139233446824565E-4
12.484,6.148368853136165E-4
12.488,6.158706286594028E-4
12.492,6.158465881164775E-4
12.496,6.171928585202923E-4
12.5,6.148368853136165E-4
12.504,6.116154525616311E-4
12.508000000000001,6.105817092158447E-4
12.512,6.115673714757805E-4
12.516,6.119520201625847E-4
12.52,6.137069797961291E-4
12.524000000000001,6.137069797961291E-4
12.528,6.121443445059869E-4
12.532,6.109182768167984E-4
12.536,6.134425338239511E-4
12.540000000000001,6.151734529145701E-4
12.544,6.134665743668764E-4
12.548,6.121203039630616E-4
12.552,6.14067587940008E-4
12.556000000000001,6.149570880282427E-4
12.56,6.142599122834102E-4
12.564,6.121683850489121E-4
12.568,6.154619394296734E-4
12.572000000000001,6.176015477500217E-4
12.576,6.171207368915165E-4
12.58,6.169524530910397E-4
12.584,6.165437638613101E-4
12.588000000000001,6.155821421442996E-4
12.592,6.148128447706912E-4
12.596,6.133463716522502E-4
12.6,6.127934391649691E-4
12.604000000000001,6.098124118422364E-4
12.608,6.111586822460511E-4
12.612,6.138512230536807E-4
12.616,6.152215340004207E-4
12.620000000000001,6.159427502881786E-4
12.624,6.154378988867481E-4
12.628,6.14332033912186E-4
12.632,6.131059662229975E-4
12.636000000000001,6.118558579908837E-4
12.64,6.12961722965446E-4
12.644,6.158225475735523E-4
12.648,6.169043720051891E-4
12.652000000000001,6.148609258565418E-4
12.656,6.138271825107554E-4
12.66,6.150532501999438E-4
12.664,6.152696150862712E-4
12.668000000000001,6.162312368032817E-4
12.672,6.151734529145701E-4
12.676,6.120962634201363E-4
12.68,6.133704121951754E-4
12.684000000000001,6.12336668849389E-4
12.688,6.129376824225206E-4
12.692,6.142118311975596E-4
12.696,6.133704121951754E-4
12.700000000000001,6.140435473970827E-4
12.704,6.131780878517733E-4
12.708,6.101249389002647E-4
12.712,6.083699792667205E-4
12.716000000000001,6.084901819813468E-4
12.72,6.082738170950195E-4
12.724,6.095239253271331E-4
12.728,6.099085740139373E-4
12.732000000000001,6.121683850489121E-4
12.736,6.125289931927912E-4
12.74,6.154138583438228E-4
12.744,6.156302232301501E-4
12.748000000000001,6.171447774344417E-4
12.752,6.177217504646481E-4
12.756,6.153176961721218E-4
12.76,6.088267495823006E-4
12.764000000000001,5.882720853812002E-4
12.768,5.629814342238227E-4
12.772,5.420421213359183E-4
12.776,5.281226469821907E-4
12.780000000000001,5.262955657198707E-4
12.784,5.423306078510214E-4
12.788,5.61442839476606E-4
12.792,5.82598517250838E-4
12.796000000000001,6.064467358326994E-4
12.8,6.206546967015301E-4
12.804,6.257993728875366E-4
12.808,6.24573305198348E-4
12.812,6.175775072070964E-4
12.816,6.148609258565418E-4
12.82,6.176977099217228E-4
12.824,6.172409396061428E-4
12.828,6.170245747198154E-4
12.832,6.142599122834102E-4
12.836,6.143079933692607E-4
12.84,6.138512230536807E-4
12.844,6.144522366268123E-4
12.848,6.166158854900859E-4
12.852,6.177938720934239E-4
12.856,6.173851828636944E-4
12.86,6.177698315504986E-4
12.864,6.174332639495449E-4
12.868,6.179140748080502E-4
12.872,6.175775072070964E-4
12.876,6.14981128571168E-4
12.88,6.155100205155238E-4
12.884,6.157023448589259E-4
12.888,6.138512230536807E-4
12.892,6.159427502881786E-4
12.896,6.161831557174312E-4
12.9,6.141397095687838E-4
12.904,6.113750471323785E-4
12.908,6.109182768167984E-4
12.912,6.151494123716449E-4
12.916,6.143801149980365E-4
12.92,6.146445609702143E-4
12.924,6.152215340004207E-4
12.928,6.167360882047123E-4
12.932,6.179621558939007E-4
12.936,6.176977099217228E-4
12.94,6.192122641260144E-4
12.944,6.186593316387333E-4
12.948,6.176736693787975E-4
12.952,6.207748994161565E-4
12.956,6.212557102746617E-4
12.96,6.202460074718007E-4
12.964,6.207027777873807E-4
12.968,6.226981428501775E-4
12.972,6.222413725345975E-4
12.976,6.209912643024839E-4
12.98,6.199575209566976E-4
12.984,6.206066156156796E-4
12.988,6.203181291005765E-4
12.992,6.190199397826122E-4
12.996,6.186593316387333E-4
13.0,6.156302232301501E-4
13.004,6.162312368032817E-4
13.008000000000001,6.165678044042354E-4
13.012,6.172649801490681E-4
13.016,6.156302232301501E-4
13.02,6.159908313740292E-4
13.024000000000001,6.169043720051891E-4
13.028,6.161350746315807E-4
13.032,6.160869935457301E-4
13.036,6.14524358255588E-4
13.040000000000001,6.113750471323785E-4
13.044,6.087546279535248E-4
13.048,6.091152360974037E-4
13.052,6.1106252007435E-4
13.056000000000001,6.13418493281026E-4
13.06,6.13418493281026E-4
13.064,6.110384795314247E-4
13.068,6.113750471323785E-4
13.072000000000001,6.094518036983573E-4
13.076,6.069756277770552E-4
13.08,6.094998847842079E-4
13.084,6.141877906546344E-4
13.088000000000001,6.120001012484352E-4
13.092,6.080814927516174E-4
13.096,6.071679521204574E-4
13.1,6.077449251506637E-4
13.104000000000001,6.050043032571835E-4
13.108,6.049081410854825E-4
13.112,6.080334116657668E-4
13.116,6.068794656053542E-4
13.120000000000001,6.095960469559089E-4
13.124,6.075285602643363E-4
13.128,6.051485465147351E-4
13.132,6.08418060352571E-4
13.136000000000001,6.089709928398521E-4
13.14,6.074804791784858E-4
13.144,6.076968440648132E-4
13.148,6.077930062365142E-4
13.152000000000001,6.07312195378009E-4
13.156,6.08225736009169E-4
13.16,6.057495600878666E-4
13.164,6.07047749405831E-4
13.168000000000001,6.101008983573395E-4
13.172,6.09139276640329E-4
13.176,6.085382630671974E-4
13.18,6.081055332945426E-4
13.184000000000001,6.09331600983731E-4
13.188,6.107259524733963E-4
13.192,6.122885877635385E-4
13.196,6.100768578144142E-4
13.200000000000001,6.113269660465279E-4
13.204,6.113750471323785E-4
13.208,6.120001012484352E-4
13.212,6.115433309328553E-4
13.216000000000001,6.076006818931121E-4
13.22,6.07768965693589E-4
13.224,6.086584657818237E-4
13.228,6.090911955544784E-4
13.232000000000001,6.085142225242721E-4
13.236,6.081536143803932E-4
13.24,6.071198710346068E-4
13.244,6.083940198096457E-4
13.248000000000001,6.082497765520942E-4
13.252,6.083459387237952E-4
13.256,6.069756277770552E-4
13.26,6.095239253271331E-4
13.264000000000001,6.090190739257026E-4
13.268,6.058938033454183E-4
13.272,6.064467358326994E-4
13.276,6.074804791784858E-4
13.280000000000001,6.121203039630616E-4
13.284,6.109903984455742E-4
13.288,6.088267495823006E-4
13.292,6.072160332063079E-4
13.296000000000001,6.062544114892974E-4
13.3,6.072881548350837E-4
13.304,6.085382630671974E-4
13.308,6.063265331180731E-4
13.312000000000001,6.045956140274541E-4
13.316,6.078170467794395E-4
13.32,6.084661414384215E-4
13.324,6.07047749405831E-4
13.328,6.054370330298383E-4
13.332,6.056053168303151E-4
13.336,6.092835198978806E-4
13.34,6.117596958191827E-4
13.344,6.109423173597237E-4
13.348,6.088507901252257E-4
13.352,6.077930062365142E-4
13.356,6.083699792667205E-4
13.36,6.053889519439877E-4
13.364,6.066871412619521E-4
13.368,6.097643307563858E-4
13.372,6.121203039630616E-4
13.376,6.105095875870689E-4
13.38,6.073843170067847E-4
13.384,6.066871412619521E-4
13.388,6.074323980926352E-4
13.392,6.075285602643363E-4
13.396,6.052447086864361E-4
13.4,6.08225736009169E-4
13.404,6.084901819813468E-4
13.408,6.054370330298383E-4
13.412,6.060380466029699E-4
13.416,6.048360194567067E-4
13.42,6.088507901252257E-4
13.424,6.099326145568626E-4
13.428,6.092835198978806E-4
13.432,6.057014790020162E-4
13.436,6.05412992486913E-4
13.44,6.058938033454183E-4
13.444,6.052206681435109E-4
13.448,6.015184245330204E-4
13.452,6.011337758462162E-4
13.456,6.034416679670414E-4
13.46,6.044754113128277E-4
13.464,6.045715734845288E-4
13.468,6.029127760226856E-4
13.472,6.032012625377888E-4
13.476,6.048360194567067E-4
13.48,6.03129140909013E-4
13.484,6.039465193684719E-4
13.488,6.045234923986783E-4
13.492,6.012780191037677E-4
13.496,6.01205897474992E-4
13.5,6.046917761991552E-4
13.504,6.051245059718099E-4
13.508000000000001,6.053889519439877E-4
13.512,6.061582493175962E-4
13.516,6.057736006307919E-4
13.52,6.059899655171193E-4
13.524000000000001,6.048119789137814E-4
13.528,6.034416679670414E-4
13.532,6.04763897827931E-4
13.536,6.051485465147351E-4
13.540000000000001,6.056053168303151E-4
13.544,6.079372494940658E-4
13.548,6.094277631554321E-4
13.552,6.064467358326994E-4
13.556000000000001,6.033935868811909E-4
13.56,6.03032978737312E-4
13.564,6.041148031689488E-4
13.568,6.055331952015393E-4
13.572000000000001,6.026002489646572E-4
13.576,6.01205897474992E-4
13.58,5.988739648112414E-4
13.584,6.000759919575046E-4
13.588000000000001,6.01302059646693E-4
13.592,6.046917761991552E-4
13.596,6.088027090393753E-4
13.6,6.103172632436669E-4
13.604000000000001,6.074804791784858E-4
13.608,5.977200187508287E-4
13.612,5.773817194360557E-4
13.616,5.555048253740658E-4
13.620000000000001,5.342770259710581E-4
13.624,5.209826057333874E-4
13.628,5.212470517055652E-4
13.632,5.421382835076192E-4
13.636000000000001,5.598561636435386E-4
13.64,5.785837465823189E-4
13.644,6.012780191037677E-4
13.648,6.121443445059869E-4
13.652000000000001,6.124087904781649E-4
13.656,6.122645472206132E-4
13.66,6.08418060352571E-4
13.664,6.081536143803932E-4
13.668000000000001,6.086103846959732E-4
13.672,6.07961290036991E-4
13.676,6.083459387237952E-4
13.68,6.090431144686279E-4
13.684000000000001,6.107019119304711E-4
13.688,6.071198710346068E-4
13.692,6.048841005425572E-4
13.696,6.08225736009169E-4
13.700000000000001,6.053168303152119E-4
13.704,6.045715734845288E-4
13.708,6.044032896840519E-4
13.712,6.016867083334973E-4
13.716000000000001,6.024560057071056E-4
13.72,6.047158167420804E-4
13.724,6.056533979161657E-4
13.728,6.04763897827931E-4
13.732000000000001,6.055331952015393E-4
13.736,6.063986547468489E-4
13.74,6.041148031689488E-4
13.744,6.041628842547994E-4
13.748000000000001,6.037782355679951E-4
13.752,6.026002489646572E-4
13.756,6.051004654288846E-4
13.76,6.059659249741941E-4
13.764000000000001,6.057255195449415E-4
13.768,6.059178438883435E-4
13.772,6.078410873223647E-4
13.776,6.06590979090251E-4
13.780000000000001,6.079853305799163E-4
13.784,6.086584657818237E-4
13.788,6.071198710346068E-4
13.792,6.063024925751478E-4
13.796000000000001,6.065188574614752E-4
13.8,6.082738170950195E-4
13.804,6.060380466029699E-4
13.808,6.041148031689488E-4
13.812000000000001,6.05412992486913E-4
13.816,6.084661414384215E-4
13.82,6.098364523851616E-4
13.824,6.068554250624289E-4
13.828,6.056774384590909E-4
13.832,6.106778713875458E-4
13.836,6.123126283064637E-4
13.84,6.116154525616311E-4
13.844,6.065188574614752E-4
13.848,6.074804791784858E-4
13.852,6.076247224360374E-4
13.856,6.07047749405831E-4
13.86,6.062784520322227E-4
13.864,6.065428980044005E-4
13.868,6.034176274241161E-4
13.872,6.035618706816678E-4
13.876,6.03129140909013E-4
13.88,6.02672370593433E-4
13.884,6.024319651641804E-4
13.888,6.014703434471698E-4
13.892,5.998836676141025E-4
13.896,6.000038703287288E-4
13.9,5.99210532412195E-4
13.904,5.96830518662594E-4
13.908,5.987056810107645E-4
13.912,5.973594106069498E-4
13.916,5.98561437753213E-4
13.92,5.971430457206224E-4
13.924,5.961814240036119E-4
13.928,5.95003437400274E-4
13.932,5.925272614789717E-4
13.936,5.916618019336623E-4
13.94,5.94450504912993E-4
13.944,5.937052480823097E-4
13.948,5.937292886252349E-4
13.952,5.963977888899393E-4
13.956,5.965901132333414E-4
13.96,5.963016267182382E-4
13.964,5.962295050894624E-4
13.968,5.946909103422456E-4
13.972,5.960852618319109E-4
13.976,5.997634648994761E-4
13.98,5.991384107834193E-4
13.984,6.01662667790572E-4
13.988,6.011097353032909E-4
13.992,6.004366001013835E-4
13.996,6.001240730433551E-4
14.0,5.973353700640245E-4
14.004,5.943543427412919E-4
14.008000000000001,5.949313157714982E-4
14.012,5.977200187508287E-4
14.016,5.995951810989993E-4
14.02,6.012780191037677E-4
14.024000000000001,5.998836676141025E-4
14.028,6.002683163009066E-4
14.032,5.980085052659319E-4
14.036,5.975757754932772E-4
14.040000000000001,5.988739648112414E-4
14.044,5.98200829609334E-4
14.048,5.979844647230067E-4
14.052,5.971190051776972E-4
14.056000000000001,5.972632484352487E-4
14.06,5.961093023748362E-4
14.064,5.960612212889856E-4
14.068,5.942341400266656E-4
14.072000000000001,5.942581805695908E-4
14.076,5.957006131451066E-4
14.08,5.968785997484446E-4
14.084,5.95099599571975E-4
14.088000000000001,5.967824375767435E-4
14.092,5.979844647230067E-4
14.096,5.962535456323877E-4
14.1,5.958448564026582E-4
14.104000000000001,5.972632484352487E-4
14.108,6.009654920457393E-4
14.112,6.012299380179172E-4
14.116,6.002683163009066E-4
14.120000000000001,5.970228430059962E-4
14.124,5.965179916045656E-4
14.128,5.980806268947078E-4
14.132,5.988980053541667E-4
14.136000000000001,6.026483300505078E-4
14.14,5.999077081570277E-4
14.144,5.968545592055193E-4
14.148,5.964939510616404E-4
14.152000000000001,5.947149508851708E-4
14.156,5.971430457206224E-4
14.16,5.971430457206224E-4
14.164,5.946187887134699E-4
14.168000000000001,5.94186058940815E-4
14.172,5.942341400266656E-4
14.176,5.955804104304804E-4
14.18,5.938975724257119E-4
14.184000000000001,5.940418156832635E-4
14.188,5.949553563144235E-4
14.192,5.974074916928003E-4
14.196,5.967103159479677E-4
14.200000000000001,5.949553563144235E-4
14.204,5.959410185743593E-4
14.208,5.975036538645014E-4
14.212,5.974555727786509E-4
14.216000000000001,5.982248701522593E-4
14.22,5.976719376649782E-4
14.224,5.953159644583024E-4
14.228,5.933446399384307E-4
14.232000000000001,5.93993734597413E-4
14.236,5.941620183978898E-4
14.24,5.948832346856477E-4
14.244,5.939456535115625E-4
14.248000000000001,5.943783832842172E-4
14.252,5.95364045544153E-4
14.256,5.947149508851708E-4
14.26,5.943783832842172E-4
14.264000000000001,5.951476806578256E-4
14.268,5.957727347738824E-4
14.272,5.971911268064729E-4
14.276,5.975036538645014E-4
14.280000000000001,5.974796133215762E-4
14.284,5.955804104304804E-4
14.288,5.975998160362025E-4
14.292,5.97744059293754E-4
14.296000000000001,5.928397885370002E-4
14.3,5.937533291681602E-4
14.304,5.99018208068793E-4
14.308,5.992826540409709E-4
14.312000000000001,5.986335593819888E-4
14.316,5.966622348621171E-4
14.32,5.938735318827865E-4
14.324,5.952438428295266E-4
14.328000000000001,5.962054645465371E-4
14.332,5.965901132333414E-4
14.336,6.002202352150561E-4
14.34,5.993547756697467E-4
14.344,5.976238565791278E-4
14.348,5.973594106069498E-4
14.352,5.997153838136256E-4
14.356,5.977921403796045E-4
14.36,5.986816404678393E-4
14.364,5.985373972102877E-4
14.368,5.975036538645014E-4
14.372,5.963016267182382E-4
14.376,5.96638194319192E-4
14.38,5.960131402031351E-4
14.384,5.969266808342951E-4
14.388,5.965420321474909E-4
14.392,5.950274779431993E-4
14.396,5.926955452794486E-4
14.4,5.946909103422456E-4
14.404,5.951476806578256E-4
14.408,5.92455139850196E-4
14.412,5.89257747641136E-4
14.416,5.893058287269865E-4
14.42,5.922147344209433E-4
14.424,5.957246536880319E-4
14.428,5.97744059293754E-4
14.432,5.964699105187151E-4
14.436,5.972392078923235E-4
14.44,5.988018431824656E-4
14.444,6.015665056188709E-4
14.448,6.044754113128277E-4
14.452,6.032493436236393E-4
14.456,5.907963423883528E-4
14.46,5.679818671522777E-4
14.464,5.424988916514983E-4
14.468,5.234587816546895E-4
14.472,5.118952805076377E-4
14.476,5.153811592318009E-4
14.48,5.341327827135065E-4
14.484,5.522112709933048E-4
14.488,5.731986649670598E-4
14.492,5.969026402913698E-4
14.496,6.095720064129837E-4
14.5,6.114231282182289E-4
14.504,6.0740835754971E-4
14.508000000000001,6.041148031689488E-4
14.512,6.001721541292057E-4
14.516,6.016386272476467E-4
14.52,6.043311680552761E-4
14.524000000000001,6.050043032571835E-4
14.528,6.037541950250698E-4
14.532,6.033214652524151E-4
14.536,6.043552085982014E-4
14.540000000000001,6.033455057953403E-4
14.544,6.042109653406499E-4
14.548,6.074804791784858E-4
14.552,6.045234923986783E-4
14.556000000000001,6.046677356562299E-4
14.56,6.072881548350837E-4
14.564,6.043311680552761E-4
14.568,6.02768532765134E-4
14.572000000000001,6.020473164773762E-4
14.576,6.030089381943867E-4
14.58,6.037061139392194E-4
14.584,6.037301544821445E-4
14.588000000000001,6.059899655171193E-4
14.592,6.059659249741941E-4
14.596,6.068794656053542E-4
14.6,6.067592628907279E-4
14.604000000000001,6.055572357444646E-4
14.608,6.052927897722867E-4
14.612,6.057976411737172E-4
14.616,6.061342087746709E-4
14.620000000000001,6.069996683199805E-4
14.624,6.077930062365142E-4
14.628,6.091873577261795E-4
14.632,6.090431144686279E-4
14.636000000000001,6.068554250624289E-4
14.64,6.088027090393753E-4
14.644,6.086584657818237E-4
14.648,6.09331600983731E-4
14.652000000000001,6.121683850489121E-4
14.656,6.154138583438228E-4
14.66,6.142599122834102E-4
14.664,6.141877906546344E-4
14.668000000000001,6.117596958191827E-4
14.672,6.1106252007435E-4
14.676,6.09331600983731E-4
14.68,6.107019119304711E-4
14.684000000000001,6.12336668849389E-4
14.688,6.116154525616311E-4
14.692,6.092835198978806E-4
14.696,6.14524358255588E-4
14.700000000000001,6.133463716522502E-4
14.704,6.114952498470047E-4
14.708,6.105576686729195E-4
14.712,6.089709928398521E-4
14.716000000000001,6.091152360974037E-4
14.72,6.056053168303151E-4
14.724,6.067833034336532E-4
14.728,6.055331952015393E-4
14.732000000000001,6.044513707699025E-4
14.736,6.023598435354046E-4
14.74,6.000279108716541E-4
14.744,6.012780191037677E-4
14.748000000000001,5.997153838136256E-4
14.752,6.014703434471698E-4
14.756,6.038743977396961E-4
14.76,6.009895325886646E-4
14.764000000000001,5.995230594702235E-4
14.768,6.01758829962273E-4
14.772,6.009174109598888E-4
14.776,6.004846811872341E-4
14.780000000000001,5.998355865282519E-4
14.784,5.97287288978174E-4
14.788,6.015184245330204E-4
14.792,6.002202352150561E-4
14.796000000000001,5.956765726021814E-4
14.8,5.947870725139466E-4
14.804,5.965420321474909E-4
14.808,5.955804104304804E-4
14.812000000000001,5.975998160362025E-4
14.816,5.987056810107645E-4
14.82,6.003644784726077E-4
14.824,5.991864918692698E-4
14.828000000000001,5.976959782079035E-4
14.832,5.975998160362025E-4
14.836,5.984652755815119E-4
14.84,5.99018208068793E-4
14.844000000000001,5.992586134980456E-4
14.848,6.017347894193477E-4
14.852,5.997875054424014E-4
14.856,5.973353700640245E-4
14.86,6.008693298740382E-4
14.864,6.035137895958172E-4
14.868,6.026483300505078E-4
14.872,6.001481135862804E-4
14.876,5.989701269829425E-4
14.88,5.992345729551203E-4
14.884,5.983691134098109E-4
14.888,5.990662891546435E-4
14.892,6.012780191037677E-4
14.896,6.020953975632267E-4
14.9,6.041148031689488E-4
14.904,6.006770055306362E-4
14.908,5.98657599924914E-4
14.912,6.019271137627498E-4
14.916,6.005087217301593E-4
14.92,6.009895325886646E-4
14.924,6.024319651641804E-4
14.928,6.009895325886646E-4
14.932,5.999077081570277E-4
14.936,5.97551734950352E-4
14.94,5.957486942309572E-4
14.944,5.969266808342951E-4
14.948,5.987297215536898E-4
14.952,5.982248701522593E-4
14.956,6.006289244447857E-4
14.96,5.993547756697467E-4
14.964,5.975036538645014E-4
14.968,5.966622348621171E-4
14.972,5.969507213772204E-4
14.976,5.949553563144235E-4
14.98,5.969747619201456E-4
14.984,6.003644784726077E-4
14.988,6.001240730433551E-4
14.992,6.001721541292057E-4
14.996,5.979604241800814E-4
15.0,5.986816404678393E-4
15.004,5.986335593819888E-4
15.008000000000001,5.991143702404941E-4
15.012,5.997875054424014E-4
15.016,5.985373972102877E-4
15.02,5.988258837253909E-4
15.024000000000001,5.977200187508287E-4
15.028,5.989220458970919E-4
15.032,6.005327622730846E-4
15.036,6.024800462500309E-4
15.040000000000001,6.023838840783298E-4
15.044,6.007010460735615E-4
15.048,5.996432621848499E-4
15.052,6.001721541292057E-4
15.056000000000001,6.001961946721308E-4
15.06,5.997634648994761E-4
15.064,5.991143702404941E-4
15.068,5.966141537762667E-4
15.072000000000001,5.947389914280961E-4
15.076,5.97744059293754E-4
15.08,5.96830518662594E-4
15.084,5.989701269829425E-4
15.088000000000001,6.001961946721308E-4
15.092,5.987056810107645E-4
15.096,5.975998160362025E-4
15.1,5.980325458088572E-4
15.104000000000001,5.974315322357256E-4
15.108,5.961093023748362E-4
15.112,5.95820815859733E-4
15.116,5.966622348621171E-4
15.120000000000001,5.995230594702235E-4
15.124,5.992345729551203E-4
15.128,5.988258837253909E-4
15.132,5.998836676141025E-4
15.136000000000001,6.026483300505078E-4
15.14,6.00388519015533E-4
15.144,5.99474978384373E-4
15.148,5.959410185743593E-4
15.152000000000001,5.952919239153772E-4
15.156,5.965420321474909E-4
15.16,5.956284915163308E-4
15.164,5.97551734950352E-4
15.168000000000001,5.989941675258677E-4
15.172,5.965901132333414E-4
15.176,5.961814240036119E-4
15.18,5.990422486117183E-4
15.184000000000001,5.973594106069498E-4
15.188,5.955563698875551E-4
15.192,5.977921403796045E-4
15.196,5.976719376649782E-4
15.200000000000001,5.997153838136256E-4
15.204,6.01205897474992E-4
15.208,6.016145867047214E-4
15.212,5.995471000131488E-4
15.216000000000001,5.99018208068793E-4
15.22,5.959890996602098E-4
15.224,5.971911268064729E-4
15.228,6.009174109598888E-4
15.232000000000001,6.005087217301593E-4
15.236,6.026483300505078E-4
15.24,5.993788162126719E-4
15.244,5.985854782961383E-4
15.248000000000001,6.005568028160099E-4
15.252,6.014463029042446E-4
15.256,6.011097353032909E-4
15.26,6.003644784726077E-4
15.264000000000001,5.987778026395403E-4
15.268,6.005087217301593E-4
15.272,6.004125595584582E-4
15.276,6.009174109598888E-4
15.280000000000001,6.025521678788067E-4
15.284,5.987056810107645E-4
15.288,6.02311762449554E-4
15.292,6.055572357444646E-4
15.296000000000001,6.080574522086921E-4
15.3,6.0832189818087E-4
15.304,6.052687492293614E-4
15.308,5.958448564026582E-4
15.312000000000001,5.787039492969452E-4
15.316,5.567308930632543E-4
15.32,5.324739852516633E-4
15.324,5.158379295473809E-4
15.328000000000001,5.104288073891967E-4
15.332,5.240597952278211E-4
15.336,5.436528377119108E-4
15.34,5.640151775696093E-4
15.344000000000001,5.908684640171286E-4
15.348,6.04499451855753E-4
15.352,6.060380466029699E-4
15.356,6.075766413501868E-4
15.36,6.000759919575046E-4
15.364,5.977921403796045E-4
15.368,5.997153838136256E-4
15.372,6.021915597349278E-4
15.376,6.028646949368351E-4
15.38,6.019030732198246E-4
15.384,5.996192216419246E-4
15.388,6.002683163009066E-4
15.392,5.997153838136256E-4
15.396,6.006289244447857E-4
15.4,6.022396408207782E-4
15.404,6.037541950250698E-4
15.408,6.035618706816678E-4
15.412,6.022156002778529E-4
15.416,6.031531814519383E-4
15.42,6.04763897827931E-4
15.424,6.049321816284077E-4
15.428,6.041148031689488E-4
15.432,6.040907626260236E-4
15.436,6.022156002778529E-4
15.44,6.036339923104436E-4
15.444,6.034416679670414E-4
15.448,6.065669385473258E-4
15.452,6.056533979161657E-4
15.456,6.051966276005857E-4
15.46,6.050764248859593E-4
15.464,6.039705599113972E-4
15.468,6.042109653406499E-4
15.472,6.051966276005857E-4
15.476,6.046196545703793E-4
15.48,6.038743977396961E-4
15.484,6.070717899487563E-4
15.488,6.092113982691048E-4
15.492,6.043311680552761E-4
15.496,6.016386272476467E-4
15.5,6.032974247094898E-4
15.504,6.03225303080714E-4
15.508000000000001,6.057255195449415E-4
15.512,6.088027090393753E-4
15.516,6.097162496705353E-4
15.52,6.079372494940658E-4
15.524000000000001,6.053649114010625E-4
15.528,6.04042681540173E-4
15.532,6.064226952897742E-4
15.536,6.105095875870689E-4
15.540000000000001,6.096200874988342E-4
15.544,6.071198710346068E-4
15.548,6.094758442412826E-4
15.552,6.084421008954963E-4
15.556000000000001,6.063986547468489E-4
15.56,6.066150196331763E-4
15.564,6.037782355679951E-4
15.568,6.056053168303151E-4
15.572000000000001,6.051966276005857E-4
15.576,6.022396408207782E-4
15.58,6.038743977396961E-4
15.584,6.040907626260236E-4
15.588000000000001,6.036099517675183E-4
15.592,6.067352223478027E-4
15.596,6.016386272476467E-4
15.6,6.001481135862804E-4
15.604000000000001,6.03129140909013E-4
15.608,6.001000325004299E-4
15.612,6.006770055306362E-4
15.616,5.997634648994761E-4
15.620000000000001,6.015905461617962E-4
15.624,5.98104667437633E-4
15.628,5.979363836371561E-4
15.632,5.988258837253909E-4
15.636000000000001,5.980565863517825E-4
15.64,5.985854782961383E-4
15.644,5.992586134980456E-4
15.648,5.996432621848499E-4
15.652000000000001,5.993066945838961E-4
15.656,5.980085052659319E-4
15.66,6.000038703287288E-4
15.664,6.023598435354046E-4
15.668000000000001,5.98200829609334E-4
15.672,5.99667302727775E-4
15.676,5.994268972985225E-4
15.68,6.024319651641804E-4
15.684000000000001,6.009654920457393E-4
15.688,6.015665056188709E-4
15.692,6.035378301387425E-4
15.696,6.014463029042446E-4
15.700000000000001,5.988739648112414E-4
15.704,5.979604241800814E-4
15.708,5.980325458088572E-4
15.712,6.009654920457393E-4
15.716000000000001,5.998836676141025E-4
15.72,5.994028567555972E-4
15.724,5.969988024630709E-4
15.728,5.957006131451066E-4
15.732000000000001,5.961814240036119E-4
15.736,5.969988024630709E-4
15.74,5.980085052659319E-4
15.744,5.971911268064729E-4
15.748000000000001,5.967824375767435E-4
15.752,5.961814240036119E-4
15.756,6.000279108716541E-4
15.76,5.979123430942309E-4
15.764000000000001,5.970709240918467E-4
15.768,5.991143702404941E-4
15.772,6.018069110481235E-4
15.776,5.999077081570277E-4
15.780000000000001,5.974074916928003E-4
15.784,6.001481135862804E-4
15.788,6.017107488764224E-4
15.792,6.001481135862804E-4
15.796000000000001,5.963016267182382E-4
15.8,5.967103159479677E-4
15.804,5.999798297858035E-4
15.808,6.001961946721308E-4
15.812000000000001,6.008693298740382E-4
15.816,5.988980053541667E-4
15.82,5.999077081570277E-4
15.824,6.023358029924793E-4
15.828000000000001,6.024800462500309E-4
15.832,6.020473164773762E-4
15.836,6.002442757579814E-4
15.84,5.984412350385867E-4
15.844000000000001,6.002683163009066E-4
15.848,5.999077081570277E-4
15.852,5.993547756697467E-4
15.856,5.988258837253909E-4
15.860000000000001,5.972151673493982E-4
15.864,5.971190051776972E-4
15.868,5.999077081570277E-4
15.872,6.015665056188709E-4
15.876,5.998836676141025E-4
15.88,5.986816404678393E-4
15.884,6.00388519015533E-4
15.888,6.008693298740382E-4
15.892,5.99931748699953E-4
15.896,6.005087217301593E-4
15.9,6.006289244447857E-4
15.904,5.993307351268214E-4
15.908,6.007972082452624E-4
15.912,6.031051003660878E-4
15.916,6.009174109598888E-4
15.92,6.04763897827931E-4
15.924,6.049802627142583E-4
15.928,6.038022761109203E-4
15.932,6.01662667790572E-4
15.936,6.019030732198246E-4
15.94,6.012299380179172E-4
15.944,6.006770055306362E-4
15.948,5.992826540409709E-4
15.952,5.984652755815119E-4
15.956,6.01854992133974E-4
15.96,6.030089381943867E-4
15.964,6.007491271594119E-4
15.968,6.003163973867572E-4
15.972,6.027204516792836E-4
15.976,6.038263166538456E-4
15.98,6.028646949368351E-4
15.984,6.0649481691855E-4
15.988,6.052447086864361E-4
15.992,6.048841005425572E-4
15.996,6.005568028160099E-4
16.0,5.988739648112414E-4
16.004,5.982729512381098E-4
16.008,5.953880860870782E-4
16.012,5.961333429177613E-4
16.016000000000002,5.968785997484446E-4
16.02,5.970228430059962E-4
16.024,5.991143702404941E-4
16.028,5.998836676141025E-4
16.032,5.994268972985225E-4
16.036,5.976238565791278E-4
16.04,5.979844647230067E-4
16.044,6.020473164773762E-4
16.048000000000002,6.041869247977246E-4
16.052,6.015665056188709E-4
16.056,6.018790326768993E-4
16.06,6.014222623613193E-4
16.064,6.018069110481235E-4
16.068,6.049321816284077E-4
16.072,6.048360194567067E-4
16.076,6.023598435354046E-4
16.080000000000002,6.009174109598888E-4
16.084,6.032733841665645E-4
16.088,6.026483300505078E-4
16.092,6.009895325886646E-4
16.096,5.991384107834193E-4
16.1,5.991864918692698E-4
16.104,5.99667302727775E-4
16.108,6.01205897474992E-4
16.112000000000002,6.03129140909013E-4
16.116,6.031772219948636E-4
16.12,6.025281273358814E-4
16.124,5.998115459853266E-4
16.128,6.023838840783298E-4
16.132,6.037301544821445E-4
16.136,6.011578163891415E-4
16.14,6.033214652524151E-4
16.144000000000002,6.063986547468489E-4
16.148,6.076487629789626E-4
16.152,6.084901819813468E-4
16.156,6.017107488764224E-4
16.16,5.866854095481327E-4
16.164,5.631016369384491E-4
16.168,5.386043236976055E-4
16.172,5.228577680815579E-4
16.176000000000002,5.178092540672525E-4
16.18,5.320893365648591E-4
16.184,5.493985274710489E-4
16.188,5.666355967484629E-4
16.192,5.894260314416129E-4
16.196,6.065188574614752E-4
16.2,6.090190739257026E-4
16.204,6.104855470441437E-4
16.208000000000002,6.088988712110763E-4
16.212,6.070958304916816E-4
16.216,6.0649481691855E-4
16.22,6.067592628907279E-4
16.224,6.069275466912047E-4
16.228,6.093796820695815E-4
16.232,6.082738170950195E-4
16.236,6.073843170067847E-4
16.240000000000002,6.049321816284077E-4
16.244,6.058457222595677E-4
16.248,6.068554250624289E-4
16.252,6.063746142039236E-4
16.256,6.049802627142583E-4
16.26,6.022877219066288E-4
16.264,6.00845289331113E-4
16.268,6.007250866164866E-4
16.272000000000002,6.02768532765134E-4
16.276,6.036099517675183E-4
16.28,6.02119438106152E-4
16.284,6.017107488764224E-4
16.288,6.026002489646572E-4
16.292,6.059178438883435E-4
16.296,6.070237088629058E-4
16.3,6.053168303152119E-4
16.304000000000002,6.019271137627498E-4
16.308,6.026964111363583E-4
16.312,6.068794656053542E-4
16.316,6.057976411737172E-4
16.32,6.052447086864361E-4
16.324,6.051004654288846E-4
16.328,6.063265331180731E-4
16.332,6.060620871458951E-4
16.336000000000002,6.050523843430341E-4
16.34,6.030570192802372E-4
16.344,6.063265331180731E-4
16.348,6.067352223478027E-4
16.352,6.105576686729195E-4
16.356,6.15341736715047E-4
16.36,6.128174797078944E-4
16.364,6.092835198978806E-4
16.368000000000002,6.084661414384215E-4
16.372,6.098364523851616E-4
16.376,6.117837363621079E-4
16.38,6.08874830668151E-4
16.384,6.066390601761016E-4
16.388,6.066871412619521E-4
16.392,6.0832189818087E-4
16.396,6.113029255036027E-4
16.4,6.080574522086921E-4
16.404,6.094037226125068E-4
16.408,6.069275466912047E-4
16.412,6.061342087746709E-4
16.416,6.068073439765785E-4
16.42,6.071439115775321E-4
16.424,6.04763897827931E-4
16.428,6.038984382826214E-4
16.432,6.004125595584582E-4
16.436,5.99931748699953E-4
16.44,6.01758829962273E-4
16.444,5.976719376649782E-4
16.448,5.953400050012277E-4
16.452,5.980325458088572E-4
16.456,5.97744059293754E-4
16.46,5.945226265417688E-4
16.464,5.938975724257119E-4
16.468,5.961573834606866E-4
16.472,5.939456535115625E-4
16.476,5.945226265417688E-4
16.48,5.955082888017046E-4
16.484,5.92455139850196E-4
16.488,5.920704911633917E-4
16.492,5.924310993072708E-4
16.496,5.936571669964591E-4
16.5,5.934648426530571E-4
16.504,5.931042345091781E-4
16.508,5.931523155950286E-4
16.512,5.941379778549645E-4
16.516000000000002,5.94450504912993E-4
16.52,5.933446399384307E-4
16.524,5.961814240036119E-4
16.528,5.966862754050424E-4
16.532,5.926715047365233E-4
16.536,5.901472477293707E-4
16.54,5.942822211125161E-4
16.544,5.91902207362915E-4
16.548000000000002,5.89714517956716E-4
16.552,5.907723018454276E-4
16.556,5.91445437047335E-4
16.56,5.924310993072708E-4
16.564,5.927195858223739E-4
16.568,5.928157479940749E-4
16.572,5.941379778549645E-4
16.576,5.93825450796936E-4
16.580000000000002,5.969507213772204E-4
16.584,5.998115459853266E-4
16.588,5.960131402031351E-4
16.592,5.921426127921675E-4
16.596,5.927676669082244E-4
16.6,5.941139373120392E-4
16.604,5.930801939662528E-4
16.608,5.927676669082244E-4
16.612000000000002,5.919262479058402E-4
16.616,5.915896803048865E-4
16.62,5.911329099893065E-4
16.624,5.909405856459044E-4
16.628,5.899789639288939E-4
16.632,5.911088694463812E-4
16.636,5.904357342444739E-4
16.64,5.887528962397054E-4
16.644000000000002,5.905078558732496E-4
16.648,5.939456535115625E-4
16.652,5.912290721610076E-4
