time,channel2
0.0,-0.011294583633889792
0.004,-0.011294751917690268
0.008,-0.011292948876970873
0.012,-0.011295256769091698
0.016,-0.011290881390279301
0.02,-0.011297708904470075
0.024,-0.011299656188447022
0.028,-0.01129850224238661
0.032,-0.011296843444924766
0.036000000000000004,-0.011295833742121906
0.04,-0.011296410715152111
0.044,-0.011295497174520951
0.048,-0.01129626647189456
0.052000000000000005,-0.011298117593699804
0.056,-0.011300281242563078
0.06,-0.011299223458674366
0.064,-0.011298790728901713
0.068,-0.011295977985379457
0.07200000000000001,-0.011294150904117136
0.076,-0.011295425052892175
0.08,-0.011300353364191855
0.084,-0.011298261836957356
0.088,-0.011298814769444637
0.092,-0.011297949309899328
0.096,-0.011298382039671984
0.1,-0.011301555391338118
0.10400000000000001,-0.011301627512966893
0.108,-0.011303334391514586
0.112,-0.011304151769974046
0.116,-0.011303286310428736
0.12,-0.011299199418131442
0.124,-0.011300161039848452
0.128,-0.011294824039319043
0.132,-0.011300209120934303
0.136,-0.011303719040201391
0.14,-0.011302829540113156
0.14400000000000002,-0.011302276607625875
0.148,-0.01130540187820616
0.152,-0.011308118459556715
0.156,-0.011309873419190259
0.16,-0.011309993621904884
0.164,-0.011306892391867525
0.168,-0.01130179579676737
0.17200000000000001,-0.011303646918572616
0.176,-0.011306555824266573
0.18,-0.011306411581009021
0.184,-0.011306964513496302
0.188,-0.011308142500099639
0.192,-0.011309849378647333
0.196,-0.011308022297385013
0.2,-0.011308070378470864
0.20400000000000001,-0.011310570594935091
0.20800000000000002,-0.011312830405970066
0.212,-0.011312253432939859
0.216,-0.01131504213591919
0.22,-0.011313840108772927
0.224,-0.01130850310824352
0.228,-0.011307805932498687
0.232,-0.011311412013937476
0.23600000000000002,-0.011313407379000273
0.24,-0.011313527581714899
0.244,-0.011312013027510608
0.248,-0.011308839675844472
0.252,-0.01130996958136196
0.256,-0.011306724108067049
0.26,-0.011312253432939859
0.264,-0.011314729608861162
0.268,-0.01131316697357102
0.272,-0.011313070811399319
0.276,-0.011314296879088507
0.28,-0.011315595068406471
0.28400000000000003,-0.01131285444651299
0.28800000000000003,-0.011312181311311084
0.292,-0.011311460095023327
0.296,-0.011311075446336522
0.3,-0.01131189282479598
0.304,-0.011313695865515375
0.308,-0.011314609406146536
0.312,-0.011315210419719668
0.316,-0.011316749014466883
0.32,-0.011318912663330157
0.324,-0.011318984784958934
0.328,-0.011319561757989139
0.332,-0.011320186812105197
0.336,-0.011318984784958934
0.34,-0.011316556690123481
0.34400000000000003,-0.011316989419896136
0.34800000000000003,-0.01132042721753445
0.352,-0.011321196514908058
0.356,-0.011319080947130635
0.36,-0.011319730041789617
0.364,-0.011321917731195815
0.368,-0.011321797528481189
0.372,-0.011319489636360364
0.376,-0.011318552055186278
0.38,-0.011318600136272129
0.384,-0.011322110055539217
0.388,-0.011322783190741125
0.392,-0.011318936703873083
0.396,-0.011323840974629837
0.4,-0.011322927433998677
0.404,-0.011322951474541602
0.40800000000000003,-0.01132381693408691
0.41200000000000003,-0.011323384204314257
0.41600000000000004,-0.01132412946114494
0.42,-0.011326990285753047
0.424,-0.01132545169100583
0.428,-0.011325740177520933
0.432,-0.011326028664036036
0.436,-0.011323600569200584
0.44,-0.011323961177344462
0.444,-0.011323865015172761
0.448,-0.01132554785317753
0.452,-0.011327086447924748
0.456,-0.0113272306911823
0.46,-0.011328552921043188
0.464,-0.01132864908321489
0.468,-0.011328552921043188
0.47200000000000003,-0.011327302812811075
0.47600000000000003,-0.011331197380764968
0.48,-0.011330139596876256
0.484,-0.01132747109661155
0.488,-0.01132792786692713
0.492,-0.011329057772444619
0.496,-0.011328096150727609
0.5,-0.0113272306911823
0.504,-0.011330740610449388
0.508,-0.011332880218769735
0.512,-0.011329923231989928
0.516,-0.011329730907646525
0.52,-0.011332279205196603
0.524,-0.011329394340045573
0.528,-0.011329562623846049
0.532,-0.011336702665094853
0.536,-0.011335741043377841
0.54,-0.011332495570082932
0.544,-0.011331005056421565
0.548,-0.01133276001605511
0.552,-0.011335284273062261
0.556,-0.011332207083567828
0.56,-0.011330043434704555
0.5640000000000001,-0.011332038799767352
0.5680000000000001,-0.011334611137860355
0.5720000000000001,-0.011336221854236347
0.5760000000000001,-0.011336366097493899
0.58,-0.011337303678667985
0.584,-0.011335909327178319
0.588,-0.011336197813693423
0.592,-0.011335332354148112
0.596,-0.011334611137860355
0.6,-0.011335115989261785
0.604,-0.011333649516143345
0.608,-0.011330331921219657
0.612,-0.011328985650815844
0.616,-0.011329009691358768
0.62,-0.011332832137683884
0.624,-0.011334611137860355
0.628,-0.011337736408440638
0.632,-0.011337976813869891
0.636,-0.011336438219122674
0.64,-0.011337087313781656
0.644,-0.01133783257061234
0.648,-0.011339323084273706
0.652,-0.011341679057480382
0.656,-0.011339779854589286
0.66,-0.011336269935322198
0.664,-0.011341630976394531
0.668,-0.011341318449336503
0.672,-0.011340957841192625
0.676,-0.01134011642219024
0.68,-0.011341294408793577
0.684,-0.011341174206078952
0.6880000000000001,-0.011336342056950973
0.6920000000000001,-0.01133569296229199
0.6960000000000001,-0.01133523619197641
0.7000000000000001,-0.011333889921572596
0.704,-0.01133550063794859
0.708,-0.011337760448983564
0.712,-0.011341318449336503
0.716,-0.011341270368250653
0.72,-0.011357906423954935
0.724,-0.011356728437351596
0.728,-0.01135605530214969
0.732,-0.01135925269435875
0.736,-0.0113570169238667
0.74,-0.01136016623498991
0.744,-0.01136021431607576
0.748,-0.011359661383588479
0.752,-0.011356343788664793
0.756,-0.011356247626493092
0.76,-0.01135853147807099
0.764,-0.011361079775621069
0.768,-0.011358771883500244
0.772,-0.01135665631572282
0.776,-0.011358627640242692
0.78,-0.011358146829384188
0.784,-0.01136213755950978
0.788,-0.01136341170828482
0.792,-0.011363700194799924
0.796,-0.011364733938145709
0.8,-0.011366272532892926
0.804,-0.011363075140683866
0.808,-0.011361007653992294
0.812,-0.011363387667741894
0.8160000000000001,-0.011363051100140941
0.8200000000000001,-0.011362113518966856
0.8240000000000001,-0.011355670653462884
0.8280000000000001,-0.011356776518437446
0.8320000000000001,-0.011362089478423931
0.836,-0.011364854140860336
0.84,-0.011366080208549524
0.844,-0.01136218564059563
0.848,-0.011361368262136172
0.852,-0.011364950303032037
0.856,-0.011366801424837283
0.86,-0.011367690924925516
0.864,-0.011367787087097217
0.868,-0.01136701778972361
0.872,-0.011364806059774486
0.876,-0.011370383465733146
0.88,-0.011370864276591652
0.884,-0.011370383465733146
0.888,-0.011369830533245865
0.892,-0.011368508303384976
0.896,-0.011368123654698171
0.9,-0.011368652546642528
0.904,-0.011366344654521701
0.908,-0.01136569555986272
0.912,-0.011366536978865104
0.916,-0.011364974343574962
0.92,-0.011369830533245865
0.924,-0.0113707200333341
0.928,-0.011367618803296741
0.932,-0.011369013154786407
0.936,-0.011369662249445389
0.9400000000000001,-0.011370143060303893
0.9440000000000001,-0.011369493965644911
0.9480000000000001,-0.011367546681667964
0.9520000000000001,-0.011366633141036805
0.9560000000000001,-0.011368796789900078
0.96,-0.011370239222475594
0.964,-0.011369614168359538
0.968,-0.011368123654698171
0.972,-0.01136706587080946
0.976,-0.011367450519496265
0.98,-0.011367907289811845
0.984,-0.011370191141389744
0.988,-0.011373580857942206
0.992,-0.011373388533598804
0.996,-0.011374927128346021
1.0,-0.011374229952601188
1.004,-0.01136797941144062
1.008,-0.011371609533422335
1.012,-0.01137706673666637
1.016,-0.011373845303914384
1.02,-0.0113752877364899
1.024,-0.011377595628610725
1.028,-0.011376129155492284
1.032,-0.011375672385176705
1.036,-0.011377619669153651
1.04,-0.011378268763812633
1.044,-0.011377427344810249
1.048,-0.011375215614861125
1.052,-0.011374590560745067
1.056,-0.01137264327676812
1.06,-0.011375720466262555
1.064,-0.011377379263724398
1.068,-0.01137386934445731
1.072,-0.011374590560745067
1.076,-0.011377331182638548
1.08,-0.011379615034216447
1.084,-0.011377836034039978
1.088,-0.011378076439469231
1.092,-0.01137574450680548
1.096,-0.01137386934445731
1.1,-0.011381706561450945
1.104,-0.011381706561450945
1.108,-0.011379975642360327
1.112,-0.011378965939557464
1.116,-0.011380023723446177
1.12,-0.011382860507511357
1.124,-0.011381971007423122
1.1280000000000001,-0.011377090777209295
1.1320000000000001,-0.011373965506629011
1.1360000000000001,-0.011377235020466846
1.1400000000000001,-0.011380480493761757
1.1440000000000001,-0.011382788385882582
1.1480000000000001,-0.0113843269806298
1.1520000000000001,-0.011384639507687828
1.156,-0.011382884548054284
1.16,-0.011380192007246654
1.164,-0.011379759277473998
1.168,-0.011379014020643315
1.172,-0.011377715831325352
1.176,-0.011377355223181472
1.18,-0.011380143926160803
1.184,-0.011380841101905636
1.188,-0.01138528860234681
1.192,-0.011385384764518511
1.196,-0.011382403737195778
1.2,-0.011376994615037593
1.204,-0.01137798027729753
1.208,-0.011382115250680674
1.212,-0.01138502415637463
1.216,-0.011385120318546332
1.22,-0.0113843269806298
1.224,-0.011384351021172724
1.228,-0.01138259606153918
1.232,-0.011386418507864296
1.236,-0.011391467021878602
1.24,-0.01138944761627288
1.244,-0.011389495697358731
1.248,-0.011388678318899271
1.252,-0.011386947399808653
1.256,-0.011385865575377015
1.26,-0.011386610832207699
1.264,-0.011387981143154438
1.268,-0.011389567818987506
1.272,-0.011390553481247442
1.276,-0.011386538710578924
1.28,-0.011386057899720418
1.284,-0.011389087008129002
1.288,-0.011390192873103564
1.292,-0.011391058332648873
1.296,-0.011389327413558253
1.3,-0.011389303373015329
1.304,-0.011388245589126617
1.308,-0.011389087008129002
1.312,-0.011387356089038382
1.316,-0.011387740737725187
1.32,-0.011390457319075741
1.324,-0.011392981576082893
1.328,-0.011396010684491477
1.332,-0.011394183603229156
1.336,-0.01139177954893663
1.34,-0.011391947832737108
1.344,-0.011389976508217235
1.348,-0.01138985630550261
1.352,-0.011388293670212468
1.356,-0.011390457319075741
1.36,-0.011390601562333293
1.364,-0.0113889908459573
1.368,-0.011395505833090047
1.372,-0.011394279765400857
1.3760000000000001,-0.011392164197623435
1.3800000000000001,-0.011392572886853164
1.3840000000000001,-0.01139259692739609
1.3880000000000001,-0.011393919157256979
1.3920000000000001,-0.011393678751827726
1.3960000000000001,-0.011395626035804672
1.4000000000000001,-0.01139543371146127
1.4040000000000001,-0.01139442400865841
1.408,-0.011395193306032017
1.412,-0.011396563616978758
1.416,-0.011396034725034402
1.42,-0.011396731900779234
1.424,-0.011397549279238695
1.428,-0.011399568684844416
1.432,-0.011403439212255383
1.436,-0.011400650509276052
1.44,-0.011396106846663178
1.444,-0.011392308440880987
1.448,-0.011395121184403242
1.452,-0.011396058765577328
1.456,-0.011395049062774467
1.46,-0.011398486860412779
1.464,-0.011398006049554274
1.468,-0.011398486860412779
1.472,-0.011398006049554274
1.476,-0.011398655144213257
1.48,-0.01140036202276095
1.484,-0.011399881211902444
1.488,-0.011398991711814209
1.492,-0.011397597360324543
1.496,-0.011397068468380189
1.5,-0.011396852103493862
1.504,-0.011399376360501014
1.508,-0.011402886279768102
1.512,-0.01140132364447796
1.516,-0.011401612130993064
1.52,-0.0114027901175964
1.524,-0.011403030523025654
1.528,-0.01140315072574028
1.532,-0.011402357387823747
1.536,-0.011402213144566195
1.54,-0.011398919590185434
1.544,-0.011398967671271285
1.548,-0.011403367090626608
1.552,-0.0114049778070026
1.556,-0.0114049778070026
1.56,-0.011402333347280821
1.564,-0.011402886279768102
1.568,-0.011404617198858722
1.572,-0.011406684685550294
1.576,-0.011406179834148863
1.58,-0.011403679617684636
1.584,-0.0114048816448309
1.588,-0.01140077071199068
1.592,-0.011404737401573347
1.596,-0.011408054996497033
1.6,-0.011404641239401646
1.604,-0.011400530306561426
1.608,-0.011401515968821363
1.612,-0.011404617198858722
1.616,-0.011406612563921517
1.62,-0.01140858388844139
1.624,-0.011407381861295127
1.6280000000000001,-0.011404232550171917
1.6320000000000001,-0.011402309306737897
1.6360000000000001,-0.011401924658051092
1.6400000000000001,-0.01140365557714171
1.6440000000000001,-0.011404256590714841
1.6480000000000001,-0.011403847901485112
1.6520000000000001,-0.011405049928631375
1.6560000000000001,-0.011406732766636144
1.6600000000000001,-0.011406011550348386
1.6640000000000001,-0.011408295401926286
1.668,-0.011410098442645681
1.672,-0.0114118293617363
1.676,-0.01140949742907255
1.68,-0.011407598226181453
1.684,-0.011409184902014521
1.688,-0.011406251955777639
1.692,-0.01140593942871961
1.696,-0.011407766509981931
1.7,-0.011408439645183838
1.704,-0.011409737834501802
1.708,-0.011412165929337253
1.712,-0.011411588956307048
1.716,-0.01141218996988018
1.72,-0.011412021686079701
1.724,-0.011408656010070165
1.728,-0.01141832030832612
1.732,-0.011420844565333274
1.736,-0.011415988375662371
1.74,-0.011410651375132962
1.744,-0.01141050713187541
1.748,-0.011412790983453311
1.752,-0.011413752605170321
1.756,-0.011414834429601959
1.76,-0.011414329578200528
1.764,-0.01141466614580148
1.768,-0.01141370452408447
1.772,-0.011413464118655217
1.776,-0.011412670780738684
1.78,-0.011410891780562215
1.784,-0.01141365644299862
1.788,-0.011415555645889716
1.792,-0.011415291199917538
1.796,-0.01141488251068781
1.8,-0.011414642105258556
1.804,-0.011413993010599574
1.808,-0.011414065132228349
1.812,-0.011412526537481133
1.816,-0.011415796051318969
1.82,-0.011423032254739472
1.824,-0.011419474254386533
1.828,-0.011414858470144883
1.832,-0.011413440078112293
1.836,-0.011413031388882564
1.84,-0.011414545943086855
1.844,-0.011416060497291146
1.848,-0.011416228781091622
1.852,-0.011417070200094007
1.856,-0.01141685383520768
1.86,-0.011420363754474768
1.864,-0.01142507570088812
1.868,-0.011424138119714034
1.872,-0.011420315673388918
1.8760000000000001,-0.011418632835384149
1.8800000000000001,-0.011420219511217217
1.8840000000000001,-0.01141832030832612
1.8880000000000001,-0.011418656875927075
1.8920000000000001,-0.011418464551583673
1.8960000000000001,-0.011421950430307836
1.9000000000000001,-0.011421397497820555
1.9040000000000001,-0.011419305970586057
1.9080000000000001,-0.011419882943616263
1.9120000000000001,-0.011417863538010541
1.9160000000000001,-0.01141776737583884
1.92,-0.01141832030832612
1.924,-0.011420628200446946
1.928,-0.011421325376191779
1.932,-0.01142283993039607
1.936,-0.011423825592656006
1.94,-0.011424306403514512
1.944,-0.011423921754827707
1.948,-0.011419305970586057
1.952,-0.011423176497997024
1.956,-0.011424642971115465
1.96,-0.011424354484600363
1.964,-0.011423825592656006
1.968,-0.011422767808767295
1.972,-0.011422286997908789
1.976,-0.011422527403338042
1.98,-0.011419834862530412
1.984,-0.011420604159904021
1.988,-0.01142466701165839
1.992,-0.011424763173830092
1.996,-0.011428297133640105
2.0,-0.011429090471556639
2.004,-0.011429090471556639
2.008,-0.011429018349927864
2.012,-0.011427479755180646
2.016,-0.01142654217400656
2.02,-0.011427407633551871
2.024,-0.011426998944322142
2.028,-0.011425436309031999
2.032,-0.011426373890206084
2.036,-0.011427840363324525
2.04,-0.0114277201606099
2.044,-0.011427335511923094
2.048,-0.011427527836266497
2.052,-0.011428994309384937
2.056,-0.0114300040121878
2.06,-0.011428946228299087
2.064,-0.011427599957895274
2.068,-0.011428345214725955
2.072,-0.011427599957895274
2.076,-0.0114277201606099
2.08,-0.011428176930925479
2.084,-0.011422407200623416
2.088,-0.011427960566039152
2.092,-0.011431398363677464
2.096,-0.01143101371499066
2.1,-0.011430893512276033
2.104,-0.011433465850369038
2.108,-0.011431157958248213
2.112,-0.011429427039157593
2.116,-0.011427960566039152
2.12,-0.011427623998438198
2.124,-0.01143233594485155
2.128,-0.011432191701593998
2.132,-0.011431662809649643
2.136,-0.011431807052907195
2.14,-0.011432985039510532
2.144,-0.011433922620684617
2.148,-0.011433874539598767
2.152,-0.011433393728740261
2.156,-0.01143288887733883
2.16,-0.011433465850369038
2.164,-0.011433465850369038
2.168,-0.011431542606935016
2.172,-0.011428898147213236
2.176,-0.011435341012717207
2.18,-0.01143873072926967
2.184,-0.011437937391353136
2.188,-0.011440389526731513
2.192,-0.011437336377780005
2.196,-0.011436350715520068
2.2,-0.011434355350457271
2.204,-0.011430821390647258
2.208,-0.011432504228652026
2.212,-0.011436350715520068
2.216,-0.011434715958601151
2.22,-0.011435653539775235
2.224,-0.011437745067009734
2.228,-0.011438658607640893
2.232,-0.0114392355806711
2.236,-0.011437023850721977
2.24,-0.011439620229357905
2.244,-0.011441711756592402
2.248,-0.011440894378132943
2.2520000000000002,-0.011440221242931037
2.2560000000000002,-0.01143877881035552
2.2600000000000002,-0.011439668310443754
2.2640000000000002,-0.011441351148448523
2.2680000000000002,-0.011440918418675868
2.2720000000000002,-0.011441663675506551
2.2760000000000002,-0.011440509729446139
2.2800000000000002,-0.011438297999497015
2.2840000000000003,-0.011436639202035172
2.2880000000000003,-0.011435413134345984
2.2920000000000003,-0.011439259621214025
2.2960000000000003,-0.011440918418675868
2.3000000000000003,-0.011440221242931037
2.3040000000000003,-0.011437552742666331
2.308,-0.011433922620684617
2.312,-0.01144188004039288
2.316,-0.011442240648536758
2.32,-0.01144111074301927
2.324,-0.011442000243107505
2.328,-0.011442937824281591
2.332,-0.011438538404926268
2.336,-0.011438418202211642
2.34,-0.011440581851074915
2.344,-0.011440076999673485
2.348,-0.011441182864648047
2.352,-0.011439980837501784
2.356,-0.01144115882410512
2.36,-0.011441591553877776
2.364,-0.011443009945910366
2.368,-0.01144426005414248
2.372,-0.011444115810884928
2.376,-0.011443514797311797
2.38,-0.011443827324369826
2.384,-0.011443033986453292
2.388,-0.011443683081112275
2.392,-0.011444187932513705
2.396,-0.011442553175594786
2.4,-0.011442745499938189
2.404,-0.011441327107905599
2.408,-0.011443875405455675
2.412,-0.011446231378662353
2.416,-0.011442961864824516
2.42,-0.011444692783915135
2.424,-0.011444163891970779
2.428,-0.01144517359477364
2.432,-0.011446135216490651
2.436,-0.011444668743372209
2.44,-0.011441855999849954
2.444,-0.011440293364559812
2.448,-0.01144654390572038
2.452,-0.011446279459748201
2.456,-0.011446856432778409
2.46,-0.011449068162727533
2.464,-0.011449885541186991
2.468,-0.011450919284532778
2.472,-0.011450462514217198
2.476,-0.011450823122361077
2.48,-0.011450847162904003
2.484,-0.011451303933219583
2.488,-0.011451039487247405
2.492,-0.011452674244166322
2.496,-0.011451832825163938
2.5,-0.011449717257386515
2.504,-0.01144644774354868
2.508,-0.011445942892147249
2.512,-0.011445149554230715
2.516,-0.011445510162374594
2.52,-0.01144745744635154
2.524,-0.01145106352779033
2.528,-0.01144933260869971
2.532,-0.011446519865177454
2.536,-0.011450174027702095
2.54,-0.011454068595655988
2.544,-0.011453131014481902
2.548,-0.011452313636022443
2.552,-0.011451808784621013
2.556,-0.011453611825340408
2.56,-0.011452770406338023
2.564,-0.011450174027702095
2.568,-0.011451448176477134
2.572,-0.011451640500820537
2.576,-0.01144959705467189
2.58,-0.0114528425279668
2.584,-0.011456063960718785
2.588,-0.011453395460454081
2.592,-0.0114529386901385
2.596,-0.011454020514570137
2.6,-0.011452674244166322
2.604,-0.011450630798017674
2.608,-0.011450919284532778
2.612,-0.011450702919646451
2.616,-0.011450775041275226
2.62,-0.01145298677122435
2.624,-0.011451279892676657
2.628,-0.01145156837919176
2.632,-0.011451231811590806
2.636,-0.011454429203799866
2.64,-0.011455895676918307
2.644,-0.011457049622978721
2.648,-0.011455366784973952
2.652,-0.01145786700143818
2.656,-0.011458492055554236
2.66,-0.011456208203976337
2.664,-0.011454092636198912
2.668,-0.011454116676741838
2.672,-0.01145476577140082
2.676,-0.011457698717637702
2.68,-0.011457386190579674
2.684,-0.011456568812120215
2.688,-0.011457049622978721
2.692,-0.01145786700143818
2.696,-0.011454525365971567
2.7,-0.011455871636375382
2.704,-0.011459621961071724
2.708,-0.011458588217725937
2.712,-0.011455414866059803
2.716,-0.011456015879632934
2.72,-0.011457891041981104
2.724,-0.011458588217725937
2.728,-0.011458443974468385
2.732,-0.011461160555818941
2.736,-0.011462675110023232
2.74,-0.011460174893559005
2.744,-0.01145841993392546
2.748,-0.011459910447586827
2.7520000000000002,-0.011459165190756144
2.7560000000000002,-0.01145421283891354
2.7600000000000002,-0.011457193866236271
2.7640000000000002,-0.011465896542775217
2.7680000000000002,-0.01146563209680304
2.7720000000000002,-0.011463877137169495
2.7760000000000002,-0.011463805015540719
2.7800000000000002,-0.011463708853369017
2.7840000000000003,-0.01146394925879827
2.7880000000000003,-0.011462194299164726
2.7920000000000003,-0.011459910447586827
2.7960000000000003,-0.011461545204505744
2.8000000000000003,-0.011459573879985873
2.8040000000000003,-0.011461473082876969
2.8080000000000003,-0.011468036151095566
2.8120000000000003,-0.011466834123949303
2.816,-0.011467795745666313
2.82,-0.011464622394000179
2.824,-0.011463276123596364
2.828,-0.011463780974997794
2.832,-0.011463636731740242
2.836,-0.011463588650654392
2.84,-0.011461833691020848
2.844,-0.0114644541101997
2.848,-0.011466713921234675
2.852,-0.01146471855617188
2.856,-0.0114642617858563
2.86,-0.011466665840148826
2.864,-0.011467819786209239
2.868,-0.01146608886711862
2.872,-0.011465656137345964
2.876,-0.011466762002320526
2.88,-0.011468661205211622
2.884,-0.011465944623861067
2.888,-0.011467026448292705
2.892,-0.011464381988570926
2.896,-0.011469959394529586
2.9,-0.011473012543481096
2.904,-0.011470536367559793
2.908,-0.011469526664756933
2.912,-0.011467723624037538
2.916,-0.011465319569745011
2.92,-0.011465319569745011
2.924,-0.011469526664756933
2.928,-0.011469478583671082
2.932,-0.011471329705476327
2.936,-0.011469093934984277
2.94,-0.011469911313443736
2.944,-0.01146842079978237
2.948,-0.011464381988570926
2.952,-0.011467939988923865
2.956,-0.011471233543304626
2.96,-0.011471377786562178
2.964,-0.011471954759592385
2.968,-0.011473084665109873
2.972,-0.011472940421852321
2.976,-0.01147325294891035
2.98,-0.011469959394529586
2.984,-0.011471089300047074
2.988,-0.011474887705829268
2.992,-0.011474551138228314
2.996,-0.011474190530084435
3.0,-0.011472603854251367
3.004,-0.011471690313620206
3.008,-0.01147375780031178
3.012,-0.011476161854604306
3.016,-0.011476258016776007
3.02,-0.011475392557230698
3.024,-0.011474094367912734
3.028,-0.011474046286826883
3.032,-0.011476666706005736
3.036,-0.011475849327546278
3.04,-0.01147553680048825
3.044,-0.011477532165551047
3.048,-0.011477339841207645
3.052,-0.01147452709768539
3.056,-0.011473493354339602
3.06,-0.011473204867824499
3.064,-0.011473637597597154
3.068,-0.011474551138228314
3.072,-0.011475296395058997
3.076,-0.011476618624919886
3.08,-0.01147457517877124
3.084,-0.01147462325985709
3.088,-0.011475176192344371
3.092,-0.011473998205741033
3.096,-0.011473613557054228
3.1,-0.011475681043745802
3.104,-0.01147599357080383
3.108,-0.01147426265171321
3.112,-0.011475272354516073
3.116,-0.011472123043392863
3.12,-0.011479046719755338
3.124,-0.011480969963189359
3.128,-0.011476378219490635
3.132,-0.011475681043745802
3.136,-0.011476282057318933
3.14,-0.01147772448989445
3.144,-0.011478349544010506
3.148,-0.01147842166563928
3.152,-0.011480080463101125
3.156,-0.011481162287532761
3.16,-0.01147818126021003
3.164,-0.011475849327546278
3.168,-0.011476762868177438
3.172,-0.0114779648953237
3.176,-0.011478758233240235
3.18,-0.011478397625096356
3.184,-0.011476306097861858
3.188,-0.011478085098038328
3.192,-0.011481739260562968
3.196,-0.011483999071597943
3.2,-0.011483926949969166
3.204,-0.011484912612229102
3.208,-0.011485056855486654
3.212,-0.01148325381476726
3.216,-0.01147868611161146
3.22,-0.011478301462924655
3.224,-0.01147969581441432
3.228,-0.011478589949439759
3.232,-0.011477604287179822
3.236,-0.011478541868353908
3.24,-0.01147791681423785
3.244,-0.011476570543834037
3.248,-0.011478878435954862
3.2520000000000002,-0.011480729557760107
3.2560000000000002,-0.011482869166080455
3.2600000000000002,-0.011478157219667103
3.2640000000000002,-0.01147873419269731
3.2680000000000002,-0.01148334997693896
3.2720000000000002,-0.011484696247342776
3.2760000000000002,-0.011483902909426242
3.2800000000000002,-0.011484455841913523
3.2840000000000003,-0.011485417463630533
3.2880000000000003,-0.01148558574743101
3.2920000000000003,-0.011482412395764875
3.2960000000000003,-0.011483374017481885
3.3000000000000003,-0.011488807180182995
3.3040000000000003,-0.011488158085524013
3.3080000000000003,-0.011490970829046269
3.3120000000000003,-0.011492605585965187
3.3160000000000003,-0.01148960051809953
3.3200000000000003,-0.011485826152860262
3.3240000000000003,-0.011484335639198897
3.3280000000000003,-0.011488182126066938
3.332,-0.011491427599361849
3.336,-0.011492581545422261
3.34,-0.011489480315384902
3.344,-0.011490345774930213
3.348,-0.011490321734387287
3.352,-0.011490682342531165
3.356,-0.011490033247872183
3.36,-0.011490778504702866
3.364,-0.011490754464159942
3.368,-0.011488037882809386
3.372,-0.011484191395941345
3.376,-0.011483614422911138
3.38,-0.011485609787973935
3.384,-0.011486186761004142
3.388,-0.011487677274665507
3.392,-0.011492557504879337
3.396,-0.011487941720637686
3.4,-0.011487220504349928
3.404,-0.011485465544716383
3.408,-0.011486859896206049
3.412,-0.011487797477380135
3.416,-0.01148695605837775
3.42,-0.011486571409690945
3.424,-0.011487821517923059
3.428,-0.01148599443666074
3.432,-0.011484455841913523
3.436,-0.011489816882985856
3.44,-0.011488037882809386
3.444,-0.011489456274841978
3.448,-0.011492581545422261
3.452,-0.011491643964248175
3.456,-0.011490898707417494
3.46,-0.011489552437013679
3.464,-0.011489528396470753
3.468,-0.011491884369677428
3.472,-0.01149106699121797
3.476,-0.011489720720814155
3.48,-0.01149299023465199
3.484,-0.011494961559171863
3.488,-0.011494120140169478
3.492,-0.011495009640257714
3.496,-0.011494048018540702
3.5,-0.011490634261445315
3.504,-0.011490514058730689
3.508,-0.011488711018011294
3.512,-0.011488638896382517
3.516,-0.011489961126243408
3.52,-0.011488254247695714
3.524,-0.011490345774930213
3.528,-0.011495033680800638
3.532,-0.011494288423969955
3.536,-0.011492845991394439
3.54,-0.011494600951027984
3.544,-0.01149476923482846
3.548,-0.011493326802252945
3.552,-0.011495442370030367
3.556,-0.011496355910661529
3.56,-0.01149421630234118
3.564,-0.011491884369677428
3.568,-0.011494312464512881
3.572,-0.011496836721520033
3.576,-0.01149563469437377
3.58,-0.011495298126772815
3.584,-0.011496211667403977
3.588,-0.011495250045686965
3.592,-0.011492605585965187
3.596,-0.011493158518452468
3.6,-0.011492220937278383
3.604,-0.011492701748136889
3.608,-0.011492196896735458
3.612,-0.011487989801723537
3.616,-0.011493591248225122
3.62,-0.01149659631609078
3.624,-0.011497750262151192
3.628,-0.011496980964777585
3.632,-0.01149714924857806
3.636,-0.011495947221431798
3.64,-0.011493543167139271
3.644,-0.01149349508605342
3.648,-0.01149640399174738
3.652,-0.01150147654630461
3.656,-0.011501332303047057
3.66,-0.011502053519334815
3.664,-0.011499505221784737
3.668,-0.011497702181065342
3.672,-0.011498303194638473
3.676,-0.011498038748666296
3.68,-0.011498279154095549
3.684,-0.01150101977598903
3.688,-0.011498711883868204
3.692,-0.011496043383603499
3.696,-0.011496524194462005
3.7,-0.011495466410573293
3.704,-0.011496019343060574
3.708,-0.011498495518981876
3.712,-0.011498086829752147
3.716,-0.011497389654007314
3.72,-0.01149741369455024
3.724,-0.011492581545422261
3.728,-0.01149476923482846
3.732,-0.011501644830105085
3.736,-0.011501933316620189
3.74,-0.011498904208211605
3.744,-0.011499697546128139
3.748,-0.011500707248931
3.7520000000000002,-0.011502654532907946
3.7560000000000002,-0.011504746060142445
3.7600000000000002,-0.011506020208917484
3.7640000000000002,-0.011504890303399996
3.7680000000000002,-0.011503760397882508
3.7720000000000002,-0.01150385656005421
3.7760000000000002,-0.011503736357339584
3.7800000000000002,-0.011503183424852303
3.7840000000000003,-0.011502967059965976
3.7880000000000003,-0.011505563438601903
3.7920000000000003,-0.011505323033172652
3.7960000000000003,-0.0115051787899151
3.8000000000000003,-0.011507703046922252
3.8040000000000003,-0.01150710203334912
3.8080000000000003,-0.011507174154977897
3.8120000000000003,-0.011505491316973128
3.8160000000000003,-0.01150253433019332
3.8200000000000003,-0.011503808478968359
3.8240000000000003,-0.011502654532907946
3.8280000000000003,-0.01150385656005421
3.8320000000000003,-0.011504890303399996
3.8360000000000003,-0.011505659600773604
3.84,-0.011505467276430202
3.844,-0.01150349595191033
3.848,-0.011502558370736245
3.852,-0.01150440949254149
3.856,-0.011505755762945305
3.86,-0.011502510289650394
3.864,-0.011507150114434971
3.868,-0.011508183857780758
3.872,-0.011505731722402381
3.876,-0.011506164452175035
3.88,-0.011504433533084417
3.884,-0.01150563556023068
3.888,-0.011507751128008102
3.892,-0.011507943452351505
3.896,-0.011508592547010487
3.9,-0.011507294357692523
3.904,-0.011503015141051827
3.908,-0.01150349595191033
3.912,-0.011503736357339584
3.916,-0.011506981830634495
3.92,-0.011508183857780758
3.924,-0.011507246276606672
3.928,-0.01150705395226327
3.932,-0.011509217601126543
3.936,-0.011507871330722728
3.94,-0.011508183857780758
3.944,-0.011509001236240216
3.948,-0.01150837618212416
3.952,-0.011508280019952459
3.956,-0.011508712749725113
3.96,-0.011509938817414302
3.964,-0.011510563871530358
3.968,-0.011511741858133697
3.972,-0.011506669303576465
3.976,-0.011507029911720345
3.98,-0.01151162165541907
3.984,-0.011511741858133697
3.988,-0.011512150547363426
3.992,-0.011510635993159135
3.996,-0.011508544465924636
4.0,-0.011509385884927021
4.0040000000000004,-0.011509025276783142
4.008,-0.0115097464930709
4.0120000000000005,-0.011513592979938942
4.016,-0.011513064087994586
4.0200000000000005,-0.011511597614876145
4.024,-0.011509890736328451
4.0280000000000005,-0.011509073357868991
4.032,-0.01151029942555818
4.0360000000000005,-0.011509938817414302
4.04,-0.01150979457415675
4.0440000000000005,-0.011512871763651183
4.048,-0.011514193993512074
4.0520000000000005,-0.011514242074597924
4.056,-0.01151527581794371
4.0600000000000005,-0.011514073790797446
4.064,-0.011512511155507305
4.0680000000000005,-0.011510780236416687
4.072,-0.011509914776871376
4.0760000000000005,-0.011511910141934173
4.08,-0.011512799642022408
4.0840000000000005,-0.01150933780384117
4.088,-0.01151390550699697
4.0920000000000005,-0.01151979544001366
4.096,-0.01151755966952161
4.1,-0.011516309561289496
4.104,-0.011511958223020024
4.108,-0.011511838020305398
4.112,-0.011514121871883297
4.116,-0.011515083493600307
4.12,-0.0115165980478046
4.124,-0.01151527581794371
4.128,-0.011514626723284727
4.132,-0.011516381682918271
4.136,-0.011518617453410322
4.14,-0.011518833818296648
4.144,-0.011518641493953248
4.148,-0.011518761696667873
4.152,-0.011516670169433375
4.156,-0.011517150980291881
4.16,-0.011516910574862628
4.164,-0.01151943483186978
4.168,-0.011522752426793468
4.172,-0.011523930413396805
4.176,-0.011518136642551816
4.18,-0.011516886534319702
4.184,-0.011517727953322086
4.188,-0.011519699277841959
4.192,-0.011517391385721134
4.196,-0.01151532389902956
4.2,-0.011518809777753724
4.204,-0.01152020412924339
4.208,-0.01151943483186978
4.212,-0.011518088561465965
4.216,-0.011517848156036714
4.22,-0.01151582875043099
4.224,-0.011522560102450065
4.228,-0.011525132440543068
4.232,-0.011523665967424627
4.236,-0.011519627156213182
4.24,-0.011514746925999355
4.244,-0.01151664612889045
4.248,-0.011519170385897603
4.252,-0.01151847321015277
4.256,-0.011520564737387268
4.26,-0.0115211657509604
4.264,-0.011520997467159923
4.268,-0.011522055251048635
4.272,-0.01152304091330857
4.276,-0.011519651196756108
4.28,-0.011518112602008891
4.284,-0.011517800074950863
4.288,-0.011519002102097126
4.292,-0.011521406156389653
4.296,-0.011522848588965169
4.3,-0.011524699710770412
4.304,-0.01152349768362415
4.308,-0.011521478278018428
4.312,-0.011522487980821288
4.316,-0.011525420927058171
4.32,-0.01152628638660348
4.324,-0.011525901737916676
4.328,-0.011526839319090761
4.332,-0.011520348372500941
4.336,-0.011521358075303802
4.34,-0.011522295656477886
4.344,-0.011523641926881701
4.348,-0.011525757494659125
4.352,-0.01152796922460825
4.356,-0.01152760861646437
4.36,-0.011527849021893622
4.364,-0.01152436314316946
4.368,-0.01152263222407884
4.372,-0.01152481991348504
4.376,-0.011526406589318108
4.38,-0.01152893084632526
4.384,-0.011527680738093146
4.388,-0.011526863359633687
4.392,-0.011525757494659125
4.396,-0.011523882332310954
4.4,-0.011523786170139253
4.404,-0.011524964156742592
4.408,-0.011525084359457217
4.412,-0.011523738089053402
4.416,-0.011522776467336392
4.42,-0.011524291021540683
4.424,-0.011527897102979473
4.428,-0.011529868427499345
4.432,-0.011529291454469138
4.436,-0.011529652062613017
4.44,-0.011529291454469138
4.444,-0.01152481991348504
4.448,-0.01153066176541588
4.452,-0.011533161981880105
4.456,-0.011532152279077244
4.46,-0.011530733887044654
4.464,-0.01152806538677995
4.468,-0.01152842599492383
4.472,-0.011532825414279153
4.476,-0.01152994054912812
4.48,-0.011528666400353082
4.484,-0.011529339535554989
4.488,-0.011528858724696485
4.492,-0.011527945184065323
4.496,-0.011524555467512862
4.5,-0.011526622954204434
4.5040000000000004,-0.011528185589494576
4.508,-0.01152943569772669
4.5120000000000005,-0.011530685805958804
4.516,-0.011530060751842748
4.5200000000000005,-0.011528281751666277
4.524,-0.011530180954557373
4.5280000000000005,-0.011532945616993778
4.532,-0.01153263308993575
4.5360000000000005,-0.01153359471165276
4.54,-0.011531382981703637
4.5440000000000005,-0.011529724184241794
4.548,-0.011532344603420647
4.5520000000000005,-0.011530974292473907
4.556,-0.011528281751666277
4.5600000000000005,-0.011530613684330029
4.564,-0.0115325850088499
4.5680000000000005,-0.01153217631962017
4.572,-0.011531142576274384
4.5760000000000005,-0.011530012670756897
4.58,-0.011527079724520014
4.5840000000000005,-0.011533474508938135
4.588,-0.011532825414279153
4.5920000000000005,-0.011533378346766434
4.596,-0.011534628454998547
4.6000000000000005,-0.011531575306047039
4.604,-0.011531262778989011
4.6080000000000005,-0.011533186022423031
4.612,-0.011534700576627322
4.616,-0.011532440765592348
4.62,-0.011533378346766434
4.624,-0.011534339968483444
4.628,-0.011534436130655145
4.632,-0.011532416725049423
4.636,-0.011533979360339565
4.64,-0.011533161981880105
4.644,-0.011532392684506497
4.648,-0.011534844819884874
4.652,-0.011537080590376924
4.656,-0.011537345036349102
4.66,-0.011537561401235429
4.664,-0.011533618752195687
4.668,-0.011532152279077244
4.672,-0.011536070887574064
4.676,-0.011536503617346717
4.68,-0.011535998765945287
4.684,-0.011535806441601884
4.688,-0.011534989063142426
4.692,-0.011532368643963573
4.696,-0.011538907671639244
4.7,-0.011541696374618575
4.704,-0.011540181820414283
4.708,-0.011539196158154347
4.712,-0.011541191523217144
4.716,-0.011542754158507286
4.72,-0.01154208102330538
4.724,-0.01153912403652557
4.728,-0.011536960387662297
4.732,-0.011535590076715558
4.736,-0.011533955319796639
4.74,-0.011533931279253715
4.744,-0.011535061184771201
4.748,-0.011536551698432568
4.752,-0.011537513320149578
4.756,-0.011538186455351486
4.76,-0.011541047279959592
4.764,-0.011540662631272788
4.768,-0.011539821212270403
4.772,-0.011539676969012853
4.776,-0.011537922009379307
4.78,-0.011536311293003315
4.784,-0.011535566036172631
4.788,-0.011535806441601884
4.792,-0.01153674402277597
4.796,-0.011537296955263251
4.8,-0.011537873928293458
4.804,-0.011532921576450854
4.808,-0.011538715347295841
4.812,-0.011540999198873742
4.816,-0.011541023239416666
4.82,-0.011541936780047828
4.824,-0.011540518388015236
4.828,-0.011541023239416666
4.832,-0.011541912739504901
4.836,-0.011541888698961977
4.84,-0.011542754158507286
4.844,-0.011539797171727479
4.848,-0.011538066252636859
4.852,-0.011541119401588367
4.856,-0.011541744455704425
4.86,-0.011542609915249734
4.864,-0.011544124469454025
4.868,-0.011540277982585985
4.872,-0.01153842686078074
4.876,-0.011542297388191706
4.88,-0.011542922442307762
4.884,-0.011544533158683755
4.888,-0.011548499848266424
4.892,-0.011546937212976281
4.896,-0.011545735185830018
4.9,-0.01154227334764878
4.904,-0.011542706077421435
4.908,-0.011542201226020005
4.912,-0.011543908104567699
4.916,-0.01154354749642382
4.92,-0.011543980226196474
4.924,-0.011544797604655934
4.928,-0.01154491780737056
4.932,-0.0115440042667394
4.936,-0.011546119834516822
4.94,-0.01154953359161221
4.944,-0.011549701875412688
4.948,-0.011547850753607442
4.952,-0.011545374577686139
4.956,-0.011542970523393613
4.96,-0.011543018604479463
4.964,-0.01154542265877199
4.968,-0.01154816328066547
4.972,-0.011548427726637648
4.976,-0.0115462881183173
4.98,-0.011545999631802197
4.984,-0.011541936780047828
4.988,-0.011545206293885663
4.992,-0.011548283483380096
4.996,-0.011550471172786295
5.0,-0.011550567334957997
5.0040000000000004,-0.011550206726814118
5.008,-0.011549197024011257
5.0120000000000005,-0.011547562267092339
5.016,-0.011546720848089954
5.0200000000000005,-0.01154862005098105
5.024,-0.011552009767533513
5.0280000000000005,-0.01154984611867024
5.032,-0.01155008652409949
5.0360000000000005,-0.011553836848795832
5.04,-0.011552105929705214
5.0440000000000005,-0.011548764294238602
5.048,-0.011548427726637648
5.0520000000000005,-0.011546768929175805
5.056,-0.011554077254225085
5.0600000000000005,-0.011552899267621748
5.064,-0.011551336632331604
5.0680000000000005,-0.011548956618582004
5.072,-0.011547009334605058
5.0760000000000005,-0.011549870159213164
5.08,-0.011552346335134465
5.0840000000000005,-0.011552755024364196
5.088,-0.011552634821649569
5.0920000000000005,-0.01154958167269806
5.096,-0.011547297821120161
5.1000000000000005,-0.01154674488863288
5.104,-0.011548884496953227
5.1080000000000005,-0.011550062483556566
5.112,-0.011549172983468331
5.1160000000000005,-0.01154989419975609
5.12,-0.011550976024187726
5.124,-0.01155268290273542
5.128,-0.011553716646081206
5.132,-0.011554413821826039
5.136,-0.011554317659654338
5.14,-0.011552370375677391
5.144,-0.01155501483539917
5.148,-0.0115532358352227
5.152,-0.011548812375324452
5.156,-0.011549966321384865
5.16,-0.01155222613241984
5.164,-0.011548860456410303
5.168,-0.011553620483909505
5.172,-0.011554341700197262
5.176,-0.011551889564818885
5.18,-0.0115486681320669
5.184,-0.011547129537319683
5.188,-0.011550326929528744
5.192,-0.011550567334957997
5.196,-0.011550134605185341
5.2,-0.011550519253872146
5.204,-0.011550326929528744
5.208,-0.011549148942925407
5.212,-0.011552923308164672
5.216,-0.011557226565348295
5.22,-0.011558043943807753
5.224,-0.011556457267974687
5.228,-0.011552442497306166
5.232,-0.011552346335134465
5.236,-0.011556264943631284
5.24,-0.011557635254578024
5.244,-0.01155450998399774
5.248,-0.011551024105273576
5.252,-0.011550254807899969
5.256,-0.011552947348707597
5.26,-0.011557779497835576
5.264,-0.011556962119376117
5.268,-0.011556457267974687
5.272,-0.011557635254578024
5.276,-0.011555351403000123
5.28,-0.011555832213858629
5.284,-0.011557370808605846
5.288,-0.011554029173139234
5.292,-0.011554822511055768
5.296,-0.011548692172609827
5.3,-0.01154862005098105
5.304,-0.011556817876118565
5.308,-0.01155679383557564
5.312,-0.011556817876118565
5.316,-0.011556577470689312
5.32,-0.011555255240828424
5.324,-0.01155501483539917
5.328,-0.011558188187065305
5.332,-0.011561914471218722
5.336,-0.011562082755019198
5.34,-0.011561938511761646
5.344,-0.01155912576823939
5.348,-0.011557875660007277
5.352,-0.011559798903441297
5.356,-0.011559005565524763
5.36,-0.011556481308517611
5.364,-0.011554534024540665
5.368,-0.011557539092406323
5.372,-0.011557515051863398
5.376,-0.011556264943631284
5.38,-0.011556313024717135
5.384,-0.011556240903088358
5.388,-0.011555231200285497
5.392,-0.011556529389603462
5.396,-0.011555712011144003
5.4,-0.011558837281724287
5.404,-0.011560640322443682
5.408,-0.01156172214687532
5.412,-0.011561337498188514
5.416,-0.011564030038996144
5.42,-0.011562707809135254
5.424,-0.011560592241357831
5.428,-0.011559342133125717
5.432,-0.011557779497835576
5.436,-0.01155785161946435
5.44,-0.01156145770090314
5.444,-0.011562876092935732
5.448,-0.011562154876647973
5.452,-0.01156104901167341
5.456,-0.011562948214564507
5.46,-0.011565760958086762
5.464,-0.011565448431028734
5.468,-0.011565256106685332
5.472,-0.011565448431028734
5.476,-0.011565712877000912
5.48,-0.011562924174021582
5.484,-0.01156314053890791
5.488,-0.011562972255107433
5.492,-0.01156100093058756
5.496,-0.011560063349413476
5.5,-0.011559678700726671
5.5040000000000004,-0.011564558930940499
5.508,-0.011566073485144792
5.5120000000000005,-0.011564005998453218
5.516,-0.01156775632314956
5.5200000000000005,-0.011567515917720306
5.524,-0.011561938511761646
5.5280000000000005,-0.011566770660889623
5.532,-0.01156780440423541
5.5360000000000005,-0.011571650891103454
5.54,-0.011571987458704408
5.5440000000000005,-0.01156739571500568
5.548,-0.011568669863780719
5.5520000000000005,-0.011568910269209972
5.556,-0.011567059147404727
5.5600000000000005,-0.011565183985056557
5.564,-0.011563308822708385
5.5680000000000005,-0.011563909836281517
5.572,-0.011565953282430165
5.5760000000000005,-0.011565544593200435
5.58,-0.011564558930940499
5.5840000000000005,-0.011565208025599481
5.588,-0.011566121566230643
5.5920000000000005,-0.011567059147404727
5.596,-0.011570280580156715
5.6000000000000005,-0.011569559363868954
5.604,-0.011568669863780719
5.6080000000000005,-0.011567155309576428
5.612,-0.011564222363339547
5.6160000000000005,-0.01156689086360425
5.62,-0.011565352268857033
5.6240000000000006,-0.011565640755372137
5.628,-0.011572059580333183
5.632,-0.01157405494539598
5.636,-0.011572612512820464
5.64,-0.0115711219991591
5.644,-0.011566866823061324
5.648,-0.01156785248532126
5.652,-0.011568116931293438
5.656,-0.011560880727872935
5.66,-0.011560111430499327
5.664,-0.011569655526040655
5.668,-0.0115711219991591
5.672,-0.01156881410703827
5.676,-0.011569847850384058
5.68,-0.01156958340441188
5.684,-0.011568693904323645
5.688,-0.011567612079892008
5.692,-0.011568741985409496
5.696,-0.011568597742151944
5.7,-0.011566289850031119
5.704,-0.01156785248532126
5.708,-0.011571049877530323
5.712,-0.011569775728755281
5.716,-0.01156881410703827
5.72,-0.011567491877177382
5.724,-0.01156679470143255
5.728,-0.011567924606950037
5.732,-0.01156953532332603
5.736,-0.011569487242240179
5.74,-0.011569655526040655
5.744,-0.011571747053275155
5.748,-0.01156953532332603
5.752,-0.01156999209364161
5.756,-0.0115713143235025
5.76,-0.011571698972189305
5.764,-0.011571458566760052
5.768,-0.011567515917720306
5.772,-0.011564799336369752
5.776,-0.01157208362087611
5.78,-0.011571723012732231
5.784,-0.011571915337075632
5.788,-0.011573742418337953
5.792,-0.011574728080597889
5.796,-0.011578478405294228
5.8,-0.011576867688918236
5.804,-0.01157299716150727
5.808,-0.011573021202050194
5.812,-0.01157167493164638
5.816,-0.011571506647845902
5.82,-0.011572564431734614
5.824,-0.011573477972365775
5.828,-0.01157496848602714
5.832,-0.011576458999688507
5.836,-0.011573141404764821
5.84,-0.011570737350472295
5.844,-0.011569775728755281
5.848,-0.011572973120964345
5.852,-0.011574607877883262
5.856,-0.01157496848602714
5.86,-0.011573646256166251
5.864,-0.011576771526746535
5.868,-0.01157766102683477
5.872,-0.011575112729284692
5.876,-0.01157304524259312
5.88,-0.01157157876947468
5.884,-0.011571482607302978
5.888,-0.011577348499776742
5.892,-0.011579776594612193
5.896,-0.011576867688918236
5.9,-0.011572275945219512
5.904,-0.011567876525864187
5.908,-0.011571771093818082
5.912,-0.0115780697160645
5.916,-0.011577516783577218
5.92,-0.011578141837693276
5.924,-0.011575617580686122
5.928,-0.011572035539790259
5.932,-0.011574127067024757
5.936,-0.011575617580686122
5.94,-0.011576146472630479
5.944,-0.011576507080774357
5.948,-0.011578093756607425
5.952,-0.011577973553892798
5.956,-0.011577516783577218
5.96,-0.011578694770180557
5.964,-0.011579992959498521
5.968,-0.011577877391721097
5.972,-0.011574295350825234
5.976,-0.011579512148640015
5.98,-0.011578790932352258
5.984,-0.011577901432264023
5.988,-0.01157903133778151
5.992,-0.011577035972718714
5.996,-0.01157939194592539
6.0,-0.011582156608361795
6.0040000000000004,-0.01158258933813445
6.008,-0.01158227681107642
6.0120000000000005,-0.011582709540849076
6.016,-0.01157725233760504
6.0200000000000005,-0.011576218594259254
6.024,-0.011579512148640015
6.0280000000000005,-0.011577733148463547
6.032,-0.01157770910792062
6.0360000000000005,-0.011578598608008856
6.04,-0.0115803535676424
6.0440000000000005,-0.011582132567818869
6.048,-0.011582877824649552
6.0520000000000005,-0.011583671162566086
6.056,-0.011586075216858612
6.0600000000000005,-0.011583358635508058
6.064,-0.011580738216329205
6.0680000000000005,-0.011581194986644784
6.072,-0.011583142270621731
6.0760000000000005,-0.011582397013791048
6.08,-0.011582877824649552
6.0840000000000005,-0.011584224095053367
6.088,-0.011585594406000108
6.0920000000000005,-0.011585257838399154
6.096,-0.011582829743563701
6.1000000000000005,-0.011581026702844307
6.104,-0.011581170946101858
6.1080000000000005,-0.0115825412570486
6.112,-0.011581916202932542
6.1160000000000005,-0.011578766891809332
6.12,-0.01157862264855178
6.1240000000000006,-0.011579271743210762
6.128,-0.011576434959145582
6.132000000000001,-0.011576531121317284
6.136,-0.01158323843279343
6.140000000000001,-0.011583022067907104
6.144,-0.011583911567995339
6.148,-0.011583022067907104
6.152,-0.011580690135243354
6.156,-0.011580113162213147
6.16,-0.01157939194592539
6.164,-0.011579872756783894
6.168,-0.011583310554422207
6.172,-0.011580329527099474
6.176,-0.011583623081480235
6.18,-0.01158350287876561
6.184,-0.011582180648904719
6.188,-0.011583430757136833
6.192,-0.011587517649434128
6.196,-0.011585618446543032
6.2,-0.011585786730343509
6.204,-0.0115849212707982
6.208,-0.011585185716770377
6.212,-0.011587565730519979
6.216,-0.01158258933813445
6.22,-0.011581146905558934
6.224,-0.011584272176139217
6.228,-0.011584440459939694
6.232,-0.01158400773016704
6.236,-0.011585666527628883
6.24,-0.011583863486909488
6.244,-0.01158323843279343
6.248,-0.011586868554775146
6.252,-0.01158674835206052
6.256,-0.011586916635860997
6.26,-0.011585906933058136
6.264,-0.011580161243298998
6.268,-0.011584440459939694
6.272,-0.011589368771239374
6.276,-0.011591700703903123
6.28,-0.01159040251458516
6.284,-0.01159004190644128
6.288,-0.011592926771592313
6.292,-0.011591580501188498
6.296,-0.011590618879471487
6.3,-0.01159054675784271
6.304,-0.011588839879295017
6.308,-0.011586123297944463
6.312,-0.011586099257401538
6.316,-0.011586676230431744
6.32,-0.011586483906088341
6.324,-0.011586267541202015
6.328,-0.011588335027893587
6.332,-0.01158761381160583
6.336,-0.011589248568524746
6.34,-0.011584825108626498
6.344,-0.011583262473336357
6.348,-0.011589152406353047
6.352,-0.011585955014143987
6.356,-0.01158547420328548
6.36,-0.011587806135949232
6.364,-0.011591700703903123
6.368,-0.011591796866074824
6.372,-0.01159049867675686
6.376,-0.011584344297767994
6.38,-0.011589681298297402
6.384,-0.011591075649787067
6.388,-0.011592037271504077
6.392,-0.01159369606896592
6.396,-0.011594441325796604
6.4,-0.01159364798788007
6.404,-0.011593407582450818
6.408,-0.011593816271680548
6.412,-0.01159497021774096
6.416,-0.011594609609597082
6.42,-0.011593359501364968
6.424,-0.01159451344742538
6.428,-0.011592518082362583
6.432,-0.011591676663360199
6.436,-0.01158999382535543
6.44,-0.011590691001100262
6.444,-0.01159045059567101
6.448,-0.011595715474571644
6.452,-0.01159725406931886
6.456,-0.011595306785341913
6.46,-0.01159547506914239
6.464,-0.01159410475819565
6.468,-0.011593287379736191
6.472,-0.011591844947160675
6.476,-0.011591171811958768
6.48,-0.011591195852501693
6.484,-0.011592133433675779
6.488,-0.011587685933234605
6.492,-0.011590979487615366
6.496,-0.01159273444724891
6.5,-0.011592085352589928
6.5040000000000004,-0.011596172244887223
6.508,-0.011592518082362583
6.5120000000000005,-0.011588960082009644
6.516,-0.01159420092036735
6.5200000000000005,-0.01159730215040471
6.524,-0.01159689346117498
6.5280000000000005,-0.011595523150228241
6.532,-0.011594681731225857
6.5360000000000005,-0.01159492213665511
6.54,-0.011596604974659877
6.5440000000000005,-0.011595955880000895
6.548,-0.011592638285077209
6.5520000000000005,-0.011593744150051771
6.556,-0.011593311420279117
6.5600000000000005,-0.01159420092036735
6.564,-0.011596172244887223
6.5680000000000005,-0.011598840745151927
6.572,-0.011598720542437302
6.5760000000000005,-0.011600788029128874
6.58,-0.011599970650669415
6.5840000000000005,-0.011598984988409479
6.588,-0.011597205988233009
6.5920000000000005,-0.011597061744975457
6.596,-0.011599369637096284
6.6000000000000005,-0.011598888826237778
6.604,-0.011599561961439684
6.6080000000000005,-0.011599249434381656
6.612,-0.011600427420984995
6.6160000000000005,-0.011599417718182134
6.62,-0.011599249434381656
6.6240000000000006,-0.011597446393662262
6.628,-0.011603095921249699
6.632000000000001,-0.011601268839987378
6.636,-0.011599874488497714
6.640000000000001,-0.011602254502247314
6.644,-0.011601172677815678
6.648000000000001,-0.011600066812841115
6.652,-0.011599706204697236
6.656000000000001,-0.011599249434381656
6.66,-0.011600211056098667
6.664,-0.01159999469121234
6.668,-0.011599898529040639
6.672,-0.011604346029481813
6.676,-0.011602422786047792
6.68,-0.0115985282180939
6.684,-0.011599706204697236
6.688,-0.011598936907323628
6.692,-0.011599946610126489
6.696,-0.011601581367045408
6.7,-0.011600427420984995
6.704,-0.011598672461351451
6.708,-0.011599225393838732
6.712,-0.011599850447954788
6.716,-0.011600932272386425
6.72,-0.011600763988585948
6.724,-0.011600667826414246
6.728,-0.011599561961439684
6.732,-0.011601052475101051
6.736,-0.011599874488497714
6.74,-0.011603047840163848
6.744,-0.011602639150934119
6.748,-0.011602879556363372
6.752,-0.011602542988762418
6.756,-0.011600427420984995
6.76,-0.011601581367045408
6.764,-0.011602711272562894
6.768,-0.011604442191653514
6.772,-0.011603384407764802
6.776,-0.011602350664419015
6.78,-0.011601797731931734
6.784,-0.011606149070201207
6.788,-0.011606581799973863
6.792,-0.011603216123964324
6.796,-0.011602903596906296
6.8,-0.011602062177903912
6.804,-0.011603456529393577
6.808,-0.011604249867310111
6.812,-0.011602903596906296
6.816,-0.011604177745681336
6.82,-0.011603624813194055
6.824,-0.011600403380442069
6.828,-0.011600307218270368
6.832,-0.011599874488497714
6.836,-0.011602398745504866
6.84,-0.011604370070024737
6.844,-0.011604971083597869
6.848,-0.011603312286136026
6.852,-0.011607495340605022
6.856,-0.011608841611008837
6.86,-0.011608120394721078
6.864,-0.011606485637802161
6.868,-0.011605187448484197
6.872,-0.01160725493517577
6.876,-0.011607952110920602
6.88,-0.011606317354001684
6.884,-0.011606605840516787
6.888,-0.01160634139454461
6.892,-0.011606557759430937
6.896,-0.011605788462057329
6.9,-0.011605572097171
6.904,-0.011607543421690873
6.908,-0.011608048273092303
6.912,-0.011609442624581969
6.916,-0.011607783827120126
6.92,-0.01160679816486019
6.924,-0.011608072313635228
6.928,-0.011611221624758437
6.932,-0.011610428286841903
6.936,-0.011608481002864957
6.94,-0.011607230894632845
6.944,-0.011607904029834751
6.948,-0.011606317354001684
6.952,-0.011607327056804544
6.956,-0.01160684624594604
6.96,-0.01160679816486019
6.964,-0.011606317354001684
6.968,-0.011604466232196438
6.972,-0.011606605840516787
6.976,-0.011607591502776723
6.98,-0.011607038570289442
6.984,-0.011605548056628076
6.988,-0.011605548056628076
6.992,-0.011609634948925371
6.996,-0.011610524449013605
7.0,-0.01160958686783952
7.0040000000000004,-0.011606774124317263
7.008,-0.011608072313635228
7.0120000000000005,-0.011610788894985784
7.016,-0.0116100436381551
7.0200000000000005,-0.011612399611361776
7.024,-0.0116099474759834
7.0280000000000005,-0.011608865651551762
7.032,-0.011610764854442858
7.0360000000000005,-0.011610308084127278
7.04,-0.01160826463797863
7.0440000000000005,-0.011607158773004068
7.048,-0.011608072313635228
7.0520000000000005,-0.011611654354531093
7.056,-0.011613505476336338
7.0600000000000005,-0.011611750516702794
7.064,-0.011612591935705179
7.0680000000000005,-0.011614875787283077
7.072,-0.011611053340957961
7.0760000000000005,-0.011612543854619328
7.08,-0.011610788894985784
7.0840000000000005,-0.011607615543319648
7.088,-0.011611750516702794
7.0920000000000005,-0.011615909530628864
7.096,-0.011613769922308516
7.1000000000000005,-0.011612567895162252
7.104,-0.011610428286841903
7.1080000000000005,-0.011608961813723463
7.112,-0.011610163840869726
7.1160000000000005,-0.011606653921602638
7.12,-0.011605091286312496
7.1240000000000006,-0.011610187881412652
7.128,-0.011612159205932523
7.132000000000001,-0.011613890125023141
7.136,-0.01161415457099532
7.140000000000001,-0.011612928503306131
7.144,-0.011614034368280693
7.148000000000001,-0.011614274773709946
7.152,-0.011614851746740153
7.156000000000001,-0.01161502003054063
7.16,-0.011614491138596273
7.164000000000001,-0.011614635381853824
7.168,-0.011615356598141583
7.172,-0.011615693165742536
7.176,-0.011615236395426956
7.18,-0.01161369780067974
7.184,-0.011611894759960346
7.188,-0.011612808300591505
7.192,-0.01161278426004858
7.196,-0.011609875354354622
7.2,-0.011610596570642381
7.204,-0.01161319294927831
7.208,-0.011612519814076402
7.212,-0.011614370935881647
7.216,-0.011615236395426956
7.22,-0.011614515179139199
7.224,-0.011616895192888799
7.228,-0.011611173543672587
7.232,-0.011609707070554146
7.236,-0.01161456326022505
7.24,-0.011614803665654302
7.244,-0.011615476800856209
7.248,-0.01161653458474492
7.252,-0.011618049138949213
7.256,-0.011618529949807718
7.26,-0.011615813368457163
7.264,-0.01161643842257322
7.268,-0.011617568328090707
7.272,-0.011616871152345875
7.276,-0.011615693165742536
7.28,-0.011614875787283077
7.284,-0.011616678828002472
7.288,-0.011617952976777512
7.292,-0.011617688530805333
7.296,-0.011616558625287847
7.3,-0.011616125895515191
7.304,-0.011616125895515191
7.308,-0.011614250733167021
7.312,-0.011612447692447627
7.316,-0.011612760219505655
7.32,-0.011615092152169404
7.324,-0.011618169341663839
7.328,-0.011618842476865746
7.332,-0.011617616409176558
7.336,-0.011617880855148735
7.34,-0.011614875787283077
7.344,-0.01161050040847068
7.348,-0.011616318219858594
7.352,-0.011617856814605811
7.356,-0.011618553990350644
7.36,-0.01161776065243411
7.364,-0.011615236395426956
7.368,-0.011618842476865746
7.372,-0.011619659855325206
7.376,-0.011618505909264793
7.38,-0.011614370935881647
7.384,-0.011614731544025526
7.388,-0.011617231760489753
7.392,-0.011618049138949213
7.396,-0.01161420265208117
7.4,-0.011614875787283077
7.404,-0.011616318219858594
7.408,-0.011618578030893568
7.412,-0.01162045319324174
7.416,-0.011618337625464315
7.42,-0.011619780058039831
7.424,-0.011621775423102628
7.428,-0.011621222490615347
7.432,-0.011620381071612963
7.436,-0.011620164706726636
7.44,-0.011621030166271945
7.444,-0.011620934004100244
7.448,-0.011619563693153504
7.452,-0.011616414382030295
7.456,-0.01161319294927831
7.46,-0.0116191790444667
7.464,-0.011620669558128066
7.468,-0.011619659855325206
7.472,-0.01161780873351996
7.476,-0.011615597003570836
7.48,-0.011620116625640785
7.484,-0.011623818869251276
7.488,-0.01162338613947862
7.492,-0.011620813801385618
7.496,-0.011620885923014393
7.5,-0.011619467530981803
7.5040000000000004,-0.011620405112155889
7.508,-0.011619948341840308
7.5120000000000005,-0.011621631179845077
7.516,-0.011623890990880051
7.5200000000000005,-0.011622184112332358
7.524,-0.01161973197695398
7.5280000000000005,-0.011620381071612963
7.532,-0.011620765720299768
7.5360000000000005,-0.011619491571524728
7.54,-0.011617520247004857
7.5440000000000005,-0.011620260868898337
7.548,-0.011622737044819639
7.5520000000000005,-0.011621438855501674
7.556,-0.0116213667338729
7.5600000000000005,-0.011621775423102628
7.564,-0.011618962679580373
7.5680000000000005,-0.011617424084833156
7.572,-0.01162598251811455
7.5760000000000005,-0.011625862315399924
7.58,-0.011625934437028699
7.5840000000000005,-0.011628578896750478
7.588,-0.011627256666889588
7.5920000000000005,-0.01162333805839277
7.596,-0.011622809166448415
7.6000000000000005,-0.011624371801738557
7.604,-0.011625742112685297
7.6080000000000005,-0.01162694413983156
7.612,-0.011625381504541418
7.6160000000000005,-0.011626583531687681
7.62,-0.011624996855854613
7.6240000000000006,-0.011622616842105013
7.628,-0.011624347761195631
7.632000000000001,-0.011625261301826792
7.636,-0.011625549788341894
7.640000000000001,-0.011624179477395155
7.644,-0.011623963112508828
7.648000000000001,-0.01162552574779897
7.652,-0.011627689396662243
7.656000000000001,-0.0116260305992004
7.66,-0.011626920099288635
7.664000000000001,-0.011629107788694833
7.668,-0.011628867383265582
7.672000000000001,-0.011626896058745709
7.676,-0.011627184545260813
7.68,-0.011625814234314073
7.684,-0.011626511410058904
7.688,-0.011627689396662243
7.692,-0.011627352829061289
7.696,-0.011626174842457952
7.7,-0.011625501707256044
7.704,-0.011626006558657474
7.708,-0.011627977883177347
7.712,-0.011628578896750478
7.716,-0.011628867383265582
7.72,-0.011627016261460336
7.724,-0.011627184545260813
7.728,-0.011629252031952385
7.732,-0.011631944572760015
7.736,-0.011629853045525516
7.74,-0.011629588599553339
7.744,-0.011628314450778299
7.748,-0.011623963112508828
7.752,-0.011629516477924562
7.756,-0.011629107788694833
7.76,-0.011627016261460336
7.764,-0.011626823937116934
7.768,-0.011627304747975438
7.772,-0.011631920532217089
7.776,-0.011632112856560491
7.78,-0.01163110315375763
7.784,-0.011629756883353815
7.788,-0.011630430018555724
7.792,-0.011629059707608982
7.796,-0.011630478099641574
7.8,-0.011630526180727425
7.804,-0.011629756883353815
7.808,-0.011629829004982592
7.812,-0.011626847977659859
7.816,-0.01162963668063919
7.82,-0.011638122992291807
7.824,-0.011635358329855402
7.828,-0.011633435086421381
7.832,-0.011634156302709139
7.836,-0.011628651018379253
7.84,-0.011627809599376869
7.844,-0.011630117491497694
7.848,-0.011629901126611367
7.852,-0.011631223356472258
7.856,-0.011628843342722656
7.86,-0.011628699099465104
7.864,-0.011631223356472258
7.868,-0.011634036099994513
7.872,-0.011634396708138392
7.876,-0.011633170640449202
7.88,-0.011631295478101033
7.884,-0.011628819302179731
7.888,-0.01162891546435143
7.892,-0.011630021329325994
7.896,-0.011631391640272734
7.9,-0.011631295478101033
7.904,-0.011631583964616136
7.908,-0.01163242538361852
7.912,-0.011630982951043005
7.916,-0.011633122559363352
7.92,-0.011635382370398328
7.924,-0.011632641748504848
7.928,-0.011627689396662243
7.932,-0.011634685194653495
7.936,-0.011635190046054926
7.94,-0.011635190046054926
7.944,-0.011632545586333146
7.948,-0.01163256962687607
7.952,-0.011632473464704371
7.956,-0.011629804964439666
7.96,-0.011632906194477025
7.964,-0.011633026397191652
7.968,-0.011631127194300556
7.972,-0.01163155992407321
7.976,-0.011633435086421381
7.98,-0.011633435086421381
7.984,-0.011635069843340298
7.988,-0.011634925600082746
7.992,-0.011632184978189268
7.996,-0.011633867816194035
8.0,-0.01163480539736812
8.004,-0.011633362964792605
8.008000000000001,-0.011635430451484179
8.012,-0.011637281573289424
8.016,-0.01163749793817575
8.02,-0.011636800762430918
8.024000000000001,-0.01163379569456526
8.028,-0.011635358329855402
8.032,-0.01163607954614316
8.036,-0.011637041167860171
8.040000000000001,-0.011634973681168597
8.044,-0.011635310248769551
8.048,-0.01163612762722901
8.052,-0.01163283407284825
8.056000000000001,-0.011633002356648726
8.06,-0.011632473464704371
8.064,-0.01163607954614316
8.068,-0.011641680992644746
8.072000000000001,-0.011640767452013586
8.076,-0.011639757749210725
8.08,-0.011637521978718675
8.084,-0.011636247829943637
8.088000000000001,-0.01163480539736812
8.092,-0.011633675491850634
8.096,-0.011638459559892761
8.1,-0.011639661587039024
8.104000000000001,-0.011637017127317245
8.108,-0.011638483600435687
8.112,-0.011642137762960325
8.116,-0.01164105593852869
8.120000000000001,-0.011638122992291807
8.124,-0.01163694500568847
8.128,-0.011637882586862556
8.132,-0.011642786857619308
8.136000000000001,-0.011642282006217877
8.14,-0.011640503006041409
8.144,-0.01164064724929896
8.148,-0.011637473897632825
8.152000000000001,-0.011636872884059693
8.156,-0.011639156735637594
8.16,-0.011638627843693237
8.164,-0.011640623208756034
8.168000000000001,-0.011641464627758419
8.172,-0.011635406410941252
8.176,-0.011636632478630442
8.18,-0.011644469695624077
8.184000000000001,-0.011642257965674953
8.188,-0.011639397141066847
8.192,-0.011638748046407865
8.196,-0.0116396375464961
8.2,-0.011638724005864938
8.204,-0.011637209451660647
8.208,-0.011639853911382426
8.212,-0.011637209451660647
8.216,-0.011634877518996898
8.22,-0.011636319951572412
8.224,-0.011638074911205956
8.228,-0.01163740177600405
8.232,-0.01163841147880691
8.236,-0.011638892289665416
8.24,-0.011640527046584333
8.244,-0.01164196947915985
8.248,-0.01164105593852869
8.252,-0.011640527046584333
8.256,-0.011640839573642363
8.26,-0.011639974114097052
8.264,-0.01163694500568847
8.268,-0.011638291276092285
8.272,-0.011640358762783857
8.276,-0.011640911695271138
8.28,-0.0116420175602457
8.284,-0.011639493303238548
8.288,-0.01164064724929896
8.292,-0.011647787290547763
8.296,-0.011642233925132027
8.3,-0.011639084614008819
8.304,-0.011642113722417401
8.308,-0.011641272303415016
8.312,-0.011644878384853806
8.316,-0.011643508073907067
8.32,-0.01163927693835222
8.324,-0.011636199748857786
8.328,-0.01163567085691343
8.332,-0.011636848843516769
8.336,-0.011640238560069231
8.34,-0.011642282006217877
8.344,-0.011642137762960325
8.348,-0.01164257049273298
8.352,-0.011641416546672568
8.356,-0.01164257049273298
8.36,-0.01164516687136891
8.364,-0.011645335155169386
8.368,-0.01164612849308592
8.372,-0.011645287074083535
8.376,-0.011644950506482583
8.38,-0.011644012925308497
8.384,-0.011643532114449991
8.388,-0.011643532114449991
8.392,-0.01164425333073775
8.396,-0.011644493736167003
8.4,-0.011645503438969864
8.404,-0.0116465852634015
8.408,-0.011645022628111358
8.412,-0.011642161803503252
8.416,-0.011643580195535842
8.42,-0.01164105593852869
8.424,-0.011647017993174155
8.428,-0.011652739642390367
8.432,-0.011650167304297365
8.436,-0.01164617657417177
8.44,-0.01164689779045953
8.444,-0.011647739209461912
8.448,-0.011648628709550147
8.452,-0.01164785941217654
8.456,-0.011646969912088304
8.46,-0.011647691128376061
8.464,-0.011646993952631229
8.468,-0.01164795557434824
8.472,-0.01164749880403266
8.476,-0.011648556587921372
8.48,-0.011650167304297365
8.484,-0.011649974979953962
8.488,-0.011645455357884013
8.492,-0.011645383236255236
8.496,-0.011646416979601023
8.5,-0.011646849709373679
8.504,-0.011648941236608175
8.508000000000001,-0.01164790749326239
8.512,-0.011648051736519942
8.516,-0.011647066074260005
8.52,-0.011648268101406269
8.524000000000001,-0.011649061439322803
8.528,-0.011646777587744902
8.532,-0.011643580195535842
8.536,-0.011646873749916603
8.540000000000001,-0.011650359628640767
8.544,-0.011649422047466681
8.548,-0.011646441020143948
8.552,-0.011644181209108973
8.556000000000001,-0.011644782222682105
8.56,-0.011651441453072403
8.564,-0.0116511529665573
8.568,-0.01165028750701199
8.572000000000001,-0.011651297209814851
8.576,-0.011646753547201977
8.58,-0.011648508506835522
8.584,-0.01165079235841342
8.588000000000001,-0.011651008723299749
8.592,-0.011650864480042197
8.596,-0.011648652750093073
8.6,-0.01164709011480293
8.604000000000001,-0.01164937396638083
8.608,-0.011650071142125663
8.612,-0.01165156165578703
8.616,-0.011653076209991321
8.620000000000001,-0.01165120104764315
8.624,-0.011650095182668588
8.628,-0.011651585696329955
8.632,-0.011650455790812468
8.636000000000001,-0.0116510568043856
8.64,-0.0116511529665573
8.644,-0.01164521495245476
8.648,-0.011646344857972247
8.652000000000001,-0.011650503871898319
8.656,-0.01165033558809784
8.66,-0.011650143263754438
8.664,-0.011649229723123279
8.668000000000001,-0.01165069619624172
8.672,-0.011649950939411036
8.676,-0.011648772952807699
8.68,-0.011650263466469066
8.684000000000001,-0.011651633777415805
8.688,-0.011648989317694026
8.692,-0.011647715168918988
8.696,-0.01164836426357797
8.700000000000001,-0.011652186709903086
8.704,-0.01165151357470118
8.708,-0.011649542250181307
8.712,-0.011648772952807699
8.716,-0.011650888520585122
8.72,-0.011652571358589891
8.724,-0.011655119656139969
8.728,-0.011653340655963499
8.732,-0.011651297209814851
8.736,-0.011652907926190845
8.74,-0.01165526389939752
8.744,-0.011652090547731385
8.748,-0.011654206115508808
8.752,-0.011653701264107377
8.756,-0.01165298004781962
8.76,-0.011652186709903086
8.764,-0.011653701264107377
8.768,-0.011654013791165407
8.772,-0.011653460858678126
8.776,-0.011653172372163022
8.78,-0.011651633777415805
8.784,-0.011653268534334724
8.788,-0.01165480712908194
8.792,-0.011654951372339491
8.796,-0.01165540814265507
8.8,-0.011654470561480987
8.804,-0.011654590764195612
8.808,-0.01165516773722582
8.812,-0.011653797426279078
8.816,-0.011654422480395136
8.82,-0.011654783088539015
8.824,-0.01165151357470118
8.828,-0.011655504304826772
8.832,-0.011659350791694814
8.836,-0.011657908359119298
8.84,-0.011655456223740921
8.844,-0.011655504304826772
8.848,-0.011656465926543784
8.852,-0.011657307345546167
8.856,-0.01165704289957399
8.86,-0.011656417845457933
8.864,-0.011655961075142352
8.868,-0.011653605101935676
8.872,-0.011655384102112146
8.876,-0.011657860278033448
8.88,-0.011661033629699584
8.884,-0.011660023926896723
8.888,-0.011657451588803719
8.892,-0.011652379034246488
8.896,-0.01165526389939752
8.9,-0.011654254196594658
8.904,-0.011655071575054118
8.908,-0.011657764115861747
8.912,-0.011656778453601812
8.916,-0.011656610169801334
8.92,-0.011660961508070807
8.924,-0.011661322116214687
8.928,-0.011660047967439647
8.932,-0.011659422913323591
8.936,-0.011657451588803719
8.94,-0.011656417845457933
8.944,-0.011655648548084324
8.948,-0.011655600466998473
8.952,-0.011656730372515961
8.956,-0.011659038264636786
8.96,-0.011659254629523113
8.964,-0.011661322116214687
8.968,-0.011659158467351412
8.972,-0.011656994818488139
8.976,-0.011657163102288615
8.98,-0.011658437251063655
8.984,-0.011659543116038217
8.988,-0.011660528778298153
8.992,-0.011659206548437263
8.996,-0.011659951805267946
9.0,-0.01166024029178305
9.004,-0.011655961075142352
9.008000000000001,-0.01166124999458591
9.012,-0.011664639711138373
9.016,-0.011662307778474622
9.02,-0.011660600899926928
9.024000000000001,-0.01165846129160658
9.028,-0.011660047967439647
9.032,-0.011661129791871285
9.036,-0.011662331819017548
9.040000000000001,-0.011662692427161427
9.044,-0.011660360494497675
9.048,-0.011659903724182095
9.052,-0.011660072007982573
9.056000000000001,-0.011662403940646323
9.06,-0.011661802927073191
9.064,-0.011658894021379235
9.068,-0.011660120089068424
9.072000000000001,-0.011658365129434878
9.076,-0.011660721102641556
9.08,-0.011661826967616118
9.084,-0.011663077075848231
9.088000000000001,-0.011662548183903875
9.092,-0.011660985548613733
9.096,-0.011662355859560472
9.1,-0.01166242798118925
9.104000000000001,-0.011659951805267946
9.108,-0.011661009589156657
9.112,-0.011662019291959518
9.116,-0.01166124999458591
9.120000000000001,-0.011661947170330743
9.124,-0.011663365562363333
9.128,-0.011663077075848231
9.132,-0.011661682724358566
9.136000000000001,-0.011659591197124067
9.14,-0.011654085912794182
9.144,-0.01166211545413122
9.148,-0.011664014657022315
9.152000000000001,-0.011662812629876052
9.156,-0.011663197278562857
9.16,-0.01166389445430769
9.164,-0.011664134859736943
9.168000000000001,-0.011665481130140758
9.172,-0.011665000319282252
9.176,-0.011665961940999262
9.18,-0.011664495467880821
9.184000000000001,-0.011662283737931697
9.188,-0.011659927764725022
9.192,-0.011659398872780665
9.196,-0.011658629575407057
9.200000000000001,-0.011659470994409442
9.204,-0.011661442318929313
9.208,-0.011660072007982573
9.212,-0.011660096048525498
9.216000000000001,-0.011659951805267946
9.22,-0.011657667953690047
9.224,-0.01166033645395475
9.228,-0.011662644346075576
9.232,-0.01166384637322184
9.236,-0.011665264765254429
9.24,-0.011669664184609753
9.244,-0.011667308211403077
9.248,-0.011660769183727404
9.252,-0.011656658250887185
9.256,-0.011663461724535034
9.26,-0.011666418711314842
9.264,-0.011666899522173348
9.268,-0.011668774684521517
9.272,-0.011670866211756016
9.276,-0.011669568022438051
9.28,-0.01166800538714791
9.284,-0.011666707197829945
9.288,-0.01166709184651675
9.292,-0.011666178305885589
9.296,-0.011666298508600216
9.3,-0.011669640144066828
9.304,-0.011669568022438051
9.308,-0.01166846215746349
9.312,-0.011667115887059674
9.316,-0.01166581769774171
9.32,-0.011662764548790202
9.324,-0.011662836670418978
9.328,-0.01166348576507796
9.332,-0.011665000319282252
9.336,-0.01166750053574648
9.34,-0.011665457089597831
9.344,-0.0116648560760247
9.348,-0.011665409008511981
9.352,-0.011666418711314842
9.356,-0.011664759913852999
9.36,-0.011664014657022315
9.364,-0.011661274035128837
9.368,-0.011664375265166194
9.372,-0.01166536092742613
9.376,-0.011664880116567626
9.38,-0.011664952238196401
9.384,-0.01166221161630292
9.388,-0.011665144562539803
9.392,-0.011668245792577163
9.396,-0.011665577292312457
9.4,-0.011666106184256814
9.404,-0.011669183373751247
9.408,-0.011667452454660629
9.412,-0.011666010022085112
9.416,-0.011664375265166194
9.42,-0.011667452454660629
9.424,-0.011670505603612137
9.428,-0.011668029427690834
9.432,-0.011668269833120087
9.436,-0.011668894887236145
9.44,-0.011666250427514365
9.444,-0.011664663751681298
9.448,-0.011666923562716272
9.452,-0.011664519508423746
9.456,-0.011665553251769533
9.46,-0.01167038540089751
9.464,-0.011671899955101803
9.468,-0.011669231454837097
9.472,-0.011665793657198786
9.476,-0.011661682724358566
9.48,-0.01166348576507796
9.484,-0.011664976278739326
9.488,-0.011664976278739326
9.492,-0.01166855831963519
9.496,-0.011667861143890358
9.5,-0.011664038697565242
9.504,-0.01166973630623853
9.508000000000001,-0.011667885184433284
9.512,-0.01166627446805729
9.516,-0.011666346589686067
9.52,-0.011665697495027084
9.524000000000001,-0.011667668819546955
9.528,-0.01166576961665586
9.532,-0.011668726603435667
9.536,-0.011672092279445205
9.540000000000001,-0.011671371063157446
9.544,-0.0116670437654309
9.548,-0.01166896700886492
9.552,-0.011670986414470641
9.556000000000001,-0.011670986414470641
9.56,-0.011669399738637575
9.564,-0.011668293873663013
9.568,-0.011667404373574778
9.572000000000001,-0.011666803360001646
9.576,-0.011669904590039006
9.58,-0.011671851874015952
9.584,-0.011668606400721041
9.588000000000001,-0.01166658699511532
9.592,-0.011671779752387175
9.596,-0.011673222184962691
9.6,-0.01167312602279099
9.604000000000001,-0.011671731671301325
9.608,-0.01166997671166778
9.612,-0.011669183373751247
9.616,-0.011677525442146314
9.620000000000001,-0.011673462590391944
9.624,-0.011669135292665398
9.628,-0.011668077508776685
9.632,-0.011668606400721041
9.636000000000001,-0.011669135292665398
9.64,-0.011665649413941234
9.644,-0.011667236089774302
9.648,-0.011668414076377639
9.652000000000001,-0.011667981346604983
9.656,-0.01166709184651675
9.66,-0.011668846806150294
9.664,-0.011669688225152679
9.668000000000001,-0.011672140360531056
9.672,-0.011674712698624058
9.676,-0.011674231887765552
9.68,-0.011674135725593851
9.684000000000001,-0.011677140793459509
9.688,-0.011676034928484947
9.692,-0.01167262117138956
9.696,-0.011672044198359354
9.700000000000001,-0.011672909657904663
9.704,-0.011673462590391944
9.708,-0.011673222184962691
9.712,-0.011672693293018337
9.716000000000001,-0.011671491265872073
9.72,-0.011671539346957924
9.724,-0.011669087211579547
9.728,-0.011674376131023104
9.732,-0.011674159766136777
9.736,-0.01167622725282835
9.74,-0.011673150063333916
9.744,-0.011670217117097034
9.748,-0.011673486630934869
9.752,-0.011675986847399096
9.756,-0.011676251293371276
9.76,-0.011677597563775089
9.764,-0.011676107050113724
9.768,-0.011672452887589084
9.772,-0.011671467225329147
9.776,-0.011673270266048542
9.78,-0.011675385833825965
9.784,-0.011675457955454742
9.788,-0.01167074600904139
9.792,-0.011672044198359354
9.796,-0.011673775117449972
9.8,-0.011672260563245681
9.804,-0.011673029860619289
9.808,-0.011674159766136777
9.812,-0.011674929063510385
9.816,-0.011676299374457126
9.82,-0.011675602198712293
9.824,-0.011674544414823582
9.828,-0.011673799157992899
9.832,-0.011672092279445205
9.836,-0.01167028923872581
9.84,-0.011673775117449972
9.844,-0.011677309077259987
9.848,-0.011676058969027873
9.852,-0.011675433914911815
9.856,-0.011675914725770321
9.86,-0.011674953104053311
9.864,-0.011680578591097822
9.868,-0.011679400604494483
9.872,-0.011678294739519922
9.876,-0.011677044631287808
9.88,-0.01167526563111134
9.884,-0.011674520374280656
9.888,-0.01167221248215983
9.892,-0.011670938333384792
9.896,-0.011672188441616905
9.9,-0.011672789455190036
9.904,-0.011672452887589084
9.908,-0.011673318347134393
9.912,-0.011674664617538208
9.916,-0.011674977144596236
9.92,-0.011673510671477795
9.924,-0.011673414509306094
9.928,-0.011674255928308478
9.932,-0.011676299374457126
9.936,-0.011677789888118491
9.94,-0.011678631307120876
9.944,-0.011677669685403866
9.948,-0.011676659982601005
9.952,-0.011678799590921352
9.956,-0.011678991915264754
9.96,-0.011678342820605772
9.964,-0.01167769372594679
9.968,-0.011675962806856172
9.972,-0.011671539346957924
9.976,-0.011677886050290192
9.98,-0.011679304442322784
9.984,-0.011679208280151083
9.988,-0.011678679388206726
9.992,-0.011677453320517539
9.996,-0.011679039996350605
10.0,-0.01167901595580768
10.004,-0.011680193942411017
10.008000000000001,-0.011682237388559665
10.012,-0.01168267011833232
10.016,-0.011679544847752035
10.02,-0.011680097780239316
10.024000000000001,-0.011679737172095438
10.028,-0.011680963239784627
10.032,-0.011679689091009587
10.036,-0.011678607266577951
10.040000000000001,-0.01167942464503741
10.044,-0.01167952080720911
10.048,-0.011680049699153466
10.052,-0.011681828699329936
10.056000000000001,-0.011683223050819602
10.06,-0.011681636374986534
10.064,-0.011679833334267139
10.068,-0.011677862009747268
10.072000000000001,-0.011678703428749652
10.076,-0.011681275766842655
10.08,-0.011678342820605772
10.084,-0.01167394340125045
10.088000000000001,-0.011682646077789394
10.092,-0.011683439415705928
10.096,-0.011684617402309267
10.1,-0.01168211718584504
10.104000000000001,-0.01168038626675442
10.108,-0.011678679388206726
10.112,-0.011679448685580334
10.116,-0.01168170849661531
10.120000000000001,-0.011683824064392733
10.124,-0.01168404042927906
10.128,-0.011681564253357759
10.132,-0.011683367294077153
10.136000000000001,-0.011683727902221032
10.14,-0.011680626672183673
10.144,-0.011680169901868093
10.148,-0.011679208280151083
10.152000000000001,-0.011681107483042179
10.156,-0.011684064469821986
10.16,-0.011681131523585103
10.164,-0.011678727469292577
10.168000000000001,-0.011681756577701161
10.172,-0.01168307880756205
10.176,-0.01168536265913995
10.18,-0.011684256794165387
10.184000000000001,-0.01168129980738558
10.188,-0.011685482861854576
10.192,-0.011685242456425323
10.196,-0.011682453753445992
10.200000000000001,-0.011681468091186057
10.204,-0.01168399234819321
10.208,-0.0116853145780541
10.212,-0.011684016388736135
10.216000000000001,-0.011680073739696392
10.22,-0.01167942464503741
10.224,-0.011682093145302113
10.228,-0.011681251726299729
10.232000000000001,-0.01168211718584504
10.236,-0.011682285469645516
10.24,-0.01168363174004933
10.244,-0.011687478226917373
10.248,-0.011688247524290981
10.252,-0.01168449719959464
10.256,-0.011683199010276675
10.26,-0.011683607699506405
10.264,-0.011682718199418171
10.268,-0.011685122253710697
10.272,-0.011682285469645516
10.276,-0.011683848104935658
10.28,-0.01168500205099607
10.284,-0.011682477793988918
10.288,-0.011684016388736135
10.292,-0.011683319212991303
10.296,-0.011683727902221032
10.3,-0.011684160631993687
10.304,-0.01168211718584504
10.308,-0.011680650712726597
10.312,-0.01168216526693089
10.316,-0.011680818996527075
10.32,-0.01168180465878701
10.324,-0.01168404042927906
10.328,-0.011679761212638364
10.332,-0.011680362226211495
10.336,-0.011688007118861728
10.34,-0.01168577134836968
10.344,-0.011685963672713082
10.348,-0.011684352956337088
10.352,-0.0116831268886479
10.356,-0.011685530942940427
10.36,-0.011688511970263158
10.364,-0.011688031159404654
10.368,-0.011685579024026277
10.372,-0.011683800023849807
10.376,-0.011684328915794163
10.38,-0.011684593361766341
10.384,-0.011685987713256006
10.388,-0.01168916106492214
10.392,-0.01169089198401276
10.396,-0.011687886916147102
10.4,-0.011687213780945194
10.404,-0.011688031159404654
10.408,-0.011687622470174925
10.412,-0.011687718632346626
10.416,-0.01168892065949289
10.42,-0.01168622811868526
10.424,-0.011686420443028662
10.428,-0.011686059834884781
10.432,-0.011683727902221032
10.436,-0.011684641442852192
10.44,-0.01168353557787763
10.444,-0.011680915158698776
10.448,-0.01169033905152548
10.452,-0.011688848537864113
10.456,-0.011688944700035814
10.46,-0.011688319645919758
10.464,-0.011685627105112128
10.468,-0.0116876945918037
10.472,-0.011691565119214667
10.476,-0.011691661281386368
10.48,-0.011690242889353778
10.484,-0.011692406538217051
10.488,-0.01169276714636093
10.492,-0.011689954402838675
10.496,-0.011690411173154254
10.5,-0.01169139683541419
10.504,-0.011689497632523095
10.508000000000001,-0.01168723782148812
10.512,-0.011687069537687644
10.516,-0.011685963672713082
10.52,-0.01168536265913995
10.524000000000001,-0.01168627619977111
10.528,-0.011686660848457913
10.532,-0.011684328915794163
10.536,-0.011684401037422939
10.540000000000001,-0.011686083875427708
10.544,-0.011688896618949963
10.548,-0.011686853172801315
10.552,-0.011686636807914989
10.556000000000001,-0.011688007118861728
10.56,-0.011689786119038198
10.564,-0.011691661281386368
10.568,-0.011690122686639152
10.572000000000001,-0.011689762078495272
10.576,-0.011686348321399885
10.58,-0.011690579456954732
10.584,-0.01169312775450481
10.588000000000001,-0.011693055632876034
10.592,-0.011692743105818006
10.596,-0.01168865621352071
10.6,-0.011688560051349009
10.604000000000001,-0.011688391767548533
10.608,-0.011686973375515943
10.612,-0.011689449551437244
10.616,-0.011691613200300517
10.620000000000001,-0.011688007118861728
10.624,-0.011687718632346626
10.628,-0.011691613200300517
10.632,-0.01169281522744678
10.636000000000001,-0.011693873011335492
10.64,-0.0116945461465374
10.644,-0.01169038713261133
10.648,-0.011689762078495272
10.652000000000001,-0.011690916024555685
10.656,-0.011691036227270312
10.66,-0.011692406538217051
10.664,-0.01169271906527508
10.668000000000001,-0.011691925727358547
10.672,-0.011693728768077942
10.676,-0.011692935430161408
10.68,-0.01169449806545155
10.684000000000001,-0.011692382497674127
10.688,-0.011688223483748057
10.692,-0.011690050565010376
10.696,-0.01169033905152548
10.700000000000001,-0.011690603497497657
10.704,-0.011690603497497657
10.708,-0.01168860813243486
10.712,-0.011688728335149487
10.716000000000001,-0.011690050565010376
10.72,-0.01169353644373454
10.724,-0.011692911389618482
10.728,-0.011692045930073173
10.732000000000001,-0.011690940065098611
10.736,-0.011691492997585892
10.74,-0.01169257482201753
10.744,-0.011694377862736924
10.748000000000001,-0.01169404129513597
10.752,-0.011693416241019912
10.756,-0.011691949767901472
10.76,-0.011693368159934062
10.764,-0.011696445349428496
10.768,-0.01169276714636093
10.772,-0.011689738037952348
10.776,-0.011689641875780647
10.78,-0.011693560484277464
10.784,-0.011694762511423727
10.788,-0.011693728768077942
10.792,-0.011694377862736924
10.796,-0.011696589592686048
10.8,-0.011695940498027066
10.804,-0.011696902119744076
10.808,-0.011697382930602582
10.812,-0.011696613633228973
10.816,-0.011692743105818006
10.82,-0.011692743105818006
10.824,-0.011688295605376832
10.828,-0.011695748173683664
10.832,-0.011698440714491293
10.836,-0.011697479092774282
10.84,-0.011694353822193998
10.844,-0.011690627538040583
10.848,-0.011694305741108147
10.852,-0.011696709795400674
10.856,-0.011696301106170945
10.86,-0.0116922622949595
10.864,-0.011691276632699565
10.868,-0.011692238254416575
10.872,-0.011694666349252026
10.876,-0.011700267795753613
10.88,-0.01170089284986967
10.884,-0.011696709795400674
10.888,-0.011696757876486524
10.892,-0.011696805957572375
10.896,-0.011695700092597813
10.9,-0.011695339484453934
10.904,-0.011694329781651074
10.908,-0.011693680686992091
10.912,-0.011694474024908624
10.916,-0.01169358452482039
10.92,-0.011695844335855365
10.924,-0.011695748173683664
10.928,-0.011696301106170945
10.932,-0.011697094444087478
10.936,-0.011691613200300517
10.94,-0.01169646938997142
10.944,-0.011697334849516731
10.948,-0.011697118484630403
10.952,-0.011700916890412595
10.956,-0.01170231124190226
10.96,-0.011702551647331513
10.964,-0.011702142958101784
10.968,-0.011701638106700352
10.972,-0.011698825363178096
10.976,-0.01169769545766061
10.98,-0.011695820295312439
10.984,-0.011696349187256795
10.988,-0.011697839700918162
10.992,-0.011699666782180481
10.996,-0.011700556282268716
11.0,-0.011697382930602582
11.004,-0.011693897051878418
11.008000000000001,-0.011697262727887955
11.012,-0.011698584957748845
11.016,-0.011697671417117684
11.02,-0.011697671417117684
11.024000000000001,-0.011697046363001628
11.028,-0.011697551214403058
11.032,-0.011695772214226588
11.036,-0.011694930795224205
11.040000000000001,-0.01169815222797619
11.044,-0.011698344552319592
11.048,-0.011691444916500041
11.052,-0.011694161497850596
11.056000000000001,-0.01169810414689034
11.06,-0.01169678191702945
11.064,-0.011694666349252026
11.068,-0.011694185538393522
11.072000000000001,-0.011698296471233742
11.076,-0.011701445782356951
11.08,-0.011699786984895108
11.084,-0.011699498498380005
11.088000000000001,-0.011700003349781435
11.092,-0.011698777282092246
11.096,-0.011698681119920545
11.1,-0.011700724566069192
11.104000000000001,-0.011701950633758382
11.108,-0.01170221507973056
11.112,-0.011700820728240894
11.116,-0.011700628403897491
11.120000000000001,-0.011698007984718638
11.124,-0.011698993646978574
11.128,-0.011701950633758382
11.132,-0.011703056498732944
11.136000000000001,-0.011703921958278253
11.14,-0.011702936296018316
11.144,-0.01169961870109463
11.148,-0.011698296471233742
11.152000000000001,-0.011696204943999243
11.156,-0.011695555849340261
11.16,-0.011698007984718638
11.164,-0.011699402336208304
11.168000000000001,-0.011699859106523883
11.172,-0.011698416673948367
11.176,-0.011699306174036602
11.18,-0.01170322478253342
11.184000000000001,-0.01170079668769797
11.188,-0.011698729201006395
11.192,-0.01169769545766061
11.196,-0.01170007547141021
11.200000000000001,-0.011700291836296539
11.204,-0.011700099511953136
11.208,-0.01170322478253342
11.212,-0.011703753674477776
11.216000000000001,-0.01170180639050083
11.22,-0.01170226316081641
11.224,-0.011703344985248047
11.228,-0.011698560917205919
11.232000000000001,-0.011700195674124838
11.236,-0.011703945998821179
11.24,-0.011703465187962673
11.244,-0.011702575687874438
11.248000000000001,-0.011701181336384772
11.252,-0.011699738903809258
11.256,-0.011700171633581911
11.26,-0.011700051430867286
11.264,-0.01170007547141021
11.268,-0.011701517903985726
11.272,-0.0117013977012711
11.276,-0.011701950633758382
11.28,-0.011703921958278253
11.284,-0.011703104579818794
11.288,-0.01170134962018525
11.292,-0.011702599728417364
11.296,-0.011705436512482544
11.3,-0.011707528039717042
11.304,-0.011706542377457106
11.308,-0.01170788864786092
11.312,-0.01170683086397221
11.316,-0.011703561350134374
11.32,-0.011701782349957904
11.324,-0.011702671850046139
11.328,-0.011704931661081113
11.332,-0.011709403202065214
11.336,-0.011707528039717042
11.34,-0.011698681119920545
11.344,-0.011699378295665377
11.348,-0.011704907620538189
11.352,-0.011707191472116088
11.356,-0.011708032891118473
11.36,-0.011705196107053293
11.364,-0.011702599728417364
11.368,-0.011702840133846615
11.372,-0.011703633471763149
11.376,-0.011702936296018316
11.38,-0.011702960336561243
11.384,-0.011704595093480161
11.388,-0.011704066201535804
11.392,-0.011704282566422131
11.396,-0.011700916890412595
11.4,-0.011699907187609734
11.404,-0.011701662147243278
11.408,-0.011702864174389541
11.412,-0.011705075904338665
11.416,-0.011704739336737711
11.42,-0.011704042160992878
11.424,-0.011705268228682068
11.428,-0.011707576120802893
11.432,-0.011706758742343434
11.436,-0.011704739336737711
11.44,-0.011703513269048524
11.444,-0.011702094877015934
11.448,-0.011701253458013549
11.452,-0.011700628403897491
11.456,-0.011701445782356951
11.46,-0.011702792052760766
11.464,-0.01170226316081641
11.468,-0.011705436512482544
11.472,-0.011705316309767918
11.476,-0.011703080539275868
11.48,-0.011705027823252815
11.484,-0.011704042160992878
11.488,-0.01170500378270989
11.492,-0.011703873877192402
11.496,-0.011703441147419747
11.5,-0.011701373660728175
11.504,-0.011705340350310843
11.508000000000001,-0.011707672282974594
11.512,-0.011707143391030237
11.516,-0.011706566418000032
11.52,-0.011705436512482544
11.524000000000001,-0.011707936728946771
11.528,-0.011710364823782224
11.532,-0.011711302404956308
11.536,-0.011709475323693989
11.540000000000001,-0.011706902985600986
11.544,-0.011706734701800508
11.548,-0.011707696323517518
11.552,-0.011707359755916566
11.556000000000001,-0.01170788864786092
11.56,-0.011705773080083498
11.564,-0.011702022755387157
11.568,-0.011704667215108936
11.572000000000001,-0.011710172499438821
11.576,-0.011707191472116088
11.58,-0.011706326012570779
11.584,-0.011706037526055675
11.588000000000001,-0.01170418640425043
11.592,-0.011706951066686837
11.596,-0.011710388864325148
11.6,-0.011711711094186039
11.604000000000001,-0.011710917756269505
11.608,-0.011710052296724194
11.612,-0.011710412904868074
11.616,-0.011711134121155832
11.620000000000001,-0.011710509067039776
11.624,-0.011710004215638345
11.628,-0.011706686620714658
11.632,-0.011703825796106552
11.636000000000001,-0.011707239553201939
11.64,-0.011709355120979363
11.644,-0.011709355120979363
11.648,-0.011708730066863305
11.652000000000001,-0.011707912688403847
11.656,-0.011705773080083498
11.66,-0.011705845201712273
11.664,-0.011704787417823562
11.668000000000001,-0.011705316309767918
11.672,-0.011707431877545341
11.676,-0.011707720364060445
11.68,-0.01170788864786092
11.684000000000001,-0.011714932526938024
11.688,-0.011711711094186039
11.692,-0.011709355120979363
11.696,-0.01170687894505806
11.700000000000001,-0.01170683086397221
11.704,-0.011706782782886359
11.708,-0.011708922391206708
11.712,-0.011711086040069981
11.716000000000001,-0.011708080972204323
11.72,-0.011706061566598602
11.724,-0.011706205809856153
11.728,-0.011708826229035007
11.732000000000001,-0.011710460985953925
11.736,-0.011708994512835483
11.74,-0.011706951066686837
11.744,-0.011709379161522288
11.748000000000001,-0.011710701391383176
11.752,-0.01170784056677507
11.756,-0.011705364390853769
11.76,-0.01170779248568922
11.764000000000001,-0.011709835931837867
11.768,-0.0117081530938331
11.772,-0.011711687053643113
11.776,-0.011714716162051697
11.78,-0.011711061999527057
11.784,-0.011708561783062829
11.788,-0.01170728763428779
11.792,-0.011705436512482544
11.796,-0.011713057364589852
11.8,-0.011713802621420535
11.804,-0.011715581621597006
11.808,-0.011714668080965846
11.812,-0.011713538175448358
11.816,-0.011715533540511155
11.82,-0.011715822027026259
11.824,-0.011715533540511155
11.828,-0.011714403634993667
11.832,-0.011716567283856942
11.836,-0.011717312540687624
11.84,-0.011714980608023874
11.844,-0.011713610297077135
11.848,-0.011713417972733732
11.852,-0.011712360188845021
11.856,-0.01171190341852944
11.86,-0.011713297770019105
11.864,-0.011711278364413383
11.868,-0.011710052296724194
11.872,-0.011706902985600986
11.876,-0.011708633904691604
11.88,-0.01171276887807475
11.884,-0.011715437378339454
11.888,-0.011712624634817198
11.892,-0.011713490094362507
11.896,-0.011712576553731348
11.9,-0.011707768445146295
11.904,-0.011704066201535804
11.908,-0.011713081405132778
11.912,-0.011716495162228165
11.916,-0.01171921174357872
11.92,-0.011716086472998436
11.924,-0.01171373049979176
11.928,-0.011715004648566799
11.932,-0.011714379594450743
11.936,-0.011715172932367277
11.94,-0.011715269094538978
11.944,-0.011713057364589852
11.948,-0.0117128169591606
11.952,-0.011713201607847404
11.956,-0.011712985242961077
11.96,-0.011712167864501619
11.964,-0.011712600594274272
11.968,-0.011710845634640728
11.972,-0.011712696756445973
11.976,-0.011713538175448358
11.98,-0.011713105445675703
11.984,-0.011713658378162984
11.988,-0.011713658378162984
11.992,-0.011709932094009569
11.996,-0.011710052296724194
12.0,-0.011710412904868074
12.004,-0.011709355120979363
12.008000000000001,-0.011709715729123242
12.012,-0.011707672282974594
12.016,-0.011705700958454723
12.02,-0.011716735567657418
12.024000000000001,-0.011717000013629596
12.028,-0.01171637495951354
12.032,-0.011717649108288578
12.036,-0.0117151008107385
12.040000000000001,-0.01171245635101672
12.044,-0.011712696756445973
12.048,-0.011712336148302095
12.052,-0.011712119783415768
12.056000000000001,-0.011714331513364892
12.06,-0.01171611051354136
12.064,-0.011717937594803681
12.068,-0.011714619999879996
12.072000000000001,-0.011712360188845021
12.076,-0.011710653310297326
12.08,-0.011709331080436437
12.084,-0.011711518769842636
12.088000000000001,-0.011715245053996052
12.092,-0.011715677783768707
12.096,-0.01171373049979176
12.1,-0.011712889080789376
12.104000000000001,-0.01171423535119319
12.108,-0.011715196972910201
12.112,-0.011716447081142315
12.116,-0.011713369891647882
12.120000000000001,-0.011709355120979363
12.124,-0.011710460985953925
12.128,-0.011708874310120857
12.132,-0.01171687981091497
12.136000000000001,-0.011717024054172522
12.14,-0.011716591324399867
12.144,-0.011716134554084287
12.148,-0.011718947297606542
12.152000000000001,-0.011716663446028642
12.156,-0.011716182635170137
12.16,-0.011718971338149468
12.164,-0.011718105878604158
12.168000000000001,-0.011717528905573952
12.172,-0.011716206675713062
12.176,-0.011715172932367277
12.18,-0.011715076770195575
12.184000000000001,-0.011714860405309247
12.188,-0.011713297770019105
12.192,-0.011711326445499234
12.196,-0.01171363433762006
12.200000000000001,-0.011719932959866479
12.204,-0.011722649541217033
12.208,-0.011720221446381582
12.212,-0.011718875175977767
12.216000000000001,-0.011714860405309247
12.22,-0.011714427675536593
12.224,-0.011717096175801297
12.228,-0.011717576986659803
12.232000000000001,-0.011716783648743269
12.236,-0.011716807689286193
12.24,-0.011717673148831504
12.244,-0.01171998104095233
12.248000000000001,-0.011720053162581104
12.252,-0.011717024054172522
12.256,-0.01171587010811211
12.26,-0.011712961202418153
12.264000000000001,-0.011712937161875226
12.268,-0.01171779335154613
12.272,-0.01171560566213993
12.276,-0.011717601027202727
12.280000000000001,-0.011718418405662187
12.284,-0.011717144256887147
12.288,-0.011717576986659803
12.292,-0.011717000013629596
12.296,-0.011718586689462664
12.3,-0.011720558013982535
12.304,-0.011718875175977767
12.308,-0.01171870689217729
12.312,-0.01171962043280845
12.316,-0.011719860838237702
12.32,-0.011717360621773474
12.324,-0.011715172932367277
12.328,-0.01171413918902149
12.332,-0.011716807689286193
12.336,-0.011718779013806066
12.34,-0.011717937594803681
12.344,-0.011717697189374428
12.348,-0.011718947297606542
12.352,-0.011717937594803681
12.356,-0.01172048589235376
12.36,-0.011719764676066
12.364,-0.011716735567657418
12.368,-0.011716903851457895
12.372,-0.011714788283680472
12.376,-0.011715269094538978
12.38,-0.011723250554790164
12.384,-0.011722337014159005
12.388,-0.011720341649096208
12.392,-0.011715533540511155
12.396,-0.011714836364766322
12.4,-0.011717360621773474
12.404,-0.011716567283856942
12.408,-0.011719548311179674
12.412,-0.011723154392618463
12.416,-0.011724452581936428
12.42,-0.01171962043280845
12.424,-0.011718947297606542
12.428,-0.011720197405838656
12.432,-0.011719860838237702
12.436,-0.011719692554437226
12.44,-0.011719235784121646
12.444,-0.011718899216520692
12.448,-0.011720894581583489
12.452,-0.011720774378868863
12.456,-0.011720606095068385
12.46,-0.01171834628403341
12.464,-0.011718033756975383
12.468,-0.011721976406015126
12.472,-0.011720966703212264
12.476,-0.01171921174357872
12.48,-0.011719067500321168
12.484,-0.011718634770548514
12.488,-0.011714716162051697
12.492,-0.01172058205452546
12.496,-0.011720894581583489
12.5,-0.011722817825017509
12.504,-0.011725630568539766
12.508000000000001,-0.01172341883859064
12.512,-0.011725582487453916
12.516,-0.01172286590610336
12.52,-0.011720269527467431
12.524000000000001,-0.011721784081671724
12.528,-0.011720822459954714
12.532,-0.011721687919500023
12.536,-0.011723034189903838
12.540000000000001,-0.011721976406015126
12.544,-0.011722096608729752
12.548,-0.01172337075750479
12.552,-0.011723058230446762
12.556000000000001,-0.011721976406015126
12.56,-0.011722793784474585
12.564,-0.01172317843316139
12.568,-0.0117242362170501
12.572000000000001,-0.011726183501027047
12.576,-0.011724981473880784
12.58,-0.011725822892883167
12.584,-0.011727818257945964
12.588000000000001,-0.011725318041481737
12.592,-0.011724067933249623
12.596,-0.011723010149360912
12.6,-0.011722601460131182
12.604000000000001,-0.011722216811444378
12.608,-0.011722577419588258
12.612,-0.011724019852163772
12.616,-0.01172464490627983
12.620000000000001,-0.01172418813596425
12.624,-0.01172341883859064
12.628,-0.011721663878957097
12.632,-0.011722817825017509
12.636000000000001,-0.011723250554790164
12.64,-0.011723490960219417
12.644,-0.011720654176154236
12.648,-0.011726087338855346
12.652000000000001,-0.011724380460307653
12.656,-0.0117242362170501
12.66,-0.011722529338502407
12.664,-0.011720269527467431
12.668000000000001,-0.011722505297959481
12.672,-0.01172505359550956
12.676,-0.011725919055054868
12.68,-0.011726039257769496
12.684000000000001,-0.011727121082201131
12.688,-0.011724380460307653
12.692,-0.011725534406368065
12.696,-0.011727698055231339
12.700000000000001,-0.011724428541393503
12.704,-0.011724212176507175
12.708,-0.011724067933249623
12.712,-0.011725822892883167
12.716000000000001,-0.011727962501203516
12.72,-0.01172779421740304
12.724,-0.011725173798224185
12.728,-0.011723659244019894
12.732000000000001,-0.011721423473527845
12.736,-0.011722168730358527
12.74,-0.0117287077580342
12.744,-0.011725822892883167
12.748000000000001,-0.01172510167659541
12.752,-0.011724476622479352
12.756,-0.011723298635876015
12.76,-0.01172373136564867
12.764000000000001,-0.011723274595333089
12.768,-0.011724067933249623
12.772,-0.01172363520347697
12.776,-0.011723515000762342
12.780000000000001,-0.011723250554790164
12.784,-0.011726135419941197
12.788,-0.011725774811797316
12.792,-0.011726327744284597
12.796000000000001,-0.011726880676771878
12.8,-0.01172322651424724
12.804,-0.01172337075750479
12.808,-0.011725077636052484
12.812,-0.011726544109170926
12.816,-0.011722841865560435
12.82,-0.011722192770901453
12.824,-0.011723779446734521
12.828,-0.011724212176507175
12.832,-0.011723995811620848
12.836,-0.011724043892706698
12.84,-0.01172611137939827
12.844,-0.011726856636228954
12.848,-0.011727914420117665
12.852,-0.011729188568892705
12.856,-0.0117241400548784
12.86,-0.01172555844691099
12.864,-0.011728996244549303
12.868,-0.01172926069052148
12.872,-0.011730438677124819
12.876,-0.011729188568892705
12.88,-0.011728178866089843
12.884,-0.01173063100146822
12.888,-0.011731881109700333
12.892,-0.011730775244725771
12.896,-0.011730294433867267
12.9,-0.011728683717491273
12.904,-0.011728419271519096
12.908,-0.011729068366178078
12.912,-0.011728996244549303
12.916,-0.011728226947175693
12.92,-0.011728587555319574
12.924,-0.011725726730711466
12.928,-0.011720341649096208
12.932,-0.011722288933073154
12.936,-0.011725991176683645
12.94,-0.011731111812326726
12.944,-0.01173103969069795
12.948,-0.011728130785003992
12.952,-0.011727433609259161
12.956,-0.01172825098771862
12.96,-0.011728948163463452
12.964,-0.01173140029884183
12.968,-0.011727601893059637
12.972,-0.011722673581759957
12.976,-0.01172099074375519
12.98,-0.01171930790575042
12.984,-0.011727048960572356
12.988,-0.011729308771607331
12.992,-0.011725750771254392
12.996,-0.0117241400548784
13.0,-0.011725967136140719
13.004,-0.011726952798400655
13.008000000000001,-0.011728178866089843
13.012,-0.011729284731064405
13.016,-0.011727553811973787
13.02,-0.011729549177036584
13.024000000000001,-0.011731808988071558
13.028,-0.011732193636758363
13.032,-0.011730150190609715
13.036,-0.011731688785356931
13.040000000000001,-0.011732530204359316
13.044,-0.011730727163639921
13.048,-0.011730534839296518
13.052,-0.011734309204535786
13.056000000000001,-0.011733203339561224
13.06,-0.011731352217755979
13.064,-0.011731207974498427
13.068,-0.011731352217755979
13.072000000000001,-0.011733275461189999
13.076,-0.01173428516399286
13.08,-0.011732289798930063
13.084,-0.011732241717844214
13.088000000000001,-0.011733155258475373
13.092,-0.011730150190609715
13.096,-0.011731111812326726
13.1,-0.011735342947881571
13.104000000000001,-0.01173428516399286
13.108,-0.01173103969069795
13.112,-0.0117288039202059
13.116,-0.01172976554192291
13.120000000000001,-0.011730799285268698
13.124,-0.011730486758210668
13.128,-0.011731111812326726
13.132,-0.01173012615006679
13.136000000000001,-0.0117288039202059
13.14,-0.011727121082201131
13.144,-0.011728972204006377
13.148,-0.011730847366354548
13.152000000000001,-0.01172926069052148
13.156,-0.011729453014864883
13.16,-0.011730582920382369
13.164,-0.01173378031259143
13.168000000000001,-0.011734189001821159
13.172,-0.011733539907162176
13.176,-0.011734213042364085
13.18,-0.01173241000164469
13.184000000000001,-0.011729909785180462
13.188,-0.011729573217579508
13.192,-0.011732434042187614
13.196,-0.011732073434043736
13.200000000000001,-0.011728972204006377
13.204,-0.011725318041481737
13.208,-0.011729837663551687
13.212,-0.011737915285974575
13.216000000000001,-0.011735126582995244
13.22,-0.011732241717844214
13.224,-0.011731712825899857
13.228,-0.01173140029884183
13.232000000000001,-0.011732073434043736
13.236,-0.011732962934131971
13.24,-0.011733972636934832
13.244,-0.01173241000164469
13.248000000000001,-0.011731520501556455
13.252,-0.011733948596391907
13.256,-0.011733636069333878
13.26,-0.011733035055760746
13.264000000000001,-0.011735222745166946
13.268,-0.011735799718197153
13.272,-0.011733131217932447
13.276,-0.011733395663904626
13.280000000000001,-0.011735318907338647
13.284,-0.011735823758740077
13.288,-0.011732434042187614
13.292,-0.01172707300111528
13.296000000000001,-0.011727553811973787
13.3,-0.011733852434220206
13.304,-0.011733083136846597
13.308,-0.011732770609788569
13.312000000000001,-0.01173012615006679
13.316,-0.0117310877717838
13.32,-0.01173063100146822
13.324,-0.011729789582465837
13.328,-0.011732121515129586
13.332,-0.011733996677477758
13.336,-0.011734020718020682
13.34,-0.011729693420294136
13.344,-0.011733467785533401
13.348,-0.011735919920911778
13.352,-0.01173702578588634
13.356,-0.011733155258475373
13.36,-0.011732121515129586
13.364,-0.011730919487983323
13.368,-0.01173144837992768
13.372,-0.011733684150419728
13.376,-0.011734213042364085
13.38,-0.011733227380104148
13.384,-0.011733011015217822
13.388,-0.011737290231858518
13.392,-0.011738179731946753
13.396,-0.01173601608308348
13.4,-0.011733852434220206
13.404,-0.01173459769105089
13.408,-0.011735078501909394
13.412,-0.011736641137199536
13.416,-0.011734309204535786
13.42,-0.011733948596391907
13.424,-0.011733203339561224
13.428,-0.011734020718020682
13.432,-0.011735126582995244
13.436,-0.011731688785356931
13.44,-0.011733732231505579
13.444,-0.011736160326341031
13.448,-0.011736905583171715
13.452,-0.011732193636758363
13.456,-0.011734357285621637
13.46,-0.011735006380280619
13.464,-0.01173601608308348
13.468,-0.011736881542628788
13.472,-0.011735487191139123
13.476,-0.011732842731417345
13.48,-0.011734814055937216
13.484,-0.011736905583171715
13.488,-0.011735871839825928
13.492,-0.01173652093448491
13.496,-0.011734765974851366
13.5,-0.011733708190962654
13.504,-0.011732770609788569
13.508000000000001,-0.011733035055760746
13.512,-0.011736400731770284
13.516,-0.011736689218285386
13.52,-0.01173241000164469
13.524000000000001,-0.01173378031259143
13.528,-0.011736400731770284
13.532,-0.011737843164345799
13.536,-0.011738275894118454
13.540000000000001,-0.011740271259181251
13.544,-0.011738203772489679
13.548,-0.011738420137376006
13.552,-0.0117402231780954
13.556000000000001,-0.011739381759093016
13.56,-0.011739093272577912
13.564,-0.011734405366707487
13.568,-0.01173707386697219
13.572000000000001,-0.011741329043069963
13.576,-0.011737867204888725
13.58,-0.011736641137199536
13.584,-0.01173697770480049
13.588000000000001,-0.011735895880368852
13.592,-0.011737722961631173
13.596,-0.01174108863764071
13.6,-0.0117402231780954
13.604000000000001,-0.011739742367236895
13.608,-0.011737674880545322
13.612,-0.011736232447969806
13.616,-0.011735535272224974
13.620000000000001,-0.011735174664081095
13.624,-0.011734717893765515
13.628,-0.011735415069510348
13.632,-0.011734958299194768
13.636000000000001,-0.011739886610494446
13.64,-0.011740367421352952
13.644,-0.011738780745519884
13.648,-0.011737722961631173
13.652000000000001,-0.011736857502085864
13.656,-0.011739021150949137
13.66,-0.011741160759269486
13.664,-0.011739622164522269
13.668000000000001,-0.011736737299371237
13.672,-0.01173423708290701
13.676,-0.011734164961278234
13.68,-0.011737290231858518
13.684000000000001,-0.011735655474939601
13.688,-0.011736953664257565
13.692,-0.011736737299371237
13.696,-0.011735751637111302
13.700000000000001,-0.011732554244902242
13.704,-0.011740247218638325
13.708,-0.01174154540795629
13.712,-0.011738924988777436
13.716000000000001,-0.011737915285974575
13.72,-0.01173890094823451
13.724,-0.011741256921441188
13.728,-0.011743540773019086
13.732000000000001,-0.011742170462072347
13.736,-0.011738588421176482
13.74,-0.01173921347529254
13.744,-0.011739501961807642
13.748000000000001,-0.011739838529408596
13.752,-0.011738131650860902
13.756,-0.01173976640777982
13.76,-0.011740295299724176
13.764000000000001,-0.011740463583524654
13.768,-0.011739742367236895
13.772,-0.011741064597097785
13.776,-0.011738203772489679
13.780000000000001,-0.011740728029496831
13.784,-0.011741329043069963
13.788,-0.011736400731770284
13.792,-0.011738636502262333
13.796000000000001,-0.011739405799635942
13.8,-0.011740054894294924
13.804,-0.011740896313297307
13.808,-0.011739453880721793
13.812000000000001,-0.011734092839649457
13.816,-0.011740776110582682
13.82,-0.011741713691756767
13.824,-0.011740054894294924
13.828,-0.011740872272754383
13.832,-0.01174205025935772
13.836,-0.011743685016276638
13.84,-0.011744863002879977
13.844,-0.011739694286151044
13.848,-0.01173880478606281
13.852,-0.01173844417791893
13.856,-0.011739453880721793
13.86,-0.011739934691580297
13.864,-0.011741569448499216
13.868,-0.011741497326870439
13.872,-0.011739886610494446
13.876,-0.011737578718373621
13.88,-0.011736665177742462
13.884,-0.011739117313120839
13.888,-0.011741978137728945
13.892,-0.011743949462248816
13.896,-0.01174702665174325
13.9,-0.011744959165051676
13.904,-0.011743709056819563
13.908,-0.01174291571890303
13.912,-0.011740054894294924
13.916,-0.011740920353840233
13.92,-0.011740703988953905
13.924,-0.011735823758740077
13.928,-0.011739862569951522
13.932,-0.011743108043246431
13.936,-0.011741857935014319
13.94,-0.011742386826958674
13.944,-0.011743492691933236
13.948,-0.011743300367589833
13.952,-0.011744141786592218
13.956,-0.01174286763781718
13.96,-0.011739694286151044
13.964,-0.011739333678007165
13.968,-0.011738131650860902
13.972,-0.011740728029496831
13.976,-0.011743468651390311
13.98,-0.011745271692109706
13.984,-0.01174286763781718
13.988,-0.011742146421529421
13.992,-0.011741954097186019
13.996,-0.011741208840355337
14.0,-0.011741497326870439
14.004,-0.011740703988953905
14.008000000000001,-0.011742290664786973
14.012,-0.011741689651213841
14.016,-0.011742194502615272
14.02,-0.011741978137728945
14.024000000000001,-0.011743348448675684
14.028,-0.011742434908044524
14.032,-0.011744021583877592
14.036,-0.011744045624420517
14.040000000000001,-0.011744983205594603
14.044,-0.011745800584054061
14.048,-0.011744021583877592
14.052,-0.011742266624244048
14.056000000000001,-0.011744189867678069
14.06,-0.011740319340267102
14.064,-0.01174474280016535
14.068,-0.01174601694894039
14.072000000000001,-0.011745536138081884
14.076,-0.01174575250296821
14.08,-0.011743492691933236
14.084,-0.011743660975733714
14.088000000000001,-0.011744670678536575
14.092,-0.011746858367942772
14.096,-0.011747315138258352
14.1,-0.0117469785706574
14.104000000000001,-0.01174474280016535
14.108,-0.01174647371925597
14.112,-0.011749743233093805
14.116,-0.011749767273636729
14.120000000000001,-0.011746089070569165
14.124,-0.011744911083965826
14.128,-0.011745512097538957
14.132,-0.01174428602984977
14.136000000000001,-0.011741016516011935
14.14,-0.011740054894294924
14.144,-0.011739790448322745
14.148,-0.011739550042893492
14.152000000000001,-0.011743108043246431
14.156,-0.011743973502791742
14.16,-0.011745944827311613
14.164,-0.011745848665139912
14.168000000000001,-0.011743685016276638
14.172,-0.011740295299724176
14.176,-0.011747844030202709
14.18,-0.01174967111146503
14.184000000000001,-0.011746858367942772
14.188,-0.011746329475998418
14.192,-0.01174286763781718
14.196,-0.011744670678536575
14.200000000000001,-0.0117447908812512
14.204,-0.011742747435102553
14.208,-0.01174474280016535
14.212,-0.011746185232740866
14.216000000000001,-0.011743853300077114
14.22,-0.01174382925953419
14.224,-0.011745127448852154
14.228,-0.011745271692109706
14.232000000000001,-0.01174337248921861
14.236,-0.011744021583877592
14.24,-0.01174570442188236
14.244,-0.011748300800518289
14.248000000000001,-0.011748517165404615
14.252,-0.011747339178801278
14.256,-0.011746185232740866
14.26,-0.011744310070392694
14.264000000000001,-0.011745824624596987
14.268,-0.011746089070569165
14.272,-0.011747339178801278
14.276,-0.01174743534097298
14.280000000000001,-0.01174647371925597
14.284,-0.011743468651390311
14.288,-0.011751738598156602
14.292,-0.011752676179330688
14.296000000000001,-0.01175255597661606
14.3,-0.011753036787474566
14.304,-0.011751474152184424
14.308,-0.011750560611553263
14.312000000000001,-0.011750055760151833
14.316,-0.011749911516894281
14.32,-0.011753229111817969
14.324,-0.011749647070922103
14.328000000000001,-0.011745536138081884
14.332,-0.011747122813914952
14.336,-0.011746738165228147
14.34,-0.011749334543864075
14.344,-0.01175250789553021
14.348,-0.011750512530467412
14.352,-0.011748805651919719
14.356,-0.011748829692462645
14.36,-0.011749983638523058
14.364,-0.011749791314179655
14.368,-0.011747651705859306
14.372,-0.011749334543864075
14.376,-0.011753806084848174
14.38,-0.0117562101391407
14.384,-0.011753397395618445
14.388,-0.011749430706035777
14.392,-0.011749358584407
14.396,-0.01174890181409142
14.4,-0.011752868503674088
14.404,-0.011753108909103341
14.408,-0.011752628098244837
14.412,-0.011751402030555648
14.416,-0.011749959597980131
14.42,-0.011747507462601755
14.424,-0.011754767706565184
14.428,-0.0117539262875628
14.432,-0.011750031719608908
14.436,-0.011748781611376794
14.44,-0.011748997976263121
14.444,-0.01175200304412878
14.448,-0.011750560611553263
14.452,-0.011749839395265506
14.456,-0.011751353949469797
14.46,-0.01175159435489905
14.464,-0.011750993341325918
14.468,-0.011749887476351356
14.472,-0.011749262422235299
14.476,-0.01174931050332115
14.48,-0.011750945260240068
14.484,-0.011751353949469797
14.488,-0.011751906881957078
14.492,-0.011752676179330688
14.496,-0.01175068081426789
14.5,-0.011749358584407
14.504,-0.011749286462778225
14.508000000000001,-0.011748276759975364
14.512,-0.011753181030732118
14.516,-0.011753685882133548
14.52,-0.011752916584759939
14.524000000000001,-0.011754094571363278
14.528,-0.011751305868383946
14.532,-0.011745488056996033
14.536,-0.011751305868383946
14.540000000000001,-0.011748781611376794
14.544,-0.011744574516364873
14.548,-0.011746329475998418
14.552,-0.011748036354546111
14.556000000000001,-0.011750993341325918
14.56,-0.011749911516894281
14.564,-0.011749911516894281
14.568,-0.011749959597980131
14.572000000000001,-0.011749550908750402
14.576,-0.01174894989517727
14.58,-0.011749743233093805
14.584,-0.01174890181409142
14.588000000000001,-0.01175063273318204
14.592,-0.0117515462738132
14.596,-0.01175205112521463
14.6,-0.011751906881957078
14.604000000000001,-0.0117540224497345
14.608,-0.0117516424359849
14.612,-0.011751474152184424
14.616,-0.011752796382045313
14.620000000000001,-0.01175250789553021
14.624,-0.01175255597661606
14.628,-0.011749214341149448
14.632,-0.011748348881604139
14.636000000000001,-0.01174967111146503
14.64,-0.01175159435489905
14.644,-0.011750200003409384
14.648,-0.011758373788003974
14.652000000000001,-0.01175570528773927
14.656,-0.011753325273989668
14.66,-0.011749983638523058
14.664,-0.011748661408662167
14.668000000000001,-0.01175113758458347
14.672,-0.011750440408838637
14.676,-0.011751402030555648
14.68,-0.011752291530643883
14.684000000000001,-0.011750031719608908
14.688,-0.01175205112521463
14.692,-0.011753325273989668
14.696,-0.011753108909103341
14.700000000000001,-0.011752796382045313
14.704,-0.011751690517070751
14.708,-0.011752075165757556
14.712,-0.011751426071098574
14.716000000000001,-0.011752291530643883
14.72,-0.011751690517070751
14.724,-0.011754094571363278
14.728,-0.011754383057878381
14.732000000000001,-0.011750392327752787
14.736,-0.011750296165581086
14.74,-0.011750752935896665
14.744,-0.011751810719785377
14.748000000000001,-0.011755152355251989
14.752,-0.011756330341855326
14.756,-0.01175423881462083
14.76,-0.0117562101391407
14.764000000000001,-0.011757917017688394
14.768,-0.011759095004291733
14.772,-0.011756402463484103
14.776,-0.011753541638875997
14.780000000000001,-0.011752628098244837
14.784,-0.011757099639228935
14.788,-0.011756234179683626
14.792,-0.011759575815150237
14.796000000000001,-0.01176178754509936
14.8,-0.011756186098597776
14.804,-0.011755392760681242
14.808,-0.01175474366602226
14.812000000000001,-0.011756642868913356
14.816,-0.011757364085201113
14.82,-0.011755801449910971
14.824,-0.011756570747284579
14.828000000000001,-0.011756450544569953
14.832,-0.011756450544569953
14.836,-0.011756306301312401
14.84,-0.011757195801400637
14.844000000000001,-0.011757820855516693
14.848,-0.0117562101391407
14.852,-0.011756835193256758
14.856,-0.011759455612435611
14.86,-0.011756138017511925
14.864,-0.011755032152537363
14.868,-0.01175570528773927
14.872,-0.011758061260945946
14.876,-0.01175976813949364
14.88,-0.011758518031261525
14.884,-0.011755440841767092
14.888,-0.01175712367977186
14.892,-0.01175789297714547
14.896,-0.011758421869089824
14.9,-0.011756955395971384
14.904,-0.011755368720138316
14.908,-0.01175255597661606
14.912,-0.011753156990189192
14.916,-0.011757364085201113
14.92,-0.011758878639405404
14.924,-0.01175616205805485
14.928,-0.011753253152360893
14.932,-0.011753253152360893
14.936,-0.01175301274693164
14.94,-0.011756450544569953
14.944,-0.011755609125567569
14.948,-0.011755729328282194
14.952,-0.011758037220403021
14.956,-0.011758638233976153
14.96,-0.011754166692992053
14.964,-0.011756474585112878
14.968,-0.011759720058407789
14.972,-0.011758085301488872
14.976,-0.011757147720314786
14.98,-0.011759623896236087
14.984,-0.011759647936779014
14.988,-0.01175529659850954
14.992,-0.01175570528773927
14.996,-0.011756763071627981
15.0,-0.011756138017511925
15.004,-0.01175250789553021
15.008000000000001,-0.01175789297714547
15.012,-0.011755320639052465
15.016,-0.011756690949999206
15.02,-0.011760056626008743
15.024000000000001,-0.011760152788180444
15.028,-0.011759503693521462
15.032,-0.011759599855693163
15.036,-0.011756763071627981
15.040000000000001,-0.01175570528773927
15.044,-0.011755969733711447
15.048,-0.011756354382398252
15.052,-0.011759046923205882
15.056000000000001,-0.011759720058407789
15.06,-0.011759647936779014
15.064,-0.011760849963925277
15.068,-0.011758493990718601
15.072000000000001,-0.011755849530996822
15.076,-0.011756089936426075
15.08,-0.011756065895883148
15.084,-0.011756330341855326
15.088000000000001,-0.011755609125567569
15.092,-0.011757917017688394
15.096,-0.011760297031437996
15.1,-0.01175940753134976
15.104000000000001,-0.011758638233976153
15.108,-0.011758998842120031
15.112,-0.011760248950352145
15.116,-0.011760537436867247
15.120000000000001,-0.011758662274519077
15.124,-0.011756690949999206
15.128,-0.011755056193080288
15.132,-0.011757027517600159
15.136000000000001,-0.011754911949822736
15.14,-0.011754719625479334
15.144,-0.011759167125920508
15.148,-0.011756113976968999
15.152000000000001,-0.011754359017335455
15.156,-0.011755537003938794
15.16,-0.011755849530996822
15.164,-0.011758638233976153
15.168000000000001,-0.01175661882837043
15.172,-0.01176036915306677
15.176,-0.011761450977498408
15.18,-0.011759792180036565
15.184000000000001,-0.01175940753134976
15.188,-0.011759287328635135
15.192,-0.011760898045011127
15.196,-0.011758181463660571
15.200000000000001,-0.011756955395971384
15.204,-0.011758277625832272
15.208,-0.011760152788180444
15.212,-0.011759840261122416
15.216000000000001,-0.011759119044834657
15.22,-0.011756979436514308
15.224,-0.011757316004115262
15.228,-0.011758686315062003
15.232000000000001,-0.011759119044834657
15.236,-0.011760922085554052
15.24,-0.011760561477410173
15.244,-0.011760056626008743
15.248000000000001,-0.01175890267994833
15.252,-0.011760080666551667
15.256,-0.011761066328811604
15.26,-0.011761258653155006
15.264000000000001,-0.011764504126449917
15.268,-0.011764095437220188
15.272,-0.011761763504556436
15.276,-0.011759503693521462
15.280000000000001,-0.011760200869266295
15.284,-0.011762027950528614
15.288,-0.01176392715341971
15.292,-0.011759431571892685
15.296000000000001,-0.011754839828193961
15.3,-0.011761811585642287
15.304,-0.011761979869442763
15.308,-0.011761667342384735
15.312000000000001,-0.011761450977498408
15.316,-0.011760056626008743
15.32,-0.011760128747637518
15.324,-0.011758998842120031
15.328000000000001,-0.011760128747637518
15.332,-0.01176173946401351
15.336,-0.011759383490806834
15.34,-0.011756811152713832
15.344000000000001,-0.011757195801400637
15.348,-0.011758734396147852
15.352,-0.011760561477410173
15.356,-0.011760753801753576
15.36,-0.011758782477233703
15.364,-0.011758181463660571
15.368,-0.011759119044834657
15.372,-0.011758566112347376
15.376,-0.011756522666198728
15.38,-0.01175890267994833
15.384,-0.01175834974746105
15.388,-0.01176173946401351
15.392,-0.011761931788356913
15.396,-0.011762725126273446
15.4,-0.011763903112876785
15.404,-0.011761619261298885
15.408,-0.011759022882662956
15.412,-0.01176666777531319
15.416,-0.011764287761563588
15.42,-0.011760441274695548
15.424,-0.011759022882662956
15.428,-0.011757532369001589
15.432,-0.011760849963925277
15.436,-0.01176392715341971
15.44,-0.011763326139846578
15.444,-0.011763566545275831
15.448,-0.011763782910162158
15.452,-0.011761306734240857
15.456,-0.011761018247725753
15.46,-0.01176260492355882
15.464,-0.01176397523450556
15.468,-0.011764095437220188
15.472,-0.011762580883015895
15.476,-0.011763446342561205
15.48,-0.01176570615359618
15.484,-0.011763566545275831
15.488,-0.011760080666551667
15.492,-0.011761450977498408
15.496,-0.011762268355957867
15.5,-0.011761450977498408
15.504,-0.01175976813949364
15.508000000000001,-0.011763302099303654
15.512,-0.011761450977498408
15.516,-0.011758301666375199
15.52,-0.011754719625479334
15.524000000000001,-0.011761162490983305
15.528,-0.011763494423647056
15.532,-0.01176438392373529
15.536,-0.011764095437220188
15.540000000000001,-0.011760849963925277
15.544,-0.011760297031437996
15.548,-0.011763133815503176
15.552,-0.011762460680301269
15.556000000000001,-0.011761763504556436
15.56,-0.011763302099303654
15.564,-0.011761931788356913
15.568,-0.011766691815856115
15.572000000000001,-0.0117675332348585
15.576,-0.0117675332348585
15.58,-0.011766331207712236
15.584,-0.011763157856046102
15.588000000000001,-0.011761715423470586
15.592,-0.01176200390998569
15.596,-0.011763542504732905
15.6,-0.011764528166992841
15.604000000000001,-0.011762340477586642
15.608,-0.011761691382927661
15.612,-0.011767581315944351
15.616,-0.011767629397030202
15.620000000000001,-0.011765417667081076
15.624,-0.01176493685622257
15.628,-0.011762869369530998
15.632,-0.011760297031437996
15.636000000000001,-0.01176748515377265
15.64,-0.011767701518658979
15.644,-0.011765585950881553
15.648,-0.011766018680654208
15.652000000000001,-0.011762749166816373
15.656,-0.01176164330184181
15.66,-0.011760393193609697
15.664,-0.01176205199107154
15.668000000000001,-0.011765898477939582
15.672,-0.011764095437220188
15.676,-0.011761258653155006
15.68,-0.011767100505085845
15.684000000000001,-0.011767677478116053
15.688,-0.011764648369707469
15.692,-0.011765634031967403
15.696,-0.011764744531879168
15.700000000000001,-0.011767220707800473
15.704,-0.011767941924088232
15.708,-0.011765465748166927
15.712,-0.011765177261651823
15.716000000000001,-0.011762941491159773
15.72,-0.011763999275048486
15.724,-0.01176402331559141
15.728,-0.011762893410073924
15.732000000000001,-0.011762845328988074
15.736,-0.011763614626361682
15.74,-0.01176529746436645
15.744,-0.01176164330184181
15.748000000000001,-0.011769312235034971
15.752,-0.011770971032496814
15.756,-0.011769288194492045
15.76,-0.01176830253223211
15.764000000000001,-0.011766691815856115
15.768,-0.011767004342914144
15.772,-0.011766499491512714
15.776,-0.011766547572598563
15.780000000000001,-0.011764816653507945
15.784,-0.011764191599391887
15.788,-0.01176210007215739
15.792,-0.011760753801753576
15.796000000000001,-0.01176128269369793
15.8,-0.011763350180389504
15.804,-0.011764047356134337
15.808,-0.011767268788886323
15.812000000000001,-0.011768134248431632
15.816,-0.011766475450969788
15.82,-0.011766090802282983
15.824,-0.011768518897118437
15.828000000000001,-0.011767028383457069
15.832,-0.011763254018217803
15.836,-0.011766186964454684
15.84,-0.011771163356840217
15.844000000000001,-0.011773086600274237
15.848,-0.011768975667434017
15.852,-0.011767773640287754
15.856,-0.011762076031614464
15.860000000000001,-0.011768374653860885
15.864,-0.011770394059466607
15.868,-0.011768350613317961
15.872,-0.011766908180742443
15.876,-0.011763037653331474
15.88,-0.011761018247725753
15.884,-0.011764456045364066
15.888,-0.011766138883368834
15.892,-0.011765177261651823
15.896,-0.011764768572422094
15.9,-0.011763614626361682
15.904,-0.011765177261651823
15.908,-0.01176774959974483
15.912,-0.011768062126802857
15.916,-0.011765417667081076
15.92,-0.011767004342914144
15.924,-0.011767893843002381
15.928,-0.011771764370413348
15.932,-0.011769576681007149
15.936,-0.011766451410426863
15.94,-0.011767629397030202
15.944,-0.011766379288798087
15.948,-0.01176616292391176
15.952,-0.01176784576191653
15.956,-0.011766908180742443
15.96,-0.011766908180742443
15.964,-0.011767941924088232
15.968,-0.011766331207712236
15.972,-0.011773351046246416
15.976,-0.011775178127508735
15.98,-0.011774120343620024
15.984,-0.01177104315412559
15.988,-0.011769312235034971
15.992,-0.011767268788886323
15.996,-0.011768110207888708
16.0,-0.011767869802459455
16.004,-0.011769023748519868
16.008,-0.011767509194315576
16.012,-0.011765441707624
16.016000000000002,-0.01176967284317885
16.02,-0.011774192465248799
16.024,-0.011771980735299675
16.028,-0.011769192032320344
16.032,-0.011768975667434017
16.036,-0.011771379721726543
16.04,-0.011769913248608103
16.044,-0.011771115275754366
16.048000000000002,-0.011771259519011918
16.052,-0.01177094699195389
16.056,-0.011769913248608103
16.06,-0.011772076897471376
16.064,-0.011774000140905396
16.068,-0.011771620127155796
16.072,-0.011768470816032587
16.076,-0.011766475450969788
16.080000000000002,-0.01176520130219475
16.084,-0.011768518897118437
16.088,-0.011768879505262316
16.092,-0.011769793045893475
16.096,-0.011769937289151027
16.1,-0.011769817086436402
16.104,-0.011764239680477738
16.108,-0.011768278491689184
16.112000000000002,-0.011769841126979326
16.116,-0.011771764370413348
16.12,-0.011772100938014302
16.124,-0.011769624762093
16.128,-0.011769360316120822
16.132,-0.011772245181271852
16.136,-0.01177387993819077
