time,channel1,channel2,channel3,channel4,channel5
0,0.002528584304879,-0.013749483674703,-0.006205873831813,0.006985700963223,-0.002040585324039
0.004,0.002530435426684,-0.013747776796155,-0.006239242105394,0.006981710233098,-0.002014717699852
0.008,0.002536253238072,-0.013746767093353,-0.006231284685685,0.006988946436518,-0.002075564313996
0.012,0.002549187050166,-0.0137484739719,-0.006214167819123,0.006986638544397,-0.002046787784114
0.016,0.002555774158928,-0.013749603877418,-0.006234722483324,0.006981638111469,-0.00199498041411
0.02,0.002567890592562,-0.013750878026193,-0.006240011402767,0.006981830435812,-0.002012770415875
0.024,0.002558106091591,-0.013749435593617,-0.006192290925061,0.006980700530295,-0.00202284340336
0.028,0.002539835278968,-0.013750108728819,-0.006183756532322,0.006979786989663,-0.002009885550724
0.032,0.002531733616002,-0.013751238634337,-0.006191329303344,0.006974065340447,-0.001963246897449
0.036,0.002535195454184,-0.013750733782935,-0.006191040816829,0.006974401908048,-0.001947836909434
0.04,0.002526036007329,-0.013745805471636,-0.006185679775756,0.006971444921268,-0.001964929735454
0.044,0.00252382427738,-0.013750805904564,-0.006181640964545,0.006981229422239,-0.001939398678867
0.048,0.002518655560651,-0.013745709309464,-0.006185247045984,0.007019381763861,-0.00192545516397
0.052,0.002519905668883,-0.013746358404123,-0.006187771302991,0.007038013184628,-0.001928700637265
0.056,0.002526637020902,-0.013746045877065,-0.00618192945106,0.007034214778846,-0.001964617208395
0.06,0.002526492777645,-0.013746310323037,-0.006189382019367,0.007013323547044,-0.001975315249997
0.064,0.002543681765836,-0.013745420822949,-0.006207316264389,0.007000029126807,-0.001937355232718
0.068,0.002556423253587,-0.013739386646675,-0.006216163184185,0.006999596397034,-0.001908218094693
0.072,0.00255012463134,-0.013740300187306,-0.006224529293123,0.006997168302198,-0.001903746553709
0.076,0.002543946211808,-0.013745565066206,-0.00622416868498,0.006992408274699,-0.001888793336009
0.08,0.002541421954801,-0.013744915971547,-0.006222149279374,0.006990124423121,-0.001828691978696
0.084,0.00254683107696,-0.013748209525928,-0.00622671698253,0.006984595098249,-0.001781788879449
0.088,0.002554740415582,-0.01374929135036,-0.006222389684803,0.006985051868564,-0.001770658108074
0.092,0.002556158807615,-0.013750974188365,-0.006227125671759,0.00698921088249,-0.001816815950491
0.096,0.002560606308056,-0.01375200793171,-0.006205080493897,0.006982647814272,-0.001795491988916
0.1,0.00255899559168,-0.013754604310346,-0.006201907142231,0.00695370300059,-0.001768710824098
0.104,0.002549595739396,-0.013757248770068,-0.006205368980412,0.006942572229215,-0.00177662016272
0.108,0.002543705806379,-0.013756888161924,-0.006204888169553,0.006964569325992,-0.001782630298451
0.112,0.002541253671001,-0.013747993161042,-0.00619467093881,0.006977479097543,-0.001776187432947
0.116,0.00253877749508,-0.013746142039237,-0.006189502222081,0.006975315448679,-0.001756329944491
0.12,0.00252637257493,-0.013752488742569,-0.006187314532675,0.006968127326345,-0.001759286931271
0.124,0.002509928843569,-0.013746478606838,-0.006189141613937,0.006975099083793,-0.001782053325421
0.128,0.002523752155751,-0.013749195188188,-0.006191978398003,0.007014164966047,-0.001768398297039
0.132,0.002548009063563,-0.013754628350889,-0.006197243276903,0.007047437077455,-0.001715292737718
0.136,0.002555004861554,-0.01375224833714,-0.006201714817887,0.007032772346271,-0.001730462320303
0.14,0.002551134334143,-0.013756407351066,-0.006215369846269,0.007015126587764,-0.001758685917698
0.144,0.002563947943522,-0.013748762458415,-0.006201714817887,0.007003106316301,-0.001727072603751
0.148,0.002571039903685,-0.01374748830964,-0.006183371883635,0.006997456788714,-0.00167036096299
0.152,0.002566279876186,-0.013748570134072,-0.006210321332255,0.006996495166997,-0.001662692029797
0.156,0.002557216591503,-0.013747127701496,-0.006236044713185,0.006993105450444,-0.001681972545223
0.16,0.002548874523108,-0.013748522052986,-0.006227726685332,0.00699430747759,-0.001692117654338
0.164,0.002550773725999,-0.01374419475526,-0.00624102110557,0.006999139626718,-0.00163485308109
0.168,0.002544883792983,-0.013743449498429,-0.006222606049689,0.006999307910519,-0.001613336795172
0.172,0.00254387409018,-0.013748089323214,-0.006191233141172,0.006986061571367,-0.001643916365772
0.176,0.002562914200177,-0.013749579836875,-0.006185487451413,0.006983344990016,-0.001653652785657
0.18,0.002578732877421,-0.013741862822596,-0.006187795343534,0.006998875180746,-0.001619635417418
0.184,0.00256959747111,-0.013747752755613,-0.006182891072777,0.00700416410019,-0.001637016729953
0.188,0.002550725644913,-0.013752945512884,-0.006181640964545,0.006999380032148,-0.001613505078972
0.192,0.002545917536328,-0.013752681066912,-0.006187122208332,0.007005125721907,-0.001618457430815
0.196,0.002520843250057,-0.013752584904741,-0.006196353776815,0.006998466491516,-0.001579127102589
0.2,0.002515386046813,-0.013748522052986,-0.006195704682156,0.006997865477943,-0.001554052816318
0.204,0.00255505294264,-0.013746887296067,-0.006192146681803,0.00698312862513,-0.001572924642514
0.208,0.002567650187133,-0.013751118431622,-0.006195295992926,0.006979835070749,-0.001595498712321
0.212,0.002564885524696,-0.01375003660719,-0.006198301060792,0.007007553816742,-0.001540325666307
0.216,0.002560678429684,-0.013750733782935,-0.006190319600541,0.007034767711334,-0.001488494255761
0.22,0.002556062645443,-0.013750493377506,-0.00618743473539,0.007028469089087,-0.001491980134485
0.224,0.002552552726176,-0.013750757823478,-0.006199647331196,0.007006399870682,-0.001470680213453
0.228,0.002552144036946,-0.013751695404652,-0.006219144211508,0.007003322681187,-0.001475416200409
0.232,0.002555365469698,-0.013750084688276,-0.006251286417399,0.007005606532765,-0.001427984209218
0.236,0.002558154172677,-0.013752344499311,-0.006283765190891,0.00701140030361,-0.001431109479798
0.24,0.002558322456478,-0.013751046309993,-0.006171207368915,0.007016929628483,-0.001458443577104
0.244,0.002558731145708,-0.013752464702026,-0.006214095697494,0.007017819128571,-0.001452553644087
0.248,0.002561664091944,-0.013754772594147,-0.006228880631393,0.007036787116939,-0.00142036335711
0.252,0.00256779443039,-0.013749123066559,-0.006229770131481,0.007057053294625,-0.001407790153161
0.256,0.002570967782056,-0.013754267742745,-0.006234674402238,0.007086094270479,-0.00143375393952
0.26,0.002558779226793,-0.013757320891697,-0.006241574038057,0.007089604189746,-0.001457169428329
0.264,0.002538633251822,-0.013752921472341,-0.00621077810257,0.007063135551985,-0.001434571317979
0.268,0.002527430358819,-0.013744795768833,-0.006196425898444,0.007037075603454,-0.001396779584501
0.272,0.002546446428273,-0.013743040809199,-0.0062011618854,0.007014237087675,-0.001429739168851
0.276,0.002569501308938,-0.013740756957621,-0.006200152182597,0.007020800155894,-0.001465102807494
0.28,0.00257156879563,-0.013743593741686,-0.006206018075071,0.007035921657394,-0.00140622751787
0.284,0.002562866119091,-0.013745204458062,-0.006213085994691,0.007041210576838,-0.001367786689733
0.288,0.002558659024079,-0.013748041242128,-0.006197916412105,0.00702832484583,-0.001368604068192
0.292,0.002560365902626,-0.013745997795979,-0.006195151749669,0.007022675318242,-0.001367498203218
0.296,0.002553105658663,-0.013748834580044,-0.0062111867918,0.007014549614733,-0.001314104157381
0.3,0.002549643820482,-0.013745324660777,-0.006192290925061,0.007010174235921,-0.001293597574266
0.304,0.00255760124019,-0.01374650264738,-0.006175991436957,0.007011087776552,-0.001302540656234
0.308,0.002567602106047,-0.013746791133896,-0.006164500057439,0.00700728937077,-0.001302781061663
0.312,0.002566183714014,-0.013745324660777,-0.006171399693259,0.007007385532942,-0.00126150344946
0.316,0.002563034402891,-0.013745060214805,-0.006177914680391,0.007002865910872,-0.001253473908123
0.32,0.002560341862084,-0.013745060214805,-0.006180270653598,0.007003274600101,-0.001265398017414
0.324,0.002561616010859,-0.013745204458062,-0.006209816480853,0.007007073005884,-0.001268956017767
0.328,0.002566039470757,-0.013748522052986,-0.006202964926119,0.006995100815507,-0.001250637124058
0.332,0.00256409218678,-0.013748834580044,-0.006189862830225,0.006991855342212,-0.001228014973165
0.336,0.002539763157339,-0.013750637620764,-0.00619409396578,0.006988730071632,-0.001254651894727
0.34,0.002532382710661,-0.013755181283376,-0.006191882235831,0.006989643612263,-0.001274773829155
0.344,0.002538585170736,-0.013747175782582,-0.006184093099923,0.00699553354528,-0.001282154275833
0.348,0.002541950846746,-0.013740540592735,-0.006188901208508,0.006989090679776,-0.001249290853654
0.352,0.002549403415053,-0.013744819809376,-0.00620411887218,0.00699216786927,-0.001240636258201
0.356,0.002540532454713,-0.013742511917255,-0.006220033711596,0.007005342086793,-0.001239097663454
0.36,0.00255308161812,-0.01375183964791,-0.006220827049513,0.007014886182334,-0.0012452280019
0.364,0.002566159673471,-0.013749748120675,-0.006203349574806,0.007009765546691,-0.001203926349154
0.368,0.002578516512535,-0.013751166512708,-0.006181015910429,0.007013323547044,-0.00117808276551
0.372,0.002583757350893,-0.013754243702202,-0.006173154652892,0.007016016087852,-0.001185583414902
0.376,0.00257584801227,-0.013746791133896,-0.006205969993985,0.007005486330051,-0.001193757199497
0.38,0.002566520281615,-0.01374477172829,-0.006192266884518,0.007000558018751,-0.00115490768213
0.384,0.0025660635113,-0.01374789699887,-0.006194935384782,0.006988898355432,-0.00112483296293
0.388,0.002572241930832,-0.013753666729172,-0.00620231583146,0.00697334412416,-0.001136636869506
0.392,0.002568082916905,-0.01375003660719,-0.00619705095256,0.006978897489575,-0.001152768073809
0.396,0.002563755619179,-0.013749988526105,-0.00618817999222,0.006971493002354,-0.001119423840772
0.4,0.002551254536858,-0.013750733782935,-0.006185896140643,0.006970435218466,-0.001088700026913
0.404,0.002537671630105,-0.013748113363756,-0.00619015131674,0.006989956139321,-0.001073145795641
0.408,0.002540219927655,-0.01374888266113,-0.00618685776236,0.006994043031618,-0.001142622964695
0.412,0.002540364170913,-0.013750541458592,-0.006177722356048,0.006979642746406,-0.001135963734305
0.416,0.002535267575812,-0.013747416188012,-0.006178635896679,0.006963751947532,-0.001086584459136
0.42,0.002540219927655,-0.013740276146763,-0.00618390077558,0.006946923567485,-0.001088603864742
0.424,0.002546494509359,-0.013745468904035,-0.006190103235654,0.006977839705687,-0.001129328544457
0.428,0.002550845847628,-0.013749195188188,-0.006192387087232,0.007021040561323,-0.001132333612323
0.432,0.00256803483582,-0.013748738417872,-0.0062060901967,0.007028829697231,-0.001073915093014
0.436,0.002584839175324,-0.013748954782759,-0.00623337621292,0.007016448817625,-0.001062135226981
0.44,0.002580487837055,-0.013746887296067,-0.006232029942516,0.006996374964282,-0.001099061500914
0.444,0.00257255445789,-0.01374633436358,-0.006212605183832,0.006983777719789,-0.001083891918328
0.448,0.002569621511653,-0.013743762025487,-0.006204767966839,0.006981325584411,-0.001015520614249
0.452,0.002573251633634,-0.013745300620234,-0.006216908441016,0.006981854476355,-0.001042518143954
0.456,0.002580127228911,-0.013748570134072,-0.006200248344769,0.00698214296287,-0.001037277305596
0.46,0.002589599202824,-0.013749531755789,-0.006201282088115,0.006981277503325,-0.001030257467062
0.464,0.002579261769366,-0.013743689903858,-0.006178587815593,0.006972190178099,-0.000974795934534
0.468,0.002569116660251,-0.013746310323037,-0.006180727423914,0.006959232325462,-0.000964170014561
0.472,0.002556182848157,-0.013749796201761,-0.006191353343887,0.006960145866094,-0.000989436625175
0.476,0.002550413117855,-0.013748425890814,-0.006185703816299,0.006976228989311,-0.001004822572647
0.48,0.002549836144825,-0.013748834580044,-0.006186184627158,0.006982094881784,-0.000705734178114
0.484,0.002547239766189,-0.013749123066559,-0.006180030248169,0.00697351240796,-0.000732587464562
0.488,0.002542359535975,-0.013753522485915,-0.006178948423737,0.006975916462253,-0.00076215733236
0.492,0.002552865253234,-0.013751118431622,-0.006183275721464,0.006974930799993,-0.000718692030751
0.496,0.002548513914964,-0.0137483056881,-0.006191906276374,0.006940745147953,-0.000676476837374
0.5,0.002557288713132,-0.013748618215158,-0.006198277020249,0.006930071146894,-0.000679385743068
0.504,0.002567674227676,-0.013751046309993,-0.006196425898444,0.006982984381873,-0.000720879720157
0.508,0.002581689864201,-0.013744723647204,-0.006200104101511,0.007022026223583,-0.000670274377299
0.512,0.002584743013153,-0.01374042039002,-0.006214937116496,0.007022218547927,-0.000663807471252
0.516,0.002581257134428,-0.013750541458592,-0.006213446602835,0.007018708628659,-0.000677390378005
0.52,0.002568707971021,-0.013750252972077,-0.006206955656245,0.007018708628659,-0.000705998624086
0.524,0.002567145335731,-0.01374042039002,-0.006207099899503,0.007020583791008,-0.000688449027751
0.528,0.002564452794924,-0.013737367241069,-0.006204311196523,0.007012938898357,-0.000626111899946
0.532,0.002566424119444,-0.01374222343074,-0.006207099899503,0.007010318479179,-0.000615413858344
0.536,0.002568227160163,-0.013741790700967,-0.006239266145937,0.007002120654041,-0.000643060482708
0.54,0.002568539687221,-0.013740107862962,-0.006232582875003,0.007001928329698,-0.000623347237509
0.544,0.002572915066033,-0.013740901200879,-0.006181160153686,0.006997000018398,-0.000573703516368
0.548,0.002560173578283,-0.013738569268215,-0.006174188396238,0.00699060523398,-0.000571371583705
0.552,0.002572410214632,-0.0137381124979,-0.00619803661482,0.006990965842124,-0.000570962894475
0.556,0.002573275674177,-0.013737487443783,-0.006212725386547,0.006995076774964,-0.000617649628836
0.56,0.002564885524696,-0.013737583605955,-0.006205633426384,0.006999716599749,-0.000584954490458
0.564,0.002564116227323,-0.013740925241422,-0.006216355508529,0.006992792923386,-0.00055045631136
0.568,0.002551254536858,-0.01374082907925,-0.006221259779286,0.006980363962694,-0.000590555936959
0.572,0.002549475536681,-0.013740131903505,-0.006188059789506,0.006986638544397,-0.000602383884078
0.576,0.002561904497374,-0.013740973322508,-0.006171952625746,0.006999716599749,-0.000563077596396
0.58,0.002571592836173,-0.01374222343074,-0.006191617789859,0.007005750776023,-0.000541609391563
0.584,0.002582411080489,-0.013742007065853,-0.006186905843445,0.006984739341506,-0.000568606921268
0.588,0.00258546422944,-0.013742608079427,-0.006181232275315,0.006977382935371,-0.000590171288272
0.592,0.00257329971472,-0.013743353336257,-0.006184766235125,0.006986686625483,-0.000543196067396
0.596,0.002576785593444,-0.013739194322331,-0.006180390856313,0.007002216816213,-0.000499466319815
0.6,0.002579261769366,-0.013734266011031,-0.006184549870239,0.007012073438812,-0.000524540606086
0.604,0.002575006593268,-0.01373515551112,-0.006203469777521,0.007018828831374,-0.000543364351197
0.608,0.002567193416817,-0.01373590076795,-0.006214456305638,0.007018059534001,-0.000507543942238
0.612,0.002571448592915,-0.013737343200526,-0.00620904718348,0.007001423478296,-0.000448500368814
0.616,0.002574549822952,-0.013740107862962,-0.006196570141701,0.006988898355432,-0.000433282705142
0.62,0.002573684363407,-0.013735540159807,-0.006181328437487,0.006994980612792,-0.00043145562388
0.624,0.002578540553078,-0.013733448632572,-0.006188204032763,0.007000678221466,-0.000421310514765
0.628,0.002587940405362,-0.013741862822596,-0.006198469344592,0.007001856208069,-0.000407102553896
0.632,0.002593445689692,-0.013740059781876,-0.006215586211155,0.00698469126042,-0.000413449257229
0.636,0.002586642216044,-0.013742271511826,-0.006234602280609,0.006976998286684,-0.000434628975546
0.64,0.002560389943169,-0.013740805038707,-0.006223880198464,0.006995196977679,-0.000425854177378
0.644,0.002539618914082,-0.013736453700438,-0.006230851955913,0.006983849841418,-0.00037467186149
0.648,0.002550966050343,-0.013738352903329,-0.00621669207613,0.006957886055059,-0.000436456056808
0.652,0.00256918878188,-0.013740564633278,-0.006170269787741,0.006960097785008,-0.000458308910327
0.656,0.002567914633105,-0.013737247038354,-0.006175630828813,0.006961444055412,-0.000451457355594
0.66,0.002559091753851,-0.013736670065324,-0.00620272452069,0.007009212614204,-0.000413593500486
0.664,0.002575391241955,-0.013740444430563,-0.00619861358785,0.00704222027964,-0.000397967147585
0.668,0.002568082916905,-0.01374025210622,-0.006190944654657,0.007039215211775,-0.000413184811257
0.672,0.002559716807967,-0.013742439795626,-0.006193012141348,0.00703145011641,-0.000416237960208
0.676,0.002564428754381,-0.013736790268039,-0.006192266884518,0.007024742804934,-0.000383831308345
0.68,0.00256351521375,-0.013739098160159,-0.006180823586085,0.007016569020339,-0.000362627549485
0.684,0.002568635849393,-0.013737535524869,-0.006176039518043,0.00701197727664,-0.000352915170143
0.688,0.002572434255175,-0.01373614117338,-0.006178155085821,0.00700688068154,-0.000351015967252
0.692,0.002579430053166,-0.013741622417167,-0.006185559573042,0.00700572673548,-0.000349813940106
0.696,0.002584117959037,-0.01373416984886,-0.006207412426561,0.007008010587058,-0.000294761096807
0.7,0.002581064810085,-0.013738641389844,-0.006249555498309,0.007001760045897,-0.000300651029823
0.704,0.002582651485918,-0.013742103228025,-0.00623731886196,0.006996062437224,-0.000314979193407
0.708,0.002569068579165,-0.013735564200349,-0.006194815182068,0.006990364828551,-0.000292092596542
0.712,0.00255702426716,-0.013732462970312,-0.006184020978294,0.006983801760332,-0.000267955891445
0.716,0.002583108256234,-0.013737198957268,-0.006199358844681,0.006988489666202,-0.000278750095218
0.72,0.002596114189956,-0.013737247038354,-0.006212821548719,0.006993586261303,-0.000313512720288
0.724,0.002575559525755,-0.013737992295185,-0.00620938375108,0.0069825516521,-0.000310147044279
0.728,0.002574982552725,-0.013737559565412,-0.00619154566823,0.006977431016457,-0.000283918811947
0.732,0.002584214121208,-0.013737030673468,-0.006178227207449,0.006986542382225,-0.00024958891665
0.736,0.00257370840395,-0.013736621984238,-0.006176640531616,0.006995581626365,-0.000294039880519
0.74,0.002567145335731,-0.013736333497723,-0.006164860665583,0.007005606532765,-0.000295842921238
0.744,0.00257527103924,-0.013736213295008,-0.00617173626086,0.007011568587411,-0.000255310565866
0.748,0.002581593702029,-0.013736958551839,-0.006218447035763,0.006996014356138,-0.000250478416738
0.752,0.002593469730235,-0.013737775930299,-0.00628047163651,0.006994475761391,-0.000258075228303
0.756,0.002588156770248,-0.013736429659895,-0.006260469904797,0.007000509937665,-0.000265503756067
0.76,0.002572650620061,-0.013733208227143,-0.006207123940046,0.007005197843535,-0.000213648304977
0.764,0.002585776756498,-0.013733328429857,-0.006169332206567,0.007004116019104,-0.000194319708465
0.768,0.002594695797924,-0.013734362173203,-0.006185487451413,0.007003563086617,-0.000218312170304
0.772,0.002594431351952,-0.013736405619352,-0.006179886004911,0.007001856208069,-0.000231294063484
0.776,0.002587555756675,-0.013738521187129,-0.006163778841151,0.00699373050456,-0.000174678584895
0.78,0.002584598769895,-0.013735371876006,-0.00616483662504,0.00696192486627,-0.000181361855828
0.784,0.002596570960272,-0.013733448632572,-0.006174813450354,0.006922690700216,-0.000218648737905
0.788,0.00259926350108,-0.013737054714011,-0.006180991869886,0.006943774256361,-0.000207614128703
0.792,0.002567433822246,-0.013738328862786,-0.006179068626452,0.006985532679423,-0.000179534774566
0.796,0.002557769523991,-0.013736982592382,-0.00618406905938,0.007018011452915,-0.000157898285933
0.8,0.002545821374157,-0.013736790268039,-0.006188925249051,0.007033301238215,-0.000173043827976
0.804,0.002553610510064,-0.0137384490655,-0.006193589114379,0.007038566117116,-0.000165254692068
0.808,0.002581882188545,-0.013737583605955,-0.006199983898797,0.007025560183393,-0.000132511472604
0.812,0.002589551121738,-0.013735684403064,-0.006205032412811,0.007014982344506,-0.000105393740184
0.816,0.002593710135664,-0.013738400984415,-0.006198998236537,0.007016665182511,-0.000128015891077
0.82,0.002604888988124,-0.013738016335728,-0.006214384184009,0.007021906020869,-0.000133929864637
0.824,0.002610586596797,-0.013737030673468,-0.006234169550836,0.007016929628483,-0.000115635011471
0.828,0.002608206583048,-0.01374239171454,-0.00625046903894,0.007010943533295,-0.00011529844387
0.832,0.00260238877166,-0.013738136538442,-0.006239386348651,0.007007746141086,-8.96712251112332E-05
0.836,0.002599960676824,-0.013732150443254,-0.006209720318681,0.007001159032324,-0.000123832836608
0.84,0.0026064997045,-0.013734434294832,-0.006211018507999,0.006994620004648,0.000342553696142
0.844,0.002605297677354,-0.013737174916725,-0.006196329736272,0.006992865045015,0.000307670868358
0.848,0.002603398474463,-0.013736093092294,-0.006200200263683,0.006996471126454,0.000301107800139
0.852,0.002600898257998,-0.013737511484326,-0.006222341603717,0.00700079842418,0.000364598874005
0.856,0.002598806730764,-0.013739867457533,-0.00621390337315,0.006997913559029,0.00034368360166
0.86,0.002596138230499,-0.013737319159983,-0.006202964926119,0.006993417977502,0.000322912572572
0.864,0.002601547352657,-0.013735179551663,-0.006185198964898,0.007010366560264,0.000337457101042
0.868,0.002616284205471,-0.013741189687394,-0.006207700913076,0.006998851140203,0.000361834211568
0.872,0.002607509407303,-0.013741141606308,-0.006222461806432,0.006960314149894,0.000382268673055
0.876,0.002581737945287,-0.013740684835993,-0.006198637628393,0.006960049703922,0.000373902564117
0.88,0.002575703769013,-0.013744411120146,-0.006194935384782,0.006993586261303,0.000355896197466
0.884,0.002581377337143,-0.013743064849742,-0.006197026912017,0.007024261994075,0.000398568161158
0.888,0.00257272274169,-0.013741333930652,-0.006201065723228,0.007046186969223,0.00044929370673
0.892,0.002582266837231,-0.01373416984886,-0.006203902507294,0.007063808687187,0.000475521939062
0.896,0.002594383270866,-0.013736790268039,-0.006204166953266,0.007088113676085,0.000452515139482
0.9,0.002595441054754,-0.013732847618999,-0.006192891938634,0.007101432136865,0.000455760612777
0.904,0.002602244528402,-0.01373614117338,-0.006185944221728,0.007098523231171,0.000468093411298
0.908,0.002609745177795,-0.013740444430563,-0.006184357545895,0.0070933304739,0.000448476328271
0.912,0.00261570723244,-0.013733112064971,-0.006180655302285,0.007086046189393,0.000436984948753
0.916,0.002612678124032,-0.013723279482915,-0.006174981734154,0.007068568714686,0.000456145261464
0.92,0.002611572259057,-0.013730203159277,-0.006197195195817,0.007050321942606,0.000504490793287
0.924,0.002608350826305,-0.013730780132307,-0.006207532629275,0.007027723832256,0.000492759008339
0.928,0.00260690839373,-0.013728856888873,-0.006213879332608,0.007017362358256,0.000463117018912
0.932,0.002614336921494,-0.013728616483444,-0.006227510320446,0.007020583791008,0.000484200575058
0.936,0.002618808462478,-0.013728880929416,-0.006249771863195,0.007018107615086,0.000524540606086
0.94,0.00261611592167,-0.013731164780994,-0.006236309159157,0.00700572673548,0.000530935390504
0.944,0.002605970812556,-0.013734290051574,-0.006219552900738,0.006999019424004,0.000502759874196
0.948,0.002584069877951,-0.01373162155131,-0.006198517425678,0.006989884017692,0.000489441413415
0.952,0.002574333458066,-0.013729962753848,-0.00618308339712,0.006971060272582,0.000536873404607
0.956,0.002561784294659,-0.013732006199997,-0.006180438937398,0.006979041732833,0.000560216771787
0.96,0.002550244834055,-0.013732655294655,-0.00618685776236,0.007001134991781,0.000550071662673
0.964,0.002576328823129,-0.013737751889756,-0.00618366037015,0.007020896318066,0.000537907147953
0.968,0.002626164868613,-0.013731861956739,-0.006183395924178,0.007024742804934,0.000557235744465
0.972,0.002628328517476,-0.013726068185894,-0.0061858721001,0.006999716599749,0.000567933786066
0.976,0.002621549084371,-0.013730155078191,-0.006192459208861,0.006986614503854,0.000548749432812
0.98,0.002610658718426,-0.013730443564706,-0.006200440669112,0.006992143828727,0.000541609391563
0.984,0.002599551987595,-0.013728760726702,-0.006224673536381,0.006992985247729,0.000588704815154
0.988,0.002596691162987,-0.013726164348066,-0.006241069186656,0.006996663450797,0.000654960551456
0.992,0.002609384569651,-0.013729866591676,-0.006230202861254,0.007001591762097,0.00059697476192
0.996,0.002613904191721,-0.013726885564353,-0.006244699308638,0.007006760478826,0.00057322270551
1,0.002609985583224,-0.013728616483444,-0.006210970426914,0.007019021155718,0.000606759262891
1.004,0.002607389204588,-0.013732511051398,-0.00617149585543,0.007010486762979,0.000636689738833
1.008,0.002598734609135,-0.013723015036942,-0.006164812584497,0.007001014789066,0.000630895967988
1.012,0.002598374000991,-0.013727366375212,-0.00617659245053,0.00700137539721,0.000620895102131
1.016,0.002609576893994,-0.013730948416108,-0.006179357112967,0.006998033761744,0.000617120736892
1.02,0.002615851475698,-0.013728808807787,-0.006188131911135,0.006999836802463,0.00065236417282
1.024,0.002597893190133,-0.013729001132131,-0.006195127709126,0.006996326883196,0.000658157943665
1.028,0.002563827740808,-0.013732414889226,-0.006185775937928,0.006989379166291,0.000625703210716
1.032,0.002588733743278,-0.013731357105338,-0.006188396357107,0.006975002921621,0.000662821808992
1.036,0.002607629610018,-0.013733424592029,-0.006189790708596,0.006959208284919,0.000671284080102
1.04,0.002592195581459,-0.013729217497017,-0.00618801170842,0.006964545285449,0.000681717675732
1.044,0.002605610204412,-0.013728640523987,-0.006192603452119,0.006980508205951,0.00064883021301
1.048,0.002602460893289,-0.013731429226966,-0.006205465142584,0.007002986113586,0.000644214428768
1.052,0.002599455825423,-0.013741141606308,-0.006214552467809,0.007010318479179,0.000687102757347
1.056,0.002608735474992,-0.013733977524516,-0.006239530591909,0.007006159465253,0.000713090584249
1.06,0.002614120556607,-0.013736934511296,-0.006258450499191,0.006992528477414,0.000695036136512
1.064,0.002611716502315,-0.013739218362874,-0.006219576941281,0.006997216383284,0.000673736215481
1.068,0.002605009190839,-0.013736381578809,-0.006211379116143,0.007001760045897,0.000691910865932
1.072,0.002595729541269,-0.013733929443431,-0.006191257181715,0.006983921963047,0.000725255098969
1.076,0.002600153001168,-0.01373614117338,-0.00619959925011,0.00697663767854,0.000746290574029
1.08,0.002604744744866,-0.013739506849389,-0.006219144211508,0.006986326017339,0.000712513611219
1.084,0.002608543150649,-0.013732174483797,-0.006191377384429,0.006999548315948,0.000745617438827
1.088,0.002609937502138,-0.013735419957092,-0.006190367681627,0.006993466058588,0.000778384698834
1.092,0.002593974581636,-0.013736093092294,-0.006182410261918,0.006978945570661,0.000763623805478
1.096,0.002582531283204,-0.013736982592382,-0.00617659245053,0.006966684893769,0.000733092315963
1.1,0.002592844676118,-0.013737343200526,-0.006194815182068,0.006966540650512,0.000756579926401
1.104,0.002592556189603,-0.013736333497723,-0.006182770870062,0.006969665921092,0.000797617133174
1.108,0.002601643514829,-0.01373433813266,-0.006180991869886,0.006971420880725,0.000764032494708
1.112,0.002608951839878,-0.013732462970312,-0.006176255882929,0.006981109219524,0.000747708966062
1.116,0.002616428448728,-0.013733809240716,-0.006159547705596,0.006987816531001,0.000749367763523
1.12,0.002627270733587,-0.013735564200349,-0.006151662407517,0.00699077351778,0.000806440012428
1.124,0.002620491300483,-0.01373688643021,-0.006150676745257,0.006989739774435,0.000811079837213
1.128,0.002609192245308,-0.013730900335022,-0.006159042854195,0.006977815665144,0.00074720411466
1.132,0.002591233959742,-0.013731092659365,-0.006165461679156,0.006968704299375,0.000759873480782
1.136,0.002596570960272,-0.013733424592029,-0.00617404415298,0.006968223488516,0.000780452185526
1.14,0.002605994853099,-0.013729289618646,-0.00618505472164,0.00697490675945,0.000786774848315
1.144,0.002610057704853,-0.013730082956562,-0.006192603452119,0.007004885316477,0.000790645375726
1.148,0.002609985583224,-0.013737271078897,-0.006207484548189,0.007005077640821,0.000797737335889
1.152,0.002610899123855,-0.013725803739922,-0.006208157683391,0.006983849841418,0.000842092137586
1.156,0.002620034530167,-0.013722534226084,-0.006231356807314,0.006974209583705,0.000862286193643
1.16,0.002619289273336,-0.013729746388962,-0.006258234134305,0.00695346259516,0.000835000177423
1.164,0.00260551404224,-0.013729049213217,-0.006218615319564,0.006950385405666,0.000828220744318
1.168,0.002588493337849,-0.013728616483444,-0.006171832423031,0.006969233191319,0.00088115801984
1.172,0.002589022229793,-0.013727775064442,-0.006169139882224,0.006992504436871,0.000886927750142
1.176,0.002609192245308,-0.013728472240186,-0.006171543936516,0.00700926069529,0.000896760332198
1.18,0.002615923597327,-0.013728520321272,-0.006170774639143,0.007022699358785,0.000892000304699
1.184,0.002611836705029,-0.013731236902623,-0.006165605922414,0.007037604495399,0.000913252144645
1.188,0.002611740542858,-0.01373005891602,-0.006148873704538,0.00703416669776,0.00091140102284
1.192,0.002592027297659,-0.013727606780641,-0.006145532069071,0.007017915290743,0.000890557872123
1.196,0.002595104487153,-0.013728159713128,-0.006150676745257,0.007009765546691,0.00087072442421
1.2,0.002600441487683,-0.01373080417285,-0.006157648502705,0.007007601897828,0.00089019726398
1.204,0.002601715636458,-0.013733689038001,-0.00616721663879,0.007003274600101,0.000912194360756
1.208,0.002615562989183,-0.013730972456651,-0.006173010409635,0.006995605666908,0.000915728320566
1.212,0.002616885219044,-0.013727582740098,-0.006175799112614,0.006997216383284,0.000942557566471
1.216,0.002612557921317,-0.013726092226437,-0.006177866599305,0.007002000451326,0.000899693278435
1.22,0.002616212083842,-0.013735780565236,-0.006182290059204,0.007004524708334,0.000905342806023
1.224,0.002616452489271,-0.013735347835463,-0.006189309897738,0.007000533978208,0.000942028674526
1.228,0.002613735907921,-0.013732535091941,-0.006202844723405,0.006994571923563,0.000923709780817
1.232,0.002608543150649,-0.013724769996576,-0.006192074560174,0.006990917761038,0.000914790739392
1.236,0.002606187177442,-0.013728568402358,-0.006180006207626,0.006980676489752,0.00095931382489
1.24,0.002601956041887,-0.013732006199997,-0.00622063472517,0.006976228989311,0.000978329894344
1.244,0.002600898257998,-0.013732318727055,-0.006221355941457,0.0069827199359,0.000943807674703
1.248,0.002623712733235,-0.013727318294126,-0.006205633426384,0.006988249260773,0.000942148877241
1.252,0.002631790355657,-0.013723952618117,-0.006178996504823,0.006992023626012,0.000990686733407
1.256,0.002628136193133,-0.013725491212864,-0.006169740895797,0.006985773084852,0.001040642981606
1.26,0.002610634677883,-0.01372529888852,-0.00617305849072,0.006959280406548,0.000991768557839
1.264,0.002575631647384,-0.013728616483444,-0.006177505991162,0.00696307881233,0.000995975652851
1.268,0.002587699999932,-0.013730539726878,-0.006166831990103,0.006983633476532,0.001027324520825
1.272,0.00261455328638,-0.013726933645439,-0.006171303531087,0.006994980612792,0.001043071076441
1.276,0.002623135760204,-0.013732559132484,-0.006175823153157,0.007002216816213,0.001025184912505
1.28,0.002622582827717,-0.013735972889579,-0.006185415329784,0.007012121519898,0.001012635749098
1.284,0.002626453355128,-0.013727558699555,-0.006171592017602,0.007020415507207,0.001041532481694
1.288,0.002620851908626,-0.013724385347889,-0.006160509327313,0.007012073438812,0.001068313646513
1.292,0.002610081745396,-0.013726404753495,-0.006159139016367,0.007004452586705,0.001051076577235
1.296,0.002603927366407,-0.013729121334845,-0.006162889341063,0.007003466924445,0.00103056999412
1.3,0.002602773420347,-0.013730082956562,-0.006163658638437,0.006993273734245,0.00104905717163
1.304,0.00261003366431,-0.013731645591853,-0.006170462112084,0.006992889085558,0.001056581861565
1.308,0.002614577326923,-0.01373219852434,-0.006200344506941,0.007003563086617,0.001028718872315
1.312,0.002617077543387,-0.013729049213217,-0.006194815182068,0.007009453019633,0.001036003156821
1.316,0.002605538082783,-0.013733448632572,-0.006191305262801,0.007000870545809,0.001070693660262
1.32,0.002598758649678,-0.013731934078368,-0.006183996937751,0.006992312112528,0.001113750272642
1.324,0.002611067407656,-0.013729554064618,-0.006173947990809,0.00699101392321,0.001104013852757
1.328,0.002618880584107,-0.013727029807611,-0.006167264719875,0.006990052301493,0.001075573890476
1.332,0.002610706799512,-0.01372628455078,-0.00614281548772,0.006977455057,0.001069756079088
1.336,0.002614024394436,-0.013727895267156,-0.006149354515396,0.006987215517427,0.001114351286215
1.34,0.0026014031094,-0.013726981726525,-0.006157600421619,0.006996831734598,0.001122789516782
1.344,0.002584502607723,-0.013725346969606,-0.00615776870542,0.006999283869976,0.0011093027722
1.348,0.002599071176736,-0.013727654861727,-0.006192507289947,0.006991206247553,0.001110600961518
1.352,0.002618592097591,-0.013734097727231,-0.006179789842739,0.006959809298493,0.001130530571603
1.356,0.002609817299424,-0.013735179551663,-0.006154066461809,0.006941418283155,0.0011395457752
1.36,0.002596522879186,-0.013727125969783,-0.006137406365562,0.006943870418533,0.001128342882197
1.364,0.002609384569651,-0.013721404320566,-0.006142743366092,0.006973608570132,0.001128030355139
1.368,0.002621765449258,-0.013722389982826,-0.006151349880459,0.007014237087675,0.001173995873212
1.372,0.002626164868613,-0.013725322929063,-0.006156999408046,0.007026617967282,0.001183900576898
1.376,0.002616813097415,-0.013724457469518,-0.006162120043689,0.007028925859403,0.001157071330993
1.38,0.002622053935773,-0.013727726983356,-0.006167024314446,0.007022122385755,0.0011344491801
1.384,0.002612221353716,-0.013726933645439,-0.006173779707008,0.007011929195555,0.001153056560324
1.388,0.002607749812732,-0.013726164348066,-0.006179717721111,0.007002649545985,0.001171567778377
1.392,0.002615442786468,-0.013727486577927,-0.006183516126893,0.007000461856579,0.00117077444046
1.396,0.002632920261175,-0.013729409821361,-0.006211859927002,0.006996903856226,0.001139473653572
1.4,0.002661191939655,-0.013730563767421,-0.006194767100982,0.006992672720671,0.001170341710688
1.404,0.002642320113459,-0.01372924153756,-0.006155965664701,0.006991783220583,0.00122674082439
1.408,0.002605369798983,-0.01372553929395,-0.006163899043866,0.00699118220701,0.001228615986739
1.412,0.00259688348733,-0.013724914239834,-0.006141733663289,0.006985292273993,0.001199358645998
1.416,0.002596955608959,-0.013725972023722,-0.00612752570242,0.006980339922151,0.001228471743481
1.42,0.002616308246014,-0.013730876294479,-0.006144137717581,0.006973031597101,0.001279918505341
1.424,0.002630371963625,-0.013731477308052,-0.006155989705243,0.006979474462605,0.001280663762172
1.428,0.002635877247955,-0.013727414456298,-0.006139906582026,0.006978825367946,0.001260133138514
1.432,0.002630997017741,-0.013726380712952,-0.006141565379488,0.006973199880902,0.00125681554359
1.436,0.002632463490859,-0.013720827347536,-0.006150893110143,0.006980460124865,0.001312685765348
1.44,0.002626212949699,-0.013716788536325,-0.006151782610232,0.007087777108484,0.001263931544296
1.444,0.002617943002932,-0.013715658630807,-0.006150917150686,0.007098787677144,0.001227654365022
1.448,0.002613519543034,-0.013715586509179,-0.006149378555939,0.007087079932739,0.001257656962592
1.452,0.002607581528932,-0.013715418225378,-0.006167408963133,0.007059986240862,0.001302997426549
1.456,0.00261003366431,-0.013712821846742,-0.006195632560527,0.007035849535765,0.001312565562634
1.46,0.002624289706265,-0.01371371134683,-0.006207123940046,0.007021353088381,0.001265999030987
1.464,0.002630612369054,-0.013711331333081,-0.006196546101158,0.007011688790125,0.001238833217482
1.468,0.002619625840937,-0.013714432563118,-0.0061556290971,0.007008323114116,0.001284221762525
1.472,0.002607100718073,-0.013713350738687,-0.006136613027646,0.007001519640468,0.001325138766583
1.476,0.002620539381568,-0.01370861475173,-0.006148897745081,0.006978584962517,0.001301338629087
1.48,0.00264068535654,-0.013711788103396,-0.006153152921178,0.00694072110741,0.001309776859654
1.484,0.002648426411362,-0.013712509319684,-0.006152696150863,0.006952452892357,0.001340428551884
1.488,0.002651094911626,-0.013713470941401,-0.006142118311976,0.006981445787125,0.001326076347758
1.492,0.002634146328864,-0.013711812143939,-0.006137214041219,0.00701986257472,0.001329898794083
1.496,0.002640060302424,-0.013712292954798,-0.006130963500058,0.007018732669202,0.001341125727629
1.5,0.002631982680001,-0.013715033576691,-0.006140579717228,0.007002240856756,0.001367498203218
1.504,0.002622943435861,-0.013717101063383,-0.006158682246051,0.006995341220936,0.001390288637911
1.508,0.002614336921494,-0.013716812576868,-0.006158009110849,0.007004043897475,0.001364709500238
1.512,0.002604792825952,-0.013717942482385,-0.006161278624687,0.007008755843888,0.001339370767995
1.516,0.00261217327263,-0.013712028508826,-0.006171399693259,0.007008250992487,0.001356391472386
1.52,0.002624097381921,-0.013706378981238,-0.006163826922237,0.006992215950356,0.001393461989577
1.524,0.00264027666731,-0.013710850522222,-0.006158802448766,0.006977983948944,0.001401443449828
1.528,0.002632776017917,-0.013710129305935,-0.006161206503058,0.00698098901681,0.001372763082118
1.532,0.002607293042417,-0.013707581008384,-0.006184573910782,0.006984138327933,0.001353915296465
1.536,0.00261101932657,-0.013707172319155,-0.006158850529852,0.006980556287037,0.001383533245349
1.54,0.002614072475521,-0.0137082060625,-0.006143440541836,0.00698805693643,0.001380191609882
1.544,0.002636382099356,-0.013704215332375,-0.006133535838151,0.006993778585646,0.001355838539899
1.548,0.002667081872672,-0.013705128873006,-0.006153225042807,0.00699101392321,0.001363435351463
1.552,0.002667009751043,-0.013706403021781,-0.006182626626805,0.006990340788008,0.001400457787568
1.556,0.00263534835601,-0.013702484413284,-0.006172938288006,0.006986157733539,0.001412622302288
1.56,0.002615875516241,-0.013701162183423,-0.00611610644453,0.006972094015927,0.001397981611647
1.564,0.002622727070975,-0.013703325832287,-0.006091633171833,0.006976854043427,0.001404232152808
1.568,0.002643690424405,-0.013703542197173,-0.00609942230774,0.006988080976973,0.001472363051458
1.572,0.002651431479227,-0.013706859792097,-0.006115457349871,0.006990749477237,0.001511236609368
1.576,0.002627318814673,-0.013708398386844,-0.006132237648833,0.006988922395975,0.001428344817362
1.58,0.002631381666428,-0.01370606645418,-0.006140026784741,0.006984042165761,0.001441903683571
1.584,0.002639218883421,-0.013705777967665,-0.006144522366268,0.006978873449032,0.00148322937686
1.588,0.002627967909332,-0.013701114102338,-0.006150989272315,0.00696997844815,0.001502630095001
1.592,0.00262770346336,-0.013703446035001,-0.006155244448413,0.006972214218642,0.001478757835876
1.596,0.002629193977021,-0.013702796940342,-0.00615423474561,0.00698173427364,0.00144591845424
1.6,0.002629530544622,-0.013697868629043,-0.006154955961898,0.006996807694055,0.001479190565649
1.604,0.002627775584989,-0.01370392684586,-0.006193637195464,0.006997961640115,0.001493951459005
1.608,0.002627511139017,-0.013706691508296,-0.006228231536734,0.006974642313477,0.0014720505244
1.612,0.002624289706265,-0.013702508453827,-0.006206018075071,0.006955530081852,0.001456231847155
1.616,0.002624722436037,-0.013703157548486,-0.006179284991338,0.006943125161702,0.001493446607603
1.62,0.00263731968053,-0.013706330900152,-0.006134521500411,0.006950649851638,0.001484816052693
1.624,0.002631189342084,-0.013706619386667,-0.006100287767286,0.006967622474943,0.001487412431329
1.628,0.002618111286733,-0.013705176954092,-0.006104879510984,0.006996519207539,0.00147106486214
1.632,0.002626116787527,-0.013705008670291,-0.006120529904429,0.007003466924445,0.001478685714247
1.636,0.002644339519064,-0.013705321197349,-0.006152984637378,0.006994740207363,0.001520780704909
1.64,0.002680376292909,-0.013706282819066,-0.006178443572336,0.006984979746935,0.00153426744949
1.644,0.002671769778542,-0.01370253249437,-0.006170942922943,0.006975555854109,0.001533209665602
1.648,0.002641911424229,-0.013704624021605,-0.006162168124775,0.006964689528706,0.00156121689811
1.652,0.002606259299071,-0.013703662399888,-0.006123438810123,0.006966180042368,0.001582612981313
1.656,0.002613543583577,-0.013705369278435,-0.006101994645833,0.006953486635703,0.001543234572001
1.66,0.002621068273513,-0.013705970292008,-0.006105167997499,0.006936802498913,0.001507173757614
1.664,0.002625852341555,-0.013705369278435,-0.006112716727978,0.006958583230803,0.001487821120559
1.668,0.002627270733587,-0.013704383616175,-0.006120145255742,0.006977479097543,0.001503952324862
1.672,0.002622919395318,-0.013705753927122,-0.006129376824225,0.006973055637644,0.001527512056928
1.676,0.002620851908626,-0.013705585643322,-0.006122453147863,0.006962862447444,0.001507630527929
1.68,0.002632343288145,-0.013702772899799,-0.006124376391297,0.006961131528353,0.001516501488269
1.684,0.002642704762145,-0.013702917143057,-0.006140772041572,0.006962598001472,0.001554918275863
1.688,0.002646431046299,-0.013710778400593,-0.006139618095511,0.006980436084322,0.001593575468887
1.692,0.002633184707147,-0.013707773332728,-0.006173178693435,0.007010486762979,0.001605138970034
1.696,0.00261513025941,-0.013705393318978,-0.006210994467456,0.007023156129101,0.001580184886478
1.7,0.002613062772719,-0.013709504251818,-0.006174597085468,0.007012698492928,0.001606845848582
1.704,0.002612485799688,-0.013700585210393,-0.006145964798844,0.006981686192555,0.001665865381463
1.708,0.002638425545505,-0.013704624021605,-0.006126660242875,0.006968944704804,0.001657306948182
1.712,0.002670135021623,-0.01370664342721,-0.006107403767992,0.006977599300257,0.001597590239555
1.716,0.002664221048064,-0.013707749292185,-0.006092979442236,0.006982359327756,0.001632352864625
1.72,0.002657297371701,-0.013706210697438,-0.006115721795844,0.00698452297662,0.001651200650279
1.724,0.002658499398847,-0.013701474710481,-0.006119520201626,0.006988297341859,0.00164406060903
1.728,0.002629049733764,-0.013705681805493,-0.00611807776905,0.006982840138615,0.001639492905874
1.732,0.00262005857071,-0.013708807076074,-0.006123534972294,0.006981229422239,0.001669591665617
1.736,0.002630155598738,-0.013713687306287,-0.006129833594541,0.006970940069867,0.001693584127456
1.74,0.002634723301894,-0.013712653562942,-0.006140146987456,0.006963126893416,0.001678486666499
1.744,0.00263082873394,-0.013705537562236,-0.006147142785447,0.006964689528706,0.001636656121809
1.748,0.002620996151884,-0.013707701211099,-0.006146421569159,0.006971444921268,0.001655167339861
1.752,0.002621404841114,-0.013704768264862,-0.006142575082291,0.006987888652629,0.001697118087266
1.756,0.002634675220808,-0.013705585643322,-0.006134329176068,0.00698666258494,0.001671635111765
1.76,0.002638113018447,-0.013708807076074,-0.006141925987632,0.00697820031383,0.001649854379875
1.764,0.002640132424052,-0.013710393751907,-0.00618760301919,0.006972863313301,0.001649397609559
1.768,0.002638786153649,-0.013704599981062,-0.006191209100629,0.006961780623012,0.001685506505033
1.772,0.002636189775013,-0.013706427062324,-0.00616031700297,0.006982070841241,0.001698272033326
1.776,0.002627919828246,-0.013705152913549,-0.00615365777258,0.007008082708687,0.001657282907639
1.78,0.002628665085077,-0.013708061819243,-0.00614954683974,0.007017987412372,0.001652907528827
1.784,0.002639242923964,-0.013708542630101,-0.00614322417695,0.006999884883549,0.001705003385346
1.788,0.002657417574416,-0.013708157981415,-0.006116803620275,0.006989331085205,0.001734909820745
1.792,0.002665567318467,-0.013707773332728,-0.006142599122834,0.006993369896416,0.001716278399978
1.796,0.00266304306146,-0.013706811711011,-0.006145820555586,0.00699471616682,0.001723129954711
1.8,0.002633328950405,-0.013708783035531,-0.006114014917296,0.006984571057706,0.001707022790951
1.804,0.002625828301012,-0.013709744657248,-0.006100119483485,0.00697860900306,0.001737722564267
1.808,0.002643834667663,-0.013709384049104,-0.00610771629505,0.006962429717671,0.001724740671087
1.812,0.002642680721603,-0.01370589817038,-0.006108725997852,0.00695822262266,0.001707046831494
1.816,0.002634242491036,-0.013706042413637,-0.006113510065895,0.006959352528177,0.001722456819509
1.82,0.002643930829835,-0.013714192157689,-0.006119327877282,0.006962766285272,0.001742530672852
1.824,0.002630396004168,-0.013711860225025,-0.006124472553468,0.006979282138262,0.001747651308495
1.828,0.002633473193662,-0.013704696143233,-0.006124256188582,0.006999668518663,0.001734092442285
1.832,0.002648306208647,-0.013700729453651,-0.006130915418972,0.006998779018574,0.001770970635132
1.836,0.002642921127032,-0.013702412291656,-0.006152624029234,0.007000413775493,0.00180118959759
1.84,0.00264381062712,-0.013704407656718,-0.006157864867592,0.007003010154129,0.001808137314495
1.844,0.002648113884304,-0.013704311494547,-0.006170654436428,0.006994692126277,0.001765224945373
1.848,0.00264734458693,-0.013703277751201,-0.006177169423561,0.00698312862513,0.001737434077752
1.852,0.002646166600327,-0.01370508079192,-0.00617207282846,0.006977647381343,0.001782774541709
1.856,0.002647873478874,-0.013700993899623,-0.006132117446119,0.006977190611028,0.001798617259497
1.86,0.002653498965919,-0.013708566670644,-0.0061104328764,0.006977503138086,0.001776187432947
1.864,0.002656215547269,-0.013711667900682,-0.00612242910732,0.006968968745347,0.001754911552458
1.868,0.002639074640164,-0.013711619819596,-0.006116130485073,0.006952500973443,0.001816094734203
1.872,0.002628448720191,-0.013710369711364,-0.006117212309505,0.006944134864505,0.001843621155853
1.876,0.002618832503021,-0.013711451535795,-0.00609769138865,0.006948293878431,0.001829341073355
1.88,0.002623905057578,-0.013712341035884,-0.006099806956427,0.006948822770376,0.001837370614692
1.884,0.00263419440995,-0.013715826914608,-0.006113894714581,0.006985797125395,0.00187499406437
1.888,0.00264792155996,-0.013712509319684,-0.006129953797255,0.007020487628836,0.001859079224954
1.892,0.002642127789115,-0.013708686873359,-0.006138872838681,0.007014741939077,0.001806310233233
1.896,0.002660398601738,-0.013707773332728,-0.006119207674568,0.007012770614557,0.001836769601119
1.9,0.002679366590106,-0.013704359575632,-0.00611651513376,0.007015270831021,0.001877590443006
1.904,0.002658018587989,-0.013707220400241,-0.006119375958368,0.007020511669379,0.001892615782334
1.908,0.00264381062712,-0.013706835751554,-0.006117645039278,0.007018083574543,0.001858646495181
1.912,0.00264381062712,-0.013705826048751,-0.006141541338945,0.007010943533295,0.001820518194101
1.916,0.002635829166869,-0.013708975359874,-0.006161639232831,0.007006592195025,0.001846770466976
1.92,0.002644483762322,-0.013710441832993,-0.006160605489485,0.006999981045721,0.001872782334421
1.924,0.002658210912332,-0.013704936548663,-0.006147888042278,0.006993970909989,0.001852996967593
1.928,0.002658884047534,-0.013699839953563,-0.006142142352519,0.006989379166291,0.001840568006901
1.932,0.002652489263116,-0.013702219967312,-0.006150628664171,0.006988850274346,0.001871508185646
1.936,0.002648859141134,-0.013704047048574,-0.006147311069247,0.006987407841771,0.001865041279599
1.94,0.002649339951993,-0.01370647514341,-0.006126299634731,0.006985797125395,0.001878672267438
1.944,0.002648282168104,-0.013708133940872,-0.006120986674744,0.006977479097543,0.001888240403522
1.948,0.002644940532638,-0.013708903238245,-0.006117645039278,0.006975796259538,0.001906318891802
1.952,0.002649267830364,-0.013706979994811,-0.006126612161789,0.006970940069867,0.001925359001799
1.956,0.002661985277572,-0.01370589817038,-0.006120337580085,0.006967141664085,0.001923868488137
1.96,0.002649195708735,-0.013705441400064,-0.006111562781918,0.00696545882608,0.001884850686969
1.964,0.002642151829658,-0.013704167251289,-0.006103629402752,0.006962357596043,0.001880018537841
1.968,0.002656744439214,-0.013705970292008,-0.006106105578674,0.006976589597454,0.001919445028239
1.972,0.002651864209,-0.013702508453827,-0.006111634903546,0.007012049398269,0.001940288178955
1.976,0.002645565586754,-0.013699022575103,-0.006118005647422,0.007041426941724,0.001945913666
1.98,0.002644555883951,-0.013702075724055,-0.0061206260666,0.00705914482186,0.001913098324907
1.984,0.002642151829658,-0.013700128440078,-0.006119832728684,0.00707542026942,0.001949904396125
1.988,0.002638040896818,-0.013704359575632,-0.006128607526852,0.007047388996369,0.001969882087296
1.992,0.002640637275454,-0.013707124238069,-0.006143584785094,0.007014814060706,0.001948846612237
1.996,0.002644724167751,-0.013705249075721,-0.006162841259977,0.007014862141791,0.001949904396125
2,0.002654893317409,-0.013703397953915,-0.006198252979706,0.007025824629365,0.001986205615942
2.004,0.002652729668545,-0.013705249075721,-0.006187699181362,0.007024237953532,0.002025343619825
2.008,0.002657706060931,-0.013704407656718,-0.006131396229831,0.007015992047309,0.001999980847039
2.012,0.002645709830011,-0.013704407656718,-0.006125193769756,0.007015415074279,0.00196810308712
2.016,0.002647969641046,-0.013705369278435,-0.00612892005391,0.007009356857462,0.001998850941521
2.02,0.002647609032902,-0.013706138575809,-0.006098051996794,0.007003226519016,0.002039455418522
2.024,0.002621717368172,-0.013705441400064,-0.006082906454751,0.006987167436342,0.00201856418672
2.028,0.002632391369231,-0.013704936548663,-0.006081031292403,0.006974041299904,0.001981397507357
2.032,0.002643450018976,-0.01370491250812,-0.006080117751771,0.006971060272582,0.001992480197646
2.036,0.002628977612135,-0.013706859792097,-0.006087233752477,0.006966300245082,0.002045153027195
2.04,0.002635276234382,-0.013698517723702,-0.006094205509926,0.006976926165055,0.002041354621413
2.044,0.00263888231582,-0.01370195552134,-0.006099927159142,0.006989523409548,0.002006135226027
2.048,0.002661672750513,-0.013706595346125,-0.006107740335592,0.006993778585646,0.002016568821657
2.052,0.002671240886598,-0.013708975359874,-0.006116851701361,0.00699882709966,0.002039503499608
2.056,0.002655662614782,-0.013709456170733,-0.006121900215375,0.006992215950356,0.002052773879302
2.06,0.00265580685804,-0.01370746080567,-0.006123030120893,0.006990124423121,0.002052220946815
2.064,0.002659797588165,-0.013711547697967,-0.00612867964848,0.006991663017869,0.00209318603196
2.068,0.002658066669075,-0.013707364643498,-0.006149330474853,0.0069876482472,0.002135737792938
2.072,0.002662994980374,-0.013709480211276,-0.006160365084056,0.006986806828198,0.002090998342554
2.076,0.002664172966978,-0.013707677170556,-0.006160701651657,0.006984667219877,0.002076477854627
2.08,0.002658138790703,-0.013702436332198,-0.006157528299991,0.006974113421533,0.002072799651559
2.084,0.002658715763734,-0.013700921777994,-0.006138969000852,0.006969641880549,0.002105110141251
2.088,0.002658210912332,-0.013702917143057,-0.006117861404164,0.006958847676776,0.002130400792408
2.092,0.00263830534279,-0.013704311494547,-0.006098532807652,0.006953486635703,0.002108115209116
2.096,0.002614457124208,-0.013703446035001,-0.006091248523146,0.006963824069161,0.002099412532577
2.1,0.002648426411362,-0.013707340602955,-0.006123655175009,0.006967093582999,0.002119991237321
2.104,0.00267364494089,-0.013706403021781,-0.006137214041219,0.006971108353667,0.002126289859568
2.108,0.002670880278454,-0.013707364643498,-0.006111731065718,0.00698411428739,0.002102056992299
2.112,0.00265597514184,-0.013709504251818,-0.006107548011249,0.006992047666555,0.002086262355597
2.116,0.002651022789998,-0.01370409512966,-0.006101922524205,0.006972815232215,0.002079579084664
2.12,0.002675736468125,-0.013704479778347,-0.006092618834092,0.00698017163835,0.002115687980138
2.124,0.002675712427582,-0.013707172319155,-0.006096321077703,0.007001447518839,0.002119390223748
2.128,0.002661672750513,-0.013713975792803,-0.006107187403105,0.007005197843535,0.002116144750453
2.132,0.00265556645261,-0.013716067320037,-0.006115024620099,0.007003106316301,0.002130424832951
2.136,0.002656504033785,-0.013707581008384,-0.0061253860941,0.006996302842653,0.00214989767272
2.14,0.002659124452963,-0.013704648062148,-0.006130699054086,0.006990749477237,0.002160980363009
2.144,0.00266583176444,-0.013702796940342,-0.006127766107849,0.006983393071102,0.002131867265527
2.148,0.002670303305424,-0.013704287454004,-0.006139930622569,0.006984571057706,0.002155907808452
2.152,0.00264873893842,-0.013705802008208,-0.006146710055674,0.006981662152012,0.002214951381876
2.156,0.002645349221867,-0.013710273549192,-0.006141132649716,0.006979811030206,0.002234808870333
2.16,0.002664773980551,-0.013707532927299,-0.006154066461809,0.006981517908754,0.002168577174573
2.164,0.002682203374172,-0.013704648062148,-0.006128871972824,0.006979546584234,0.002174851756277
2.168,0.002686073901583,-0.013707172319155,-0.006104999713699,0.006965579028795,0.002203460002358
2.172,0.002651768046828,-0.013705176954092,-0.006102619699949,0.006956227257597,0.002207138205426
2.176,0.002622005854687,-0.01370705211644,-0.006100840699773,0.006949111256891,0.002175164283335
2.18,0.002614024394436,-0.013711499616881,-0.006101249389003,0.006942644350844,0.002185141108649
2.184,0.002654869276866,-0.013710441832993,-0.006100936861945,0.006943341526589,0.002224086788188
2.188,0.002691891712971,-0.013707124238069,-0.006105143956957,0.006959256366005,0.0022333904783
2.192,0.00269624305124,-0.013707581008384,-0.006109423173597,0.006983729638703,0.002189684771262
2.196,0.002688910685648,-0.013711523657424,-0.006117212309505,0.007014453452562,0.002190093460492
2.2,0.002684150658149,-0.013712773765656,-0.006118342215023,0.007021377128924,0.002249016831201
2.204,0.002686843198956,-0.013709480211276,-0.006124616796726,0.007007770181628,0.002244208722616
2.208,0.002683573685118,-0.013705609683865,-0.006127237215905,0.006996951937312,0.002215528354906
2.212,0.002671841900171,-0.013708398386844,-0.006130939459515,0.006986205814625,0.002217475638883
2.216,0.002672370792115,-0.013706547265039,-0.00615209513729,0.00698156598984,0.002268681995314
2.22,0.00267249099483,-0.013710874562765,-0.006164908746669,0.006974642313477,0.002302579160839
2.224,0.002673524738176,-0.013703830683688,-0.006154955961898,0.006969353394034,0.002260243764747
2.228,0.002680087806394,-0.013703710480973,-0.006150508461457,0.006967886920915,0.00224004970869
2.232,0.002666120250955,-0.013708903238245,-0.006129809553998,0.006963006690702,0.002261638116237
2.236,0.002652296938773,-0.0137029411836,-0.006104639105555,0.006961660420298,0.002289645348745
2.24,0.002631598031314,-0.013705513521693,-0.006099181902311,0.006960169906636,0.002298035498226
2.244,0.002619722003109,-0.013705874129837,-0.006095239253271,0.006961131528353,0.002280966712749
2.248,0.00263558876144,-0.013707148278612,-0.006115289066071,0.006956107054882,0.002283058239984
2.252,0.002638954437449,-0.013705802008208,-0.006122909918178,0.006962405677129,0.00230094440392
2.256,0.002662706493859,-0.013702652697085,-0.006110601160201,0.006985917328109,0.00232823042014
2.26,0.002678933860334,-0.013707749292185,-0.006104542943383,0.006989283004119,0.002311930932037
2.264,0.002689367455963,-0.013710610116793,-0.006105985375959,0.006995653747994,0.002316522675735
2.268,0.002687949063931,-0.013712052549369,-0.006103028389179,0.006986927030912,0.00234335192164
2.272,0.002665567318467,-0.01370960041399,-0.006105720929987,0.006974113421533,0.002338447650883
2.276,0.002665326913038,-0.01371395175226,-0.006111923390061,0.0069927448423,0.002307483431596
2.28,0.002671697656913,-0.013716187522752,-0.006114087038925,0.00700671239774,0.002316835202794
2.284,0.002679655076622,-0.01371962532039,-0.006119159593482,0.006992865045015,0.002354146125414
2.288,0.002664653777836,-0.013712629522399,-0.006127549742963,0.006985893287567,0.002370325410802
2.292,0.002653402803747,-0.01370589817038,-0.00613360795978,0.006983441152188,0.002362175666751
2.296,0.002648859141134,-0.013710225468106,-0.006129881675627,0.006976277070396,0.002302555120296
2.3,0.002648979343849,-0.013705393318978,-0.006131877040689,0.006970988150953,0.002356381895906
2.304,0.002645349221867,-0.013701474710481,-0.006140291230713,0.006957020595513,0.00237672019522
2.308,0.002648522573533,-0.013704047048574,-0.006167481084762,0.00696505013685,0.002346381030049
2.312,0.002652537344202,-0.01370565776495,-0.006173755666465,0.006972190178099,0.002326860109193
2.316,0.002652753709088,-0.013701883399711,-0.006153802015837,0.006969545718377,0.002367488626737
2.32,0.002647801357246,-0.013701210264509,-0.006135555243757,0.006952549054529,0.002389389561342
2.324,0.002665062467066,-0.013700080358992,-0.006114856336298,0.006933172376931,0.002386600858363
2.328,0.002682155293086,-0.013703470075544,-0.006108605795138,0.006918219159232,0.002357151193279
2.332,0.002706989173928,-0.013704696143233,-0.006092618834092,0.00695329431136,0.002378378992682
2.336,0.002698767308247,-0.013703085426857,-0.006092811158436,0.006994692126277,0.0024201133752
2.34,0.002638545748219,-0.013703566237716,-0.006125698621158,0.00700531804625,0.00238205719575
2.344,0.002630131558196,-0.013706571305582,-0.00614461852844,0.007004957438106,0.002393500494182
2.348,0.002658066669075,-0.013703854724231,-0.006105264159671,0.006993634342388,0.002428960294997
2.352,0.002651142992712,-0.013703830683688,-0.006092642874635,0.006982599733186,0.002448529296938
2.356,0.002661865074857,-0.013703566237716,-0.006093652577438,0.006972454624071,0.002445596350701
2.36,0.002663836399377,-0.013706042413637,-0.006101297470089,0.006970050569779,0.002424584916185
2.364,0.002663788318291,-0.013709384049104,-0.006110937727802,0.006986566422768,0.002443192296409
2.368,0.002670327345967,-0.013701594913196,-0.006111226214317,0.006980628408666,0.002479998367627
2.372,0.002670014818909,-0.013703133507943,-0.006113606228066,0.006985027828021,0.002479878164913
2.376,0.002664365291321,-0.013708855157159,-0.006118606660995,0.006995245058764,0.002433840525211
2.38,0.002651623803571,-0.01371000910322,-0.006132886743492,0.006985484598337,0.002442663404464
2.384,0.002650926627826,-0.013709143643675,-0.006136853433075,0.006975147164879,0.002440692079944
2.388,0.002674486359893,-0.013710393751907,-0.006127501661877,0.006975820300081,0.002469300326026
2.392,0.002665711561725,-0.013706138575809,-0.00617387586918,0.006966180042368,0.002475839353701
2.396,0.002660134155766,-0.013706306859609,-0.006156182029587,0.006962165271699,0.002474685407641
2.4,0.00267405363012,-0.013703301791744,-0.00613122794603,0.006971733407784,0.002522093358289
2.404,0.002688958766734,-0.013702292088941,-0.006120289498999,0.006969233191319,0.002547840779762
2.408,0.002672611197544,-0.013704311494547,-0.006109831862827,0.006971300678011,0.002515313925184
2.412,0.002654700993065,-0.013704311494547,-0.006113726430781,0.006967309947885,0.002492571571577
2.416,0.00266838006199,-0.013705561602779,-0.006110745403458,0.006939831607322,0.002520915371686
2.42,0.002680232049652,-0.013704696143233,-0.006095383496529,0.006946130229568,0.002532935643149
2.424,0.002689631901936,-0.013704840386491,-0.006090671550116,0.00697113239421,0.002530074818541
2.428,0.002670615832482,-0.013702893102514,-0.006094782482956,0.00700161580264,0.002492042679633
2.432,0.002658258993418,-0.013707076156983,-0.006100071402399,0.007008323114116,0.002480238773057
2.436,0.002666216413126,-0.01370589817038,-0.006106009416502,0.006991062004295,0.002549980388083
2.44,0.002669413805335,-0.013705200994635,-0.006113101376665,0.006970074610322,0.002542696103576
2.444,0.002672587157002,-0.013704143210746,-0.006126227513102,0.006965122258479,0.002517886263277
2.448,0.002673092008403,-0.013704455737804,-0.006128535405223,0.006975748178452,0.002533368372921
2.452,0.002673981508491,-0.013701835318625,-0.006122453147863,0.006978224354373,0.002570727376627
2.456,0.002664966304894,-0.013696402155924,-0.006123655175009,0.006984378733362,0.002556711740102
2.46,0.002650782384568,-0.013697676304699,-0.00610944721414,0.006983729638703,0.002526925507417
2.464,0.002633112585518,-0.013701210264509,-0.006120818390944,0.00697646939474,0.002525507115385
2.468,0.002667466521358,-0.013703470075544,-0.006190223438369,0.006979041732833,0.002552576766719
2.472,0.002704272592577,-0.013703181589029,-0.006176352045101,0.006981493868211,0.002534666562239
2.476,0.002704416835835,-0.013706378981238,-0.006111803187347,0.006971589164526,0.002471175488374
2.48,0.002647056100415,-0.013706835751554,-0.006095527739786,0.006957645649629,0.002493220666236
2.484,0.002643618302777,-0.013703566237716,-0.006102836064836,0.006948582364946,0.002550557361113
2.488,0.00268621814484,-0.013701522791567,-0.006124424472383,0.00695074601381,0.002557769523991
2.492,0.002673236251661,-0.013701835318625,-0.006106922957133,0.006957164838771,0.002537431224676
2.496,0.002681145590283,-0.01370351815663,-0.006093652577438,0.006953198149188,0.002545412684927
2.5,0.002695161226808,-0.013702508453827,-0.006096417239875,0.00696505013685,0.002611331853628
2.504,0.002695858402553,-0.01370195552134,-0.006100335848371,0.006982335287214,0.002635372396553
2.508,0.002685424806924,-0.01370589817038,-0.00610237929452,0.006979546584234,0.002614096516064
2.512,0.002672058265057,-0.013706186656895,-0.006105624767815,0.006967358028971,0.002609504772366
2.516,0.002665158629238,-0.0137029411836,-0.006107932659936,0.006967165704628,0.00264948419525
2.52,0.002667322278101,-0.013700008237363,-0.006107548011249,0.006963006690702,0.002630900855569
2.524,0.002671361089312,-0.013697075291126,-0.00611634684996,0.006964953974679,0.002629049733764
2.528,0.002677683752102,-0.013697267615469,-0.006138247784565,0.006969449556206,0.002609721137252
2.532,0.002679751238793,-0.013700104399535,-0.006157215772933,0.006979089813919,0.002654460587636
2.536,0.002676409603327,-0.013705008670291,-0.006170173625569,0.006976277070396,0.002676145157355
2.54,0.002677972238617,-0.013707725251642,-0.006141853866003,0.006967502272229,0.002648017722132
2.544,0.002682828428288,-0.013706811711011,-0.006110384795314,0.0069623335555,0.002617077543387
2.548,0.002677972238617,-0.013708879197702,-0.006087233752477,0.006958366865917,0.002629025693221
2.552,0.002690112712794,-0.013705152913549,-0.006095551780329,0.006964833771964,0.002657105047358
2.556,0.002710547174281,-0.013705056751377,-0.006116827660818,0.006970363096837,0.002645253059696
2.56,0.0026771789007,-0.013708302224672,-0.006138776676509,0.006966660853226,0.002640348788939
2.564,0.002647969641046,-0.013707556967842,-0.006149114109967,0.006968223488516,0.002601883920258
2.568,0.002631501869142,-0.013705513521693,-0.006140459514514,0.006953222189731,0.002623856976492
2.572,0.002660831331511,-0.01370548948115,-0.006097306739963,0.006933701268876,0.002674895049122
2.576,0.002681554279513,-0.013707605048927,-0.006080358157201,0.006949279540691,0.002661384263998
2.58,0.002693237983374,-0.013703157548486,-0.006081968873577,0.00697646939474,0.002639098680707
2.584,0.002681025387568,-0.013704624021605,-0.006088171333651,0.006992047666555,0.002686578752984
2.588,0.002667250156472,-0.013700200561706,-0.006096056631731,0.007002841870329,0.002703070565431
2.592,0.002664629737293,-0.013702869061971,-0.006102547578321,0.006997528910342,0.002665326913038
2.596,0.002671697656913,-0.01370080157528,-0.006110793484544,0.006991446652982,0.002671000481168
2.6,0.002680232049652,-0.013700489048221,-0.00609317176658,0.00698394600359,0.00270446491692
2.604,0.0026870355233,-0.013700657332022,-0.006098100077879,0.006974257664791,0.00273511660915
2.608,0.002696844064813,-0.01370195552134,-0.006141036487544,0.006965579028795,0.002687348050358
2.612,0.002712350215,-0.01370236421057,-0.006140555676685,0.006970459259008,0.00264792155996
2.616,0.00269525738898,-0.013702604615999,-0.006143272258036,0.00697687808397,0.002704320673663
2.62,0.002659629304365,-0.013703878764774,-0.006140026784741,0.006973873016104,0.002722182797056
2.624,0.002671288967684,-0.013700176521163,-0.006180631261742,0.006968391772317,0.002710907782424
2.628,0.002682083171457,-0.013702051683512,-0.006145652271786,0.006957525446915,0.002703455214118
2.632,0.002682756306659,-0.013698686007502,-0.00609629703716,0.006935287944709,0.002735188730779
2.636,0.002699704889421,-0.013697652264156,-0.006089878212199,0.006925864051882,0.002755671273351
2.64,0.00268818946936,-0.013699335102161,-0.006104711227184,0.006930912565896,0.002752762367657
2.644,0.002670183102709,-0.013702292088941,-0.006096729766933,0.006938845945062,0.002735717622723
2.648,0.002675544143781,-0.013700008237363,-0.006090310941972,0.00697803203003,0.002759085030447
2.652,0.002680448414538,-0.013698878331845,-0.006104134254154,0.007016016087852,0.002789039546932
2.656,0.002671409170398,-0.013698325399358,-0.006106995078762,0.007051187402152,0.002732760635943
2.66,0.00267874153599,-0.013694863561177,-0.006089758009484,0.007056163794537,0.002681770644399
2.664,0.002682756306659,-0.013698445602073,-0.006085070103614,0.007049240118175,0.002704416835835
2.668,0.002679679117165,-0.013695729020722,-0.006086200009131,0.007048494861344,0.002739131379819
2.672,0.002680232049652,-0.013703542197173,-0.006082714130407,0.007041859671497,0.002728289094959
2.676,0.002682876509374,-0.013706210697438,-0.006083267062895,0.007033541643644,0.002722735729544
2.68,0.002687468253072,-0.013702436332198,-0.006107139322019,0.007017530642056,0.00272689474347
2.684,0.002684222779777,-0.013698517723702,-0.006122669512749,0.00700474107322,0.002745333839893
2.688,0.002675015251837,-0.013696354074838,-0.006136492824931,0.006993369896416,0.002759325435876
2.692,0.002661288101827,-0.013696666601896,-0.006157119610761,0.006984979746935,0.00273511660915
2.696,0.002676650008756,-0.013698157115558,-0.006150027650598,0.006982407408842,0.002740742096195
2.7,0.002670183102709,-0.01370056116985,-0.006093219847666,0.006983585395446,0.002759349476419
2.704,0.002661167899112,-0.013703061386314,-0.006099398267197,0.006979907192378,0.002791563803939
2.708,0.002682780347202,-0.013701354507767,-0.00612514568867,0.00696053051478,0.002769206099018
2.712,0.002695377591695,-0.01370096985908,-0.006109182768168,0.006939446958635,0.002749613056534
2.716,0.002679294468478,-0.013706835751554,-0.006118462417737,0.006935384106881,0.002794713115062
2.72,0.002680400333452,-0.013706691508296,-0.006131396229831,0.00694072110741,0.002839067916759
2.724,0.002701556011227,-0.013705802008208,-0.006120553944972,0.006955890689996,0.002824980158605
2.728,0.002706460281983,-0.013700513088764,-0.006077377129878,0.006982671854815,0.002799569304733
2.732,0.002695425672781,-0.013695320331493,-0.006064707763756,0.006996615369711,0.002815219698177
2.736,0.00270093095711,-0.01369883025076,-0.006068097480309,0.00701065504678,0.002828105429185
2.74,0.002710907782424,-0.013705513521693,-0.006073987413325,0.007027387264656,0.002829932510447
2.744,0.002712326174457,-0.013706451102867,-0.00607961290037,0.007020367426121,0.002765047085092
2.748,0.002690906050711,-0.013704720183776,-0.006085815360445,0.007008323114116,0.002805290953949
2.752,0.002675375859981,-0.013706282819066,-0.006090359023058,0.006998923261832,0.002832552929626
2.756,0.00267544798161,-0.013704575940519,-0.00609473440187,0.006992384234156,0.002805411156664
2.76,0.00269016079388,-0.013704383616175,-0.00609745098322,0.006990124423121,0.00277653846461
2.764,0.002697132551328,-0.013702893102514,-0.006102162929634,0.006986157733539,0.002795386250264
2.768,0.002678501130561,-0.013702051683512,-0.006085478792844,0.006980796692466,0.002850030404333
2.772,0.00266345175069,-0.013705729886579,-0.006078843602996,0.006980123557264,0.002862892094798
2.776,0.002647609032902,-0.013701426629396,-0.006129064297167,0.006982840138615,0.002825412888377
2.78,0.002686314307012,-0.013697459939813,-0.006180847626628,0.006978128192202,0.002834380010889
2.784,0.002720019148193,-0.01369940722379,-0.006156855164789,0.006973272002531,0.002907078612695
2.788,0.002718696918332,-0.013701835318625,-0.006129400864768,0.006972791191672,0.002892894692369
2.792,0.002714441742234,-0.013702676737628,-0.006120217377371,0.00696505013685,0.002833971321659
2.796,0.00273117396011,-0.013703542197173,-0.006082786252036,0.006939134431577,0.002863300784028
2.8,0.002740020879907,-0.013703614318802,-0.006070693858945,0.00693661017457,0.002894024597886
2.804,0.002732592352143,-0.013702003602426,-0.006070549615687,0.006970771786067,0.002902655152796
2.808,0.002699536605621,-0.013703253710658,-0.006060668952545,0.006994163234333,0.002876787528609
2.812,0.002692156158943,-0.013704287454004,-0.006062808560865,0.006996831734598,0.002867604041211
2.816,0.002700257821909,-0.013704047048574,-0.006085598995558,0.0069927448423,0.002899217355158
2.82,0.002698094173045,-0.013703373913373,-0.006104014051439,0.006985172071279,0.002922344357452
2.824,0.002680232049652,-0.013704215332375,-0.006107331646363,0.006969040866976,0.002868565662928
2.828,0.002682299536343,-0.013699359142704,-0.006106177700302,0.00697507504325,0.00286159390548
2.832,0.002690521402024,-0.013701234305052,-0.006087642441707,0.006985989449738,0.002895418949376
2.836,0.002699873173222,-0.01370688383264,-0.006070645777859,0.006993225653159,0.002887341326953
2.84,0.002704272592577,-0.013706403021781,-0.006086488495647,0.006992288071985,0.002905636180119
2.844,0.002700041457022,-0.013699094696732,-0.00615464343484,0.006986398138968,0.002897366233353
2.848,0.002697445078386,-0.013696907007326,-0.00616031700297,0.006977334854285,0.002929243993272
2.852,0.002724827256778,-0.013693637493488,-0.006107163362562,0.006950986419239,0.002964126821056
2.856,0.002738963096018,-0.013698734088588,-0.006068722534425,0.006928580633233,0.002969752308101
2.86,0.002719201769734,-0.013700993899623,-0.006085887482073,0.006954736743935,0.002958092644782
2.864,0.002728721824732,-0.013706162616352,-0.006137791014249,0.006977551219171,0.002982541876937
2.868,0.002736246514668,-0.013704624021605,-0.006112476322549,0.006990581193437,0.00302735344895
2.872,0.002715956296439,-0.013705056751377,-0.006094181469383,0.00696882450209,0.003019948961729
2.876,0.002714153255719,-0.013707292521869,-0.006092138023234,0.006948630446032,0.002977805889981
2.88,0.002708119079445,-0.013708951319331,-0.006063265331181,0.00696800712363,0.002960088009845
2.884,0.002708623930847,-0.013712533360227,-0.006052471127407,0.006992023626012,0.003007087271264
2.888,0.002713528201603,-0.013708999400417,-0.006058168736081,0.006973945137733,0.003014804285543
2.892,0.002717014080327,-0.013705200994635,-0.006065212615158,0.006977406975914,0.002975882646547
2.896,0.002710835660796,-0.013703253710658,-0.00607155931849,0.006989451287919,0.002953573022712
2.9,0.002707469984786,-0.013699839953563,-0.006078146427251,0.006987912693172,0.003010789514874
2.904,0.002698887510962,-0.013703686440431,-0.006084469090041,0.00698370559816,0.003011390528447
2.908,0.002699248119106,-0.013708686873359,-0.006088555982338,0.006981541949297,0.002982253390422
2.912,0.002709297066048,-0.013709143643675,-0.006091128320431,0.006977527178629,0.002981964903907
2.916,0.002722807851172,-0.01370746080567,-0.006096417239875,0.006973151799816,0.003022353016021
2.92,0.002730260419479,-0.013699599548133,-0.006099686753713,0.006967382069514,0.003079906075784
2.924,0.002719778742764,-0.01370351815663,-0.006086488495647,0.006972791191672,0.003011366487904
2.928,0.002698935592048,-0.013709528292361,-0.006094782482956,0.006985580760508,0.002977445281837
2.932,0.002725187864922,-0.013708855157159,-0.006105793051616,0.006976397273111,0.003028892043697
2.936,0.002745622326409,-0.013706018373094,-0.006104663146098,0.006954832906107,0.003045840626459
2.94,0.002736246514668,-0.013706859792097,-0.006105817092158,0.006935480269052,0.003031608625047
2.944,0.002730500824909,-0.01371255740077,-0.006129977837798,0.006950938338153,0.003018939258926
2.948,0.002728096770616,-0.013713230535972,-0.006124376391297,0.006972719070043,0.003037883206751
2.952,0.002725572513609,-0.013713494981944,-0.006092041861062,0.006981806395269,0.003050047721471
2.956,0.002720259553622,-0.013715081657777,-0.006086512536189,0.006999981045721,0.003040263220501
2.96,0.002705739065696,-0.013716379847095,-0.006087786684965,0.007007313411313,0.003007736365923
2.964,0.002709321106591,-0.013717678036413,-0.006076752075762,0.007015559317536,0.003041513328733
2.968,0.002716990039785,-0.013715346103749,-0.006081271697832,0.0070026014649,0.003051081464817
2.972,0.002721461580769,-0.01370960041399,-0.006094421874812,0.006984907625307,0.003041897977419
2.976,0.00271703812087,-0.013713903671174,-0.006096681685847,0.006967165704628,0.003009539406642
2.98,0.002718600756161,-0.013719360874418,-0.006092642874635,0.006967766718201,0.003035431071373
2.984,0.002713648404318,-0.01371551438755,-0.006075333683729,0.006986590463311,0.003079160818954
2.988,0.002698959632591,-0.013714144076603,-0.006069467791255,0.006990292706922,0.00308661338726
2.992,0.002692035956228,-0.013718976225731,-0.006071799723919,0.00698312862513,0.00308291114365
2.996,0.002687925023388,-0.013720731185365,-0.006078507035395,0.006971781488869,0.003095436266514
3,0.002726149486639,-0.013716427928181,-0.006087402036278,0.006968343691231,0.00313221829719
3.004,0.002731510527711,-0.013718880063559,-0.006086873144333,0.006975123124336,0.003148012933892
3.008,0.002724658972978,-0.013720322496135,-0.006107403767992,0.006985292273993,0.003130222932127
3.012,0.002737184095842,-0.013718615617587,-0.00611634684996,0.006977719502972,0.003122073188075
3.016,0.002743939488404,-0.013719985928534,-0.006106394065189,0.006965410744994,0.003124260877481
3.02,0.002731077797939,-0.013718952185188,-0.006144185798667,0.006960794960753,0.003170659125327
3.024,0.00271941813462,-0.013721788969253,-0.006129785513455,0.0069574052442,0.003145801203942
3.028,0.00271432153952,-0.013722077455768,-0.006081223616746,0.006965603069338,0.003118010336321
3.032,0.002715980336982,-0.01371979360419,-0.00605800045228,0.006974353826962,0.003123707944994
3.036,0.002717999742587,-0.013720346536678,-0.006059635209199,0.006974978881078,0.003128708377923
3.04,0.002719514296792,-0.013726981726525,-0.006049153532484,0.0069723584619,0.003124188755853
3.044,0.002721004810453,-0.013724361307346,-0.00605545215473,0.006972550786243,0.003130030607783
3.048,0.002719562377878,-0.013724265145175,-0.006067087777506,0.006976132827139,0.003165875057285
3.052,0.002718071864216,-0.013724842118205,-0.006069251426369,0.006979666786949,0.003214965845938
3.056,0.002714033053005,-0.013718351171615,-0.006048336154024,0.00699159089624,0.00319328127622
3.06,0.002704416835835,-0.013711956387197,-0.006055812762874,0.006986854909284,0.003123611782822
3.064,0.002706147754925,-0.013718904104102,-0.006084925860356,0.006968728339918,0.003154143272338
3.068,0.002733842460375,-0.01372767890227,-0.006126035188759,0.006975844340624,0.003194050573593
3.072,0.002732616392686,-0.013721716847624,-0.006141613460574,0.006982671854815,0.003175972085314
3.076,0.002705017849408,-0.013720635023193,-0.006143729028352,0.006989739774435,0.003147724447376
3.08,0.0027023253086,-0.013725803739922,-0.006115216944442,0.006993610301846,0.003151330528815
3.084,0.002756104003124,-0.013724096861374,-0.006079925427428,0.00699512485605,0.003203594669135
3.088,0.002768100234044,-0.013724409388432,-0.006097066334534,0.006996903856226,0.003205926601799
3.092,0.002718937323761,-0.013728568402358,-0.006082762211493,0.006990509071808,0.003175563396084
3.096,0.002717735296615,-0.013726308591323,-0.006069612034513,0.006980724570838,0.00321703333263
3.1,0.002724947459493,-0.013726308591323,-0.006063649979868,0.006967766718201,0.003283697758162
3.104,0.002716485188383,-0.013730395483621,-0.006061726736434,0.006965338623365,0.00320741711546
3.108,0.002713263755631,-0.013720899469165,-0.006102499497235,0.006972743110586,0.003192656222104
3.112,0.002723601189089,-0.013720394617764,-0.006101345551174,0.006968656218289,0.003207946007404
3.116,0.002722687648458,-0.013721404320566,-0.006070597696773,0.006974065340447,0.003251122822498
3.12,0.002722086634885,-0.013722678469342,-0.006069491831798,0.006983873881961,0.003243405808219
3.124,0.002716124580239,-0.013725250807435,-0.006080093711228,0.00698394600359,0.003199195249779
3.128,0.002700378024623,-0.013728760726702,-0.006069443750713,0.006967502272229,0.003179097355894
3.132,0.002710426971566,-0.013728929010502,-0.006064539479956,0.006960891122924,0.003207441156003
3.136,0.002714537904406,-0.013731236902623,-0.006069539912884,0.006967406110057,0.003222995387275
3.14,0.002707301700986,-0.013731260943166,-0.006076703994676,0.006992865045015,0.003206888223516
3.144,0.002730380622194,-0.013733905402888,-0.006083531508867,0.007009597262891,0.003200421317469
3.148,0.002757979165472,-0.013733496713658,-0.006086656779447,0.007006279667967,0.003205397709854
3.152,0.002750767002595,-0.013731044578279,-0.006120025053027,0.006995653747994,0.003207320953288
3.156,0.002736799447155,-0.013732511051398,-0.006124328310211,0.006975147164879,0.003209484602151
3.16,0.002711484755455,-0.013731284983709,-0.00606802535868,0.006969257231862,0.003190564694869
3.164,0.002726582216412,-0.013729025172674,-0.006081608265433,0.006970579461723,0.003231241293499
3.168,0.002746415664325,-0.013728640523987,-0.006078338751595,0.006969185110233,0.003263816229163
3.172,0.002716244782954,-0.013733015902799,-0.00606860233171,0.006973031597101,0.003243790456906
3.176,0.002719706621135,-0.013738328862786,-0.006060500668744,0.00697351240796,0.003214845643224
3.18,0.002724466648634,-0.013737391281612,-0.006098460686023,0.006970891988781,0.003259464890893
3.184,0.002725788878495,-0.013734506416461,-0.006124424472383,0.006965410744994,0.00330463707105
3.188,0.002726462013697,-0.013736453700438,-0.006101634037689,0.006947909229745,0.003310454882438
3.192,0.00272845737876,-0.01372727021304,-0.006095744104673,0.006945913864682,0.00323354918562
3.196,0.002727038986727,-0.01373277549737,-0.006105528605643,0.00697449807022,0.003252252728016
3.2,0.002718937323761,-0.013735876727407,-0.006082233319549,0.006983729638703,0.003315503396452
3.204,0.002712879106944,-0.013737463403241,-0.006084421008955,0.006965218420651,0.003333101073873
3.208,0.002721245215882,-0.013741430092823,-0.006107788416678,0.006962622042015,0.003310527004066
3.212,0.00273708793367,-0.013742632119969,-0.006087329914649,0.006975964543338,0.00330266574653
3.216,0.002740357447508,-0.013742656160512,-0.006039849842372,0.006996254761567,0.00333192308727
3.22,0.002726510094783,-0.013740155944048,-0.006036003355503,0.007012578290214,0.003328413168003
3.224,0.00273314528463,-0.01374280040377,-0.006075453886444,0.007019694290919,0.003294347718678
3.228,0.002746752231926,-0.013743233133543,-0.006090527306858,0.007010174235921,0.003295693989081
3.232,0.002727760203015,-0.01374691133661,-0.00608059856263,0.007000053167349,0.003347501359085
3.236,0.002727615959757,-0.013748017201585,-0.006085022022528,0.0069925765585,0.003358848495346
3.24,0.002749877502506,-0.013741333930652,-0.006111634903546,0.006987047233627,0.003289058799234
3.244,0.00275105548911,-0.013739627052104,-0.00611125025486,0.006973897056647,0.00329009254258
3.248,0.002729154554505,-0.013736934511296,-0.006087113549763,0.00695033732458,0.003344424169591
3.252,0.002729467081563,-0.013739410687217,-0.006062447952721,0.006951755716613,0.003381085997552
3.256,0.002733313568431,-0.013741093525222,-0.00605232688415,0.006970819867152,0.003371902510155
3.26,0.002729899811335,-0.013743040809199,-0.006054226087041,0.006990677355609,0.003343702953303
3.264,0.002734828122635,-0.013740853119793,-0.006085022022528,0.007008731803346,0.003356636765397
3.268,0.002737160055299,-0.01374140605228,-0.006071895886091,0.007002865910872,0.003383177524787
3.272,0.002720259553622,-0.013744483241775,-0.006062544114893,0.006984595098249,0.003380340740721
3.276,0.002696026686354,-0.013747127701496,-0.006063962506926,0.006948221756803,0.00335666080594
3.28,0.00274473282632,-0.013742103228025,-0.006069083142569,0.006943750215819,0.003390774336351
3.284,0.002760936152252,-0.013741622417167,-0.006077906021822,0.006962165271699,0.003364401860762
3.288,0.002726197567725,-0.013743161011914,-0.00609942230774,0.007001663883725,0.00335961779272
3.292,0.002719177729191,-0.013746887296067,-0.0061155294715,0.007031714562382,0.003343150020816
3.296,0.002753916313718,-0.013752897431799,-0.006097667348107,0.007030175967635,0.003368344509802
3.3,0.002769206099018,-0.013747608512355,-0.006085046063071,0.007019333682776,0.00342068077175
3.304,0.002763436368716,-0.013746142039237,-0.006064323115069,0.007006784519369,0.003416786203796
3.308,0.002747858096901,-0.013749916404476,-0.006054682857356,0.006995100815507,0.003385052687135
3.312,0.002750382353908,-0.013751647323566,-0.006043335721096,0.006985003787478,0.003389259782147
3.316,0.00276617699061,-0.013750613580221,-0.006035474463559,0.00697368069176,0.00341065586535
3.32,0.00273807359593,-0.013749483674703,-0.006043071275124,0.006982984381873,0.003411449203267
3.324,0.0027223751214,-0.013751166512708,-0.006046172505161,0.006996182639939,0.003424118569388
3.328,0.0027324000278,-0.013750902066736,-0.006052134559806,0.007013227384873,0.003394837188105
3.332,0.002729370919391,-0.013755638053692,-0.006052591330122,0.007041306739009,0.003430248907834
3.336,0.002706316038726,-0.013757705540384,-0.006059298641598,0.007057534105484,0.00345914564043
3.34,0.002727231311071,-0.013759268175674,-0.006073097913237,0.007057149456797,0.003432749124298
3.344,0.00273905925819,-0.013758306553957,-0.006094542077527,0.007043566550044,0.003425729285764
3.348,0.002725620594695,-0.013753161877771,-0.006106153659759,0.007034623468076,0.003470685101034
3.352,0.002729106473419,-0.013754436026546,-0.00610319667298,0.007012289803698,0.003476118263736
3.356,0.002752858529829,-0.013756263107808,-0.006110192470971,0.006991807261126,0.003451116099093
3.36,0.002756584813982,-0.01375710452681,-0.006092041861062,0.006990485031265,0.003428109299514
3.364,0.002748146583416,-0.013760229797391,-0.006054658816813,0.006999476194319,0.003460780397349
3.368,0.002740886339452,-0.013762393446254,-0.006056197411561,0.007000269532236,0.003513405145813
3.372,0.002735212771322,-0.013753546526458,-0.006101081105202,0.007006952803169,0.003482128399467
3.376,0.002740117042079,-0.013755710175321,-0.006062471993264,0.007008587560088,0.003438663097858
3.38,0.002728096770616,-0.013759196054045,-0.006028983516969,0.007000077207892,0.003459265843145
3.384,0.002724202202662,-0.0137583305945,-0.006023261867753,0.006994115153247,0.003481767791323
3.388,0.002741006542167,-0.013759604743275,-0.006039248828798,0.006994379599219,0.00346818488457
3.392,0.002728433338217,-0.013760662527163,-0.00607706460282,0.006994620004648,0.003435850354336
3.396,0.0027223751214,-0.013758883526987,-0.00611964040434,0.006990677355609,0.003459987059433
3.4,0.002726870702927,-0.01375989322979,-0.006106201740845,0.006983633476532,0.003517107389423
3.404,0.002731943257484,-0.013761816473224,-0.006061486331004,0.006980604368123,0.003498235563227
3.408,0.002730476784366,-0.013760013432504,-0.006043119356209,0.006975195245965,0.003482537088697
3.412,0.002723745432347,-0.013763379108514,-0.006049081410855,0.006969617840006,0.003481647588608
3.416,0.0027125184988,-0.013766600541266,-0.006078699359739,0.00697211805647,0.003507899861483
3.42,0.002727255351614,-0.013764028203173,-0.006091561050204,0.006983849841418,0.003502827306926
3.424,0.002747858096901,-0.013761143338022,-0.006059226519969,0.006987936733715,0.003492081184238
3.428,0.002748435069931,-0.013761936675938,-0.00603285404438,0.006982239125042,0.003510496240119
3.432,0.002764085463375,-0.013764028203173,-0.006032637679494,0.006978969611204,0.003542902891982
3.436,0.002765167287807,-0.013768956514473,-0.006037445788079,0.006965963677481,0.003561582393835
3.44,0.002774783504977,-0.013767057311582,-0.006043359761639,0.006966564691055,0.003535498404761
3.444,0.002759950489992,-0.013767466000811,-0.00604821595131,0.006959088082205,0.003518766186885
3.448,0.00274160755574,-0.013762080919196,-0.006051557586776,0.006969257231862,0.00356326523184
3.452,0.002746896475184,-0.013769052676644,-0.006047711099908,0.006991230288096,0.003573602665298
3.456,0.00275434904349,-0.013772803001341,-0.006036484166362,0.007011857073926,0.003547061905908
3.46,0.002745285758808,-0.013773235731113,-0.006055355992558,0.007022603196613,0.003538263067197
3.464,0.002744804947949,-0.013775399379977,-0.00608552687393,0.007017650844771,0.003528767052742
3.468,0.002746944556269,-0.013772754920255,-0.006138632433251,0.007003563086617,0.003569059002685
3.472,0.002744804947949,-0.013771360568765,-0.006161398827402,0.006993850707275,0.003554009622813
3.476,0.002749901543049,-0.013773067447313,-0.006111274295402,0.006990941801581,0.00352809391754
3.48,0.002750791043137,-0.013778500610014,-0.006053865478897,0.006980291841065,0.003541676824293
3.484,0.002743723123517,-0.013780423853448,-0.006027420881679,0.006977767584058,0.003593989045698
3.488,0.002741463312482,-0.013780856583221,-0.006014366866871,0.006975868381167,0.003567183840336
3.492,0.002732183662913,-0.013779967083132,-0.00601148200172,0.006968560056117,0.00353278182341
3.496,0.002732520230514,-0.013779101623587,-0.006043720369783,0.006963824069161,0.003552302744266
3.5,0.00274555020478,-0.01378208265091,-0.006047711099908,0.006957717771258,0.003605576587388
3.504,0.002753026813629,-0.013776962015267,-0.006049105451398,0.006962189312242,0.00362827085991
3.508,0.002755190462493,-0.013771456730937,-0.006052663451751,0.006980363962694,0.003544104919128
3.512,0.002762955557858,-0.013775375339434,-0.006040306612687,0.006988730071632,0.003531171107034
3.516,0.002783966992374,-0.0137785486911,-0.00603737366645,0.006976036664967,0.003622693453951
3.52,0.00277045620725,-0.013779654556074,-0.006042975112952,0.006966901258656,0.003643320239781
3.524,0.002759710084563,-0.013773716541972,-0.006051389302976,0.006972743110586,0.003609951966201
3.528,0.002771922680369,-0.01377616867735,-0.006055115587129,0.006974954840536,0.003596080572933
3.532,0.002753988435347,-0.013783621245657,-0.006084252725154,0.006959616974149,0.003626828427334
3.536,0.002743651001889,-0.013782299015796,-0.00610788457885,0.00694680336477,0.003652984538037
3.54,0.002742569177457,-0.013781313353536,-0.006065453020587,0.006956804230627,0.003633175130666
3.544,0.002749420732191,-0.013779894961504,-0.006031892422663,0.006978873449032,0.003609903885115
3.548,0.002760503422479,-0.01378265962394,-0.006024511975985,0.006988561787831,0.00363632444179
3.552,0.002756656935611,-0.013781241231907,-0.006046316748418,0.006996591329168,0.003623414670239
3.556,0.002730260419479,-0.013782419218511,-0.006089156995911,0.006994571923563,0.003590839734575
3.56,0.002721004810453,-0.013784366502488,-0.006083026657465,0.006973656651218,0.003572809327381
3.564,0.002745886772381,-0.013786409948636,-0.006048744843254,0.006945721540338,0.003572568921952
3.568,0.002760046652164,-0.01378660227298,-0.006014919799358,0.006940504742524,0.003585671017846
3.572,0.002774639261719,-0.013786313786465,-0.006002178311608,0.006964569325992,0.003575742273618
3.576,0.002786226803409,-0.013784823272803,-0.006010231893488,0.006981686192555,0.00357502105733
3.58,0.002772571775028,-0.013789294813787,-0.006021290543233,0.006976277070396,0.00360740366865
3.584,0.002768052152958,-0.013775735947578,-0.00601674688062,0.006958679392975,0.003647286929363
3.588,0.002776153815924,-0.01377616867735,-0.006010856947604,0.00696053051478,0.003653801916496
3.592,0.002766681842011,-0.013784703070089,-0.006028454625025,0.006951034500325,0.003652383524464
3.596,0.002775504721265,-0.013784895394432,-0.006044297342813,0.006965915596396,0.003655124146357
3.6,0.002788919344217,-0.013789871786818,-0.006031844341577,0.007006231586881,0.003678635797338
3.604,0.002780433032564,-0.01378463094846,-0.006016770921163,0.007011135857638,0.00368498250067
3.608,0.002751079529653,-0.013783140434799,-0.006068241723566,0.006999860843006,0.003671543837175
3.612,0.002729322838305,-0.013783332759142,-0.006141757703832,0.006995509504737,0.003684766135784
3.616,0.002734443473948,-0.013781409515708,-0.006089108914825,0.006986590463311,0.003707027678533
3.62,0.002745357880436,-0.013785183880947,-0.006035474463559,0.006985220152365,0.003705873732472
3.624,0.002743266353202,-0.013784703070089,-0.006012828272124,0.006982070841241,0.003694334271868
3.628,0.002743506758631,-0.013786433989179,-0.006006746014763,0.00698098901681,0.003681160054345
3.632,0.002751175691824,-0.013788429354242,-0.005998884757227,0.006981830435812,0.003735395519185
3.636,0.002775985532123,-0.01379407888183,-0.006017011326593,0.006979859111292,0.003744867493097
3.64,0.002746583948126,-0.013797011828066,-0.006056558019705,0.006976421313654,0.003732270248604
3.644,0.002744011610033,-0.013784895394432,-0.006038792058483,0.006972863313301,0.003664620160813
3.648,0.00277045620725,-0.013786506110808,-0.005993427553983,0.006949087216348,0.003700055921084
3.652,0.002768965693589,-0.013792420084368,-0.005986431755992,0.006937283309772,0.003690367582286
3.656,0.002782885167943,-0.013795930003635,-0.005991672594349,0.00696644448834,0.003674885472642
3.66,0.002794136142032,-0.013794199084544,-0.005999846378944,0.006993946869446,0.003671303431746
3.664,0.00277850978913,-0.013794968381918,-0.006007587433766,0.006997360626542,0.003694358312411
3.668,0.002763123841658,-0.013797276274039,-0.006014414947957,0.00699668749134,0.003730972059286
3.672,0.00273470791992,-0.013796074246892,-0.006021579029748,0.006981013057353,0.00374448284441
3.676,0.002728481419303,-0.01379564151712,-0.006024439854356,0.006959520811977,0.003725370612785
3.68,0.002731534568254,-0.013794343327802,-0.006029223922399,0.006979690827492,0.003781962050831
3.684,0.002748170623959,-0.0137936701926,-0.00603367142284,0.007009813627777,0.003823504109006
3.688,0.002771009139738,-0.013794511611602,-0.006036556287991,0.007016977709569,0.003739097762795
3.692,0.002766729923097,-0.013797156071324,-0.006049297775741,0.007007024924798,0.003726861126446
3.696,0.002774927748234,-0.013798430220099,-0.00604641291059,0.006989763814977,0.003749723682768
3.7,0.002772090964169,-0.0138038633828,-0.006026459259962,0.006984859544221,0.003782539023861
3.704,0.002761128476595,-0.013809296545501,-0.005998668392341,0.006991037963753,0.003768355103535
3.708,0.002762378584827,-0.013790520881477,-0.005995134432531,0.006991518774611,0.003718543098594
3.712,0.00276437394989,-0.013795304949519,-0.00600539974436,0.006988008855344,0.003731380748516
3.716,0.002753820151546,-0.013800281341904,-0.00601205897475,0.006986830868741,0.003764508616667
3.72,0.002754156719147,-0.013798862949872,-0.005987850148024,0.006982671854815,0.003749843885483
3.724,0.00276124867931,-0.013801339125793,-0.005974531687244,0.006975051002707,0.003713783071095
3.728,0.002762330503742,-0.013801843977194,-0.005980061012116,0.006976565556912,0.003738208262707
3.732,0.00277069661268,-0.013800930436563,-0.005982729512381,0.006994499801934,0.003759003332337
3.736,0.002787717317071,-0.013801795896109,-0.005984580634186,0.006986614503854,0.003751622885659
3.74,0.002802213764455,-0.013806868450666,-0.006000543554689,0.006957886055059,0.003749218831367
3.744,0.002778101099901,-0.013808887856271,-0.006009294312314,0.006975291408136,0.003750517020685
3.748,0.00277086489648,-0.013803358531399,-0.006035955274418,0.007009477060176,0.003782683267119
3.752,0.002759036949361,-0.013807036734466,-0.006019223056542,0.007015992047309,0.003799607809338
3.756,0.002735308933494,-0.013810787059163,-0.00599102349969,0.007004524708334,0.003765758724899
3.76,0.002723048256602,-0.013808911896814,-0.006003861149612,0.006982407408842,0.003769172481995
3.764,0.002751584381054,-0.013812614140425,-0.006032998287638,0.006980315881608,0.003825042703753
3.768,0.002768845490874,-0.013821605303479,-0.006013309082982,0.006992408274699,0.00384836203039
3.772,0.002777283721441,-0.013808695531928,-0.005981912133922,0.007007073005884,0.00384482807058
3.776,0.00275927735479,-0.013804223990944,-0.005984748917987,0.007009188573661,0.003806315120814
3.78,0.002766561639296,-0.013807709869668,-0.0059894608644,0.006993297774787,0.003831293244913
3.784,0.002759397557505,-0.013808238761613,-0.005969290848886,0.00697408938099,0.00385937259905
3.788,0.002762330503742,-0.013814200816258,-0.005965035672788,0.00696940147512,0.003828312217591
3.792,0.002766898206897,-0.013813912329743,-0.005973906633128,0.006981061138439,0.003788597240678
3.796,0.002781082127223,-0.013812590099882,-0.005976623214478,0.006992023626012,0.003805690066698
3.8,0.002791852290454,-0.013810378369933,-0.005984003661156,0.007004043897475,0.003845621408497
3.804,0.002776899072754,-0.013800497706791,-0.005981287079806,0.007004428546162,0.003821821271001
3.808,0.002780264748764,-0.013806868450666,-0.005982849715096,0.00699332181533,0.003795016065639
3.812,0.002800050115591,-0.013807469464239,-0.005984075782785,0.006994475761391,0.003814657189209
3.816,0.002785481546579,-0.013806724207408,-0.005979508079629,0.006994980612792,0.003873845005891
3.82,0.002770071558564,-0.01381093130242,-0.005974724011587,0.00700219277567,0.003865983748355
3.824,0.00277086489648,-0.013815739411005,-0.006001384973691,0.006999692559206,0.003803141769148
3.828,0.002778101099901,-0.013819633978959,-0.00603367142284,0.006975579894652,0.00385213639563
3.832,0.0027577147195,-0.013815523046119,-0.006048720802711,0.006955674325109,0.003897621102844
3.836,0.002745381920979,-0.013813623843228,-0.006009198150142,0.006965579028795,0.003890216615623
3.84,0.002771201464081,-0.013817205884124,-0.005979051309314,0.006988297341859,0.003854251963407
3.844,0.002771105301909,-0.01381602789752,-0.005975805836019,0.006999572356491,0.003861392004656
3.848,0.002763195963287,-0.013823600668542,-0.00598847520214,0.007012458087499,0.003904761144093
3.852,0.002787524992727,-0.013816725073265,-0.005993595837783,0.007008611600631,0.003908535509332
3.856,0.002776730788954,-0.013807493504782,-0.005996240297505,0.006993898788361,0.003898510602932
3.86,0.002767451139385,-0.013818504073442,-0.005977680998367,0.006989138760861,0.003901371427541
3.864,0.002750165989021,-0.013815691329919,-0.00596003523986,0.006994331518133,0.003955534770751
3.868,0.002761777571254,-0.013817710735525,-0.005962920105011,0.00698707127417,0.003921469321426
3.872,0.00277045620725,-0.013824273803744,-0.005964530821387,0.006970675623895,0.003895385332352
3.876,0.002769566707162,-0.013820691762848,-0.005989100256256,0.006951827838241,0.003893462088918
3.88,0.002763604652517,-0.013819994587103,-0.00602381480024,0.006986398138968,0.003914906253207
3.884,0.002770239842364,-0.013816316384035,-0.006007106622907,0.007002240856756,0.003945053094036
3.888,0.002775528761808,-0.013820451357419,-0.005969314889429,0.007007097046427,0.003907381563272
3.892,0.002791179155252,-0.013820234992532,-0.005965853051248,0.007011568587411,0.00386939750545
3.896,0.002785553668207,-0.013823648749628,-0.00598674428305,0.007008948168232,0.003884807493465
3.9,0.002770263882907,-0.013823167938769,-0.005973425822269,0.006995172937136,0.00392380125409
3.904,0.002777740491757,-0.013822446722481,-0.005953448131098,0.006987167436342,0.003898630805647
3.908,0.002788486614444,-0.013824033398314,-0.005971045808519,0.006995942234509,0.003889495399335
3.912,0.002791058952537,-0.013823264100941,-0.006011265636833,0.006995245058764,0.003873171870689
3.916,0.002828826645473,-0.013824995020031,-0.006008500974397,0.00697687808397,0.003921637605227
3.92,0.002806396818924,-0.013830933034134,-0.005992802499867,0.006976805962341,0.003940461350337
3.924,0.002739732393392,-0.013830908993591,-0.005976262606334,0.006984186409019,0.003932335646828
3.928,0.002757522395157,-0.013828769385271,-0.0059641461727,0.00699570182908,0.003940293066537
3.932,0.002764638395862,-0.013827350993238,-0.005969915903002,0.007016544979796,0.003958852365675
3.936,0.002756344408553,-0.013829250196129,-0.006008212487882,0.007038902684717,0.003959789946849
3.94,0.002765263449978,-0.01382292753334,-0.006027372800593,0.007028469089087,0.003943634702003
3.944,0.002768629125988,-0.013826942304008,-0.005994413216243,0.00700712108697,0.003937696687901
3.948,0.002771682274939,-0.013832687993768,-0.005992489972809,0.007008347154659,0.003973420934688
3.952,0.002766826085269,-0.013827182709438,-0.006008260568968,0.00701846822323,0.003995201666578
3.956,0.002759397557505,-0.013824418047001,-0.005996072013705,0.007014044763332,0.003964886541949
3.96,0.002757955124929,-0.01382350450637,-0.005973810470956,0.006995894153423,0.003925844700238
3.964,0.002745838691295,-0.013823216019855,-0.005976118363077,0.006987383801228,0.003952914351572
3.968,0.002774855626606,-0.013824105519943,-0.005991552391635,0.007004789154306,0.003964477852719
3.972,0.002794112101489,-0.013824562290259,-0.005988956012999,0.007009525141262,0.003942288431599
3.976,0.002822191455625,-0.013827471195953,-0.00597729634968,0.007005846938194,0.003947000378013
3.98,0.002843058646885,-0.013827879885182,-0.005970781362547,0.006997312545456,0.003995009342234
3.984,0.002827528456155,-0.013827206749981,-0.00599612009479,0.006987888652629,0.003967146352984
3.988,0.002779639694648,-0.013828865547442,-0.006030738476603,0.006993201612616,0.003957289730385
3.992,0.002750694880966,-0.013834587196659,-0.006021699232463,0.00698526823345,0.003937552444643
3.996,0.002754709651634,-0.013835957507605,-0.006012034934207,0.006988129058059,0.003976017313324
4,0.002760575544108,-0.013835476696747,-0.006026579462677,0.006991494734068,0.004022992534199
4.004,0.002781490816453,-0.013837159534752,-0.006021242462147,0.007000582059294,0.003968805150446
4.008,0.002789207830732,-0.013844035130028,-0.006014823637186,0.007039263292861,0.003943971269604
4.012,0.002788919344217,-0.013835620940004,-0.006023165705581,0.007086478919166,0.003973661340117
4.016,0.00278343810043,-0.013830764750333,-0.005996047973162,0.007099436771803,0.0040080393165
4.02,0.002775697045608,-0.013834707399373,-0.005958015834254,0.007074098039559,0.004012222370969
4.024,0.002773942085974,-0.013831702331508,-0.005966550226992,0.007081406364609,0.004005130410806
4.028,0.002754204800233,-0.013832255263995,-0.005979027268771,0.00708445951356,0.003963155622858
4.032,0.0027427615018,-0.013834803561545,-0.005985878823504,0.007070924687893,0.004027175588668
4.036,0.00276831659893,-0.013831606169336,-0.005992562094438,0.007054504997075,0.004045807009436
4.04,0.002783173654458,-0.013827976047354,-0.00600088012229,0.007034383062647,0.004001307964481
4.044,0.002793030277057,-0.013828937669071,-0.00601830951591,0.007021473291096,0.00399152346351
4.048,0.002793727452802,-0.013831870615308,-0.006040354693773,0.007015150628307,0.004010659735679
4.052,0.002781154248852,-0.013833841939828,-0.006024151367841,0.007002865910872,0.004002822518685
4.056,0.002770167720735,-0.013838914494385,-0.006002370635951,0.006982888219701,0.00398996082822
4.06,0.002765840423009,-0.013838361561898,-0.006021530948662,0.006950697932724,0.004023136777457
4.064,0.002783053451743,-0.013834010223628,-0.006030546152259,0.006936946742171,0.004067227133182
4.068,0.002786491249381,-0.013835452656204,-0.006048841005426,0.006963800028618,0.004082228431967
4.072,0.002773076626429,-0.013842592697453,-0.006038407409796,0.00700688068154,0.004033786737973
4.076,0.002777307761984,-0.013839275102529,-0.00602225216495,0.007027363224113,0.004040734454878
4.08,0.002797333534241,-0.01383624599412,-0.006039248828798,0.007013563952473,0.004076410620579
4.084,0.002805555399921,-0.013837423980724,-0.006025064908472,0.006999524275405,0.004095979622521
4.088,0.002792357141855,-0.013834058304714,-0.006003332257668,0.006997697194143,0.004084608445717
4.092,0.002776586545696,-0.013836943169865,-0.005985902864047,0.006999307910519,0.004075569201577
4.096,0.002761296760396,-0.013843458156998,-0.005981263039263,0.007016809425768,0.004041672036052
4.1,0.002781827384054,-0.013838698129499,-0.005980589904061,0.007010727168408,0.004076410620579
4.104,0.002788318330644,-0.013837159534752,-0.005992874621496,0.007006640276111,0.0040583321323
4.108,0.002795001601577,-0.013840356926961,-0.006001384973691,0.007003058235215,0.004008159519215
4.112,0.002824667631547,-0.013843890886771,-0.006008549055483,0.006995341220936,0.004048259144814
4.116,0.002822744388113,-0.013843674521884,-0.006016674758992,0.006982792057529,0.004059942848676
4.12,0.002807839251499,-0.013843241792112,-0.006019727907943,0.006999091545632,0.004048090861013
4.124,0.002802309926626,-0.0138441312922,-0.006009366433942,0.007009501100719,0.00404748984744
4.128,0.002793102398686,-0.013842352292023,-0.00601559293456,0.006999476194319,0.004078958918129
4.132,0.002776346140267,-0.013840549251304,-0.006051653748948,0.006975820300081,0.004130718207048
4.136,0.00277949545139,-0.013839539548501,-0.006083916157554,0.006947620743229,0.004155215520288
4.14,0.002792357141855,-0.013842640778539,-0.006086728901076,0.006965723272052,0.004084151675401
4.144,0.00278656337101,-0.013846198778892,-0.006093291969294,0.007000341653865,0.004082276513053
4.148,0.002788198127929,-0.013839852075559,-0.006102451416149,0.00701378031736,0.004130429720532
4.152,0.002790193492992,-0.013837375899638,-0.00606917930474,0.007018107615086,0.004130189315103
4.156,0.002792693709456,-0.013843193711026,-0.006094349753183,0.007013876479532,0.004126390909321
4.16,0.002796972926097,-0.013848097981783,-0.006058024492823,0.007003226519016,0.004115764989348
4.164,0.00279387169606,-0.013844467859801,-0.006019679826857,0.006995677788537,0.004130598004333
4.168,0.002787933681957,-0.01384175127845,-0.006011385839548,0.006992143828727,0.004149710235959
4.172,0.002781418694824,-0.01383723165638,-0.005994437256786,0.006985075909107,0.004100643487848
4.176,0.002777788572843,-0.013839275102529,-0.005998572230169,0.006971589164526,0.004088214527156
4.18,0.002787524992727,-0.013839491467415,-0.006009582798829,0.006969738042721,0.00412958830153
4.184,0.00283603880835,-0.013841222386506,-0.006005111257845,0.00696956975892,0.00412350604417
4.188,0.002833586672972,-0.013841078143248,-0.006009029866341,0.006956395541397,0.00412663131475
4.192,0.002832649091798,-0.013837159534752,-0.006015256366959,0.0069572369604,0.004117279543552
4.196,0.002854357702059,-0.013844059170571,-0.006019679826857,0.006983152665673,0.004136007126491
4.2,0.00281211846814,-0.013839154899814,-0.006017468096908,0.006984643179334,0.004165168305059
4.204,0.00277423057249,-0.013839082778186,-0.006015088083159,0.006971468961811,0.0041845690232
4.208,0.002779928181163,-0.013835620940004,-0.006044008856298,0.006942355864329,0.004124587868602
4.212,0.002791251276881,-0.013837183575295,-0.00604780726208,0.006925671727539,0.004146969614065
4.216,0.002797381615327,-0.013840621372933,-0.006037157301564,0.006946250432283,0.004195074740459
4.22,0.002803439832144,-0.013844515940887,-0.00608824345528,0.006984402773905,0.004175553819603
4.224,0.002804810143091,-0.013844467859801,-0.006127669945678,0.007000918626895,0.004169832170387
4.228,0.002806084291866,-0.013840669454019,-0.006061558452633,0.006993249693702,0.00417906373887
4.232,0.002803704278116,-0.01384076561619,-0.006032878084923,0.006983489233274,0.004192261996936
4.236,0.002796612317953,-0.013846895954636,-0.006033863747183,0.006974618272935,0.004202334984422
4.24,0.002785962357437,-0.013843121589397,-0.006021338624319,0.006973656651218,0.004190723402189
4.244,0.002777620289042,-0.013830428182733,-0.006020929935089,0.006969473596749,0.004205676619889
4.248,0.002791515722853,-0.013837856710496,-0.006009582798829,0.006961684460841,0.004255128016686
4.252,0.002825460969463,-0.013845140995003,-0.006008789460912,0.006957693730715,0.004197911524524
4.256,0.002855968418435,-0.013840477129675,-0.006013886056012,0.006961732541927,0.004190843604904
4.26,0.00285214597211,-0.013838073075383,-0.006016434353562,0.006971973813213,0.004208946133726
4.264,0.002826783199324,-0.013835789223805,-0.006016362231934,0.00698567692268,0.004220365391616
4.268,0.002812767562799,-0.013841775318993,-0.006023165705581,0.006995100815507,0.004232025054935
4.272,0.002780240708221,-0.013840429048589,-0.006023983084041,0.006978392638174,0.004194065037656
4.276,0.002804834183633,-0.013839275102529,-0.006036003355503,0.006945553256538,0.004151344992877
4.28,0.002806084291866,-0.013844275535457,-0.006085478792844,0.00693874978289,0.004192550483451
4.284,0.00280447357549,-0.013844419778715,-0.006152023015661,0.006977839705687,0.004211157863676
4.288,0.00280127618328,-0.01384372260297,-0.006099710794255,0.007009693425063,0.004199402038185
4.292,0.002793006236514,-0.013843963008399,-0.006047182207964,0.007012554249671,0.004223947432512
4.296,0.002792357141855,-0.013842520575824,-0.006045739775388,0.006992985247729,0.004235078203886
4.3,0.002794424628547,-0.013842688859624,-0.006056389735904,0.006985652882137,0.004258926422468
4.304,0.002797117169354,-0.013847400806038,-0.00604936989737,0.00699216786927,0.00425606559786
4.308,0.002790289655164,-0.013851006887477,-0.006042133693949,0.006998995383461,0.004230798987245
4.312,0.00279346300683,-0.013851127090191,-0.006047206248507,0.006998875180746,0.004261426638932
4.316,0.002795506452978,-0.013843241792112,-0.006049826667686,0.006993009288272,0.004301886872675
4.32,0.00279190037154,-0.01383723165638,-0.006055524276359,0.006992408274699,0.004270321639815
4.324,0.002798511520844,-0.013843794724599,-0.006039681558571,0.006976830002884,0.004260104409071
4.328,0.002816085157722,-0.013836294075206,-0.006032950206552,0.006942187580528,0.004272918018451
4.332,0.00284433279566,-0.013841727237907,-0.00603819104491,0.006947043770199,0.00429337652048
4.336,0.002855992458978,-0.013847569089838,-0.006046124424075,0.00698822522023,0.004315349576714
4.34,0.002839476605989,-0.013849300008929,-0.006049658383885,0.006996519207539,0.00426568181503
4.344,0.002806468940552,-0.013836750845522,-0.006042205815578,0.006989595531177,0.004231520203533
4.348,0.002776249978095,-0.013842881183968,-0.006068361926281,0.006995822031795,0.004291381155417
4.352,0.002794881398862,-0.013847328684409,-0.006097979875165,0.006990364828551,0.004312897441335
4.356,0.002804257210603,-0.013843410075912,-0.006103052429722,0.006969834204892,0.004271499626418
4.36,0.002803944683545,-0.013845477562604,-0.006081127454574,0.006968848542632,0.004281404330103
4.364,0.002807983494757,-0.013845092913917,-0.006085046063071,0.006994812328992,0.004279961897528
4.368,0.002805819845893,-0.013846775751922,-0.006087137590306,0.007006736438283,0.004309002873381
4.372,0.002791395520138,-0.013846222819434,-0.006067135858592,0.006994523842477,0.004287414465834
4.376,0.002779182924332,-0.013844251494915,-0.006050595965059,0.006984162368476,0.004291597520303
4.38,0.00278187546514,-0.013844804427402,-0.006045739775388,0.006976301110939,0.004339269916924
4.384,0.002796468074695,-0.013844636143601,-0.006059466925399,0.006981181341153,0.004339293957467
4.388,0.002801636791424,-0.013840933899991,-0.006095527739786,0.006987864612086,0.004275177829485
4.392,0.002796444034153,-0.013847905657439,-0.006087882847136,0.006979979314007,0.004285875871087
4.396,0.002791539763396,-0.013848170103411,-0.006063361493352,0.006970098650865,0.004330374916042
4.4,0.002803343669972,-0.013844515940887,-0.006058481263139,0.006961083447268,0.004368551298207
4.404,0.002828826645473,-0.013840645413476,-0.006063193209552,0.006930239430695,0.004375835582714
4.408,0.002848179282528,-0.013843890886771,-0.006085430711758,0.006919757753979,0.004332923213592
4.412,0.002864094121944,-0.013843169670483,-0.006135362919414,0.006947981351373,0.004334245443453
4.416,0.002835774362378,-0.013845597765318,-0.006120938593658,0.006996326883196,0.004374104663623
4.42,0.002777716451214,-0.013842785021796,-0.006077545413678,0.007029142224289,0.004365834716857
4.424,0.002774470977919,-0.013841126224334,-0.006051245059718,0.007034310941018,0.00431852292838
4.428,0.002803680237573,-0.013838145197012,-0.006040426815402,0.007016881547397,0.00434720329609
4.432,0.002819258509389,-0.013836630642807,-0.006093364090923,0.006996543248082,0.004333452105536
4.436,0.002800002034505,-0.013839828035016,-0.006129256621511,0.006991903423298,0.004340495984613
4.44,0.002772956423715,-0.013840717535105,-0.006112933092864,0.006995485464194,0.004302463845706
4.444,0.002778678072931,-0.013845645846404,-0.006104663146098,0.006995773950709,0.004309772170755
4.448,0.00278557770875,-0.013845669886947,-0.006081704427604,0.006996182639939,0.004370835149785
4.452,0.002793414925744,-0.013838601967327,-0.006063361493352,0.006993514139674,0.004378095393749
4.456,0.002806589143267,-0.013839082778186,-0.006048191910767,0.006988898355432,0.004325879334515
4.46,0.002812959887142,-0.013834178507429,-0.006044754113128,0.006978344557088,0.004343020241621
4.464,0.002793126439229,-0.013831534047707,-0.006052350924693,0.006945745580881,0.004395308422483
4.468,0.002788727019874,-0.013834587196659,-0.006065453020587,0.006935600471767,0.004401342598757
4.472,0.002807406521726,-0.013836270034663,-0.006077256927163,0.006978945570661,0.004387182718974
4.476,0.002802934980742,-0.013837351859095,-0.006068818696596,0.007004572789419,0.004348669769208
4.48,0.002805867926979,-0.013830187777303,-0.006072064169891,0.006997360626542,0.004369416757753
4.484,0.002816085157722,-0.013832591831596,-0.006076054900017,0.006981037097896,0.004423628182049
4.488,0.002818128603871,-0.013834274669601,-0.006063313412267,0.006964112555676,0.00440473231531
4.492,0.002828514118415,-0.013830019493503,-0.006090190739257,0.006961299812154,0.004379946515554
4.496,0.002831398983566,-0.013837520142895,-0.006142118311976,0.006986157733539,0.004442764454217
4.5,0.002821374077166,-0.013832808196482,-0.006144570447354,0.007012674452385,0.00442413303345
4.504,0.002813152211486,-0.013834274669601,-0.006170991004029,0.007020102980149,0.004400717544641
4.508,0.002798174953243,-0.013836702764436,-0.006127429540248,0.007010967573838,0.004368262811692
4.512,0.002792982195971,-0.013834298710144,-0.006067183939678,0.00699587011288,0.00438525947554
4.516,0.002792357141855,-0.013831702331508,-0.006061991182406,0.006987311679599,0.004458222523318
4.52,0.002801131940023,-0.013832736074853,-0.006071102548174,0.006980051435636,0.004434662791252
4.524,0.002792212898598,-0.013837279737466,-0.006077112683906,0.006986686625483,0.004388120300148
4.528,0.002791852290454,-0.013834827602088,-0.006079660981456,0.006990485031265,0.004416271775914
4.532,0.00280151658871,-0.013836173872492,-0.006059178438883,0.006987359760685,0.004434037737136
4.536,0.002801877196854,-0.013840885818905,-0.006047158167421,0.006983320949474,0.004417401681431
4.54,0.002797958588357,-0.013835596899461,-0.006045379167244,0.006974185543162,0.004408650923807
4.544,0.002794376547461,-0.013837736507782,-0.006051485465147,0.006958030298316,0.004394899733253
4.548,0.002792765831085,-0.013831918696394,-0.006062399871635,0.00695995354175,0.004432282777502
4.552,0.002809498048961,-0.013831077277392,-0.006061822898605,0.006975916462253,0.004457092617801
4.556,0.002816037076637,-0.013831510007164,-0.006057639844136,0.007000750343094,0.004437307250973
4.56,0.002824739753176,-0.013834587196659,-0.006051148897546,0.00700844331683,0.004443004859647
4.564,0.002829163213074,-0.013838409642984,-0.006070814061659,0.006995196977679,0.004501639743841
4.568,0.002822503982684,-0.013832351426167,-0.006117861404164,0.006976854043427,0.00445577038794
4.572,0.002816686171296,-0.013829033831243,-0.006107644173421,0.006964232758391,0.004437667859117
4.576,0.002810075021991,-0.013836582561721,-0.006116034322902,0.006958607271346,0.004452861482246
4.58,0.002814690806233,-0.013839683791759,-0.006117212309505,0.006979089813919,0.004504716933336
4.584,0.002803079224,-0.013833817899285,-0.006093941063953,0.007007193208598,0.004527194840971
4.588,0.002806565102724,-0.013833914061457,-0.006054394370841,0.006997913559029,0.00447344018699
4.592,0.002817527590298,-0.013834947804802,-0.006061798858062,0.006956443622483,0.004458390807119
4.596,0.002817046779439,-0.013838722170042,-0.006077112683906,0.006943918499619,0.004506592095684
4.6,0.002801997399568,-0.013837880751039,-0.006050956573203,0.006973272002531,0.004514188907248
4.604,0.002794977561034,-0.013835380534575,-0.006027613206023,0.007021232885667,0.004496807594713
4.608,0.002781250411024,-0.013842712900167,-0.006027805530366,0.007037219846712,0.004488104918175
4.612,0.002785625789836,-0.013838601967327,-0.006035498504102,0.007018059534001,0.004474233524907
4.616,0.00281072411665,-0.013829466561016,-0.006048600599996,0.007007818262714,0.004508827866176
4.62,0.002829018969816,-0.013833745777656,-0.006059755411914,0.007009356857462,0.00448757602623
4.624,0.002827480375069,-0.013839683791759,-0.006055932965589,0.007006471992311,0.004456659888028
4.628,0.002828033307556,-0.013840477129675,-0.006050860411031,0.006995317180393,0.0045172420562
4.632,0.002815267779263,-0.013841871481165,-0.006057279235992,0.006986806828198,0.004546018586082
4.636,0.002800314561563,-0.013841150264877,-0.006070790021116,0.006990557152894,0.00450803452826
4.64,0.002804786102548,-0.013843337954283,-0.006066438682847,0.006991518774611,0.004492167769929
4.644,0.002825797537064,-0.013839154899814,-0.006071102548174,0.006999452153776,0.004503250460217
4.648,0.002826230266837,-0.013837207615837,-0.006094445915355,0.007000990748524,0.004541138355868
4.652,0.00281738334704,-0.013836798926608,-0.00611807776905,0.006993345855873,0.004543446247989
4.656,0.002809906738191,-0.013838938534928,-0.006146036920472,0.006978560921974,0.004470627443468
4.66,0.00280464185929,-0.01383764034561,-0.006124712958898,0.006965795393681,0.004469761983923
4.664,0.002807166116297,-0.01383821731864,-0.006054202046498,0.006964040434047,0.004517530542715
4.668,0.002810676035564,-0.013843337954283,-0.006037902558395,0.006959929501207,0.004522675218901
4.672,0.002807478643355,-0.013842039764965,-0.006040835504631,0.006969738042721,0.00452176167827
4.676,0.00279519392592,-0.013833673656027,-0.006058962073997,0.006985580760508,0.004529695057435
4.68,0.002783269816629,-0.013834298710144,-0.006078482994852,0.007006952803169,0.00454592242391
4.684,0.002784399722147,-0.013842087846051,-0.006076030859474,0.00704599464488,0.004554024086876
4.688,0.002804377413318,-0.013845213116632,-0.006038407409796,0.007076670377652,0.004526978476085
4.692,0.002835365673149,-0.013840789656733,-0.006016891123878,0.007091214906122,0.00451839600226
4.696,0.002877244298924,-0.013832471628881,-0.006020545286403,0.007077030985796,0.004567823358515
4.7,0.00283373091623,-0.013834635277744,-0.006027853611452,0.007064169295331,0.004569458115434
4.704,0.002783101532829,-0.013829250196129,-0.006033358895782,0.007036186103366,0.004535945598596
4.708,0.002817335265955,-0.013829105952872,-0.006036916896135,0.007005750776023,0.004555346316737
4.712,0.002820364374363,-0.013832183142366,-0.006024439854356,0.006996903856226,0.004605182362221
4.716,0.002822648225941,-0.013833769818199,-0.006004630446986,0.006989523409548,0.004650474745092
4.72,0.00281976336079,-0.013833505372227,-0.006028863314255,0.006984450854991,0.004629030580802
4.724,0.002823898334173,-0.013829202115043,-0.006079252292226,0.0069874799634,0.004557630168314
4.728,0.002827792902127,-0.013826221087721,-0.006092739036807,0.00698469126042,0.004594532401705
4.732,0.002822600144855,-0.013826990385094,-0.006111971471147,0.00698115730061,0.004656917610596
4.736,0.0028282256319,-0.013824874817317,-0.006157167691847,0.006995028693878,0.004654850123904
4.74,0.002824475307203,-0.013826485533693,-0.006131708756889,0.006995148896593,0.004642805811899
4.744,0.002817695874098,-0.013834875683174,-0.006045643613217,0.006992528477414,0.004633021310928
4.748,0.002819859522962,-0.013833890020914,-0.006018598002426,0.006985965409195,0.004629198864603
4.752,0.002816133238808,-0.013834202547972,-0.006032661720037,0.00698296034133,0.004651748893867
4.756,0.002812166549226,-0.013833457291141,-0.006048239991852,0.006981229422239,0.004617971931057
4.76,0.002813560900715,-0.013829779088074,-0.006053264465324,0.006977070408313,0.004609413497775
4.764,0.002838058213956,-0.013823216019855,-0.006056221452104,0.00697137279964,0.004658912975659
4.768,0.002852626782969,-0.013824610371345,-0.006059755411914,0.006967694596572,0.004634151216446
4.772,0.002865560595063,-0.013830019493503,-0.006052278803064,0.006963944271876,0.004587127914484
4.776,0.002834115564916,-0.013831053236849,-0.006055524276359,0.006965530947709,0.004587704887514
4.78,0.002809690373304,-0.013827567358124,-0.006063698060953,0.006973416245788,0.004621457809781
4.784,0.002814979292748,-0.013828769385271,-0.006079108048968,0.006988345422945,0.004642541365926
4.788,0.002820364374363,-0.013830644547619,-0.006116322809417,0.006983272868388,0.004635016675991
4.792,0.002835846484007,-0.013829057871786,-0.006116226647245,0.006970771786067,0.004571693885926
4.796,0.00285567993192,-0.013825523911976,-0.006066005953074,0.006958487068632,0.004624198431674
4.8,0.002860271675619,-0.013823817033428,-0.006047614937736,0.006934903296022,0.004658696610772
4.804,0.002835197389348,-0.013826701898579,-0.006052182640892,0.006947668824315,0.004652109502011
4.808,0.002809954819277,-0.013829562723187,-0.006061606533719,0.006985244192908,0.004659273583802
4.812,0.002811445332938,-0.013824418047001,-0.006072641142922,0.007009284735833,0.004674635490732
4.816,0.00281918638776,-0.01382136489805,-0.006043768450868,0.007004476627248,0.004644248244474
4.82,0.002819162347217,-0.013831846574765,-0.006032036665921,0.006982888219701,0.004659441867603
4.824,0.002828057348099,-0.013838409642984,-0.006042446221007,0.006976349192025,0.004648455339486
4.828,0.002847121498639,-0.013831894655851,-0.006092330347577,0.006980508205951,0.004666798273738
4.832,0.002815484144149,-0.013825307547089,-0.006114519768697,0.006971420880725,0.00472656306345
4.836,0.002797261412612,-0.013824682492973,-0.006066919493705,0.006967622474943,0.004662398854383
4.84,0.00282978826719,-0.013827062506723,-0.006040450855945,0.006965819434224,0.004644632893161
4.844,0.002832552929626,-0.013831053236849,-0.006038551653054,0.006965362663908,0.004672952652727
4.848,0.002834524254146,-0.013828408777127,-0.006041436518205,0.006958775555147,0.004690983059921
4.852,0.002827576537241,-0.013828096250069,-0.006045331086158,0.006946586999884,0.004678746423572
4.856,0.002833875159487,-0.01382662977695,-0.006049297775741,0.006952164405842,0.004665548165506
4.86,0.002849477471846,-0.013825908560663,-0.006058625506396,0.006958511109175,0.004627227540083
4.864,0.002859983189104,-0.013822735208996,-0.006085550914472,0.006951347027383,0.004674034477159
4.868,0.002857290648296,-0.013821893789994,-0.006094638239698,0.006942379904872,0.00470848457517
4.872,0.002837673565269,-0.013820355195247,-0.006083483427781,0.006940865350667,0.004684684437674
4.876,0.002825100361319,-0.013819994587103,-0.006061438249918,0.006945937905225,0.004699661695917
4.88,0.002829619983389,-0.013819105087015,-0.006096008550645,0.00696077092021,0.004709374075259
4.884,0.00283373091623,-0.013819850343845,-0.006115216944442,0.006940769188496,0.004705647791105
4.888,0.002836183051608,-0.013821605303479,-0.006060452587658,0.006932306917386,0.004694709344074
4.892,0.002835413754234,-0.013815186478518,-0.006044105018469,0.006965771353138,0.004681006234607
4.896,0.002835029105548,-0.013819008924843,-0.006062159466206,0.006993778585646,0.004728967117743
4.9,0.002845102093033,-0.013820331154704,-0.006060476628201,0.006999668518663,0.004782986217696
4.904,0.002821470239338,-0.013822254398138,-0.006046917761992,0.006988585828374,0.004753175944469
4.908,0.002782716884142,-0.013812926667483,-0.006037614071879,0.006973584529589,0.004711297318693
4.912,0.002795626655693,-0.013811436153822,-0.006036844774506,0.006965170339565,0.004717908467997
4.916,0.002846833012124,-0.013815474965033,-0.006040042166715,0.006960722839124,0.004735241699446
4.92,0.002853227796542,-0.013821845708908,-0.006048456356739,0.006953895324933,0.004692930343898
4.924,0.002837817808527,-0.01381956185733,-0.006056221452104,0.006948918932547,0.004705263142418
