time,channel1,channel2,channel3,channel4,channel5
0,-0.021477845089974,-0.01129458363389,0.00559300827102,0.000664071917225,0.00355045162246
0.004,-0.021477989333231,-0.01129475191769,0.005594258379252,0.00066493737677,0.003549369798029
0.008,-0.021477268116943,-0.011292948876971,0.005598225068834,0.0006604177547,0.003549850608887
0.012,-0.021475152549166,-0.011295256769092,0.005595051717168,0.000660658160129,0.003547855243825
0.016,-0.021474335170706,-0.011290881390279,0.0055910369465,0.00066337474148,0.00354732635188
0.02,-0.021474359211249,-0.01129770890447,0.00558807995972,0.000663807471252,0.003547470595138
0.024,-0.021476883468256,-0.011299656188447,0.005599162650009,0.000665874957944,0.003548239892511
0.028,-0.021481282887612,-0.011298502242387,0.005602961055791,0.000668567498752,0.0035491293926
0.032,-0.02148315804996,-0.011296843444925,0.005591950487131,0.00067142832336,0.003550018892688
0.036,-0.021482773401273,-0.011295833742122,0.005582598715933,0.000670586904357,0.003549850608887
0.04,-0.021482100266071,-0.011296410715152,0.005593080392648,0.000671764890961,0.003551293041463
0.044,-0.021481835820099,-0.011295497174521,0.005597023041688,0.000670250336756,0.003549658284544
0.048,-0.021482052184985,-0.011296266471895,0.00558709429746,0.000660537957415,0.003551124757662
0.052,-0.021481379049784,-0.0112981175937,0.005586325000086,0.000639670766155,0.003549081311514
0.056,-0.021480970360554,-0.011300281242563,0.005588296324606,0.000620871061588,0.00354831201414
0.06,-0.021481210765983,-0.011299223458674,0.005586757729859,0.000599667302728,0.00354617240582
0.064,-0.021480441468609,-0.011298790728902,0.00558692601366,0.000584545801228,0.003544080878585
0.068,-0.021482557036387,-0.01129597798538,0.005592094730388,0.00058168497662,0.003545523311161
0.072,-0.021485489982624,-0.011294150904117,0.005591974527674,0.00059401777514,0.003545403108446
0.076,-0.021487533428772,-0.011295425052892,0.005594234338709,0.00061308192568,0.003544056838042
0.08,-0.021489889401979,-0.011300353364192,0.005591541797901,0.000634453968341,0.003545691594961
0.084,-0.021488951820805,-0.011298261836957,0.005588801176008,0.000658326227465,0.003546533013964
0.088,-0.021485225536652,-0.011298814769445,0.005591373514101,0.00067339964788,0.003545451189532
0.092,-0.021483662901361,-0.011297949309899,0.00559300827102,0.000677318256376,0.003544177040757
0.096,-0.021485201496109,-0.011298382039672,0.005595845055085,0.000677775026692,0.00354535502736
0.1,-0.021485898671853,-0.011301555391338,0.005594090095451,0.000674697837198,0.003544850175959
0.104,-0.021484191793306,-0.011301627512967,0.005590243608583,0.000669216593411,0.003544657851615
0.108,-0.02148472068525,-0.011303334391515,0.005589618554467,0.000672510147791,0.003547254230251
0.112,-0.021486163117826,-0.011304151769974,0.005593849690022,0.000673856418195,0.003549465960201
0.116,-0.021489168185691,-0.011303286310429,0.005594715149567,0.00067101963413,0.003551293041463
0.12,-0.021479816414493,-0.011299199418132,0.005587406824518,0.000668519417666,0.003550307379203
0.124,-0.02147666710337,-0.011300161039849,0.005584906608054,0.000669312755582,0.003552182541551
0.128,-0.021474431332878,-0.011294824039319,0.005591734122245,0.000671524485531,0.00355381729847
0.132,-0.021475176589709,-0.011300209120934,0.005592671703419,0.000670995593587,0.003553913460642
0.136,-0.021475537197853,-0.011303719040201,0.005593609284593,0.000673231364079,0.003553360528154
0.14,-0.021475561238396,-0.011302829540113,0.005589330067952,0.000674505512854,0.003551389203635
0.144,-0.021474888103194,-0.011302276607626,0.005588729054379,0.000676092188687,0.003550187176488
0.148,-0.021474407292335,-0.011305401878206,0.00558512297294,0.00067693360769,0.003553120122725
0.152,-0.021475032346451,-0.011308118459557,0.005579665769696,0.000676092188687,0.003552446987523
0.156,-0.021477003670971,-0.01130987341919,0.005575266350341,0.000672918837021,0.003550667987347
0.16,-0.021477171954772,-0.011309993621905,0.005577838688434,0.00067258226942,0.00355086031169
0.164,-0.021475032346451,-0.011306892391868,0.005584257513395,0.000671380242274,0.003548816865542
0.168,-0.021475152549166,-0.011301795796767,0.005584738324253,0.000676404715745,0.003547999487082
0.172,-0.021476715184456,-0.011303646918573,0.005587527027233,0.000675226729142,0.003549033230428
0.176,-0.021477123873686,-0.011306555824267,0.005590676338356,0.000673640053309,0.003544345324557
0.18,-0.021473734157133,-0.011306411581009,0.005591998568217,0.000672846715392,0.00354304713524
0.184,-0.02147173879207,-0.011306964513496,0.00559497959554,0.000673327526251,0.003547037865365
0.188,-0.021473085062474,-0.0113081425001,0.005595412325312,0.000674120864167,0.003548840906084
0.192,-0.021472243643472,-0.011309849378647,0.005591830284416,0.000672269742362,0.003548119689797
0.196,-0.021468829886377,-0.011308022297385,0.005588416527321,0.000670755188158,0.003550740108976
0.2,-0.021467219170001,-0.011308070378471,0.00559045997347,0.000671957215304,0.00355028333866
0.204,-0.021467098967286,-0.011310570594935,0.005592815946676,0.000672558228877,0.003548095649254
0.208,-0.021464742994079,-0.01131283040597,0.005594763230653,0.000670106093499,0.003547085946451
0.212,-0.02146334864259,-0.01131225343294,0.005593945852194,0.000671716809875,0.003550523744089
0.216,-0.02146467087245,-0.011315042135919,0.005591854324959,0.000673856418195,0.003551413244177
0.22,-0.021464310264307,-0.011313840108773,0.005588945419265,0.000676500877917,0.00355340860924
0.224,-0.021464526629193,-0.011308503108244,0.005591421595187,0.000673760256023,0.003554105784985
0.228,-0.021462387020873,-0.011307805932499,0.005590604216727,0.000672678431592,0.003552374865895
0.232,-0.021460872466668,-0.011311412013938,0.005591301392472,0.00067472187774,0.003549682325087
0.236,-0.021461184993726,-0.011313407379,0.005587575108319,0.000677847148321,0.003548696662827
0.24,-0.02146253126413,-0.011313527581715,0.00559276786559,0.000677799067235,0.003548023527625
0.244,-0.021461737926214,-0.011312013027511,0.005595099798254,0.000675419053485,0.003547975446539
0.248,-0.021460872466668,-0.011308839675845,0.00559572485237,0.000677871188864,0.003547254230251
0.252,-0.021462459142501,-0.011309969581362,0.005590820581613,0.000679169378182,0.003547350392423
0.256,-0.021462387020873,-0.011306724108067,0.005584594080996,0.000675226729142,0.003545571392247
0.26,-0.021460848426125,-0.01131225343294,0.00558142072933,0.000674649756112,0.003546028162562
0.264,-0.021460079128752,-0.011314729608861,0.005588705013836,0.000675611377829,0.00354674937885
0.268,-0.021460199331466,-0.011313166973571,0.005595099798254,0.000676356634659,0.003547278270794
0.272,-0.021461810047842,-0.011313070811399,0.005591012905957,0.000674769958826,0.003546100284191
0.276,-0.021462483183044,-0.011314296879089,0.005578848391237,0.000674217026339,0.003546244527449
0.28,-0.021461112872098,-0.011315595068407,0.005581637094216,0.000677077850947,0.003547350392423
0.284,-0.021458877101605,-0.011312854446513,0.005581829418559,0.000676044107601,0.003549538081829
0.288,-0.021459886804408,-0.011312181311311,0.005586853892031,0.000672678431592,0.003553096082182
0.292,-0.021462507223587,-0.011311460095023,0.005591277351929,0.000669120431239,0.003551485365806
0.296,-0.021462194696529,-0.011311075446337,0.005586397121715,0.000667004863461,0.00354872070337
0.3,-0.021461521561327,-0.011311892824796,0.005587310662346,0.000668086687893,0.003548360095226
0.304,-0.021459886804408,-0.011313695865515,0.005588392486778,0.000670130134042,0.003546653216678
0.308,-0.021456232641884,-0.011314609406147,0.00558495468914,0.000671139836845,0.003544513608358
0.312,-0.021456617290571,-0.01131521041972,0.005587190459632,0.000671548526074,0.003543551986641
0.316,-0.021460439736896,-0.011316749014467,0.005588608851664,0.000669889728612,0.003545114621931
0.32,-0.021462338939787,-0.01131891266333,0.005591133108671,0.000667125066176,0.003547206149166
0.324,-0.021462170655986,-0.011318984784959,0.00559810486612,0.000665682633601,0.003545859878762
0.328,-0.021463156318246,-0.011319561757989,0.00559375352785,0.000665754755229,0.003545330986817
0.332,-0.021464166021049,-0.011320186812105,0.005589257946323,0.00066650001206,0.00354691766265
0.336,-0.021463661169648,-0.011318984784959,0.00558553166217,0.000666259606631,0.003548408176312
0.34,-0.021464021777791,-0.011316556690124,0.005579257080466,0.000667461633777,0.003547374432966
0.344,-0.021464190061592,-0.011316989419896,0.005586637527144,0.000667750120292,0.003547614838395
0.348,-0.021461401358613,-0.011320427217535,0.005585627824342,0.000666620214775,0.003546220486906
0.352,-0.021457891439346,-0.011321196514908,0.005588801176008,0.000669192552868,0.003547134027537
0.356,-0.021454117074106,-0.011319080947131,0.005588296324606,0.00067101963413,0.003544970378674
0.36,-0.021451737060357,-0.01131973004179,0.005586084594657,0.000669889728612,0.003544754013787
0.364,-0.021451376452213,-0.011321917731196,0.005585820148685,0.000669745485355,0.00354691766265
0.368,-0.021449837857466,-0.011321797528481,0.005583079526792,0.00066510566057,0.003546773419393
0.372,-0.021446520262542,-0.01131948963636,0.005585363378369,0.000670538823271,0.003544946338131
0.376,-0.021445462478653,-0.011318552055186,0.005583199729506,0.00067414490471,0.003546148365277
0.38,-0.021447698249145,-0.011318600136272,0.005571852593245,0.000674265107425,0.003543600067727
0.384,-0.02144978977638,-0.011322110055539,0.005573222904192,0.00067142832336,0.00354222975678
0.388,-0.021452794844245,-0.011322783190741,0.005581877499645,0.000668591539295,0.00353968145923
0.392,-0.021455847993197,-0.011318936703873,0.005583319932221,0.000670827309787,0.003540426716061
0.396,-0.021457170223058,-0.01132384097463,0.005586325000086,0.000672726512678,0.003543287540669
0.4,-0.02145604031754,-0.011322927433999,0.005591493716815,0.000669384877211,0.003541676824293
0.404,-0.021455319101253,-0.011322951474542,0.005589281986866,0.000668134768979,0.003537349526566
0.408,-0.021455751831025,-0.011323816934087,0.005590387851841,0.00066806264735,0.003532012526037
0.412,-0.021454020911935,-0.011323384204314,0.005595508487484,0.000668230931151,0.00353162787735
0.416,-0.021452001506329,-0.011324129461145,0.005595628690199,0.000670322458385,0.00353220485038
0.42,-0.021451063925155,-0.011326990285753,0.005590123405869,0.00067003397187,0.003533262634269
0.424,-0.021451280290041,-0.011325451691006,0.005586204797372,0.000672389945077,0.003533551120784
0.428,-0.021451881303614,-0.011325740177521,0.005598128906663,0.000672606309963,0.003531651917893
0.432,-0.021450559073753,-0.011326028664036,0.005593224635906,0.000673784296566,0.0035292478636
0.436,-0.021452530398273,-0.011323600569201,0.005567885903663,0.000673471769508,0.00352768522831
0.44,-0.021457170223058,-0.011323961177345,0.005569544701125,0.000672918837021,0.003528382404055
0.444,-0.021455799912111,-0.011323865015173,0.005580963959014,0.000671163877388,0.003531675958436
0.448,-0.021451640898185,-0.011325547853178,0.005585195094569,0.000668807904181,0.003531651917893
0.452,-0.021450462911582,-0.011327086447925,0.00558315164842,0.000671668728789,0.003531267269206
0.456,-0.021449164722264,-0.011327230691182,0.005584642162082,0.000671404282817,0.003532252931466
0.46,-0.021447265519373,-0.011328552921043,0.005586901973117,0.00067020225567,0.003531267269206
0.464,-0.021447265519373,-0.011328649083215,0.005588320365149,0.000671043674673,0.00353319051264
0.468,-0.021450823519726,-0.011328552921043,0.005588512689493,0.000670418620557,0.003533310715355
0.472,-0.02145587203374,-0.011327302812811,0.005589209865237,0.000670298417842,0.003532709701782
0.476,-0.02145604031754,-0.011331197380765,0.005590243608583,0.000670779228701,0.003531892323322
0.48,-0.02145291504696,-0.011330139596876,0.005592695743962,0.000673495810051,0.003528141998626
0.484,-0.021451328371127,-0.011327471096612,0.00559375352785,0.000669697404269,0.003528286241883
0.488,-0.021456016276997,-0.011327927866927,0.005592070689846,0.00067217358019,0.003527132295823
0.492,-0.021461761966757,-0.011329057772445,0.005592431297989,0.000670683066529,0.003527300579623
0.496,-0.021462747629016,-0.011328096150728,0.005592094730388,0.000667629917577,0.003530209485317
0.5,-0.021461401358613,-0.011327230691182,0.005591373514101,0.000667389512148,0.003526819768765
0.504,-0.021459598317893,-0.011330740610449,0.005594691109024,0.000667990525721,0.003526964012023
0.508,-0.021458131844775,-0.01133288021877,0.005590580176184,0.000670731147615,0.003530113323146
0.512,-0.021457410628487,-0.01132992323199,0.005578511823636,0.000673688134395,0.003529271904143
0.516,-0.021458252047489,-0.011329730907647,0.005576516458573,0.000675322891314,0.003528839174371
0.52,-0.021459526196264,-0.011332279205197,0.005583175688963,0.00067397662091,0.00352669956605
0.524,-0.021460415696353,-0.011329394340046,0.005588007838091,0.000674241066882,0.003528238160798
0.528,-0.021462603385759,-0.011329562623846,0.005591493716815,0.000673111161364,0.003528959377085
0.532,-0.021463060156074,-0.011336702665095,0.005593128473734,0.000672750553221,0.003528791093285
0.536,-0.021461016709926,-0.011335741043378,0.005592311095275,0.000676572999546,0.003528166039169
0.54,-0.021459165588121,-0.011332495570083,0.005594474744138,0.000672221661276,0.003530906661062
0.544,-0.021456328804055,-0.011331005056422,0.005587983797548,0.000671788931504,0.00353105090432
0.548,-0.021455391222881,-0.011332760016055,0.005584089229594,0.000672894796478,0.003529560390658
0.552,-0.021453828587591,-0.011335284273062,0.005587767432662,0.000672630350506,0.003529416147401
0.556,-0.021452818884788,-0.011332207083568,0.005591060987043,0.000672822674849,0.003529536350116
0.56,-0.021455150817452,-0.011330043434705,0.00558709429746,0.000674481472311,0.003529560390658
0.564,-0.021456497087856,-0.011332038799767,0.005588104000263,0.000673952580367,0.003531411512464
0.568,-0.021456809614914,-0.01133461113786,0.005587551067776,0.000672197620733,0.003531748080065
0.572,-0.021457170223058,-0.011336221854236,0.005587478946147,0.000674890161541,0.003529945039345
0.576,-0.021456809614914,-0.011336366097494,0.005590940784328,0.000671957215304,0.003527853512111
0.58,-0.021455487385053,-0.011337303678668,0.005592287054732,0.000672101458562,0.003527468863424
0.584,-0.021454597884965,-0.011335909327178,0.005590964824871,0.000675803702172,0.00352809391754
0.588,-0.021454790209308,-0.011336197813694,0.005588705013836,0.00067710189149,0.003525689863247
0.592,-0.02145529506071,-0.011335332354148,0.005580771634671,0.000673688134395,0.003527012093108
0.596,-0.021457218304144,-0.01133461113786,0.005582141945617,0.000673087120822,0.003528406444598
0.6,-0.021460151250381,-0.011335115989262,0.00558199770236,0.000671572566617,0.003532974147754
0.604,-0.02146236298033,-0.011333649516143,0.005585651864885,0.000672486107248,0.003531868282779
0.608,-0.021462459142501,-0.01133033192122,0.005585435499998,0.00067356793168,0.003532445255809
0.612,-0.021463324602047,-0.011328985650816,0.00558553166217,0.000671380242274,0.003533575161327
0.616,-0.021465752696882,-0.011329009691359,0.005588536730036,0.000673471769508,0.00353499355336
0.62,-0.02146392561562,-0.011332832137684,0.005591060987043,0.00067356793168,0.003531483634092
0.624,-0.021459165588121,-0.01133461113786,0.005589498351753,0.000672870755935,0.003528526647313
0.628,-0.021458540534005,-0.011337736408441,0.005587214500175,0.000671572566617,0.003530089282603
0.632,-0.021459910844951,-0.01133797681387,0.005581036080643,0.000671115796302,0.00353145959355
0.636,-0.021458925182691,-0.011336438219123,0.005578319499292,0.000672630350506,0.003531243228663
0.64,-0.021457626993373,-0.011337087313782,0.005583656499822,0.00067159660716,0.003530738377262
0.644,-0.021457651033916,-0.011337832570612,0.005584642162082,0.000673231364079,0.003531411512464
0.648,-0.021456232641884,-0.011339323084274,0.005569448538953,0.000673760256023,0.003531171107034
0.652,-0.021454237276821,-0.01134167905748,0.005571251579672,0.000674168945253,0.003531675958436
0.656,-0.021455006574195,-0.011339779854589,0.005581036080643,0.000673135201907,0.003532373134181
0.66,-0.02146137731807,-0.011336269935322,0.00558692601366,0.000672053377476,0.003533310715355
0.664,-0.021463228439875,-0.011341630976395,0.00558865693275,0.000673207323536,0.003534512742501
0.668,-0.021460007007123,-0.011341318449337,0.005581036080643,0.000674120864167,0.003534969512817
0.672,-0.021458612655633,-0.011340957841193,0.005583848824165,0.000672077418019,0.003531892323322
0.676,-0.02145842033129,-0.01134011642219,0.005585147013483,0.000668110728436,0.003532060607123
0.68,-0.021459165588121,-0.011341294408794,0.005580170621098,0.000666115363373,0.00353376748567
0.684,-0.021459646398979,-0.011341174206079,0.005581925580731,0.000668663660923,0.003531147066492
0.688,-0.021459766601694,-0.011336342056951,0.00558750298669,0.000668928106895,0.003529512309573
0.692,-0.021459526196264,-0.011335692962292,0.005593609284593,0.000667966485178,0.003532180809837
0.696,-0.021458973263777,-0.011335236191976,0.005599715582496,0.000666548093146,0.003530089282603
0.7,-0.021458756898891,-0.011333889921573,0.005595941217257,0.000664071917225,0.003527444822881
0.704,-0.02145801164206,-0.011335500637949,0.005591373514101,0.000666524052603,0.003526362998449
0.708,-0.021456304763512,-0.011337760448984,0.005592479379075,0.00066592303903,0.003529464228487
0.712,-0.021457074060886,-0.011341318449337,0.005593152514277,0.000669985890784,0.003533406877526
0.716,-0.021459189628664,-0.011341270368251,0.005594955554997,0.000668303052779,0.003532589499067
0.72,-0.021462747629016,-0.011357906423955,0.005587262581261,0.000665418187628,0.003533551120784
0.724,-0.021465416129281,-0.011356728437352,0.005584353675567,0.000667028904004,0.003534031931643
0.728,-0.021464141980506,-0.01135605530215,0.005587286621803,0.000667317390519,0.003532180809837
0.732,-0.021462963993903,-0.011359252694359,0.005591349473558,0.000671909134218,0.003531555755721
0.736,-0.021463036115532,-0.011357016923867,0.005594330500881,0.000671524485531,0.003530570093461
0.74,-0.021462483183044,-0.01136016623499,0.005587959757005,0.000666788498575,0.003530401809661
0.744,-0.021459550236807,-0.011360214316076,0.005581781337474,0.000672870755935,0.003529368066315
0.748,-0.021456713452742,-0.011359661383589,0.005584473878281,0.000677125932033,0.003526194714649
0.752,-0.021456665371656,-0.011356343788665,0.005581324567158,0.000670923471958,0.00352496864696
0.756,-0.021458901142148,-0.011356247626493,0.005581757296931,0.000669577201554,0.00352571390379
0.76,-0.021461401358613,-0.011358531478071,0.005579882134582,0.000671524485531,0.003529464228487
0.764,-0.021464262183221,-0.011361079775621,0.005579160918295,0.000672101458562,0.003529872917716
0.768,-0.021464622791365,-0.0113587718835,0.005584041148509,0.000674241066882,0.003531363431378
0.772,-0.021464117939963,-0.011356656315723,0.005590892703242,0.000674241066882,0.003530305647489
0.776,-0.021461978331643,-0.011358627640243,0.005586781770402,0.00067299095865,0.003529416147401
0.78,-0.021459838723322,-0.011358146829384,0.005578583945265,0.000671284080102,0.003530786458348
0.784,-0.021458179925861,-0.01136213755951,0.005579834053497,0.000669913769155,0.003529560390658
0.788,-0.021457266385229,-0.011363411708285,0.005586300959544,0.000671452363903,0.003532325053095
0.792,-0.021457867398803,-0.0113637001948,0.005585820148685,0.000672269742362,0.003532661620696
0.796,-0.021458853061063,-0.011364733938146,0.005579064756123,0.000670322458385,0.003533695364042
0.8,-0.021459213669206,-0.011366272532893,0.00557747808029,0.000674457431768,0.003531531715178
0.804,-0.021459694480065,-0.011363075140684,0.00557747808029,0.000672077418019,0.00353121918812
0.808,-0.021460848426125,-0.011361007653992,0.005579377283181,0.000669216593411,0.003529344025772
0.812,-0.021460920547754,-0.011363387667742,0.00558158901313,0.000666716376946,0.003526170674106
0.816,-0.021461569642413,-0.011363051100141,0.005583512256564,0.000668158809522,0.003524752282073
0.82,-0.021463084196617,-0.011362113518967,0.005585195094569,0.000669432958297,0.003526627444422
0.824,-0.021463324602047,-0.011355670653463,0.005584497918824,0.000670947512501,0.003526507241707
0.828,-0.021463060156074,-0.011356776518438,0.005585002770226,0.000671716809875,0.003530425850204
0.832,-0.021462266818158,-0.011362089478424,0.005584882567511,0.000674481472311,0.003531339390835
0.836,-0.021461497520784,-0.01136485414086,0.005583295891678,0.000675635418372,0.003529344025772
0.84,-0.021466257548284,-0.01136608020855,0.00557509806654,0.000678568364608,0.003530570093461
0.844,-0.021467507656516,-0.011362185640596,0.005573823917765,0.000680299283699,0.003534200215443
0.848,-0.021468349075518,-0.011361368262136,0.005580411026527,0.000678736648409,0.003536628310278
0.852,-0.021468108670089,-0.011364950303032,0.00558216598616,0.000671524485531,0.003535282039875
0.856,-0.021469791508094,-0.011366801424837,0.005579521526439,0.000651763159247,0.003533142431554
0.86,-0.021468397156604,-0.011367690924926,0.005578295458749,0.000628756359667,0.003531603836807
0.864,-0.021465055521137,-0.011367787087097,0.005583271851135,0.000609259479355,0.003530690296176
0.868,-0.021464887237337,-0.011367017789724,0.005587575108319,0.000594186058941,0.003530497971833
0.872,-0.021465127642766,-0.011364806059775,0.005594066054908,0.000591108869446,0.003529824836631
0.876,-0.021463589048019,-0.011370383465733,0.005586709648773,0.000602912776023,0.003528334322969
0.88,-0.021462338939787,-0.011370864276592,0.005573775836679,0.00061875549381,0.003528646850027
0.884,-0.021461810047842,-0.011370383465733,0.005573920079937,0.000633179819566,0.00353006524206
0.888,-0.021461689845128,-0.011369830533246,0.005568631160493,0.000656210659688,0.003529776755545
0.892,-0.021462411061415,-0.011368508303385,0.005578680107436,0.00067611622923,0.003528791093285
0.896,-0.021464214102135,-0.011368123654698,0.005590916743785,0.000682078283876,0.003531651917893
0.9,-0.021465392088738,-0.011368652546643,0.005591325433015,0.00068260717582,0.003530714336719
0.904,-0.021463132277703,-0.011366344654522,0.005584570040453,0.000682655256906,0.003529969079888
0.908,-0.021461761966757,-0.011365695559863,0.005574593215139,0.000676404715745,0.003531820201693
0.912,-0.02146253126413,-0.011366536978865,0.005572934417677,0.000674649756112,0.003531339390835
0.916,-0.021463444804761,-0.011364974343575,0.005574040282652,0.000675154607513,0.003529368066315
0.92,-0.021462098534357,-0.011369830533246,0.005576011607171,0.000671861053132,0.003528815133828
0.924,-0.021459958926037,-0.011370720033334,0.005575699080113,0.000669841647527,0.003525160971303
0.928,-0.02145899730432,-0.011367618803297,0.005574497052967,0.000674433391225,0.003526098552477
0.932,-0.021459189628664,-0.011369013154786,0.005571924714874,0.000675611377829,0.003528069876997
0.936,-0.021459670439522,-0.011369662249445,0.005577934850606,0.000672486107248,0.003528863214914
0.94,-0.021460151250381,-0.011370143060304,0.005582646797019,0.000672726512678,0.003529223823057
0.944,-0.021460583980153,-0.011369493965645,0.005580963959014,0.00067159660716,0.003531147066492
0.948,-0.021459261750292,-0.011367546681668,0.005577189593775,0.000671764890961,0.00353162787735
0.952,-0.021457146182515,-0.011366633141037,0.005580723553585,0.000671788931504,0.00353359920187
0.956,-0.02145743466903,-0.0113687967899,0.00558413731068,0.000668303052779,0.00353319051264
0.96,-0.021460055088209,-0.011370239222476,0.005580963959014,0.000667942444636,0.00353458486413
0.964,-0.021459213669206,-0.01136961416836,0.005579401323724,0.000666379809345,0.003536387904849
0.968,-0.021456905777086,-0.011368123654698,0.005580242742726,0.000667990525721,0.003534055972185
0.972,-0.021455992236454,-0.01136706587081,0.005587334702889,0.000669601242097,0.003531339390835
0.976,-0.021456088398626,-0.011367450519496,0.005587214500175,0.000670418620557,0.003533382836984
0.98,-0.02145628072297,-0.011367907289812,0.005586781770402,0.00067142832336,0.003533430918069
0.984,-0.021457723155545,-0.01137019114139,0.00558651732443,0.000673447728965,0.003529969079888
0.988,-0.021458035682603,-0.011373580857942,0.005581228404986,0.000672197620733,0.003530690296176
0.992,-0.021458203966404,-0.011373388533599,0.005584401756652,0.000672438026163,0.003535955175077
0.996,-0.021458492452919,-0.011374927128346,0.005576227972058,0.000675154607513,0.003537734175253
1,-0.021460055088209,-0.011374229952601,0.005575386553055,0.000672029336933,0.003532998188297
1.004,-0.021461713885671,-0.011367979411441,0.005575218269255,0.000669889728612,0.003533358796441
1.008,-0.02146433430485,-0.011371609533422,0.005576516458573,0.000670226296213,0.00353557052639
1.012,-0.021465223804938,-0.011377066736666,0.005576540499116,0.000670466701643,0.003534608904673
1.016,-0.021463829453448,-0.011373845303914,0.005577958891148,0.000667702039206,0.003538984283485
1.02,-0.021464550669736,-0.01137528773649,0.005574064323195,0.000663062214422,0.003540474797147
1.024,-0.021465464210367,-0.011377595628611,0.005574376850253,0.000663831511795,0.003539753580859
1.028,-0.021465704615796,-0.011376129155492,0.005578151215492,0.000669144471782,0.003538046702311
1.032,-0.021467002805114,-0.011375672385177,0.005581492850958,0.000668904066353,0.003536748512993
1.036,-0.021466714318599,-0.011377619669154,0.005591301392472,0.000666692336403,0.003537036999508
1.04,-0.021465945021226,-0.011378268763813,0.005592214933103,0.000668735782552,0.003540907526919
1.044,-0.02146507956168,-0.01137742734481,0.005582238107789,0.000672822674849,0.003541965310808
1.048,-0.021464021777791,-0.011375215614861,0.005579737891325,0.00067315924245,0.003541171972891
1.052,-0.021465969061768,-0.011374590560745,0.005584690243168,0.000670779228701,0.003538840040228
1.056,-0.021468853926919,-0.011372643276768,0.005589738757182,0.000669913769155,0.003537613972538
1.06,-0.021468300994432,-0.011375720466263,0.005586493283887,0.000671260039559,0.003538431350998
1.064,-0.021469118372892,-0.011377379263724,0.005577670404633,0.00067003397187,0.003537926499596
1.068,-0.021470729089268,-0.011373869344457,0.005574256647538,0.000673279445165,0.003538359229369
1.072,-0.021470921413611,-0.011374590560745,0.005571251579672,0.000672798634306,0.00353771013471
1.076,-0.021471137778497,-0.011377331182639,0.005576348174772,0.00066962528264,0.003534873350645
1.08,-0.021471378183927,-0.011379615034217,0.005577502120833,0.000667942444636,0.003533911728928
1.084,-0.021471883035328,-0.01137783603404,0.00558019466164,0.000669553161012,0.003536916796794
1.088,-0.021472171521843,-0.011378076439469,0.005581108202272,0.000671957215304,0.00354124409452
1.092,-0.021472291724558,-0.011375744506806,0.005580218702183,0.000672317823448,0.003537734175253
1.096,-0.021472532129987,-0.011373869344457,0.005581036080643,0.000670346498928,0.003537686094167
1.1,-0.021473734157133,-0.011381706561451,0.005581036080643,0.000670634985443,0.003537662053624
1.104,-0.021475176589709,-0.011381706561451,0.005578439702007,0.000671284080102,0.003535618607476
1.108,-0.021476715184456,-0.01137997564236,0.005576179890972,0.000667173147262,0.003535546485847
1.112,-0.021477821049431,-0.011378965939558,0.005573823917765,0.000666788498575,0.003538190945569
1.116,-0.02147863842789,-0.011380023723446,0.005582286188875,0.000670707107072,0.003539032364571
1.12,-0.021478710549519,-0.011382860507511,0.005583199729506,0.000668303052779,0.003538479432084
1.124,-0.021479143279291,-0.011381971007423,0.00557666070183,0.00066748567432,0.003538190945569
1.128,-0.021479311563092,-0.011377090777209,0.005578031012777,0.000670346498928,0.003537109121137
1.132,-0.021477628725087,-0.011373965506629,0.00558315164842,0.000668519417666,0.0035391044862
1.136,-0.021476162251969,-0.011377235020467,0.00558396902688,0.000667677998663,0.00353852751317
1.14,-0.021477436400744,-0.011380480493762,0.00558495468914,0.000666740417489,0.003539753580859
1.144,-0.021480898238925,-0.011382788385883,0.005591830284416,0.000666115363373,0.00354165278375
1.148,-0.021482124306614,-0.01138432698063,0.005589041581437,0.000668206890608,0.00354222975678
1.152,-0.021479263482006,-0.011384639507688,0.005575554836856,0.000669120431239,0.003540907526919
1.156,-0.021476042049254,-0.011382884548054,0.005575001904369,0.000669072350153,0.003540715202576
1.16,-0.021475416995138,-0.011380192007247,0.005582526594304,0.000667028904004,0.003541196013434
1.164,-0.021476018008711,-0.011379759277474,0.005587238540718,0.000666860620204,0.003538840040228
1.168,-0.021476739224999,-0.011379014020643,0.005585050851311,0.000665225863285,0.003539056405114
1.172,-0.021477580644001,-0.011377715831325,0.005578199296578,0.000664985457856,0.003539152567286
1.176,-0.021478518225175,-0.011377355223182,0.005579257080466,0.00066395171451,0.003535979215619
1.18,-0.021476282454683,-0.011380143926161,0.005582526594304,0.000665898998487,0.003536291742678
1.184,-0.021474263049078,-0.011380841101906,0.005587142378546,0.000666740417489,0.00353631578322
1.188,-0.021473782238219,-0.011385288602347,0.005581877499645,0.000662533322477,0.003537181242766
1.192,-0.021473349508446,-0.011385384764519,0.005572694012248,0.000665947079573,0.00353499355336
1.196,-0.021472676373245,-0.011382403737196,0.005577526161376,0.000668158809522,0.003536652350821
1.2,-0.021472435967815,-0.011376994615038,0.00557690110726,0.000665754755229,0.003537157202223
1.204,-0.021472796575959,-0.011377980277298,0.005579810012954,0.000664192119939,0.003539296810543
1.208,-0.021473229305732,-0.011382115250681,0.005579160918295,0.000664095957767,0.003541484499949
1.212,-0.021473445670618,-0.011385024156375,0.005579785972411,0.000664576768626,0.003542325918952
1.216,-0.021471474346098,-0.011385120318546,0.005585748027056,0.00066510566057,0.003542253797323
1.22,-0.021469238575606,-0.01138432698063,0.005584329635024,0.000664432525368,0.003542542283838
1.224,-0.021469623224293,-0.011384351021173,0.005577285755947,0.000662653525192,0.003539921864659
1.228,-0.021470031913523,-0.011382596061539,0.005577502120833,0.000662773727907,0.003538166905026
1.232,-0.021468132710632,-0.011386418507864,0.005578992634494,0.00066493737677,0.003538214986112
1.236,-0.021465969061768,-0.011391467021879,0.005581805378016,0.000664745052426,0.0035391044862
1.24,-0.021465632494167,-0.011389447616273,0.005583464175478,0.000663735349624,0.00354222975678
1.244,-0.021466834521314,-0.011389495697359,0.005581372648244,0.000661691903475,0.003541869148636
1.248,-0.02146606522394,-0.011388678318899,0.005571684309445,0.000666451930974,0.003540354594432
1.252,-0.021466618156427,-0.011386947399809,0.005574857661111,0.000667269309434,0.003538431350998
1.256,-0.021466017142854,-0.011385865575377,0.005578728188522,0.000666211525545,0.003540162270088
1.26,-0.021463372683133,-0.011386610832208,0.005585723986513,0.000666596174232,0.003541845108093
1.264,-0.021462170655986,-0.011387981143155,0.005583656499822,0.000664624849712,0.003541556621578
1.268,-0.021461088831555,-0.011389567818988,0.005581444769873,0.000665802836315,0.003542518243295
1.272,-0.021459165588121,-0.011390553481248,0.005581060121186,0.000666139403916,0.003541965310808
1.276,-0.021457530831202,-0.011386538710579,0.005577381918118,0.00066493737677,0.003541965310808
1.28,-0.021454549803879,-0.011386057899721,0.005581637094216,0.000664865255141,0.003542181675694
1.284,-0.021453804547048,-0.011389087008129,0.005585603783799,0.000662653525192,0.003543431783926
1.288,-0.021455487385053,-0.011390192873104,0.005579834053497,0.000666115363373,0.003543936635328
1.292,-0.021455751831025,-0.011391058332649,0.005581925580731,0.000661427457503,0.003546004122019
1.296,-0.021454357479536,-0.011389327413558,0.005588392486778,0.00065943209244,0.003545811797676
1.3,-0.021453876668677,-0.011389303373015,0.005581853459102,0.000661379376417,0.003545715635504
1.304,-0.021453155452389,-0.011388245589127,0.005580314864355,0.00065984078167,0.003547037865365
1.308,-0.021451256249498,-0.011389087008129,0.005581084161729,0.000658374308551,0.003549105352057
1.312,-0.021450198465609,-0.011387356089038,0.005582430432133,0.000659191687011,0.003551220919834
1.316,-0.021450438871039,-0.011387740737725,0.00558848864895,0.000658254105837,0.00354888898717
1.32,-0.021452025546872,-0.011390457319076,0.005591373514101,0.000660297551985,0.003553048001096
1.324,-0.021452193830672,-0.011392981576083,0.005588632892207,0.000659864822213,0.003552302744266
1.328,-0.021450847560268,-0.011396010684492,0.005585675905427,0.000662052511619,0.00355225466318
1.332,-0.021451544736013,-0.011394183603229,0.00558019466164,0.000661499579132,0.003550788190061
1.336,-0.021452362114473,-0.011391779548937,0.005577021309974,0.00066238907922,0.003550932433319
1.34,-0.021453011209132,-0.011391947832737,0.005581901540188,0.00065943209244,0.003550764149519
1.344,-0.021451664938728,-0.011389976508217,0.00559317655482,0.000658013700407,0.003552495068609
1.348,-0.021450486952125,-0.011389856305503,0.005594017973823,0.000657556930092,0.003554730839101
1.352,-0.021451857263071,-0.011388293670213,0.00558060335087,0.000657701173349,0.003555452055389
1.356,-0.021452722722617,-0.011390457319076,0.005576636661288,0.000655633686658,0.003556245393305
1.36,-0.021452362114473,-0.011390601562333,0.005580867796842,0.000658903200496,0.003553216284897
1.364,-0.021452674641531,-0.011388990845957,0.005579954256211,0.000657941578779,0.003551918095579
1.368,-0.021454790209308,-0.01139550583309,0.005575626958485,0.000657965619322,0.003551894055036
1.372,-0.021455799912111,-0.011394279765401,0.005588536730036,0.000658807038324,0.00355364901467
1.376,-0.021455559506682,-0.011392164197624,0.005599499217609,0.000657244403034,0.003553288406526
1.38,-0.021453708384877,-0.011392572886853,0.005586084594657,0.000658013700407,0.003552062338836
1.384,-0.021452794844245,-0.011392596927396,0.005581060121186,0.000658085822036,0.003551725771236
1.388,-0.021452722722617,-0.011393919157257,0.00559457090631,0.000661066849359,0.003553673055212
1.392,-0.021452626560445,-0.011393678751828,0.005590580176184,0.000662413119763,0.003554899122902
1.396,-0.021453876668677,-0.011395626035805,0.00558471428371,0.000662942011707,0.003555067406702
1.4,-0.021455559506682,-0.011395433711461,0.005589041581437,0.000659912903298,0.003554899122902
1.404,-0.021455847993197,-0.011394424008658,0.005589089662523,0.000658181984208,0.003556029028419
1.408,-0.021454910412023,-0.011395193306032,0.005585964391943,0.000660105227642,0.003557471460995
1.412,-0.021454718087679,-0.011396563616979,0.005580747594128,0.000658254105837,0.003557904190767
1.416,-0.021455222939081,-0.011396034725034,0.005582069823989,0.0006553211596,0.003558433082712
1.42,-0.021454934452566,-0.011396731900779,0.005589498351753,0.000657845416607,0.003558721569227
1.424,-0.0214517611009,-0.011397549279239,0.005591517757358,0.00065729248412,0.003557856109681
1.428,-0.021449597452036,-0.011399568684845,0.00558906562198,0.000659720578955,0.003558144596197
1.432,-0.021450655235925,-0.011403439212255,0.005583416094392,0.00065902340321,0.003560332285603
1.436,-0.021452891006417,-0.011400650509276,0.005577429999204,0.000658975322124,0.003558168636739
1.44,-0.021455823952654,-0.011396106846663,0.005583728621451,0.000658422389637,0.003558457123255
1.444,-0.021454958493109,-0.011392308440881,0.005585339337826,0.000658206024751,0.003558937934113
1.448,-0.021454597884965,-0.011395121184403,0.005582117905075,0.000659408051897,0.003560813096461
1.452,-0.021456689412199,-0.011396058765577,0.005586974094745,0.000660345633071,0.003559298542257
1.456,-0.021458540534005,-0.011395049062775,0.005589690676096,0.000658230065294,0.003559154298999
1.46,-0.021458684777262,-0.011398486860413,0.005593344838621,0.000657100159776,0.003559010055742
1.464,-0.02145784335826,-0.011398006049554,0.005593849690022,0.000657148240862,0.003559298542257
1.468,-0.02145801164206,-0.011398486860413,0.005583512256564,0.000658710876152,0.003558865812484
1.472,-0.021458203966404,-0.011398006049554,0.00556728489009,0.000659384011354,0.003557976312396
1.476,-0.021456905777086,-0.011398655144213,0.0055607939435,0.000663350700937,0.003559442785515
1.48,-0.021457338506858,-0.011400362022761,0.005571131376958,0.000662316957591,0.003559346623343
1.484,-0.021460079128752,-0.011399881211903,0.005578728188522,0.000662220795419,0.00355973127203
1.488,-0.021460583980153,-0.011398991711814,0.005583512256564,0.000660105227642,0.003559226420628
1.492,-0.021460824385582,-0.011397597360325,0.005584113270137,0.000657556930092,0.003558385001626
1.496,-0.021462314899244,-0.01139706846838,0.005584065189051,0.000658302186922,0.00355735125828
1.5,-0.02146334864259,-0.011396852103494,0.005583944986337,0.000660778362844,0.003558144596197
1.504,-0.021462603385759,-0.011399376360501,0.005585171054026,0.000661715944018,0.003558577325969
1.508,-0.021462050453272,-0.011402886279768,0.005584762364796,0.000658254105837,0.00356088521809
1.512,-0.021462459142501,-0.011401323644478,0.005576035647714,0.000659672497869,0.003558793690856
1.516,-0.021463733291276,-0.011401612130993,0.005571035214786,0.000661259173702,0.003558144596197
1.52,-0.021462651466845,-0.011402790117596,0.005584930648597,0.000660273511442,0.003557856109681
1.524,-0.021459838723322,-0.011403030523026,0.005598609717521,0.000657797335521,0.003559659150401
1.528,-0.021458732858348,-0.01140315072574,0.005584089229594,0.000654527821683,0.003561221785691
1.532,-0.021458612655633,-0.011402357387824,0.005564375984396,0.000653854686481,0.003561726637092
1.536,-0.021456569209485,-0.011402213144566,0.005571059255329,0.000655441362314,0.003559514907143
1.54,-0.021455679709396,-0.011398919590186,0.005575602917942,0.000656715511089,0.003557663785338
1.544,-0.021457050020343,-0.011398967671271,0.005579329202095,0.000657508849006,0.003558865812484
1.548,-0.02145981468278,-0.011403367090627,0.005583752661993,0.000655080754171,0.003558433082712
1.552,-0.021460343574724,-0.011404977807003,0.005579689810239,0.000655850051544,0.003557856109681
1.556,-0.021458372250204,-0.011404977807003,0.005572838255505,0.000656619348918,0.00355874560977
1.56,-0.021458155885318,-0.011402333347281,0.005571660268902,0.000654119132453,0.003559154298999
1.564,-0.021459430034093,-0.011402886279768,0.005575049985454,0.000651162145674,0.003558433082712
1.568,-0.021463661169648,-0.011404617198859,0.005581709215845,0.000651931443047,0.003558216717825
1.572,-0.021466521994256,-0.01140668468555,0.005589041581437,0.00065294114585,0.003557471460995
1.576,-0.021467531697059,-0.011406179834149,0.005585723986513,0.000652436294449,0.003560139961259
1.58,-0.021468349075518,-0.011403679617685,0.005579521526439,0.000653974889196,0.003559466826057
1.584,-0.021469118372892,-0.011404881644831,0.005576179890972,0.000654167213539,0.003557207015022
1.588,-0.021469959791894,-0.011400770711991,0.005573968161023,0.000656042375888,0.003557591663709
1.592,-0.021469094332349,-0.011404737401573,0.005576107769343,0.000655537524486,0.003559226420628
1.596,-0.021466233507741,-0.011408054996497,0.005581108202272,0.000654768227112,0.00355891389357
1.6,-0.021462723588474,-0.011404641239402,0.005584449837738,0.000655200956885,0.003559851474744
1.604,-0.021460127209838,-0.011400530306562,0.005580699513042,0.000655513483943,0.003561967042522
1.608,-0.021458877101605,-0.011401515968821,0.005573198863649,0.000653373875623,0.003563505637269
1.612,-0.021457891439346,-0.011404617198859,0.005574256647538,0.000656162578602,0.003563457556183
1.616,-0.021455487385053,-0.011406612563922,0.005577405958661,0.00065746076792,0.003560019758545
1.62,-0.021451664938728,-0.011408583888441,0.005583944986337,0.000657893497693,0.003558000352939
1.624,-0.021449837857466,-0.011407381861295,0.005589378149038,0.000654960551456,0.003560019758545
1.628,-0.021451953425243,-0.011404232550172,0.005590820581613,0.000653494078337,0.003560668853204
1.632,-0.021454117074106,-0.011402309306738,0.005584978729683,0.000654383578426,0.003562688258809
1.636,-0.021456376885141,-0.011401924658051,0.005580891837385,0.000655513483943,0.003563722002155
1.64,-0.021458660736719,-0.011403655577142,0.005581036080643,0.000653974889196,0.003564659583329
1.644,-0.021458925182691,-0.011404256590715,0.005581805378016,0.000654696105484,0.003561221785691
1.648,-0.021460535899067,-0.011403847901485,0.005581709215845,0.000658710876152,0.00356129390732
1.652,-0.021461882169471,-0.011405049928631,0.005582310229418,0.000660081187099,0.003564467258986
1.656,-0.021462627426302,-0.011406732766636,0.005584113270137,0.000658590673438,0.003569155164856
1.66,-0.021464238142678,-0.011406011550348,0.005590099365326,0.000655369240686,0.003567760813367
1.664,-0.021464694912993,-0.011408295401926,0.005594450703595,0.000655249037971,0.003566270299705
1.668,-0.021465776737425,-0.011410098442646,0.005590291689669,0.000657412686834,0.003567760813367
1.672,-0.02146647391317,-0.011411829361736,0.005580386985984,0.000663086254965,0.003570116786573
1.676,-0.021466161386112,-0.011409497429073,0.00557336714745,0.000667221228348,0.003567881016081
1.68,-0.021465945021226,-0.011407598226182,0.005577429999204,0.000667750120292,0.003566534745677
1.684,-0.021465969061768,-0.011409184902015,0.005580122540012,0.000661187052074,0.003567159799794
1.688,-0.021465824818511,-0.011406251955778,0.005582454472675,0.00064414230714,0.00356655878622
1.692,-0.021466930683485,-0.01140593942872,0.005579497485896,0.000619308426298,0.003568409908026
1.696,-0.021467724021402,-0.011407766509982,0.005567092565746,0.000597984464723,0.00357230447598
1.7,-0.021467820183574,-0.011408439645184,0.005571107336415,0.000584738125571,0.003570044664945
1.704,-0.021468902008005,-0.011409737834502,0.005579785972411,0.000572333205422,0.003569323448657
1.708,-0.021468974129634,-0.011412165929337,0.005586493283887,0.000577501922151,0.003570958205576
1.712,-0.021469454940493,-0.011411588956307,0.005587767432662,0.000593512923739,0.00357131881372
1.716,-0.021470801210896,-0.01141218996988,0.005584521959367,0.000611567371476,0.003570886083947
1.72,-0.021471546467727,-0.01141202168608,0.005583247810592,0.000634838617027,0.003574179638328
1.724,-0.021471137778497,-0.01140865601007,0.005582742959191,0.000657677132806,0.003573578624755
1.728,-0.021470873332525,-0.011418320308326,0.005589979162611,0.000665874957944,0.003570717800146
1.732,-0.021471089697412,-0.011420844565333,0.005591734122245,0.000665466268714,0.003570285070374
1.736,-0.021471306062298,-0.011415988375662,0.00558471428371,0.000664721011884,0.003571294773177
1.74,-0.021471642629899,-0.011410651375133,0.005575266350341,0.000661042808816,0.003573843070727
1.744,-0.021472003238043,-0.011410507131875,0.005572141079761,0.000660369673614,0.003572713165209
1.748,-0.021471907075871,-0.011412790983453,0.005570866930985,0.000660730281758,0.003569996583859
1.752,-0.021471474346098,-0.01141375260517,0.005575266350341,0.000660057146556,0.00357131881372
1.756,-0.021471378183927,-0.011414834429602,0.005576300093687,0.000660249470899,0.003574371962671
1.76,-0.021471233940669,-0.011414329578201,0.005575987566629,0.000657580970635,0.003572953570639
1.764,-0.021473830319305,-0.011414666145802,0.005578367580378,0.000657364605748,0.003573819030184
1.768,-0.021476450738484,-0.011413704524085,0.005581516891501,0.000656739551632,0.003574468124843
1.772,-0.021477772968345,-0.011413464118655,0.00558199770236,0.000658518551809,0.003574804692444
1.776,-0.021479023076577,-0.011412670780739,0.005583247810592,0.000656811673261,0.003576776016964
1.78,-0.021479912576665,-0.011410891780562,0.005589161784152,0.00065844643018,0.003577377030537
1.784,-0.021478277819746,-0.011413656442999,0.005585171054026,0.000661379376417,0.00357641540882
1.788,-0.021477051752057,-0.01141555564589,0.005576708782916,0.000660706241215,0.003575477827646
1.792,-0.021475825684368,-0.011415291199918,0.005578680107436,0.000657845416607,0.003577905922481
1.796,-0.021475080427537,-0.011414882510688,0.005581204364443,0.000660682200672,0.003576751976421
1.8,-0.021474791941022,-0.011414642105259,0.005581685175302,0.000657917538236,0.003578242490082
1.804,-0.021474840022108,-0.0114139930106,0.005583127607877,0.000654479740597,0.003578819463112
1.808,-0.021474190927449,-0.011414065132228,0.005585796108142,0.000655104794713,0.003577665517052
1.812,-0.021473301427361,-0.011412526537481,0.00558848864895,0.0006554894434,0.003578819463112
1.816,-0.021472508089444,-0.011415796051319,0.00558060335087,0.000656427024574,0.003578939665827
1.82,-0.021470705048725,-0.01142303225474,0.005574184525909,0.000656402984031,0.003578170368453
1.824,-0.021469358778321,-0.011419474254387,0.00557550675577,0.000658590673438,0.003576343287191
1.828,-0.02146664219697,-0.011414858470145,0.00557041016067,0.000656835713804,0.003577857841395
1.832,-0.021464021777791,-0.011413440078112,0.005569496620039,0.000655032673085,0.003577833800852
1.836,-0.021463420764218,-0.011413031388883,0.005583440134935,0.000659456132983,0.00357756935488
1.84,-0.021464045818334,-0.011414545943087,0.005579353242638,0.000658927241039,0.003576800057507
1.844,-0.021464358345392,-0.011416060497291,0.005568727322665,0.000658638754523,0.003575213381674
1.848,-0.021464574710279,-0.011416228781092,0.005568727322665,0.000657941578779,0.003577449152166
1.852,-0.021464863196794,-0.011417070200094,0.005576276053144,0.000656931875976,0.003576968341307
1.856,-0.02146548825091,-0.011416853835208,0.005581661134759,0.000656042375888,0.003577857841395
1.86,-0.021465969061768,-0.011420363754475,0.005583776702536,0.000656523186746,0.003576295206105
1.864,-0.021467892305202,-0.011425075700888,0.005581877499645,0.000658758957238,0.003575069138416
1.868,-0.021469334737778,-0.011424138119714,0.005577958891148,0.000657268443577,0.003573819030184
1.872,-0.021468853926919,-0.011420315673389,0.005577117472146,0.000658975322124,0.003574756611358
1.876,-0.021466161386112,-0.011418632835384,0.005576564539659,0.000659047443753,0.003574588327557
1.88,-0.021461689845128,-0.011420219511217,0.005579257080466,0.000657701173349,0.003577016422393
1.884,-0.021459093466492,-0.011418320308326,0.005579160918295,0.000659504214069,0.003574708530272
1.888,-0.021458732858348,-0.011418656875927,0.005579761931868,0.000660249470899,0.0035746123681
1.892,-0.021459117507035,-0.011418464551584,0.00558002637784,0.000659504214069,0.00357641540882
1.896,-0.021459958926037,-0.011421950430308,0.005583223770049,0.00066140341696,0.00357502105733
1.9,-0.021461978331643,-0.011421397497821,0.005584834486425,0.000663254538765,0.003571126489376
1.904,-0.021461569642413,-0.011419305970586,0.005582598715933,0.000662725646821,0.003568698394541
1.908,-0.021459934885494,-0.011419882943616,0.005582959324077,0.00066198038999,0.003568409908026
1.912,-0.021460848426125,-0.011417863538011,0.005582286188875,0.000663591106366,0.003572833367924
1.916,-0.0214621225749,-0.011417767375839,0.005581613053673,0.000662533322477,0.003575982679047
1.92,-0.021463685210191,-0.011418320308326,0.005575434634141,0.000660898565558,0.003573097813896
1.924,-0.021464622791365,-0.011420628200447,0.00557411240428,0.000661547660217,0.003573362259868
1.928,-0.021465728656339,-0.011421325376192,0.005576227972058,0.000662653525192,0.003574780651901
1.932,-0.021465560372539,-0.011422839930396,0.005579665769696,0.000663422822566,0.003574371962671
1.936,-0.021465872899597,-0.011423825592656,0.005581444769873,0.00065943209244,0.003572568921952
1.94,-0.021465199764395,-0.011424306403515,0.005586877932574,0.000659864822213,0.003573218016611
1.944,-0.021464454507564,-0.011423921754828,0.005590940784328,0.000658903200496,0.003576367327734
1.948,-0.021462891872274,-0.011419305970586,0.005583848824165,0.000657965619322,0.003575261462759
1.952,-0.021461810047842,-0.011423176497997,0.005573583512336,0.00065746076792,0.003576920260221
1.956,-0.021461834088385,-0.011424642971116,0.005582815080819,0.000656667430004,0.003578266530625
1.96,-0.021464069858877,-0.0114243544846,0.005593368879164,0.000657100159776,0.003576247125019
1.964,-0.021465824818511,-0.011423825592656,0.005592839987219,0.000654119132453,0.003575213381674
1.968,-0.021465392088738,-0.011422767808767,0.005586613486602,0.000649936077985,0.003575790354704
1.972,-0.021464166021049,-0.011422286997909,0.00558396902688,0.000650849618616,0.003575357624931
1.976,-0.02146236298033,-0.011422527403338,0.005578343539835,0.000653397916166,0.003574396003214
1.98,-0.021464574710279,-0.011419834862531,0.005573102701478,0.000655393281229,0.003575381665474
1.984,-0.021468517359319,-0.011420604159904,0.005577429999204,0.000655080754171,0.003577328949451
1.988,-0.021472387886729,-0.011424667011658,0.005583920945794,0.000651186186217,0.003577256827822
1.992,-0.021472916778674,-0.01142476317383,0.005578103134406,0.000650152442871,0.003577665517052
1.996,-0.021471257981212,-0.01142829713364,0.005574160485366,0.000652243970105,0.003576175003391
2,-0.021472267684015,-0.011429090471557,0.005574256647538,0.000655200956885,0.003578723300941
2.004,-0.021474431332878,-0.011429090471557,0.005576300093687,0.000656643389461,0.003580261895688
2.008,-0.021475272751881,-0.011429018349928,0.005577550201919,0.000655393281229,0.003579396436143
2.012,-0.021474407292335,-0.011427479755181,0.005578992634494,0.000654167213539,0.003578410773883
2.016,-0.021474383251792,-0.011426542174007,0.005578343539835,0.000653590240509,0.00357814632791
2.02,-0.021474142846363,-0.011427407633552,0.005577550201919,0.000656667430004,0.003576319246648
2.024,-0.021473878400391,-0.011426998944322,0.005580122540012,0.000653974889196,0.003577449152166
2.028,-0.02147452749505,-0.011425436309032,0.005581084161729,0.000657076119233,0.003578506936054
2.032,-0.021474743859936,-0.011426373890206,0.005581925580731,0.000655128835256,0.003577328949451
2.036,-0.021474166886906,-0.011427840363325,0.00558060335087,0.000654095091911,0.003574564287015
2.04,-0.021473012940846,-0.01142772016061,0.00557550675577,0.000654359537883,0.003574299841042
2.044,-0.021472628292159,-0.011427335511923,0.005580675472499,0.000656210659688,0.003574732570815
2.048,-0.021472628292159,-0.011427527836267,0.005591181189757,0.000656378943488,0.003574251759956
2.052,-0.02147395052202,-0.011428994309385,0.005585675905427,0.000653373875623,0.003574203678871
2.056,-0.021474479413964,-0.011430004012188,0.005569809147097,0.000653085389108,0.003575694192532
2.06,-0.021474166886906,-0.011428946228299,0.005571251579672,0.000655417321771,0.003577785719767
2.064,-0.021474912143737,-0.011427599957895,0.005572934417677,0.000654383578426,0.003577064503479
2.068,-0.021475993968168,-0.011428345214726,0.005572117039218,0.000655801970458,0.003575934597961
2.072,-0.021477364279115,-0.011427599957895,0.005571251579672,0.000655850051544,0.003574708530272
2.076,-0.021479527927978,-0.01142772016061,0.005571540066187,0.000656258740774,0.003575405706017
2.08,-0.021480417428067,-0.011428176930926,0.005572453606819,0.000654239335168,0.003575718233075
2.084,-0.021480249144266,-0.011422407200624,0.005566443471087,0.000654623983855,0.003576848138592
2.088,-0.021479335603635,-0.011427960566039,0.005567405092804,0.000655729848829,0.003581704328263
2.092,-0.021478734590062,-0.011431398363678,0.005573246944735,0.000655224997428,0.003585262328616
2.096,-0.021479239441463,-0.011431013714991,0.005575963526086,0.000655850051544,0.003587233653136
2.1,-0.021478157617032,-0.011430893512276,0.005580507188699,0.000651931443047,0.003588652045169
2.104,-0.021476835387171,-0.011433465850369,0.005581781337474,0.000651691037618,0.00358800295051
2.108,-0.02147822973866,-0.011431157958248,0.005577213634318,0.000650104361785,0.003588267396482
2.112,-0.021480537630781,-0.011429427039158,0.00558002637784,0.00064998415907,0.003587954869424
2.116,-0.021481066522725,-0.011427960566039,0.00558471428371,0.000651450632189,0.003585430612417
2.12,-0.021481691576842,-0.011427623998438,0.005581396688787,0.00064883021301,0.003585142125902
2.124,-0.021484336036563,-0.011432335944852,0.005579665769696,0.000650368807757,0.003585118085359
2.128,-0.021485658266424,-0.011432191701594,0.005583800743079,0.000652171848477,0.003589926193944
2.132,-0.021485345739366,-0.01143166280965,0.00557492978274,0.000653277713451,0.003589685788515
2.136,-0.021484528360907,-0.011431807052907,0.0055658905386,0.000653253672908,0.0035895655858
2.14,-0.021485730388053,-0.011432985039511,0.005570025511983,0.00065277286205,0.003591104180547
2.144,-0.021486764131399,-0.011433922620685,0.00557295845822,0.000652123767391,0.003592402369865
2.148,-0.021487437266601,-0.011433874539599,0.005577021309974,0.000651282348388,0.003593748640269
2.152,-0.021486788171942,-0.01143339372874,0.00557353543125,0.000653590240509,0.00359523915393
2.156,-0.021485562104253,-0.011432888877339,0.005573751796137,0.00065137851056,0.003595936329675
2.16,-0.021485417860995,-0.011433465850369,0.00557435280971,0.000650416888843,0.00359581612696
2.164,-0.021484215833849,-0.011433465850369,0.005574569174596,0.00065154679436,0.003596032491847
2.168,-0.02148315804996,-0.011431542606935,0.005575747161199,0.000648974456267,0.003597547046051
2.172,-0.021482677239101,-0.011428898147213,0.005569977430897,0.000648349402151,0.003600215546316
2.176,-0.021483109968874,-0.011435341012717,0.005565578011542,0.000650921740244,0.003600263627402
2.18,-0.021483446536475,-0.01143873072927,0.005572669971705,0.000651090024045,0.003602595560065
2.184,-0.021484047550048,-0.011437937391353,0.005578848391237,0.000650080321242,0.003602932127666
2.188,-0.021484287955477,-0.011440389526732,0.00557904071558,0.000649912037442,0.003606850736163
2.192,-0.021482797441816,-0.01143733637778,0.005579593648067,0.000653157510736,0.003607259425393
2.196,-0.021481980063357,-0.01143635071552,0.005583680540365,0.00065392680811,0.003607956601138
2.2,-0.021484287955477,-0.011434355350457,0.005581540932044,0.000651691037618,0.003608605695797
2.204,-0.021488783537005,-0.011430821390647,0.005573775836679,0.000650200523957,0.003608269128196
2.208,-0.02149162032107,-0.011432504228652,0.005574304728624,0.000650008199613,0.003606994979421
2.212,-0.021493255077989,-0.01143635071552,0.00557706939106,0.000649912037442,0.003606273763133
2.216,-0.021492942550931,-0.011434715958601,0.005575867363914,0.000648108996722,0.003608461452539
2.22,-0.021490466375009,-0.011435653539775,0.005575771201742,0.000647075253376,0.003610721263574
2.224,-0.021488495050489,-0.01143774506701,0.005574953823283,0.000649118699525,0.003610336614887
2.228,-0.021487244942257,-0.011438658607641,0.005575458674684,0.000646931010119,0.00361331764221
2.232,-0.021487485347687,-0.011439235580671,0.005577141512689,0.000643108563794,0.003611562682577
2.236,-0.021488326766689,-0.011437023850722,0.005580555269784,0.000647123334462,0.003611322277147
2.24,-0.021487317063886,-0.011439620229358,0.005583512256564,0.00064743586152,0.003614038858498
2.244,-0.02148686029357,-0.011441711756592,0.005575867363914,0.000646474239803,0.003615889980303
2.248,-0.021487581509858,-0.011440894378133,0.005576300093687,0.000648517685952,0.003614207142298
2.252,-0.021487653631487,-0.011440221242931,0.005581637094216,0.000648974456267,0.003613005115152
2.256,-0.021487244942257,-0.011438778810356,0.005582863161905,0.000646185753288,0.003614231182841
2.26,-0.021486956455742,-0.011439668310444,0.005578079093863,0.000645777064058,0.003615793818131
2.264,-0.021486619888141,-0.011441351148449,0.005575170188169,0.000645031807228,0.003617981507538
2.268,-0.02148553806371,-0.011440918418676,0.005575915445,0.000644406753112,0.003616995845278
2.272,-0.02148455240145,-0.011441663675507,0.005575458674684,0.000644791401798,0.003617019885821
2.276,-0.021483879266248,-0.011440509729446,0.005578439702007,0.000644070185511,0.003614808155871
2.28,-0.021481571374127,-0.011438297999497,0.005581084161729,0.000643204725965,0.003615529372159
2.284,-0.021479311563092,-0.011436639202035,0.00557764636409,0.000643589374652,0.003616803520934
2.288,-0.021479119238749,-0.011435413134346,0.005573847958308,0.000642435428592,0.003617572818308
2.292,-0.021480561671324,-0.011439259621214,0.005577550201919,0.00063921399584,0.003617524737222
2.296,-0.021482484914758,-0.011440918418676,0.005577502120833,0.00063724267132,0.003617452615593
2.3,-0.021482797441816,-0.011440221242931,0.005580362945441,0.000641738252847,0.003619472021199
2.304,-0.021481306928155,-0.011437552742666,0.005578247377664,0.000642146942077,0.003620000913143
2.308,-0.02147904711712,-0.011433922620685,0.005581228404986,0.000639502482355,0.003617043926363
2.312,-0.02147806145486,-0.011441880040393,0.005584594080996,0.000639262076926,0.003616490993876
2.316,-0.021477772968345,-0.011442240648537,0.00558043506707,0.000636906103719,0.00361430330447
2.32,-0.021477676806173,-0.011441110743019,0.005579593648067,0.00063781964435,0.003613870574697
2.324,-0.021477724887259,-0.011442000243108,0.005576468377487,0.000640079455385,0.003614615831528
2.328,-0.021477292157486,-0.011442937824282,0.005571924714874,0.000639935212128,0.003614687953157
2.332,-0.021475633360024,-0.011438538404926,0.00557509806654,0.000638877428239,0.003613606128725
2.336,-0.021475320832966,-0.011438418202212,0.005577718485719,0.000639646725612,0.003613389763839
2.34,-0.021475777603282,-0.011440581851075,0.00557846374255,0.000642555631306,0.003612307939407
2.344,-0.021475344873509,-0.011440076999674,0.005577454039747,0.000643637455738,0.00361528896673
2.348,-0.021474864062651,-0.011441182864648,0.005578439702007,0.000640968955473,0.003613509966553
2.352,-0.021474671738307,-0.011439980837502,0.005571612187816,0.000642026739362,0.003612187736693
2.356,-0.02147395052202,-0.011441158824105,0.005561827686846,0.000644238469311,0.003613125317867
2.36,-0.021472916778674,-0.011441591553878,0.005567525295519,0.000643829780081,0.003612644507008
2.364,-0.021472027278586,-0.01144300994591,0.005570602485013,0.000641377644703,0.003611009750089
2.368,-0.02147099353524,-0.011444260054143,0.005573799877222,0.000641738252847,0.003610673182488
2.372,-0.021470224237866,-0.011444115810885,0.005572044917589,0.000643204725965,0.003609471155342
2.376,-0.021469767467551,-0.011443514797312,0.005568462876693,0.00064135360416,0.003605744871189
2.38,-0.021469767467551,-0.01144382732437,0.00556728489009,0.000640968955473,0.003606201641504
2.384,-0.021469214535063,-0.011443033986453,0.005570386120127,0.000639310158012,0.003610793385203
2.388,-0.02146786826466,-0.011443683081112,0.005577502120833,0.000641233401446,0.003613029155695
2.392,-0.021468469278233,-0.011444187932514,0.005581348607701,0.000640247739186,0.003615529372159
2.396,-0.021471065656869,-0.011442553175595,0.005577021309974,0.000639021671496,0.003615889980303
2.4,-0.021472435967815,-0.011442745499938,0.005572141079761,0.000637074387519,0.003615072601844
2.404,-0.021473061021931,-0.011441327107906,0.005573102701478,0.000636208927974,0.003613846534154
2.408,-0.021473229305732,-0.011443875405456,0.005573631593422,0.000636930144262,0.003611105912261
2.412,-0.021471594548813,-0.011446231378662,0.005573343106907,0.00063741095512,0.00360879802014
2.416,-0.021470031913523,-0.011442961864825,0.005576300093687,0.000638011968694,0.003609879844572
2.42,-0.021471474346098,-0.011444692783915,0.005577429999204,0.00063625700906,0.003609543276971
2.424,-0.021471834954242,-0.011444163891971,0.005572982498763,0.000638853387696,0.00360937499317
2.428,-0.02147173879207,-0.011445173594774,0.005573799877222,0.00064135360416,0.003609254790456
2.432,-0.021471137778497,-0.011446135216491,0.005573896039394,0.000643108563794,0.00360937499317
2.436,-0.021470248278409,-0.011444668743372,0.005570698647185,0.000642699874564,0.003610961669003
2.44,-0.021469118372892,-0.01144185599985,0.005567621457691,0.000640800671673,0.003608653776883
2.444,-0.021469503021578,-0.01144029336456,0.005556875335003,0.000640031374299,0.003607908520052
2.448,-0.021469046251263,-0.01144654390572,0.005561418997616,0.000642098860991,0.003607620033537
2.452,-0.021466281588826,-0.011446279459748,0.005567958025292,0.000644214428768,0.003610456817602
2.456,-0.0214621225749,-0.011446856432778,0.005572742093334,0.000644911604513,0.003608822060683
2.46,-0.021460487817981,-0.011449068162728,0.005575025944912,0.000643348969223,0.003607427709193
2.464,-0.021461761966757,-0.011449885541187,0.005574280688081,0.000640656428415,0.00360608143879
2.468,-0.021463733291276,-0.011450919284533,0.005576372215315,0.000644238469311,0.003607740236251
2.472,-0.021467098967286,-0.011450462514217,0.00557846374255,0.000648181118351,0.003604759208929
2.476,-0.021470921413611,-0.011450823122361,0.005579064756123,0.000648974456267,0.003606994979421
2.48,-0.021472003238043,-0.011450847162904,0.005579761931868,0.000648469604866,0.003606994979421
2.484,-0.021472435967815,-0.01145130393322,0.005580795675214,0.000645680901887,0.003604639006214
2.488,-0.021472435967815,-0.011451039487247,0.005574280688081,0.000645945347859,0.003605312141416
2.492,-0.021469358778321,-0.011452674244166,0.005568823484837,0.000644430793655,0.003604590925128
2.496,-0.021466618156427,-0.011451832825164,0.005566443471087,0.00064274795565,0.003605985276618
2.5,-0.021465969061768,-0.011449717257387,0.005569929349811,0.000645248172114,0.003606994979421
2.504,-0.021467002805114,-0.011446447743549,0.005574448971881,0.000646065550574,0.003604783249472
2.508,-0.021467651899773,-0.011445942892147,0.005573150782563,0.000642555631306,0.003606105479332
2.512,-0.021468228872803,-0.011445149554231,0.005573078660935,0.000645152009942,0.003606538209105
2.516,-0.021468902008005,-0.011445510162375,0.005575891404457,0.00064570494243,0.003606105479332
2.52,-0.021469070291806,-0.011447457446352,0.005576708782916,0.000643348969223,0.003606105479332
2.524,-0.021470031913523,-0.01145106352779,0.005577718485719,0.000641521887961,0.003602571519522
2.528,-0.021470753129811,-0.0114493326087,0.005576227972058,0.000640608347329,0.003601417573462
2.532,-0.021468829886377,-0.011446519865178,0.005566852160317,0.000640391982443,0.003601850303235
2.536,-0.021466185426655,-0.011450174027702,0.005562188294989,0.000644815442341,0.003604182235898
2.54,-0.021463973696706,-0.011454068595656,0.005569905309268,0.000648229199437,0.00360213878975
2.544,-0.021463685210191,-0.011453131014482,0.005573343106907,0.000650128402328,0.003601970505949
2.548,-0.021465728656339,-0.011452313636023,0.005576348174772,0.000651907402504,0.003602042627578
2.552,-0.021465945021226,-0.011451808784621,0.005581084161729,0.000654167213539,0.003602186870836
2.556,-0.021464406426478,-0.01145361182534,0.005583896905251,0.000646786766861,0.003603100411467
2.56,-0.021464310264307,-0.011452770406338,0.00558807995972,0.000629261211069,0.003604350519699
2.564,-0.021464767034622,-0.011450174027702,0.005594402622509,0.000605196627601,0.003602186870836
2.568,-0.021464622791365,-0.011451448176477,0.005584810445882,0.000579641530471,0.003599758776
2.572,-0.021463540966933,-0.011451640500821,0.005566683876516,0.000562813150423,0.003600455951745
2.576,-0.021462170655986,-0.011449597054672,0.005566996403575,0.000555673109175,0.003598244221796
2.58,-0.021461040750469,-0.011452842527967,0.005575122107083,0.000568414596925,0.003597739370394
2.584,-0.021459141547578,-0.011456063960719,0.00557944940481,0.000589522193613,0.00360132141129
2.588,-0.021456689412199,-0.011453395460454,0.005579425364267,0.000606158249318,0.003600047262515
2.592,-0.021454549803879,-0.011452938690139,0.005576949188346,0.000629213129983,0.003597955735281
2.596,-0.021452722722617,-0.01145402051457,0.005579906175125,0.000650993861873,0.003600624235546
2.6,-0.021453395857819,-0.011452674244166,0.005580675472499,0.000656595308375,0.003603557181782
2.604,-0.02145447768225,-0.011450630798018,0.005577982931691,0.00065926380864,0.003603725465583
2.608,-0.021453948790306,-0.011450919284533,0.005578824350694,0.000658879159953,0.003601970505949
2.612,-0.021450991803526,-0.011450702919647,0.005581228404986,0.000655104794713,0.003599662613829
2.616,-0.021450799479183,-0.011450775041275,0.005582310229418,0.000650873659159,0.003599758776
2.62,-0.021451160087326,-0.011452986771224,0.005580795675214,0.00064883021301,0.003600455951745
2.624,-0.02145094372244,-0.011451279892677,0.005579184958838,0.000650513051015,0.003598051897453
2.628,-0.021452121709043,-0.011451568379192,0.005581829418559,0.000649791834727,0.003600504032831
2.632,-0.021453227574018,-0.011451231811591,0.005584257513395,0.000648349402151,0.003601249289662
2.636,-0.021451809181985,-0.0114544292038,0.005587647229947,0.000650537091558,0.003601129086947
2.64,-0.021451544736013,-0.011455895676918,0.005587815513748,0.000652893064764,0.003602234951922
2.644,-0.021452794844245,-0.011457049622979,0.005595869095628,0.000653013267479,0.003600239586859
2.648,-0.021453588182162,-0.011455366784974,0.005591686041159,0.00065253245662,0.003601105046404
2.652,-0.021451737060357,-0.011457867001438,0.005577574242462,0.000648157077808,0.003602066668121
2.656,-0.021449909979094,-0.011458492055554,0.005569640863296,0.000649647591469,0.003601489695091
2.66,-0.02144954937095,-0.011456208203976,0.005571924714874,0.000651570834903,0.003602860006038
2.664,-0.021448707951948,-0.011454092636199,0.005575675039571,0.000650008199613,0.003602811924952
2.668,-0.021447097235572,-0.011454116676742,0.005570265917412,0.000647507983149,0.003601585857263
2.672,-0.021447097235572,-0.011454765771401,0.005573174823106,0.000647147375005,0.003600696357174
2.676,-0.021446472181456,-0.011457698717638,0.005581564972587,0.000645224131571,0.003601706059977
2.68,-0.021446063492226,-0.01145738619058,0.005583993067423,0.00064669060469,0.003601778181606
2.684,-0.021445486519196,-0.01145656881212,0.005584570040453,0.000651186186217,0.00360411011427
2.688,-0.021444260451507,-0.011457049622979,0.005582286188875,0.000647459902063,0.003602427276265
2.692,-0.02144486146508,-0.011457867001438,0.005584642162082,0.000644647158541,0.003600720397717
2.696,-0.021445077829966,-0.011454525365972,0.00558906562198,0.00064784455075,0.003599927059801
2.7,-0.021444933586709,-0.011455871636375,0.00558471428371,0.000648108996722,0.003599686654371
2.704,-0.02144601541114,-0.011459621961072,0.005582791040276,0.000646594442518,0.003598292302882
2.708,-0.021447121276115,-0.011458588217726,0.005587863594834,0.000646570401975,0.003598821194826
2.712,-0.021447890573489,-0.01145541486606,0.005587695311033,0.000648229199437,0.003597595127137
2.716,-0.021447554005888,-0.011456015879633,0.005586325000086,0.000648541726495,0.00359761916768
2.72,-0.021448106938375,-0.011457891041981,0.005582911242991,0.000646714645233,0.003597354721708
2.724,-0.021448948357377,-0.011458588217726,0.005584594080996,0.000648950415725,0.003596729667592
2.728,-0.021449116641178,-0.011458443974468,0.005586613486602,0.000648806172467,0.003596176735104
2.732,-0.021448996438463,-0.011461160555819,0.005586084594657,0.000649455267126,0.003595167032301
2.736,-0.021449477249322,-0.011462675110023,0.005586974094745,0.000647628185864,0.003595094910673
2.74,-0.021450318668324,-0.011460174893559,0.005583656499822,0.000648565767038,0.00359721047845
2.744,-0.021450967762983,-0.011458419933926,0.0055811803239,0.000648589807581,0.003598412505596
2.748,-0.021451280290041,-0.011459910447587,0.005583199729506,0.000652965186393,0.003595695924246
2.752,-0.021450270587238,-0.011459165190756,0.005589570473381,0.000652436294449,0.003597571086594
2.756,-0.021450078262895,-0.011454212838914,0.00559317655482,0.000651354470017,0.003595215113387
2.76,-0.021450871600811,-0.011457193866236,0.00558865693275,0.000653157510736,0.003596369059448
2.764,-0.021451112006241,-0.011465896542775,0.005582887202448,0.000653614281052,0.003597571086594
2.768,-0.021451664938728,-0.011465632096803,0.005580218702183,0.000651114064588,0.003598556748854
2.772,-0.021451160087326,-0.01146387713717,0.005583632459279,0.000651450632189,0.003599133721884
2.776,-0.021449621492579,-0.011463805015541,0.005584425797195,0.000654696105484,0.003600191505773
2.78,-0.021448491587062,-0.011463708853369,0.005579112837209,0.000655008632542,0.003599975140887
2.784,-0.02144822714109,-0.011463949258798,0.005577694445176,0.000652989226936,0.003597090275735
2.788,-0.021448275222175,-0.011462194299165,0.005581108202272,0.000651402551103,0.003598628870483
2.792,-0.021448299262718,-0.011459910447587,0.005581300526615,0.000652965186393,0.003600552113917
2.796,-0.021447746330231,-0.011461545204506,0.005579160918295,0.000653277713451,0.003599422208399
2.8,-0.021446544303085,-0.011459573879986,0.005578103134406,0.000652893064764,0.003594734302529
2.804,-0.021445823086797,-0.011461473082877,0.005571588147273,0.000652965186393,0.003594373694385
2.808,-0.021446496221999,-0.011468036151096,0.005571828552703,0.000653998929739,0.003594277532213
2.812,-0.021446664505799,-0.011466834123949,0.005578415661464,0.000652147807934,0.003595719964789
2.816,-0.0214468327896,-0.011467795745666,0.005583247810592,0.000651017902416,0.003595311275559
2.82,-0.021447938654574,-0.011464622394,0.005585050851311,0.00065137851056,0.00359622481619
2.824,-0.021448467546519,-0.011463276123596,0.005589161784152,0.000653205591822,0.003595575721531
2.828,-0.021448203100547,-0.011463780974998,0.005586613486602,0.00065253245662,0.003595912289132
2.832,-0.021448347343804,-0.01146363673174,0.005577838688434,0.000651330429474,0.00359605653239
2.836,-0.021448659870862,-0.011463588650654,0.005579112837209,0.000649912037442,0.003598124019081
2.84,-0.021448058857289,-0.011461833691021,0.00558356033765,0.000649912037442,0.003599133721884
2.844,-0.021448683911405,-0.0114644541102,0.005584065189051,0.000652099726848,0.003600552113917
2.848,-0.021449982100723,-0.011466713921235,0.005582045783446,0.000650729415901,0.003598893316455
2.852,-0.021449573411493,-0.011464718556172,0.005581829418559,0.000649311023868,0.00359761916768
2.856,-0.021450174425067,-0.011464261785856,0.005582358310504,0.000649719713098,0.00359605653239
2.86,-0.021450150384524,-0.011466665840149,0.005582430432133,0.000647387780434,0.003596777748677
2.864,-0.02144897239792,-0.011467819786209,0.00558339205385,0.000647700307492,0.003594998748501
2.868,-0.02144798673566,-0.011466088867119,0.005583752661993,0.000646786766861,0.003596921991935
2.872,-0.021448347343804,-0.011465656137346,0.005581829418559,0.000647291618263,0.003597763410937
2.876,-0.021449429168236,-0.011466762002321,0.005576588580202,0.000645440496457,0.003599398167856
2.88,-0.021450318668324,-0.011468661205212,0.005575915445,0.000646474239803,0.003598628870483
2.884,-0.021450270587238,-0.011465944623861,0.005579641729153,0.000643781698996,0.003600720397717
2.888,-0.02144995806018,-0.011467026448293,0.005581709215845,0.00064176229339,0.003599542411114
2.892,-0.021449284924978,-0.011464381988571,0.005571900674331,0.000643517253023,0.003600263627402
2.896,-0.021446736627428,-0.01146995939453,0.005569640863296,0.000644959685599,0.003599734735457
2.9,-0.021446135613855,-0.011473012543481,0.005575626958485,0.000644959685599,0.003595936329675
2.904,-0.02144740976263,-0.01147053636756,0.005580338904898,0.000646714645233,0.00359564784316
2.908,-0.021450631195382,-0.011469526664757,0.005584041148509,0.000643949982796,0.003597402802794
2.912,-0.02145291504696,-0.011467723624038,0.005581637094216,0.000646257874917,0.003598845235369
2.916,-0.021452939087503,-0.011465319569745,0.005579257080466,0.000645248172114,0.003600071303058
2.92,-0.02145135241167,-0.011465319569745,0.005579401323724,0.000646714645233,0.00360509577653
2.924,-0.021452049587415,-0.011469526664757,0.005578704147979,0.000648661929209,0.003608245087653
2.928,-0.021453612222705,-0.011469478583671,0.00557985809404,0.000647123334462,0.003609399033713
2.932,-0.021454165155192,-0.011471329705476,0.005582190026703,0.000646426158717,0.003607884479509
2.936,-0.021452842925331,-0.011469093934984,0.005583103567334,0.000645753023516,0.003606153560418
2.94,-0.021451472614384,-0.011469911313444,0.005583824783622,0.00064587322623,0.003605624668474
2.944,-0.021452169790129,-0.011468420799782,0.005579954256211,0.000646546361432,0.003604975573815
2.948,-0.021453924749763,-0.011464381988571,0.005581372648244,0.000647363739891,0.00360386970884
2.952,-0.021455439303967,-0.011467939988924,0.005582117905075,0.000646642523604,0.003602835965495
2.956,-0.021453636263248,-0.011471233543305,0.005582550634847,0.000645993428945,0.003602090708664
2.96,-0.021451785141443,-0.011471377786562,0.005582021742903,0.000648878294096,0.003603220614181
2.964,-0.02144995806018,-0.011471954759592,0.005582069823989,0.000650080321242,0.003600263627402
2.968,-0.021447674208602,-0.01147308466511,0.005582286188875,0.000649743753641,0.00360057615446
2.972,-0.021446231776027,-0.011472940421852,0.005582670837562,0.000649551429298,0.003600383830116
2.976,-0.021446712586885,-0.01147325294891,0.005583752661993,0.000649070618439,0.003600768478803
2.98,-0.021448659870862,-0.01146995939453,0.005582430432133,0.000644502915283,0.003602739803323
2.984,-0.021450559073753,-0.011471089300047,0.005586637527144,0.000642555631306,0.003600263627402
2.988,-0.021450847560268,-0.011474887705829,0.005589594513924,0.000644118266597,0.003598484627225
2.992,-0.021451208168412,-0.011474551138228,0.005592575541247,0.000643517253023,0.003599614532743
2.996,-0.021452121709043,-0.011474190530085,0.00558767127049,0.000645584739715,0.003601345451833
3,-0.021453227574018,-0.011472603854251,0.005577958891148,0.000645344334286,0.003600960803146
3.004,-0.02145390070922,-0.01147169031362,0.005577598283005,0.000646161712745,0.00360370142504
3.008,-0.021454525763336,-0.011473757800312,0.005580362945441,0.000646618483061,0.003603557181782
3.012,-0.021457122141972,-0.011476161854604,0.005577117472146,0.000644671199084,0.003602763843866
3.016,-0.021458708817805,-0.011476258016776,0.005576877066717,0.000645272212657,0.003600095343601
3.02,-0.021457771236631,-0.011475392557231,0.005578800310151,0.000645656861344,0.003598556748854
3.024,-0.021454117074106,-0.011474094367913,0.005576540499116,0.000648301321066,0.003601850303235
3.028,-0.02144880411412,-0.011474046286827,0.005571732390531,0.000647892631836,0.003603821627755
3.032,-0.021445510559739,-0.011476666706006,0.005574304728624,0.000647195456091,0.003603316776353
3.036,-0.02144527015431,-0.011475849327546,0.00557336714745,0.000647772429121,0.003602475357351
3.04,-0.021445630762454,-0.011475536800488,0.005574304728624,0.000646762726318,0.003599903019258
3.044,-0.021445173992138,-0.011477532165551,0.005577502120833,0.000644358672026,0.003598652911026
3.048,-0.021444428735307,-0.011477339841208,0.005581949621274,0.000646065550574,0.003599253924599
3.052,-0.021444597019108,-0.011474527097685,0.005582791040276,0.000646522320889,0.003601249289662
3.056,-0.021444837424537,-0.01147349335434,0.005585363378369,0.000647171415548,0.00360213878975
3.06,-0.021446376019284,-0.011473204867825,0.005586493283887,0.00064825323998,0.003602619600608
3.064,-0.021447914614032,-0.011473637597597,0.005587454905604,0.000648325361609,0.003602499397894
3.068,-0.02144798673566,-0.011474551138228,0.005586132675743,0.000646834847947,0.003604350519699
3.072,-0.02144822714109,-0.011475296395059,0.005578968593951,0.000645825145144,0.003603653343954
3.076,-0.021449236843892,-0.01147661862492,0.005581300526615,0.000646498280346,0.003601970505949
3.08,-0.021450102303438,-0.011474575178771,0.00558651732443,0.000646810807404,0.003604326479156
3.084,-0.021450414830496,-0.011474623259857,0.005587118338003,0.000648445564323,0.003604230316984
3.088,-0.021449717654751,-0.011475176192344,0.005585844189228,0.000645632820801,0.003603773546669
3.092,-0.021449669573665,-0.011473998205741,0.005584041148509,0.000644599077455,0.003604927492729
3.096,-0.021449260884435,-0.011473613557054,0.005586445202801,0.000645152009942,0.00360411011427
3.1,-0.021447794411317,-0.011475681043746,0.005590099365326,0.00064431059094,0.003605071735987
3.104,-0.021446856830143,-0.011475993570804,0.005586805810945,0.000645897266773,0.003605937195532
3.108,-0.021446472181456,-0.011474262651713,0.00558216598616,0.000647363739891,0.003606321844219
3.112,-0.021446183694941,-0.011475272354516,0.005586950054202,0.000648926375182,0.003604614965671
3.116,-0.021445222073224,-0.011472123043393,0.0055912052303,0.000647483942606,0.003604566884585
3.12,-0.021442553572959,-0.011479046719755,0.005582526594304,0.000648782131924,0.003603941830469
3.124,-0.021440101437581,-0.011480969963189,0.00557312674202,0.000650873659159,0.003603893749383
3.128,-0.021439644667265,-0.011476378219491,0.005577910810063,0.000649695672555,0.003603509100697
3.132,-0.021439163856407,-0.011475681043746,0.00558199770236,0.000646882929033,0.00360370142504
3.136,-0.021438274356319,-0.011476282057319,0.005583079526792,0.00064842152378,0.003602932127666
3.14,-0.021437697383288,-0.011477724489895,0.005583247810592,0.000648613848124,0.003601898384321
3.144,-0.021437937788718,-0.011478349544011,0.00558512297294,0.00064842152378,0.003601537776177
3.148,-0.021439163856407,-0.011478421665639,0.005582093864532,0.000646762726318,0.003602932127666
3.152,-0.021440510126811,-0.011480080463101,0.005578704147979,0.000645272212657,0.003603941830469
3.156,-0.021441014978212,-0.011481162287533,0.005577550201919,0.000646065550574,0.003602475357351
3.16,-0.021440582248439,-0.01147818126021,0.005574160485366,0.000644935645056,0.003601393532919
3.164,-0.021439260018578,-0.011475849327546,0.005568919647009,0.000647796469664,0.003602643641151
3.168,-0.021439428302379,-0.011476762868178,0.005568462876693,0.000647988794008,0.003601754141063
3.172,-0.021441207302555,-0.011477964895324,0.005575578877399,0.000647459902063,0.003600984843689
3.176,-0.021443106505447,-0.01147875823324,0.00557747808029,0.000647940712922,0.003602042627578
3.18,-0.021445390357024,-0.011478397625096,0.005579233039923,0.000648493645409,0.003605240019787
3.184,-0.021445414397567,-0.011476306097862,0.005582190026703,0.00064825323998,0.003606153560418
3.188,-0.021442289126987,-0.011478085098038,0.005587454905604,0.00064669060469,0.003605167898158
3.192,-0.021438562842834,-0.011481739260563,0.005590556135641,0.000645825145144,0.003606634371277
3.196,-0.021435437572253,-0.011483999071598,0.005588392486778,0.00064587322623,0.003604182235898
3.2,-0.021433394126105,-0.011483926949969,0.005586445202801,0.000646474239803,0.003602643641151
3.204,-0.021430677544754,-0.011484912612229,0.005586421162258,0.000644815442341,0.003601682019434
3.208,-0.021428105206661,-0.011485056855487,0.005581973661817,0.000647003131748,0.003602403235722
3.212,-0.021426855098429,-0.011483253814767,0.005581925580731,0.000647507983149,0.003605312141416
3.216,-0.021426278125399,-0.011478686111612,0.005589762797725,0.000645152009942,0.003605504465759
3.22,-0.021427408030916,-0.011478301462925,0.005590724419442,0.000644623117998,0.003605143857615
3.224,-0.02142834561209,-0.011479695814414,0.005586036513571,0.000645031807228,0.003606033357704
3.228,-0.021428081166118,-0.01147858994944,0.005584353675567,0.000645849185687,0.003605023654901
3.232,-0.0214267829768,-0.01147760428718,0.005586132675743,0.000644935645056,0.003606898817249
3.236,-0.021424619327937,-0.011478541868354,0.005589570473381,0.000645031807228,0.003605215979244
3.24,-0.021422648003417,-0.011477916814238,0.00558767127049,0.00064471928017,0.003603773546669
3.244,-0.021424090435993,-0.011476570543834,0.005579713850782,0.000642435428592,0.003603172533096
3.248,-0.021425869436169,-0.011478878435955,0.005579641729153,0.000643204725965,0.003602980208752
3.252,-0.021428465814805,-0.01148072955776,0.005574689377311,0.000646233834374,0.00360427839807
3.256,-0.021431110274527,-0.011482869166081,0.005576973228889,0.000645801104601,0.003606273763133
3.26,-0.021432913315246,-0.011478157219667,0.005582045783446,0.000643781698996,0.003603509100697
3.264,-0.021434211504564,-0.011478734192697,0.005586204797372,0.00064390190171,0.003601922424863
3.268,-0.02143483655868,-0.011483349976939,0.005586733689316,0.000645200091028,0.003602571519522
3.272,-0.021436254950713,-0.011484696247343,0.005583848824165,0.000646426158717,0.003608437411996
3.276,-0.021440101437581,-0.011483902909426,0.005583656499822,0.000644118266597,0.003609182668827
3.28,-0.021442120843187,-0.011484455841914,0.00558964259501,0.000644166347682,0.003608365290367
3.284,-0.021442938221646,-0.011485417463631,0.005595941217257,0.000643637455738,0.003609350952627
3.288,-0.021444140248792,-0.011485585747431,0.005592647662876,0.00064628191546,0.003607331547022
3.292,-0.021445246113767,-0.011482412395765,0.005582069823989,0.000647195456091,0.003607259425393
3.296,-0.021446183694941,-0.011483374017482,0.005573655633965,0.000644262509854,0.00360838933091
3.3,-0.021446712586885,-0.011488807180183,0.005577718485719,0.000644959685599,0.00360723538485
3.304,-0.021446592384171,-0.011488158085524,0.005580362945441,0.000643781698996,0.003606706492906
3.308,-0.0214468327896,-0.011490970829046,0.005581348607701,0.000640271779729,0.003608100844395
3.312,-0.021446904911229,-0.011492605585965,0.005581973661817,0.000641113198731,0.003609519236428
3.316,-0.021445029748881,-0.0114896005181,0.005584041148509,0.00064118532036,0.003608581655254
3.32,-0.021440846694412,-0.01148582615286,0.005586613486602,0.000641209360903,0.003607499830822
3.324,-0.021436855964286,-0.011484335639199,0.005588344405692,0.000643060482708,0.003608653776883
3.328,-0.021434475950536,-0.011488182126067,0.005585243175655,0.000644454834198,0.003609423074256
3.332,-0.021433995139678,-0.011491427599362,0.005583872864708,0.000644695239627,0.003606922857792
3.336,-0.021436519396685,-0.011492581545422,0.005588897338179,0.000644839482884,0.003608197006567
3.34,-0.021438298396861,-0.011489480315385,0.005581901540188,0.000645536658629,0.003610961669003
3.344,-0.021440053356495,-0.01149034577493,0.005577622323547,0.00064315664488,0.003608677817425
3.348,-0.021443034383818,-0.011490321734387,0.005582815080819,0.00064315664488,0.003608100844395
3.352,-0.021444621059651,-0.011490682342531,0.005585651864885,0.000644406753112,0.003608437411996
3.356,-0.021444909546166,-0.011490033247872,0.005588368446235,0.000647315658806,0.003608581655254
3.36,-0.021445342275939,-0.011490778504703,0.005589618554467,0.000648734050838,0.003607019019964
3.364,-0.021445967330055,-0.01149075446416,0.00558692601366,0.00064743586152,0.003605624668474
3.368,-0.021446977032857,-0.011488037882809,0.005585723986513,0.000647916672379,0.003606802655077
3.372,-0.021445486519196,-0.011484191395941,0.005589402189581,0.000648325361609,0.003607187303764
3.376,-0.021442914181103,-0.011483614422911,0.005590147446412,0.000648181118351,0.003608677817425
3.38,-0.021441688113414,-0.011485609787974,0.005587887635377,0.000644238469311,0.003610721263574
3.384,-0.021442048721558,-0.011486186761004,0.005584786405339,0.000642603712392,0.003611153993347
3.388,-0.021443491154133,-0.011487677274666,0.005576300093687,0.000645849185687,0.003608581655254
3.392,-0.02144625581657,-0.011492557504879,0.005575626958485,0.000646305956003,0.003607307506479
3.396,-0.021447313600458,-0.011487941720638,0.005581709215845,0.00064628191546,0.003606994979421
3.4,-0.021446376019284,-0.01148722050435,0.005583416094392,0.000645103928857,0.003606201641504
3.404,-0.021446183694941,-0.011485465544716,0.005583632459279,0.000645536658629,0.003606321844219
3.408,-0.021446351978741,-0.011486859896206,0.00558315164842,0.000648301321066,0.003606994979421
3.412,-0.02144601541114,-0.01148779747738,0.005584401756652,0.000647916672379,0.003610432777059
3.416,-0.021445390357024,-0.011486956058378,0.005583512256564,0.000648974456267,0.003613798453069
3.42,-0.021445366316481,-0.011486571409691,0.005578343539835,0.000650272645585,0.003611081871718
3.424,-0.021445823086797,-0.011487821517923,0.005581805378016,0.00064842152378,0.003610793385203
3.428,-0.021447025113943,-0.011485994436661,0.005584930648597,0.000648157077808,0.003615337047816
3.432,-0.02144798673566,-0.011484455841914,0.005584305594481,0.000646402118174,0.003611947331263
3.436,-0.021450126343981,-0.011489816882986,0.005586781770402,0.000639742887784,0.003609735601314
3.44,-0.021450991803526,-0.011488037882809,0.005588176121892,0.000644647158541,0.003610336614887
3.444,-0.021451737060357,-0.011489456274842,0.005587238540718,0.000649719713098,0.003612668547551
3.448,-0.021453035249675,-0.011492581545422,0.005584257513395,0.000649431226583,0.00361036065543
3.452,-0.021453347776733,-0.011491643964248,0.005584041148509,0.000651498713275,0.00361175500692
3.456,-0.021452602519902,-0.011490898707418,0.005586204797372,0.000652917105307,0.003613125317867
3.46,-0.021452121709043,-0.011489552437014,0.005586805810945,0.000651450632189,0.00361447158827
3.464,-0.021452217871215,-0.011489528396471,0.005588729054379,0.000642411388049,0.003615721696503
3.468,-0.021453035249675,-0.011491884369678,0.005585363378369,0.000620029642585,0.003615240885644
3.472,-0.021453035249675,-0.011491066991218,0.005581516891501,0.000593248477767,0.003615409169445
3.476,-0.021452578479359,-0.011489720720814,0.005583728621451,0.00057437665157,0.003611803088006
3.48,-0.021451833222528,-0.011492990234652,0.005588777135465,0.000559207068985,0.003608725898511
3.484,-0.021451160087326,-0.011494961559172,0.005592094730388,0.000559928285272,0.003610384695973
3.488,-0.021451640898185,-0.01149412014017,0.005592815946676,0.000580074260244,0.003609639439142
3.492,-0.021450679276468,-0.011495009640258,0.005589281986866,0.000597479613322,0.003611562682577
3.496,-0.021447794411317,-0.011494048018541,0.005586325000086,0.000619837318242,0.003611586723119
3.5,-0.02144370751902,-0.011490634261445,0.005587599148861,0.00064176229339,0.003612115615064
3.504,-0.021440942856583,-0.011490514058731,0.005588945419265,0.000654551862226,0.003611202074433
3.508,-0.021440125478124,-0.011488711018011,0.005590676338356,0.000658734916695,0.003608148925481
3.512,-0.021436735761571,-0.011488638896383,0.005584978729683,0.000657076119233,0.003608725898511
3.516,-0.021433754734249,-0.011489961126243,0.005578223337121,0.000654984591999,0.003608918222855
3.52,-0.021432047855701,-0.011488254247696,0.005584281553938,0.000655537524486,0.003609182668827
3.524,-0.021431110274527,-0.01149034577493,0.005588993500351,0.000653229632365,0.003610841466289
3.528,-0.021430749666383,-0.011495033680801,0.005592551500704,0.000652147807934,0.003608293168739
3.532,-0.02142858601752,-0.01149428842397,0.005590748459985,0.000652436294449,0.003611803088006
3.536,-0.021425941557798,-0.011492845991395,0.005586373081172,0.00065589813263,0.003612235817778
3.54,-0.02142382599002,-0.011494600951028,0.005584930648597,0.000655826011001,0.003612644507008
3.544,-0.021421662341157,-0.011494769234829,0.005584425797195,0.000653133470194,0.003614086939584
3.548,-0.02142070071944,-0.011493326802253,0.005580939918471,0.00065253245662,0.003614351385556
3.552,-0.021421301733013,-0.01149544237003,0.005579064756123,0.000653470037795,0.003613365723296
3.556,-0.021422191233102,-0.011496355910662,0.005586998135288,0.000654936510913,0.003615216845101
3.56,-0.021422431638531,-0.011494216302341,0.005587887635377,0.000651907402504,0.003617308372336
3.564,-0.021421734462786,-0.011491884369678,0.005582598715933,0.000649311023868,0.003616250588447
3.568,-0.021422022949301,-0.011494312464513,0.005582887202448,0.000650657294272,0.003611153993347
3.572,-0.021424162557621,-0.01149683672152,0.005588921378722,0.000651498713275,0.003609951966201
3.576,-0.02142505205771,-0.011495634694374,0.005589330067952,0.000651426591646,0.00361036065543
3.58,-0.021425028017167,-0.011495298126773,0.005590532095098,0.000651474672732,0.003610312574344
3.584,-0.021425340544225,-0.011496211667404,0.005594643027939,0.000651450632189,0.003607499830822
3.588,-0.021427335909288,-0.011495250045687,0.005594907473911,0.000652460334992,0.003608990344484
3.592,-0.021429355314893,-0.011492605585965,0.005594955554997,0.000656258740774,0.003613582088182
3.596,-0.021430605423125,-0.011493158518453,0.005593465041335,0.000653205591822,0.003613485926011
3.6,-0.021431687247557,-0.011492220937278,0.005591397554644,0.000653830645938,0.003613365723296
3.604,-0.0214317112881,-0.011492701748137,0.005589330067952,0.000655777929915,0.003614519669356
3.608,-0.021432456544931,-0.011492196896736,0.005587142378546,0.000652123767391,0.003613197439495
3.612,-0.021436086666912,-0.011487989801724,0.005574593215139,0.000651282348388,0.003612211777235
3.616,-0.021438274356319,-0.011493591248225,0.005575242309798,0.000655080754171,0.00361274066918
3.62,-0.021439332140207,-0.011496596316091,0.005584233472852,0.000655561565029,0.003612692588094
3.624,-0.021441615991785,-0.011497750262151,0.005588296324606,0.000653590240509,0.00361331764221
3.628,-0.021443082464904,-0.011496980964778,0.005589378149038,0.000652844983678,0.003613197439495
3.632,-0.021442024681015,-0.011497149248578,0.005585772067599,0.000655080754171,0.003613630169268
3.636,-0.021438827288806,-0.011495947221432,0.005585315297284,0.000653229632365,0.003613990777412
3.64,-0.021436206869627,-0.011493543167139,0.00558865693275,0.000654527821683,0.003610865506832
3.644,-0.021434788477594,-0.011493495086054,0.005587695311033,0.000655657727201,0.003610817425746
3.648,-0.021433033517961,-0.011496403991747,0.005588705013836,0.000657773294978,0.003612764709723
3.652,-0.021432360382759,-0.011501476546305,0.005588536730036,0.0006604177547,0.003615769777588
3.656,-0.021431591085385,-0.011501332303047,0.005587382783975,0.000659167646468,0.003614183101755
3.66,-0.02143014865281,-0.011502053519335,0.005588176121892,0.000660706241215,0.003613798453069
3.664,-0.021429956328466,-0.011499505221785,0.005586901973117,0.000661691903475,0.00361331764221
3.668,-0.021430124612267,-0.011497702181065,0.005586661567687,0.00066082644393,0.003614207142298
3.672,-0.021432264220587,-0.011498303194639,0.005588632892207,0.000661619781846,0.003612788750266
3.676,-0.021433995139678,-0.011498038748666,0.005589690676096,0.000658470470723,0.003614543709899
3.68,-0.021434548072165,-0.011498279154096,0.005587454905604,0.000656090456973,0.00361528896673
3.684,-0.021434451909993,-0.011501019775989,0.005585892270314,0.000658518551809,0.003614231182841
3.688,-0.021433826855877,-0.011498711883868,0.005585603783799,0.00066000906547,0.003613918655783
3.692,-0.021434548072165,-0.011496043383604,0.005586373081172,0.000661523619674,0.003612981074609
3.696,-0.021436928085915,-0.011496524194462,0.005587046216374,0.000659696538412,0.003612356020493
3.7,-0.021440101437581,-0.011495466410573,0.005586469243344,0.000659624416783,0.003611274196061
3.704,-0.021441231343098,-0.011496019343061,0.005587719351576,0.000657268443577,0.003612668547551
3.708,-0.021440486086268,-0.011498495518982,0.005588368446235,0.000656643389461,0.003614784115328
3.712,-0.021440365883553,-0.011498086829752,0.005587406824518,0.000653662362138,0.003613245520581
3.716,-0.021442962262189,-0.011497389654007,0.005586589446059,0.000653253672908,0.003612043493435
3.72,-0.021445246113767,-0.01149741369455,0.005590195527497,0.000652820943136,0.003613966736869
3.724,-0.021445486519196,-0.011492581545422,0.005595772933456,0.00065121022676,0.003615481291073
3.728,-0.02144584712734,-0.011494769234829,0.005594763230653,0.000651330429474,0.003612548344836
3.732,-0.021446231776027,-0.011501644830105,0.005589209865237,0.000652243970105,0.003611682885291
3.736,-0.021446664505799,-0.01150193331662,0.005582718918648,0.000653614281052,0.003612235817778
3.74,-0.021446664505799,-0.011498904208212,0.005582286188875,0.000652724780964,0.003614928358586
3.744,-0.021447674208602,-0.011499697546128,0.005580146580555,0.000650873659159,0.003615673615417
3.748,-0.021448731992491,-0.011500707248931,0.005569208133524,0.000649623550926,0.003613774412526
3.752,-0.021448179060004,-0.011502654532908,0.005574064323195,0.000648710010295,0.003614856236957
3.756,-0.021447457843716,-0.011504746060143,0.005585026810768,0.000649936077985,0.003614928358586
3.76,-0.021447914614032,-0.011506020208918,0.005585796108142,0.000650440929386,0.003616923723649
3.764,-0.021448515627605,-0.0115048903034,0.00558569994597,0.000652123767391,0.003618318075139
3.768,-0.021447866532946,-0.011503760397883,0.005582622756476,0.000650729415901,0.003614928358586
3.772,-0.021446952992315,-0.011503856560054,0.005582887202448,0.000647748388578,0.003613341682753
3.776,-0.021446087532769,-0.01150373635734,0.005588536730036,0.000648974456267,0.003615889980303
3.78,-0.021445799046254,-0.011503183424852,0.005587767432662,0.000651811240333,0.003613774412526
3.784,-0.021444717221823,-0.011502967059966,0.005587118338003,0.000651907402504,0.003612644507008
3.788,-0.021443058424361,-0.011505563438602,0.005584401756652,0.000649142740068,0.003616418872247
3.792,-0.02144075053224,-0.011505323033173,0.005580579310327,0.000644839482884,0.003618342115681
3.796,-0.021439115775321,-0.011505178789915,0.005583319932221,0.000643421090852,0.003621731832234
3.8,-0.02143820223469,-0.011507703046922,0.005585411459455,0.000644959685599,0.003622885778294
3.804,-0.021438057991432,-0.011507102033349,0.005584209432309,0.000650008199613,0.003623606994582
3.808,-0.021437529099488,-0.011507174154978,0.005586349040629,0.000647027172291,0.003622116480921
3.812,-0.021436735761571,-0.011505491316973,0.005590195527497,0.000643180685423,0.003619544142828
3.816,-0.021436014545284,-0.011502534330193,0.00559021956804,0.000641065117645,0.003615529372159
3.82,-0.021435365450625,-0.011503808478968,0.005589041581437,0.000643829780081,0.003613485926011
3.824,-0.021436062626369,-0.011502654532908,0.005588392486778,0.000642699874564,0.003612692588094
3.828,-0.021436687680485,-0.011503856560054,0.005589738757182,0.000645440496457,0.003611803088006
3.832,-0.021437312734602,-0.0115048903034,0.005590363811298,0.000644671199084,0.00361447158827
3.836,-0.021437481018402,-0.011505659600774,0.00558865693275,0.000643661496281,0.003613750371983
3.84,-0.021437721423831,-0.01150546727643,0.005588392486778,0.000642964320536,0.003615962101932
3.844,-0.021437456977859,-0.01150349595191,0.005588849257094,0.000642435428592,0.003617693021022
3.848,-0.021437000207543,-0.011502558370736,0.00559144563573,0.000643180685423,0.003615240885644
3.852,-0.02143820223469,-0.011504409492542,0.005589883000439,0.000644911604513,0.003614207142298
3.856,-0.021440125478124,-0.011505755762945,0.00558767127049,0.00064685888849,0.003614567750442
3.86,-0.021440798613326,-0.01150251028965,0.005588632892207,0.000649335064411,0.003616106345189
3.864,-0.021441014978212,-0.011507150114435,0.0055912052303,0.000647147375005,0.00361685160202
3.868,-0.021440942856583,-0.011508183857781,0.005591060987043,0.000645224131571,0.003618125750795
3.872,-0.021439909113237,-0.011505731722402,0.00559178220333,0.000646065550574,0.003616515034419
3.876,-0.021437649302202,-0.011506164452175,0.005590964824871,0.000650705375358,0.003616971804735
3.88,-0.021435125045195,-0.011504433533085,0.00558315164842,0.000652340132277,0.003615649574874
3.884,-0.021432913315246,-0.011505635560231,0.005579954256211,0.000651691037618,0.003616154426275
3.888,-0.021429956328466,-0.011507751128008,0.005583007405163,0.000651522753818,0.003616034223561
3.892,-0.021429764004123,-0.011507943452352,0.005585868229771,0.000651666997075,0.003616995845278
3.896,-0.021431903612443,-0.011508592547011,0.005586493283887,0.00065178719979,0.003618101710252
3.9,-0.021433874936963,-0.011507294357693,0.005588560770578,0.00065096982133,0.003620553845631
3.904,-0.02143565393714,-0.011503015141052,0.005590315730212,0.000648685969752,0.003619087372512
3.908,-0.021435076964109,-0.01150349595191,0.005586637527144,0.000649527388755,0.003619616264456
3.912,-0.021436327072342,-0.01150373635734,0.005585772067599,0.000648710010295,0.003619375859027
3.916,-0.021437865667089,-0.011506981830635,0.005587166419089,0.00064801283455,0.003620193237487
3.92,-0.021437481018402,-0.011508183857781,0.005588921378722,0.000649719713098,0.003618846967083
3.924,-0.021436928085915,-0.011507246276607,0.005586541364973,0.000650657294272,0.003615938061389
3.928,-0.021434620193794,-0.011507053952263,0.005584209432309,0.000651306388931,0.003614808155871
3.932,-0.021431543004299,-0.011509217601127,0.00558339205385,0.00064940718604,0.003616130385732
3.936,-0.021429066828378,-0.011507871330723,0.005585026810768,0.000652436294449,0.003614856236957
3.94,-0.021427696517431,-0.011508183857781,0.005584161351223,0.000651450632189,0.003615553412702
3.944,-0.021426758936257,-0.01150900123624,0.005586300959544,0.00064726757772,0.003617404534507
3.948,-0.021427480152545,-0.011508376182124,0.005589161784152,0.000650416888843,0.003617957466995
3.952,-0.021426999341687,-0.011508280019953,0.005586012473028,0.000645103928857,0.00362096253486
3.956,-0.021426662774086,-0.011508712749725,0.005585315297284,0.000646522320889,0.003620457683459
3.96,-0.02142719166603,-0.011509938817414,0.005587719351576,0.000648541726495,0.003621323143004
3.964,-0.021426879138972,-0.01151056387153,0.005582911242991,0.000645993428945,0.003620337480744
3.968,-0.021426590652457,-0.011511741858134,0.005575218269255,0.000646354037089,0.003621323143004
3.972,-0.021426758936257,-0.011506669303577,0.005581348607701,0.000648854253553,0.003619207575227
3.976,-0.021426927220058,-0.01150702991172,0.005586853892031,0.000647003131748,0.003619592223914
3.98,-0.021425556909111,-0.011511621655419,0.005585868229771,0.000646546361432,0.003619472021199
3.984,-0.021423585584591,-0.011511741858134,0.005581661134759,0.000647700307492,0.003618438277853
3.988,-0.021421470016814,-0.011512150547364,0.005584618121539,0.00065121022676,0.00361742857505
3.992,-0.021421181530299,-0.011510635993159,0.005586036513571,0.00064883021301,0.003618654642739
3.996,-0.021423008611561,-0.011508544465925,0.005586325000086,0.000647868591293,0.003620818291603
4,-0.021423441341334,-0.011509385884927,0.005587454905604,0.000646354037089,0.003621707791691
4.004,-0.021423128814276,-0.011509025276783,0.005588440567864,0.000647916672379,0.003620842332146
4.008,-0.021423176895361,-0.011509746493071,0.005592864027762,0.000648108996722,0.003618582521111
4.012,-0.021422888408846,-0.011513592979939,0.00559457090631,0.000648637888667,0.003619928791515
4.016,-0.021422119111473,-0.011513064087995,0.005590195527497,0.000645801104601,0.003620938494317
4.02,-0.021420267989668,-0.011511597614876,0.005584666202625,0.000645584739715,0.003619159494141
4.024,-0.021419402530122,-0.011509890736329,0.005584978729683,0.000648349402151,0.003618318075139
4.028,-0.02141896980035,-0.011509073357869,0.005585723986513,0.000644526955826,0.003617885345366
4.032,-0.021418993840892,-0.011510299425558,0.005586950054202,0.000644983726142,0.003620577886173
4.036,-0.021417503327231,-0.011509938817414,0.00558865693275,0.000644983726142,0.003622981940466
4.04,-0.021415892610855,-0.011509794574157,0.005587070256917,0.00064274795565,0.003622693453951
4.044,-0.021414570380994,-0.011512871763651,0.005584834486425,0.00063962268507,0.003623895481097
4.048,-0.021413584718734,-0.011514193993512,0.005586036513571,0.000637795603807,0.003623198305352
4.052,-0.021413488556563,-0.011514242074598,0.005587983797548,0.000640464104072,0.003622741535037
4.056,-0.021414378056651,-0.011515275817944,0.005588801176008,0.000640872793302,0.003620601926716
4.06,-0.021415123313482,-0.011514073790798,0.00559021956804,0.000642555631306,0.003620024953686
4.064,-0.02141577240814,-0.011512511155507,0.005588969459808,0.000644166347682,0.003621299102461
4.068,-0.021418993840892,-0.011510780236417,0.005589522392295,0.000643180685423,0.003622260724178
4.072,-0.021420508395097,-0.011509914776871,0.005589089662523,0.000643204725965,0.003623198305352
4.076,-0.021420460314011,-0.011511910141934,0.00558668560823,0.000641594009589,0.00362375123784
4.08,-0.021420869003241,-0.011512799642022,0.005585868229771,0.000638733184981,0.003624400332499
4.084,-0.021421542138443,-0.011509337803841,0.005590195527497,0.000640343901357,0.00362605912996
4.088,-0.021422143152016,-0.011513905506997,0.0055963018254,0.000643300888137,0.003624784981185
4.092,-0.021421806584415,-0.011519795440014,0.005590604216727,0.000643469171938,0.003623486791867
4.096,-0.021421253651927,-0.011517559669522,0.005587238540718,0.000642675834021,0.00362334254861
4.1,-0.021421758503329,-0.01151630956129,0.005591253311386,0.000643060482708,0.003625001346072
4.104,-0.021421878706044,-0.01151195822302,0.0055912052303,0.000641714212304,0.003624087805441
4.108,-0.021421806584415,-0.011511838020305,0.005583536297107,0.00064094491493,0.003621010615946
4.112,-0.021419907381524,-0.011514121871883,0.005580747594128,0.000639983293213,0.003624063764898
4.116,-0.021417791813746,-0.0115150834936,0.005583319932221,0.000639742887784,0.003624087805441
4.12,-0.021421806584415,-0.011516598047805,0.00558043506707,0.000640584306787,0.003625337913673
4.124,-0.021425148219881,-0.011515275817944,0.005579497485896,0.000640391982443,0.00362449649467
4.128,-0.021425148219881,-0.011514626723285,0.005586349040629,0.00063781964435,0.003625962967789
4.132,-0.021424523165765,-0.011516381682918,0.005590772500528,0.000635103063,0.003625121548786
4.136,-0.021423321138619,-0.01151861745341,0.005592118770931,0.000633804873682,0.003624977305529
4.14,-0.021423513462962,-0.011518833818297,0.005593224635906,0.000638011968694,0.003626107211046
4.144,-0.02142423467925,-0.011518641493953,0.005587238540718,0.000640416022986,0.003627140954392
4.148,-0.021425196300967,-0.011518761696668,0.005580362945441,0.000639550563441,0.003624159927069
4.152,-0.021424595287394,-0.011516670169433,0.005582863161905,0.000637459036206,0.00362252517015
4.156,-0.021424258719793,-0.011517150980292,0.005588680973293,0.000635944482002,0.003626515900276
4.16,-0.021426157922684,-0.011516910574863,0.005590868662699,0.000637915806522,0.003626443778647
4.164,-0.021428441774262,-0.01151943483187,0.005588584811121,0.000638853387696,0.003626708224619
4.168,-0.021430389058239,-0.011522752426794,0.005588849257094,0.000640295820271,0.003627261157107
4.172,-0.021433153720675,-0.011523930413397,0.005590556135641,0.000641882496105,0.003627116913849
4.176,-0.021435846261483,-0.011518136642552,0.005588680973293,0.000641738252847,0.003627766008508
4.18,-0.021438562842834,-0.01151688653432,0.005587382783975,0.000643132604337,0.003626083170503
4.184,-0.021440413964639,-0.011517727953322,0.005588368446235,0.000644070185511,0.00362629953539
4.188,-0.021441303464727,-0.011519699277842,0.005590700378899,0.000642579671849,0.003627934292309
4.192,-0.021442168924272,-0.011517391385721,0.005588536730036,0.000638661063353,0.003630242184429
4.196,-0.021443587316305,-0.01151532389903,0.005587719351576,0.00063781964435,0.003629953697914
4.2,-0.021443851762277,-0.011518809777754,0.005591397554644,0.000639069752582,0.003626948630049
4.204,-0.021442745897303,-0.011520204129243,0.005594186257623,0.000639863090499,0.003625770643445
4.208,-0.021439861032152,-0.01151943483187,0.005597575974175,0.000643877861167,0.003626419738104
4.212,-0.021437192531887,-0.011518088561466,0.005592287054732,0.000644070185511,0.003628198738281
4.216,-0.021435365450625,-0.011517848156037,0.005589546432838,0.000646522320889,0.003629328643798
4.22,-0.021433442207191,-0.011515828750431,0.005591806243873,0.000645103928857,0.003629905616828
4.224,-0.02142973996358,-0.01152256010245,0.005591902406045,0.000644094226054,0.003628246819367
4.228,-0.021425148219881,-0.011525132440543,0.005589907040982,0.000639887131042,0.003628631468053
4.232,-0.021422912449389,-0.011523665967425,0.005589522392295,0.000638180252494,0.003628943995111
4.236,-0.021423056692647,-0.011519627156213,0.005589690676096,0.000642146942077,0.003629905616828
4.24,-0.02142522034151,-0.011514746925999,0.005591469676272,0.000641473806875,0.003629232481627
4.244,-0.021427648436346,-0.011516646128891,0.005593344838621,0.000640103495928,0.003628583386968
4.248,-0.021428898544578,-0.011519170385898,0.005592287054732,0.000642291185334,0.003630650873659
4.252,-0.021429355314893,-0.011518473210153,0.005589979162611,0.000643228766508,0.00363081915746
4.256,-0.021430076531181,-0.011520564737387,0.005585098932397,0.000641882496105,0.003632045225149
4.26,-0.021428610058063,-0.01152116575096,0.005583488216021,0.000640728550044,0.003634088671297
4.264,-0.021424619327937,-0.01152099746716,0.005588897338179,0.000641305523074,0.003634425238898
4.268,-0.021421157489756,-0.011522055251049,0.005591686041159,0.000641449766332,0.003633103009038
4.272,-0.021419017881435,-0.011523040913309,0.005590411892384,0.000641161279817,0.003632069265692
4.276,-0.021418344746233,-0.011519651196756,0.005588680973293,0.000641642090675,0.003631997144063
4.28,-0.021416493624428,-0.011518112602009,0.005582863161905,0.000642868158364,0.003631516333204
4.284,-0.021414522299908,-0.011517800074951,0.005584906608054,0.000643036442165,0.00363238179275
4.288,-0.021413248151133,-0.011519002102097,0.005590267649126,0.000641305523074,0.003631756738634
4.292,-0.021412767340275,-0.01152140615639,0.005589858959896,0.000641545928504,0.003630722995288
4.296,-0.021412863502447,-0.011522848588965,0.005588536730036,0.000639815009413,0.003633704022611
4.3,-0.021413440475477,-0.011524699710771,0.005586421162258,0.00063822833358,0.003633679982068
4.304,-0.02141264713756,-0.011523497683624,0.005584113270137,0.000639766928327,0.003634208874012
4.308,-0.021410771975212,-0.011521478278019,0.005583776702536,0.000640512185158,0.003635290698444
4.312,-0.021409209339922,-0.011522487980821,0.005581132242815,0.000639045712039,0.003634473319984
4.316,-0.021407238015402,-0.011525420927058,0.005586757729859,0.000640007333756,0.003634737765956
4.32,-0.02140557921794,-0.011526286386604,0.005590291689669,0.000638877428239,0.00363632444179
4.324,-0.021403463650163,-0.011525901737917,0.005582911242991,0.000637987928151,0.003634569482156
4.328,-0.021403511731249,-0.011526839319091,0.005583488216021,0.000639189955297,0.003633607860439
4.332,-0.021405507096311,-0.011520348372501,0.005586493283887,0.000640536225701,0.003631011481803
4.336,-0.021406588920743,-0.011521358075304,0.005591301392472,0.00064315664488,0.003627790049051
4.34,-0.021407502461374,-0.011522295656478,0.005589858959896,0.000646354037089,0.003629304603255
4.344,-0.02140911317775,-0.011523641926882,0.005587238540718,0.000648205158894,0.003630170062801
4.348,-0.021410195002182,-0.011525757494659,0.005578511823636,0.000648637888667,0.003631828860263
4.352,-0.02141091621847,-0.011527969224608,0.005581637094216,0.000637290752406,0.003631324008861
4.356,-0.021408872772321,-0.011527608616464,0.005587406824518,0.000615077290743,0.003630001779
4.36,-0.021406516799114,-0.011527849021894,0.005587791473205,0.000590171288272,0.003628294900452
4.364,-0.021406276393685,-0.01152436314317,0.005588536730036,0.000567957826609,0.003631612495376
4.368,-0.021407069731602,-0.011522632224079,0.005587454905604,0.000555312501031,0.003630843198003
4.372,-0.021406709123458,-0.011524819913485,0.005586252878458,0.000555913514604,0.003630266224972
4.376,-0.021404954163824,-0.011526406589318,0.005586637527144,0.000576876868035,0.003632982806323
4.38,-0.021405362853054,-0.011528930846325,0.005589161784152,0.000591373315419,0.003632886644151
4.384,-0.02140755054246,-0.011527680738093,0.005589931081525,0.000614668601513,0.003634040590212
4.388,-0.021410723894126,-0.011526863359634,0.005591181189757,0.00064094491493,0.003631997144063
4.392,-0.021412959664618,-0.011525757494659,0.005590484014013,0.000654191254082,0.003630795116917
4.396,-0.021412839461904,-0.011523882332311,0.005592695743962,0.000650633253729,0.003634401198356
4.4,-0.021411757637472,-0.011523786170139,0.005590339770755,0.000651282348388,0.003635963833646
4.404,-0.021409209339922,-0.011524964156743,0.005588849257094,0.000650440929386,0.003636829293191
4.408,-0.021406925488344,-0.011525084359457,0.005587575108319,0.00064645019926,0.003636516766133
4.412,-0.021405747501741,-0.011523738089053,0.005587358743432,0.000645945347859,0.003637189901335
4.416,-0.021404665677309,-0.011522776467336,0.005587214500175,0.000646714645233,0.00363764667165
4.42,-0.021404281028622,-0.011524291021541,0.005588536730036,0.000650489010472,0.003638752536625
4.424,-0.021404281028622,-0.01152789710298,0.005589907040982,0.000648493645409,0.003639834361057
4.428,-0.021405795582826,-0.011529868427499,0.005590844622156,0.000646810807404,0.003640627698973
4.432,-0.021406949528887,-0.011529291454469,0.005591734122245,0.00064767626695,0.003643680847925
4.436,-0.021407598623546,-0.011529652062613,0.005594114135994,0.000647339699349,0.003645339645387
4.44,-0.021408055393861,-0.011529291454469,0.005598080825577,0.000648445564323,0.003641685482862
4.444,-0.021409593988609,-0.011524819913485,0.005594859392825,0.000652604578249,0.003641901847748
4.448,-0.021412935624075,-0.011530661765416,0.005588993500351,0.000653710443224,0.00364257498295
4.452,-0.021414906948595,-0.01153316198188,0.005595171919883,0.000652219929562,0.003643656807382
4.456,-0.021416060894656,-0.011532152279077,0.005600484879869,0.000651282348388,0.003644570348013
4.46,-0.02141699847583,-0.011530733887045,0.005590724419442,0.000649912037442,0.003644594388556
4.464,-0.021419017881435,-0.01152806538678,0.005590940784328,0.000651354470017,0.003643079834352
4.468,-0.021422287395273,-0.011528425994924,0.005596830717345,0.000651811240333,0.003644690550728
4.472,-0.021423633665677,-0.011532825414279,0.005592623622333,0.000651474672732,0.003649330375512
4.476,-0.021424258719793,-0.011529940549128,0.005589354108495,0.000652508416078,0.00364808026728
4.48,-0.021427576314717,-0.011528666400353,0.005588897338179,0.0006502245645,0.003648777443025
4.484,-0.021430533301497,-0.011529339535555,0.005590027243697,0.000648541726495,0.003647166726649
4.488,-0.021430268855524,-0.011528858724697,0.005594258379252,0.000649791834727,0.003645964699503
4.492,-0.021429259152722,-0.011527945184065,0.005593465041335,0.000649839915813,0.003645748334616
4.496,-0.02142817732829,-0.011524555467513,0.00558824824352,0.000649166780611,0.003645291564301
4.5,-0.021427816720146,-0.011526622954205,0.00558807995972,0.000648878294096,0.003646998442848
4.504,-0.021428297531005,-0.011528185589495,0.005589907040982,0.00064899849681,0.003645411767015
4.508,-0.021429715923037,-0.011529435697727,0.005592623622333,0.000648950415725,0.003644979037243
4.512,-0.021431951693529,-0.011530685805959,0.005592623622333,0.000649527388755,0.003648056226737
4.516,-0.021434307666736,-0.011530060751843,0.00559021956804,0.000650416888843,0.003646445510361
4.52,-0.021434307666736,-0.011528281751666,0.005590027243697,0.000647940712922,0.003648993807911
4.524,-0.021433923018049,-0.011530180954557,0.005586877932574,0.000646233834374,0.003651133416231
4.528,-0.021435028883024,-0.011532945616994,0.005586012473028,0.000648878294096,0.003653657673239
4.532,-0.021436928085915,-0.011532633089936,0.005590075324783,0.00065195548359,0.003652119078491
4.536,-0.021438538802291,-0.011533594711653,0.005591493716815,0.000651570834903,0.003650556443201
4.54,-0.021440101437581,-0.011531382981704,0.005589810878811,0.000652604578249,0.003649450578227
4.544,-0.02144231316753,-0.011529724184242,0.005588825216551,0.000652219929562,0.003649763105285
4.548,-0.021443996005535,-0.011532344603421,0.005587406824518,0.00065253245662,0.0036502198756
4.552,-0.021445823086797,-0.011530974292474,0.005588897338179,0.000650705375358,0.00365178251089
4.556,-0.021446904911229,-0.011528281751666,0.005590003203154,0.000653710443224,0.003652070997406
4.56,-0.02144839542489,-0.01153061368433,0.005590508054555,0.000654623983855,0.003651926754148
4.564,-0.021452386155016,-0.01153258500885,0.005590435932927,0.000655032673085,0.003652070997406
4.568,-0.021455631628311,-0.01153217631962,0.005589113703066,0.000655777929915,0.003653657673239
4.572,-0.021456713452742,-0.011531142576274,0.005582911242991,0.000653638321595,0.003653705754324
4.576,-0.0214570259798,-0.011530012670757,0.005579208999381,0.000653638321595,0.003652527767721
4.58,-0.021459598317893,-0.01152707972452,0.005582718918648,0.0006502245645,0.003651349781118
4.584,-0.021461810047842,-0.011533474508938,0.005589378149038,0.000650152442871,0.003651253618946
4.588,-0.021462002372186,-0.011532825414279,0.005589161784152,0.000646714645233,0.003651542105461
4.592,-0.021460944588297,-0.011533378346767,0.005585243175655,0.000652075686305,0.003652984538037
4.596,-0.021462146615443,-0.011534628454999,0.005583536297107,0.000651402551103,0.003652046956863
4.6,-0.021464141980506,-0.011531575306047,0.005586613486602,0.000650032240156,0.003654018281383
4.604,-0.021466161386112,-0.011531262778989,0.005588993500351,0.000650729415901,0.003656758903276
4.608,-0.021468974129634,-0.011533186022423,0.005590820581613,0.000650753456444,0.003656157889703
4.612,-0.02147041656221,-0.011534700576627,0.005588031878634,0.000649262942783,0.003654426970612
4.616,-0.021469695345922,-0.011532440765592,0.005586853892031,0.000647387780434,0.003653946159754
4.62,-0.021468950089091,-0.011533378346767,0.005586325000086,0.000645055847771,0.003655893443731
4.624,-0.021467964426831,-0.011534339968484,0.005585820148685,0.000647772429121,0.003654859700385
4.628,-0.021467435534887,-0.011534436130655,0.005586757729859,0.000647483942606,0.003654595254413
4.632,-0.021466281588826,-0.01153241672505,0.00559005128424,0.000647003131748,0.003655052024728
4.636,-0.021463444804761,-0.01153397936034,0.005587935716462,0.000646666564147,0.003651494024375
4.64,-0.021461088831555,-0.01153316198188,0.005582815080819,0.000644502915283,0.00365178251089
4.644,-0.021459093466492,-0.011532392684507,0.005585772067599,0.00064274795565,0.003653056659666
4.648,-0.021458300128575,-0.011534844819885,0.00558692601366,0.000640752590587,0.003651974835234
4.652,-0.021456569209485,-0.011537080590377,0.005588560770578,0.000642820077279,0.003651950794691
4.656,-0.021454141114649,-0.011537345036349,0.005588128040806,0.000641786333933,0.003649522699855
4.66,-0.021452001506329,-0.011537561401236,0.005587046216374,0.00064291623945,0.003650941091888
4.664,-0.021451232208955,-0.011533618752196,0.005585387418912,0.000643373009766,0.00365178251089
4.668,-0.021450895641354,-0.011532152279077,0.005585195094569,0.00064447887474,0.003652984538037
4.672,-0.021449837857466,-0.011536070887574,0.005587887635377,0.000644599077455,0.003651518064918
4.676,-0.021448034816746,-0.011536503617347,0.005588921378722,0.000643589374652,0.003648320672709
4.68,-0.021446544303085,-0.011535998765945,0.005585243175655,0.000645849185687,0.003649811186371
4.684,-0.021446183694941,-0.011535806441602,0.005578511823636,0.000646955050662,0.003651373821661
4.688,-0.021446928951772,-0.011534989063143,0.005583079526792,0.000645079888314,0.003652960497494
4.692,-0.021448203100547,-0.011532368643964,0.005586853892031,0.000642675834021,0.003655436673415
4.696,-0.02144822714109,-0.011538907671639,0.005588993500351,0.000643781698996,0.003659355281912
4.7,-0.02144469318128,-0.011541696374619,0.005587286621803,0.000643541293566,0.003663442174209
4.704,-0.021440822653869,-0.011540181820414,0.005582959324077,0.000644430793655,0.00366476440407
4.708,-0.021439163856407,-0.011539196158154,0.005574785539482,0.000645560699172,0.003663634498553
4.712,-0.021437841626546,-0.011541191523217,0.005580290823812,0.000645392415372,0.003662769039007
4.716,-0.021435197166824,-0.011542754158507,0.005588320365149,0.000646426158717,0.003664259552669
4.72,-0.021433923018049,-0.011542081023305,0.005588320365149,0.000646906969576,0.003662456511949
4.724,-0.021434884639766,-0.011539124036526,0.005587118338003,0.000647363739891,0.003661999741634
4.728,-0.021436591518314,-0.011536960387662,0.005586084594657,0.000647796469664,0.003661206403717
4.732,-0.021438322437404,-0.011535590076716,0.005588536730036,0.000647387780434,0.003658922552139
4.736,-0.021440606288982,-0.011533955319797,0.005590243608583,0.000647243537177,0.003657864768251
4.74,-0.021441423667442,-0.011533931279254,0.005593104433191,0.000645344334286,0.003659451444084
4.744,-0.021441760235043,-0.011535061184771,0.005592839987219,0.000645488577543,0.003657239714135
4.748,-0.021442337208073,-0.011536551698433,0.005589979162611,0.000648229199437,0.003658585984538
4.752,-0.021444092167706,-0.01153751332015,0.005590700378899,0.000649479307669,0.003657912849336
4.756,-0.021444909546166,-0.011538186455352,0.005595340203683,0.000647700307492,0.003656590619476
4.76,-0.021442361248616,-0.01154104727996,0.005594138176537,0.000644983726142,0.00365851386291
4.764,-0.021439404261836,-0.011540662631273,0.005594017973823,0.000647123334462,0.003657840727708
4.768,-0.02143935618075,-0.01153982121227,0.005593441000792,0.000649118699525,0.003657071430334
4.772,-0.021440101437581,-0.011539676969013,0.005592118770931,0.000649166780611,0.003656326173503
4.776,-0.021438803248263,-0.011537922009379,0.005593489081878,0.000650729415901,0.0036549799031
4.78,-0.021437769504917,-0.011536311293003,0.005595484446941,0.000649070618439,0.003656782943819
4.784,-0.021438755167177,-0.011535566036173,0.00559531616314,0.00064685888849,0.003657407997935
4.788,-0.021440293761924,-0.011535806441602,0.00559178220333,0.000645055847771,0.003654667376042
4.792,-0.021442962262189,-0.011536744022776,0.00559317655482,0.000644767361256,0.003656013646445
4.796,-0.021444813383994,-0.011537296955263,0.005592575541247,0.000644839482884,0.003655268389615
4.8,-0.021445630762454,-0.011537873928294,0.005592647662876,0.000644382712569,0.003655412632872
4.804,-0.02144469318128,-0.011532921576451,0.005590868662699,0.000644238469311,0.003652479686635
4.808,-0.021444116208249,-0.011538715347296,0.005590484014013,0.000645079888314,0.003653898078668
4.812,-0.021443683478477,-0.011540999198874,0.005591686041159,0.00064291623945,0.003652840294779
4.816,-0.021444116208249,-0.011541023239417,0.005587118338003,0.000645392415372,0.003654066362468
4.82,-0.021445582681368,-0.011541936780048,0.005579160918295,0.000646666564147,0.003653441308352
4.824,-0.021445534600282,-0.011540518388015,0.005582286188875,0.00064471928017,0.003652936456951
4.828,-0.021445173992138,-0.011541023239417,0.005588680973293,0.000644599077455,0.003655460713958
4.832,-0.021446039451683,-0.011541912739505,0.005591349473558,0.000645055847771,0.003652503727178
4.836,-0.02144625581657,-0.011541888698962,0.00559005128424,0.000641618050132,0.003652672010979
4.84,-0.021445943289512,-0.011542754158507,0.005590075324783,0.000642050779905,0.003652503727178
4.844,-0.021445895208426,-0.011539797171728,0.005588608851664,0.000642243104248,0.003651854632519
4.848,-0.021447746330231,-0.011538066252637,0.005589618554467,0.00064274795565,0.003651229578403
4.852,-0.021450030181809,-0.011541119401588,0.005591373514101,0.000642267144791,0.003649450578227
4.856,-0.021451664938728,-0.011541744455705,0.005593465041335,0.000641954617733,0.00364923421334
4.86,-0.021451568776556,-0.01154260991525,0.005593441000792,0.000643060482708,0.003647455213164
4.864,-0.021450054222352,-0.011544124469454,0.005593344838621,0.000647195456091,0.00364865724031
4.868,-0.021447650168059,-0.011540277982586,0.005595171919883,0.000643397050309,0.003651662308176
4.872,-0.021446448140913,-0.011538426860781,0.005594282419795,0.000642074820448,0.003653465348895
4.876,-0.021447578046431,-0.011542297388192,0.005589498351753,0.000642122901534,0.003653369186724
4.88,-0.021449741695294,-0.011542922442308,0.005590820581613,0.000643445131395,0.003651109375689
4.884,-0.021449597452036,-0.011544533158684,0.0055912052303,0.000641978658276,0.003651494024375
4.888,-0.021448707951948,-0.011548499848267,0.005592623622333,0.000640896833845,0.003651830591976
4.892,-0.021447674208602,-0.011546937212976,0.005593368879164,0.000643853820624,0.003650772808088
4.896,-0.021448948357377,-0.01154573518583,0.005593777568393,0.000646257874917,0.003650123713429
4.9,-0.021451472614384,-0.011542273347649,0.00559497959554,0.000642699874564,0.003648873605197
4.904,-0.021452097668501,-0.011542706077422,0.005596397987572,0.00064094491493,0.003649787145828
4.908,-0.021450847560268,-0.01154220122602,0.005595460406398,0.000640704509501,0.003649258253883
4.912,-0.021449405127693,-0.011543908104568,0.005595748892913,0.000641978658276,0.003649931389085
4.916,-0.021449669573665,-0.011543547496424,0.005595027676625,0.000638324495752,0.003651494024375
4.92,-0.02144995806018,-0.011543980226197,0.005592455338532,0.000639430360726,0.003652888375865
4.924,-0.021449333006064,-0.011544797604656,0.005591902406045,0.000640223698643,0.003651157456774
4.928,-0.021447626127516,-0.011544917807371,0.005589738757182,0.000642122901534,0.003647262888821
4.932,-0.021447674208602,-0.011544004266739,0.005583488216021,0.000643853820624,0.00364709460502
