time,channel1,channel2,channel3,channel4,channel5
0,0.00567388065742,-0.017117900306134,-0.013591609429313,0.001436638804671,-0.004850179535172
0.004,0.005685684563997,-0.01711753969799,-0.013588508199276,0.001430772912197,-0.004809190409484
0.008,0.005691334091584,-0.017116914643874,-0.013589181334478,0.001428008249761,-0.00480118490869
0.012,0.005694651686508,-0.017112947954291,-0.013588940929048,0.001431638371742,-0.004777192446851
0.016,0.005698065443603,-0.017113356643521,-0.013591945996914,0.001434835763951,-0.004775197081788
0.02,0.005697344227315,-0.017116794441159,-0.013597282997443,0.001428032290304,-0.00477175928415
0.024,0.005702128295357,-0.017115688576184,-0.013600432308567,0.001421709627514,-0.004741804767665
0.028,0.005702729308931,-0.017117683941247,-0.013601345849198,0.001426806222614,-0.004727741050054
0.032,0.005702945673817,-0.017120953455085,-0.013598340781332,0.001431013317626,-0.004722380008981
0.036,0.005698978984234,-0.017121722752459,-0.013595311672923,0.001438321642676,-0.004743054875897
0.04,0.005699387673464,-0.01712025627934,-0.013601345849198,0.001440365088824,-0.004686487478394
0.044,0.005701743646671,-0.017118020508848,-0.013600576551824,0.001439884277966,-0.004688314559656
0.048,0.005702416781873,-0.017116385751929,-0.013598533105675,0.001441494994342,-0.004657879232313
0.052,0.00571554291831,-0.01711967930631,-0.013597355119072,0.001439042858963,-0.004687328897396
0.056,0.005720759716125,-0.017121362144315,-0.013586801320728,0.001438874575163,-0.004654008704902
0.06,0.005709148133892,-0.017123766198607,-0.013583555847433,0.00144534148121,-0.004652734556127
0.064,0.00569984444378,-0.017121410225401,-0.013580238252509,0.001453851833405,-0.004609629862662
0.068,0.005700349295181,-0.0171163136303,-0.013579517036222,0.001456856901271,-0.004613259984643
0.072,0.00569097348344,-0.017117876265591,-0.01358156048237,0.001454284563178,-0.004615928484908
0.076,0.005681645752785,-0.017120376482055,-0.013581921090514,0.001450317873595,-0.004588546306516
0.08,0.00568152555007,-0.017120809211828,-0.013580959468797,0.001446303102927,-0.004573016115787
0.084,0.005684963347709,-0.017119294657623,-0.013579877644365,0.001445846332611,-0.004564914452821
0.088,0.005682679496131,-0.017117972427762,-0.013580310374138,0.001451664143999,-0.004564601925763
0.092,0.005677534819945,-0.01712025627934,-0.013582594225716,0.001457169428329,-0.0045374601528
0.096,0.005676116427912,-0.017120448603684,-0.013584613631322,0.001456207806612,-0.004540152693608
0.1,0.005681621712242,-0.017120929414542,-0.013585935861183,0.00145298637386,-0.004509068271605
0.104,0.00568546819911,-0.017123694076979,-0.013585334847609,0.001452890211688,-0.004524694624507
0.108,0.005702681227845,-0.017123862360779,-0.01358567141521,0.001455967401183,-0.004482142863529
0.112,0.005708282674346,-0.017121674671373,-0.013588508199276,0.001458924387963,-0.004492239891558
0.116,0.005704965079423,-0.017119823549568,-0.013591056496826,0.001457121347243,-0.004464280740136
0.12,0.005707825904031,-0.017122660333633,-0.013585959901726,0.001455053860552,-0.004479690728151
0.124,0.005708042268917,-0.017120881333456,-0.01358139219857,0.001459837928594,-0.004456010793369
0.128,0.005709556823121,-0.017122780536347,-0.013593484591661,0.001458924387963,-0.004444086684078
0.132,0.005714509174964,-0.017122516090375,-0.01359963897065,0.001454500928064,-0.004429445993437
0.136,0.005715951607539,-0.017124992266297,-0.013595552078353,0.001456472252584,-0.004442403846074
0.14,0.005713210985646,-0.017122852657976,-0.013594758740436,0.001459813888051,-0.004420382708754
0.144,0.005710999255697,-0.017119414860338,-0.013596585821698,0.001460535104339,-0.004381677434644
0.148,0.005714316850621,-0.017122948820148,-0.013589421739907,0.001460246617823,-0.004395260341397
0.152,0.005722057905442,-0.017123814279693,-0.013588243753303,0.00145890034742,-0.004370690906528
0.156,0.005717754648259,-0.017120184157711,-0.013594013483605,0.00145808296896,-0.004368431095493
0.16,0.005710662688096,-0.017119294657623,-0.013584854036751,0.001457289631044,-0.004331072091787
0.164,0.005700445457353,-0.017121097698343,-0.013579204509164,0.001456953063443,-0.004346698444688
0.168,0.005695949875826,-0.017120929414542,-0.013576944698129,0.001453875873948,-0.004343501052479
0.172,0.005698906862605,-0.017118982130565,-0.013573675184291,0.00145512598218,-0.004328643996951
0.176,0.005698209686861,-0.017120977495628,-0.01357350690049,0.001456953063443,-0.004329148848353
0.18,0.005696286443427,-0.017122011238974,-0.013577473590073,0.001456159725526,-0.004297463412777
0.184,0.005690612875296,-0.017120977495628,-0.013577401468444,0.001457530036473,-0.004310156819442
0.188,0.005690059942809,-0.017119486981967,-0.013575694589896,0.001451712225085,-0.004289602155241
0.192,0.005695396943338,-0.017121458306486,-0.013574396400578,0.001447336846273,-0.004252675881307
0.196,0.005698906862605,-0.017122251644403,-0.013575694589896,0.001445365521753,-0.004236688920262
0.2,0.005698017362517,-0.017120160117169,-0.013578867941563,0.001451183333141,-0.004238155393381
0.204,0.005698522213919,-0.017119559103595,-0.013579468955136,0.00146341996949,-0.004242434610021
0.208,0.005704436187478,-0.017122660333633,-0.013576367725098,0.001464886442608,-0.00422935655467
0.212,0.005705325687566,-0.017123766198607,-0.013573170332889,0.001459549442079,-0.004210484728474
0.216,0.005704604471279,-0.017123718117521,-0.013582041293229,0.001465006645323,-0.004191492699563
0.22,0.005705085282137,-0.017122251644403,-0.013592210442886,0.001461400563884,-0.004200291538273
0.224,0.005714941904737,-0.017123069022862,-0.013590695888682,0.001458323374389,-0.0041996905247
0.228,0.00571513422908,-0.017121121738886,-0.013581584522913,0.001457554077016,-0.004170457224503
0.232,0.005708907728462,-0.017122996901234,-0.013577353387358,0.001457193468872,-0.004140262302589
0.236,0.005706840241771,-0.017122203563317,-0.013579204509164,0.001455390428153,-0.004146200316691
0.24,0.005705277606481,-0.017123862360779,-0.013579637238936,0.001456904982357,-0.004158557155755
0.244,0.005704412146935,-0.017121939117345,-0.013574757008722,0.001458443577104,-0.004150431452246
0.248,0.005708715404119,-0.01712222760386,-0.013576223481841,0.001461280361169,-0.004100138636447
0.252,0.005708979850091,-0.017121506387572,-0.013582233617572,0.00146671352387,-0.004093455365513
0.256,0.005698666457176,-0.01712181891463,-0.013586921523443,0.001468131915903,-0.0041038649206
0.26,0.00569138217267,-0.017124343171638,-0.013581368158027,0.001469646470107,-0.004096965284781
0.264,0.00569763271383,-0.017126410658329,-0.013574540643836,0.001469910916079,-0.004063116200342
0.268,0.00570453234965,-0.017122684374176,-0.013577233184644,0.001468973334905,-0.004085233499833
0.272,0.00570609498494,-0.017119366779252,-0.013574276197864,0.001470223443137,-0.004053884631858
0.276,0.005701960011557,-0.017120136076626,-0.013570501832625,0.001472387092001,-0.004023112736914
0.28,0.005705710336253,-0.01712222760386,-0.013566078372726,0.001473661240776,-0.004030853791736
0.284,0.00571472553985,-0.017122852657976,-0.013567737170188,0.001474310335435,-0.004017823817471
0.288,0.005707777822945,-0.017121578509201,-0.013575021454695,0.00147262749743,-0.004002341707827
0.292,0.005702609106216,-0.017123381549921,-0.013578747738848,0.001468372321332,-0.0039980144101
0.296,0.005707609539144,-0.017125857725842,-0.013581608563456,0.001468997375448,-0.0039728680022
0.3,0.00570609498494,-0.017127035712445,-0.013584998280009,0.001468228078075,-0.00394894766199
0.304,0.005705277606481,-0.017124655698696,-0.013583002914946,0.00146613655084,-0.003958299433188
0.308,0.005708186512175,-0.017123381549921,-0.013574011751892,0.001464766239893,-0.003929018051905
0.312,0.005706695998513,-0.01712304498232,-0.013566679386299,0.001465655739982,-0.003941230647711
0.316,0.005708402877061,-0.017122732455262,-0.013567689089102,0.001460655307053,-0.00393341747126
0.32,0.005703498606304,-0.017124054685122,-0.013566919791729,0.001457409833758,-0.003924907119064
0.324,0.005704724673993,-0.017121578509201,-0.01356603029164,0.001454116279378,-0.003915387064066
0.328,0.005707128728286,-0.017122492049832,-0.013567544845845,0.001449428373507,-0.003908247022817
0.332,0.0057070806472,-0.01712304498232,-0.013571655778685,0.001446615629985,-0.003910771279824
0.336,0.005711263701669,-0.017120953455085,-0.013570093143395,0.001461063996283,-0.003902309008715
0.34,0.005715759283196,-0.017123165185034,-0.013556149628498,0.001495441972666,-0.003873268032861
0.344,0.005718355661832,-0.017125449036612,-0.013558842169306,0.001536334936182,-0.003843049070404
0.348,0.005709893390722,-0.017124271050009,-0.013561077939798,0.001583334197601,-0.003837976515847
0.352,0.005700685862782,-0.017123093063405,-0.013562520372373,0.001624756053061,-0.003815378405497
0.356,0.005706960444485,-0.017123429631006,-0.013565309075353,0.001629900729247,-0.003837495704988
0.36,0.005703354363047,-0.017125473077155,-0.013564323413093,0.001622159674425,-0.003806892093844
0.364,0.005698474132833,-0.017122083360603,-0.013569299805478,0.001608336362243,-0.00378811642982
0.368,0.005700469497896,-0.017120568806398,-0.013580286333595,0.00157946367019,-0.003797131633417
0.372,0.005705854579511,-0.017121602549744,-0.013575526306096,0.001548210964387,-0.003768835914394
0.376,0.005704748714536,-0.017122660333633,-0.013563650277891,0.001525805178381,-0.003767129035846
0.38,0.005702464862958,-0.017122588212004,-0.013558770047677,0.00150484182495,-0.003765013468068
0.384,0.005704748714536,-0.017121842955173,-0.01355583710144,0.001489095269334,-0.003754796237325
0.388,0.005704436187478,-0.017124727820324,-0.013550427979282,0.001479190565649,-0.003750661263942
0.392,0.005707441255344,-0.01712814157742,-0.013548023924989,0.001472194767657,-0.003720923112344
0.396,0.005709484701493,-0.017128261780134,-0.013543143694776,0.001466449077898,-0.003705657367586
0.4,0.005709725106922,-0.017126699144844,-0.013543864911063,0.001462674712659,-0.003716451571359
0.404,0.005709652985293,-0.017123645995893,-0.013542085910887,0.001467675145587,-0.003708422030022
0.408,0.005711383904384,-0.017122347806575,-0.013545331384182,0.001467170294186,-0.003677145283677
0.412,0.005717442121201,-0.017124583577067,-0.013548072006075,0.001462482388315,-0.003664716322984
0.416,0.005728572892575,-0.017125977928556,-0.013547134424901,0.001462241982886,-0.003652984538037
0.42,0.005736193744683,-0.017125208631183,-0.013545427546354,0.001471257186483,-0.003642238415349
0.424,0.005729991284608,-0.017126314496157,-0.01354482653278,0.00147181011897,-0.003637021617534
0.428,0.005716264134597,-0.017126386617786,-0.013543696627263,0.001465343212924,-0.003621972237663
0.432,0.00570609498494,-0.017127829050362,-0.013542735005546,0.00146260259103,-0.003604446681871
0.436,0.005711215620583,-0.017126434698872,-0.013545187140924,0.001460583185424,-0.003608509533625
0.44,0.005718620107804,-0.017127420361132,-0.013546821897843,0.001458539739276,-0.003577016422393
0.444,0.005726938135656,-0.017125064387925,-0.013543816829978,0.001459333077192,-0.003569515773
0.448,0.005726769851856,-0.017123333468835,-0.013547591195217,0.001461568847684,-0.003612668547551
0.452,0.005716240094055,-0.017121915076802,-0.013566559183585,0.001461761172028,-0.003578122287367
0.456,0.005709172174435,-0.017123381549921,-0.013568482427019,0.001461136117912,-0.003569203245942
0.46,0.005709412579864,-0.017123165185034,-0.013549706762994,0.001456087603897,-0.003559106217914
0.464,0.005715807364282,-0.017123093063405,-0.013542374397402,0.001454861536208,-0.003536676391364
0.468,0.005717874850973,-0.017122419928204,-0.013543528343462,0.001455799117382,-0.003542133594608
0.472,0.005722178108157,-0.01712518459064,-0.013549851006252,0.00145454900915,-0.003518549821999
0.476,0.005726841973485,-0.017128069455791,-0.013546172803184,0.001449837062737,-0.003499485671459
0.48,0.005722442554129,-0.01712732419896,-0.013540210748539,0.001441903683571,-0.003484147805073
0.484,0.005716985350885,-0.017128550266649,-0.013536941234701,0.001438658210277,-0.003492874522154
0.488,0.005715831404825,-0.017128622388278,-0.013538720234877,0.001442168129544,-0.003472199655239
0.492,0.005717922932059,-0.017127684807104,-0.013538960640307,0.001455270225438,-0.003497947076712
0.496,0.005713259066732,-0.017127300158417,-0.013536316180585,0.00145791468516,-0.003492297549124
0.5,0.005709412579864,-0.017128550266649,-0.013538287505105,0.00145652033367,-0.003495230495361
0.504,0.005706407511998,-0.017132300591346,-0.013542662883917,0.001453010414403,-0.003484243967244
0.508,0.005710806931353,-0.017130930280399,-0.013547495033045,0.001449548576222,-0.003457030072653
0.512,0.005717586364458,-0.017130136942483,-0.013550427979282,0.001450582319567,-0.00345388076153
0.516,0.005712081080128,-0.017126867428645,-0.013547855641189,0.001451447779113,-0.003447870625798
0.52,0.005707248931001,-0.017126891469188,-0.013545716032869,0.001452144954858,-0.003420224001434
0.524,0.005704892957794,-0.017125665401498,-0.013544369762465,0.001449981305994,-0.003409838486891
0.528,0.005710326120495,-0.017123477712092,-0.013546268965356,0.001445197237952,-0.003403660067359
0.532,0.0057172738374,-0.017122443968746,-0.013556967006958,0.001439884277966,-0.003375556672679
0.536,0.005719269202463,-0.017124727820324,-0.013568770913534,0.001437360020959,-0.003398563472259
0.54,0.005720903959382,-0.017124174887837,-0.013563049264318,0.001436614764128,-0.003372864131872
0.544,0.005721961743271,-0.017122900739062,-0.01354622088427,0.001434571317979,-0.003353487454274
0.548,0.005714413012792,-0.017126627023215,-0.013542422478488,0.001430917155455,-0.003347813886143
0.552,0.005708619241947,-0.017127372280046,-0.013537133559044,0.0014266860199,-0.003332956830616
0.556,0.005712105120671,-0.017126314496157,-0.013537542248274,0.001423632870948,-0.003305839098196
0.56,0.005710013593437,-0.017128261780134,-0.013535522842668,0.001426589857728,-0.003300093408437
0.564,0.005711335823298,-0.017128093496334,-0.013536556586014,0.001428056330847,-0.003292280231986
0.568,0.005715999688625,-0.017123742158064,-0.013538215383476,0.001425652276554,-0.003281510068756
0.572,0.005716432418398,-0.017125569239327,-0.013543143694776,0.001428392898447,-0.003288505866747
0.576,0.005720591432324,-0.017126146212357,-0.013549634641365,0.001431614331199,-0.003252084444215
0.58,0.005722346391958,-0.017123141144491,-0.013549081708878,0.001431397966313,-0.003268936864806
0.584,0.00572515913548,-0.017121290022686,-0.013545211181467,0.001430676750025,-0.003266556851056
0.588,0.005724365797563,-0.017121362144315,-0.013545115019296,0.001432095142058,-0.003254055768735
0.592,0.005725639946338,-0.017122660333633,-0.013544994816581,0.001434210709835,-0.003237515875202
0.596,0.005729246027777,-0.017120304360426,-0.013551870411858,0.001437600426388,-0.003245377132739
0.6,0.00572811612226,-0.017119222535994,-0.013556918925872,0.00143745618313,-0.003238501537462
0.604,0.005732683825415,-0.017120568806398,-0.013551461722628,0.001440942061854,-0.003215807264941
0.608,0.005742540448015,-0.017119535063052,-0.013551269398284,0.001444668346008,-0.003199868384981
0.612,0.005739367096349,-0.017121458306486,-0.013556005385241,0.001445774210982,-0.003200180912039
0.616,0.005725904392311,-0.017125665401498,-0.013554298506693,0.001443826927005,-0.003204099520536
0.62,0.005721601135127,-0.017126122171814,-0.013550500100911,0.001439403467107,-0.00319525260074
0.624,0.005720735675582,-0.017122612252547,-0.013549538479194,0.001440581453711,-0.003172317922789
0.628,0.005724798527336,-0.017120689009113,-0.013548384533133,0.001447577251702,-0.003182511112989
0.632,0.005731914528042,-0.01712025627934,-0.013547975843904,0.001446880075957,-0.0031561386374
0.636,0.005726553486969,-0.01712321326612,-0.013544802492237,0.001450678481739,-0.003146570501316
0.64,0.005721601135127,-0.017123742158064,-0.013537830734789,0.001458131050046,-0.003133829013566
0.644,0.005720855878296,-0.017124222968923,-0.013541893586544,0.001455414468695,-0.003113658998051
0.648,0.005718716269976,-0.017122107401145,-0.013549562519737,0.001450558279025,-0.00310863452458
0.652,0.005707537417516,-0.017123093063405,-0.01355312052009,0.001451279495312,-0.003106446835174
0.656,0.00570453234965,-0.017123573874264,-0.013552615668688,0.001452193035943,-0.003084089130253
0.66,0.005702128295357,-0.01711910233328,-0.013557207412387,0.001456592455299,-0.003064351844512
0.664,0.005707200849915,-0.017119006171108,-0.013561510669571,0.001459164793392,-0.003047523464464
0.668,0.005721240526983,-0.017119799509025,-0.013557159331301,0.001460342779995,-0.0030502881269
0.672,0.005736025460882,-0.017122347806575,-0.013556365993385,0.00146103995574,-0.003085507522286
0.676,0.005741699029012,-0.017122900739062,-0.013564756142865,0.00146103995574,-0.003039566044756
0.68,0.005740136393722,-0.017121121738886,-0.013571319211084,0.001459236915021,-0.00304757154555
0.684,0.005739944069379,-0.017120208198254,-0.013565813926754,0.001458058928417,-0.003045095369629
0.688,0.005736626474455,-0.017122323766032,-0.013550788587426,0.001460222577281,-0.003013313771881
0.692,0.005734006055276,-0.017120184157711,-0.01354934615485,0.001462963199174,-0.003001846432906
0.696,0.005733332920074,-0.017120328400969,-0.013549033627792,0.001459765806965,-0.002999394297528
0.7,0.00573633798794,-0.01712205932006,-0.013545211181467,0.001456159725526,-0.002992398499536
0.704,0.00573494363645,-0.01712222760386,-0.013543215816404,0.001451928589971,-0.002988383728868
0.708,0.005738693961147,-0.017122179522774,-0.013544514005722,0.001452385360287,-0.00294270669731
0.712,0.005745232988822,-0.017122443968746,-0.013545884316669,0.001452842130602,-0.002924772452288
0.716,0.005730952906325,-0.017122492049832,-0.013546749776214,0.001457433874301,-0.002956241522977
0.72,0.005717177675229,-0.017121698711916,-0.013550115452224,0.00145298637386,-0.00295150553602
0.724,0.005715062107451,-0.017120376482055,-0.013550980911769,0.001450053427623,-0.002920853843791
0.728,0.005719148999749,-0.017120520725312,-0.013554466790493,0.001449933224909,-0.002915300478375
0.732,0.005724101351591,-0.017121963157888,-0.013552591628145,0.001450966968254,-0.002924267600886
0.736,0.005731217352297,-0.01711967930631,-0.013546172803184,0.001453755671234,-0.002917656451582
0.74,0.005735568690566,-0.01712025627934,-0.013544489965179,0.001457578117559,-0.00290638143695
0.744,0.005727178541086,-0.01711951102251,-0.01354013862691,0.001462025618,-0.002893543787028
0.748,0.005720086580923,-0.017120208198254,-0.013538431748362,0.001464213307406,-0.002878590569328
0.752,0.005719677891693,-0.017120520725312,-0.013538600032163,0.001462506428858,-0.002871979420024
0.756,0.005726433284255,-0.017119631225224,-0.013537518207731,0.00145808296896,-0.002827865023756
0.76,0.005729318149406,-0.017119126373823,-0.013531700396343,0.001453491225261,-0.002847025336467
0.764,0.005724365797563,-0.017118236873735,-0.013537422045559,0.001452890211688,-0.002862675729912
0.768,0.005718379702375,-0.017120689009113,-0.013546869978929,0.001454837495665,-0.002851376674737
0.772,0.005725952473396,-0.017122516090375,-0.013546725735672,0.00145635204987,-0.002823826212544
0.776,0.005737588096172,-0.017120376482055,-0.013545163100381,0.001457121347243,-0.002814570603518
0.78,0.005734414744506,-0.017118717684593,-0.013546990181644,0.001456448212041,-0.002811926143796
0.784,0.005714268769535,-0.017119294657623,-0.013552663749774,0.001457602158102,-0.002807719048784
0.788,0.005704508309107,-0.017123862360779,-0.013547543114131,0.001457385793215,-0.002801853156311
0.792,0.005712658053159,-0.017124655698696,-0.013539321248451,0.001456400130955,-0.002782115870569
0.796,0.005720495270152,-0.017123333468835,-0.01353521031561,0.001455270225438,-0.002764157585004
0.8,0.005722442554129,-0.017122347806575,-0.013533503437063,0.001455678914668,-0.002726510094783
0.804,0.005722394473043,-0.017124102766208,-0.013534729504752,0.00145947732045,-0.002743410596459
0.808,0.005719221121377,-0.017120857292913,-0.013537566288817,0.001463468050575,-0.002736150352496
0.812,0.005719269202463,-0.017122083360603,-0.013541052167541,0.001460150455652,-0.002721125013168
0.816,0.005723668621818,-0.017122852657976,-0.013541581059485,0.001459140752849,-0.002710715458081
0.82,0.005728404608775,-0.017120160117169,-0.013542085910887,0.001462963199174,-0.002710547174281
0.824,0.00573362140659,-0.017122780536347,-0.013546148762641,0.001467867469931,-0.002683790050005
0.828,0.005736794758256,-0.017121049617257,-0.013548793222363,0.001468228078075,-0.002673428576004
0.832,0.005737852542144,-0.017121963157888,-0.013547831600646,0.001462818955916,-0.002670062899994
0.836,0.005733861812019,-0.017124703779781,-0.013545499667982,0.001457241549958,-0.002660542844996
0.84,0.005733164636274,-0.017126050050185,-0.013544345721922,0.001458683982533,-0.002650686222397
0.844,0.005731962609128,-0.017124343171638,-0.013539970343109,0.001458732063619,-0.002639435248308
0.848,0.005737684258344,-0.017125881766385,-0.013546557451871,0.001457578117559,-0.002630852774483
0.852,0.005734583028307,-0.01712559327987,-0.013561534710113,0.001456592455299,-0.002638233221161
0.856,0.00572672177077,-0.017123694076979,-0.013565212913181,0.001455438509238,-0.002600729974198
0.86,0.005730568257638,-0.017124848023039,-0.013551221317199,0.001453707590148,-0.002594984284439
0.864,0.005729486433206,-0.017127492482761,-0.013540379032339,0.001449740900565,-0.002597364298188
0.868,0.005724726405707,-0.017125449036612,-0.013539705897137,0.001454789414579,-0.002600922298541
0.872,0.005720591432324,-0.017124511455438,-0.013540859843198,0.001458131050046,-0.002597196014388
0.876,0.005723692662361,-0.017125617320413,-0.013541773383829,0.00145611164444,-0.002575391241955
0.88,0.005724005189419,-0.017125088428468,-0.013543937032692,0.001455005779466,-0.002555365469698
0.884,0.005716095850797,-0.017124054685122,-0.013547350789788,0.001452938292774,-0.002560678429684
0.888,0.005714340891163,-0.01712814157742,-0.013548312411505,0.001451159292598,-0.002550605442199
0.892,0.005718620107804,-0.017128093496334,-0.013547254627616,0.001450678481739,-0.002518631520108
0.896,0.005721745378384,-0.017129776334339,-0.013547182505987,0.001455270225438,-0.002555149104812
0.9,0.005724702365164,-0.017128694509907,-0.013546677654586,0.001457818522988,-0.002540484373627
0.904,0.00572631308154,-0.017125785604213,-0.013545523708525,0.00145849165819,-0.002521828912317
0.908,0.005726793892399,-0.017123694076979,-0.013546148762641,0.001457578117559,-0.002520266277027
0.912,0.005729342189949,-0.017126098131271,-0.013548673019648,0.001461136117912,-0.002514039776409
0.916,0.005731986649671,-0.017127131874617,-0.013548072006075,0.001463371888404,-0.002500384748028
0.92,0.005736097582511,-0.017128261780134,-0.013544489965179,0.00146399694252,-0.002510938546372
0.924,0.005734607068849,-0.017129800374882,-0.013541653181114,0.001465078766951,-0.002499110599253
0.928,0.005737467893458,-0.017128261780134,-0.013552471425431,0.001464549875007,-0.002482618786806
0.932,0.005753863543733,-0.017126458739415,-0.013562544412916,0.001463059361346,-0.002468290623223
0.936,0.005758767814489,-0.017126122171814,-0.013554082141807,0.001463924820891,-0.002443216336952
0.94,0.00573477535265,-0.017126939550273,-0.013545427546354,0.001468300199703,-0.00247845977288
0.944,0.005722851243359,-0.017126987631359,-0.01354424955975,0.00146810787536,-0.002472617920949
0.948,0.005730183608951,-0.017126506820501,-0.013542061870344,0.001461112077369,-0.002442374917949
0.952,0.005733885852562,-0.017127925212533,-0.013542903289346,0.001456159725526,-0.002443600985638
0.956,0.005730856744153,-0.017126050050185,-0.013546341086985,0.001462314104515,-0.00242446471347
0.96,0.005720591432324,-0.01712830986122,-0.013544538046265,0.001467458780701,-0.002396048791732
0.964,0.005723909027248,-0.017128790672079,-0.013540499235054,0.001467146253643,-0.002366791450992
0.968,0.005726769851856,-0.017129584009995,-0.013541004086455,0.001459116712306,-0.002370373491888
0.972,0.005729318149406,-0.017128213699048,-0.013545980478841,0.001458756104162,-0.002349890949316
0.976,0.005731000987411,-0.017128910874793,-0.013549466357565,0.001465511496724,-0.002337486029166
0.98,0.005729053703434,-0.017129944618139,-0.013548673019648,0.00146827615916,-0.002325537879332
0.984,0.005727731473573,-0.017126627023215,-0.013548985546706,0.001462073699086,-0.002332221150266
0.988,0.005728813298004,-0.017125328833897,-0.013546918060015,0.001459309036649,-0.00235986777463
0.992,0.005728813298004,-0.017125497117698,-0.013551197276656,0.001457770441902,-0.002316162067592
0.996,0.005728669054747,-0.017126482779958,-0.013548576857477,0.001451183333141,-0.002289717470374
1,0.00573181836587,-0.017126506820501,-0.013546148762641,0.001444283697321,-0.002278658820628
1.004,0.005732347257814,-0.017126242374529,-0.013544562086808,0.001443850967548,-0.002272047671324
1.008,0.005732467460529,-0.017124078725665,-0.013548096046618,0.001455654874125,-0.002261421751351
1.012,0.005739078609834,-0.017124535495981,-0.013548528776391,0.001490850228967,-0.00227012442789
1.016,0.005744728137421,-0.017125328833897,-0.013545211181467,0.001529315097648,-0.002257094453624
1.02,0.005747540880943,-0.017124727820324,-0.013543071573147,0.001569727250305,-0.002238006262542
1.024,0.005750113219036,-0.017128021374705,-0.013540499235054,0.00160634099718,-0.0022282938832
1.028,0.005750161300122,-0.017129511888366,-0.013539321248451,0.001609153740703,-0.002233654924272
1.032,0.005751363327268,-0.017131290888543,-0.013539080843021,0.00160165309131,-0.002247093587767
1.036,0.005745473394252,-0.017130136942483,-0.01354112428917,0.001596965185439,-0.002223798301673
1.04,0.005731962609128,-0.017132060185917,-0.013543336019119,0.001573717980431,-0.002231972086267
1.044,0.005731121190125,-0.01713242079406,-0.013541773383829,0.00154470104512,-0.002208845083973
1.048,0.005726841973485,-0.017128357942306,-0.013548961506164,0.001530180557193,-0.002208893165059
1.052,0.0057222021487,-0.017130401388455,-0.013556365993385,0.001508808514532,-0.002191079122751
1.056,0.00572532741928,-0.017131795739944,-0.01355328880389,0.001490104972137,-0.002163071890244
1.06,0.005726000554482,-0.01713167553723,-0.013545211181467,0.001479382889992,-0.002155715484108
1.064,0.005724005189419,-0.017130665834427,-0.013542302275773,0.001472771740688,-0.002166197160824
1.068,0.005720927999925,-0.017128189658506,-0.01354934615485,0.001468708888933,-0.002156196294967
1.072,0.005716071810254,-0.017128646428821,-0.013548697060191,0.001467651105044,-0.002137180225513
1.076,0.005715879485911,-0.017129824415424,-0.013543961073235,0.001468660807847,-0.002150498686294
1.08,0.005720927999925,-0.017130906239856,-0.013543744708349,0.001465703821067,-0.002125208035136
1.084,0.005725591865252,-0.017131747658859,-0.013552952236289,0.001463660374919,-0.002126001373053
1.088,0.005728909460176,-0.017131026442571,-0.013556341952842,0.001462818955916,-0.002126482183911
1.092,0.00573419837962,-0.017131579375058,-0.013550500100911,0.001461737131485,-0.002112514628472
1.096,0.005729318149406,-0.017129511888366,-0.013547663316846,0.001460150455652,-0.002097104640457
1.1,0.005727250662714,-0.017129535928909,-0.01354605260047,0.001460126415109,-0.00209080601821
1.104,0.005735472528395,-0.017131627456144,-0.013544994816581,0.001460847631397,-0.002082415868729
1.108,0.005744030961676,-0.017133502618492,-0.013545163100381,0.001456977103986,-0.002063976772306
1.112,0.005751747975955,-0.017135185456497,-0.013549298073765,0.001451760306171,-0.002036426310113
1.116,0.005751195043468,-0.017136123037671,-0.013552014655115,0.001445221278495,-0.002027002417287
1.12,0.005742901056159,-0.017133718983378,-0.013554226385064,0.001455246184895,-0.002054408636221
1.124,0.005730784622524,-0.017132565037318,-0.013554082141807,0.001464621996636,-0.002057197339201
1.128,0.005730808663067,-0.017131459172343,-0.013553192641718,0.001464381591207,-0.002026281200999
1.132,0.005733164636274,-0.017133983429351,-0.013555572655468,0.001457241549958,-0.002013491632163
1.136,0.005730472095466,-0.017134344037494,-0.013554971641895,0.001457481955387,-0.002000461657897
1.14,0.005731722203698,-0.017132589077861,-0.013558433480076,0.001458852266334,-0.002009188374979
1.144,0.005732178974014,-0.017131915942659,-0.013554995682438,0.001456880941814,-0.002002505104046
1.148,0.00573419837962,-0.01713439211858,-0.013552086776744,0.001458107009503,-0.001977070209631
1.152,0.005734967676993,-0.017135714348441,-0.013554514871579,0.001457962766246,-0.00198553248074
1.156,0.005740785488381,-0.017134921010525,-0.013556702560985,0.001458203171675,-0.001973680493078
1.16,0.005742852975073,-0.017134271915866,-0.013559731669394,0.001456448212041,-0.001964881654368
1.164,0.005744030961676,-0.017136098997128,-0.013559491263965,0.001455630833582,-0.001989330886523
1.168,0.005743622272446,-0.017132396753517,-0.013556606398814,0.001455775076839,-0.001993970711307
1.172,0.005736698596084,-0.017131074523657,-0.013552158898373,0.001454717292951,-0.001983609237306
1.176,0.005738213150288,-0.017134440199666,-0.013547110384358,0.001451279495312,-0.001961323654015
1.18,0.00574578592131,-0.017133767064464,-0.013554586993208,0.001449236049164,-0.00194370193605
1.184,0.005754608800563,-0.017131170685828,-0.013558938331478,0.00144928413025,-0.001945529017313
1.188,0.005761219949868,-0.017135281618669,-0.013557039128586,0.00144986110328,-0.001953678761364
1.192,0.005759729436206,-0.017134055550979,-0.013561198142513,0.001446158859669,-0.00195274118019
1.196,0.005741482664126,-0.017136123037671,-0.013559803791023,0.001441855602486,-0.001940480503299
1.2,0.005727563189772,-0.017134079591522,-0.013553505168776,0.001436254155984,-0.001930143069841
1.204,0.005728236324974,-0.017131459172343,-0.013551437682085,0.001428921790392,-0.001928941042694
1.208,0.005739799826121,-0.017133358375235,-0.013551750209143,0.001428801587677,-0.001927594772291
1.212,0.005734462825592,-0.017133334334692,-0.013549370195393,0.001433225047575,-0.001955914531857
1.216,0.005715422715595,-0.017129944618139,-0.01355386577692,0.001432407669116,-0.00193531178657
1.22,0.005706792160685,-0.017134896969982,-0.013557135290758,0.001429715128308,-0.001909155675867
1.224,0.005724077311048,-0.017135906672785,-0.013557568020531,0.001430075736452,-0.001860593779158
1.228,0.005744992583393,-0.017137252943188,-0.013561438547942,0.001435845466754,-0.001816238977461
1.232,0.005750497867723,-0.01713595475387,-0.013565669683497,0.001440942061854,-0.001796405529547
1.236,0.005747108151171,-0.017134440199666,-0.013563986845492,0.001439379426564,-0.001812897341994
1.24,0.005749271800034,-0.017134752726724,-0.013563097345404,0.001432984642146,-0.001810757733674
1.244,0.005751122921839,-0.017132348672432,-0.013560404804596,0.00142824865519,-0.001830470978873
1.248,0.005750497867723,-0.017129776334339,-0.013553817695834,0.001426349452299,-0.001819364248041
1.252,0.005745425313166,-0.017131146645285,-0.013557688223245,0.001426541776642,-0.001781476352391
1.256,0.005739823866664,-0.017129800374882,-0.013570165265024,0.001432479790745,-0.001793833191454
1.26,0.00573970366395,-0.017128045415248,-0.01357333861669,0.001435028088295,-0.001769095472784
1.264,0.005742444285843,-0.017126651063758,-0.01356742464313,0.00143219130423,-0.001773518932683
1.268,0.005747853408001,-0.01712790117199,-0.013557207412387,0.001433777980063,-0.001794842894257
1.272,0.005754560719477,-0.017129487847824,-0.013550235654939,0.001435605061325,-0.001781091703704
1.276,0.005755522341194,-0.017130257145197,-0.013551557884799,0.001433609696262,-0.001762965134338
1.28,0.005753983746447,-0.01712987249651,-0.013555163966238,0.001433080804318,-0.001759070566384
1.284,0.005755378097937,-0.017130257145197,-0.013557087209672,0.001440581453711,-0.001772076500107
1.288,0.005753166367988,-0.017129824415424,-0.013556293871756,0.001447673413874,-0.001758565714983
1.292,0.0057522768679,-0.017125689442041,-0.01355739973673,0.001447841697674,-0.001737866807524
1.296,0.005746867745741,-0.01712732419896,-0.013561270264141,0.001446303102927,-0.001719115184043
1.3,0.005728717135833,-0.017130329266826,-0.013562039561515,0.001446375224556,-0.001734332847714
1.304,0.005720903959382,-0.017129079158594,-0.013563289669747,0.001444331778407,-0.001712095345509
1.308,0.005725832270682,-0.017129511888366,-0.013562231885858,0.001443730764834,-0.001692670586825
1.312,0.00572713046,-0.017130665834427,-0.013559683588308,0.0014469041165,-0.001694617870802
1.316,0.005726409243712,-0.01712987249651,-0.013554562952665,0.001451976671057,-0.001660768786363
1.32,0.005729967244065,-0.017130209064111,-0.013560044196452,0.00145635204987,-0.001652042069281
1.324,0.005734246460706,-0.01713068987497,-0.013572833765288,0.001454164360463,-0.001657571394154
1.328,0.005736217785225,-0.017130713915513,-0.013579348752421,0.001452265157572,-0.001633578932315
1.332,0.005738213150288,-0.017129511888366,-0.013575622468268,0.00145454900915,-0.001634925202718
1.336,0.00573871800169,-0.017128213699048,-0.013566102413269,0.001455005779466,-0.001641656554737
1.34,0.005739847907207,-0.017131074523657,-0.013557447817816,0.001454645171322,-0.00161677459281
1.344,0.005739415177435,-0.017132348672432,-0.013554082141807,0.001452529603544,-0.001611966484225
1.348,0.005740809528924,-0.017132589077861,-0.013561414507399,0.001451279495312,-0.001613456997886
1.352,0.005742660650729,-0.017132132307545,-0.013565982210555,0.001447937859846,-0.001596772861096
1.356,0.005745232988822,-0.017136074956585,-0.013563698358977,0.001450077468166,-0.001572059182969
1.36,0.005744776218507,-0.017139344470423,-0.013560212480253,0.001451255454769,-0.001568236736644
1.364,0.005742516407472,-0.017136002834956,-0.013560909655997,0.001448274427447,-0.00157256403437
1.368,0.005747877448544,-0.017133430496863,-0.013563698358977,0.001447192603015,-0.00156828481773
1.372,0.005752637476043,-0.017132228469717,-0.013564732102323,0.001450389995224,-0.001564149844346
1.376,0.005751002719124,-0.017134752726724,-0.013564972507752,0.001448971603191,-0.001549244707733
1.38,0.0057475168404,-0.0171363634431,-0.013563698358977,0.001445822292068,-0.001547946518415
1.384,0.005740424880237,-0.017134464240209,-0.013560885615454,0.001445605927182,-0.00154018142305
1.388,0.005734294541791,-0.017132036145374,-0.013563962804949,0.001447336846273,-0.001549941883478
1.392,0.005727611270858,-0.017132901604919,-0.01356528503481,0.00145002938708,-0.001551576640397
1.396,0.005727154500543,-0.0171310985642,-0.013567472724216,0.00145240940083,-0.001545229937064
1.4,0.005725399540909,-0.017131867861573,-0.013569924859594,0.00145356334689,-0.001550879464652
1.404,0.005730856744153,-0.017131194726371,-0.013564900386123,0.001454404765893,-0.001525901340552
1.408,0.005732275136186,-0.017132492915689,-0.013557952669218,0.001451039089883,-0.001502341608486
1.412,0.005732058771299,-0.017133983429351,-0.013561871277714,0.001445269359581,-0.001501596351655
1.416,0.005733765649847,-0.017134319996952,-0.013568530508105,0.001447937859846,-0.001512679041943
1.42,0.005736410109569,-0.017131964023745,-0.013567544845845,0.001454885576751,-0.001475344078781
1.424,0.00573477535265,-0.017131699577773,-0.013567713129645,0.001453947995577,-0.001440749737511
1.428,0.005733645447132,-0.017131194726371,-0.013565140791552,0.001452144954858,-0.001436230115441
1.432,0.005737972744859,-0.017129656131624,-0.013563241588661,0.001447168562472,-0.001438658210277
1.436,0.005743670353532,-0.017132949686005,-0.013562135723687,0.001447697454416,-0.001451135252055
1.44,0.005755209814136,-0.017134079591522,-0.013558505601705,0.001454092238835,-0.001416613032414
1.444,0.005763239355473,-0.017135353740297,-0.013557784385417,0.001452265157572,-0.001397500800789
1.448,0.005763816328504,-0.017132156348088,-0.0135619193588,0.001451640103456,-0.00140843924782
1.452,0.005746915826827,-0.017131915942659,-0.013564203210378,0.001453827792862,-0.001410074004738
1.456,0.005721504972955,-0.017132589077861,-0.013566655345757,0.001453683549605,-0.001381369596486
1.46,0.005711456026012,-0.017132228469717,-0.013568626670276,0.00145356334689,-0.001356511675101
1.464,0.005719990418751,-0.017131459172343,-0.0135670159539,0.00145339506309,-0.001341726741202
1.468,0.00572869309529,-0.017130906239856,-0.013564203210378,0.001452890211688,-0.001322854915006
1.472,0.005729414311578,-0.017132396753517,-0.013565813926754,0.00145397203612,-0.001302853183292
1.476,0.005730375933295,-0.017131915942659,-0.013568025656703,0.001455486590324,-0.001246526191218
1.48,0.005735280204051,-0.017130016739768,-0.013569107481135,0.001453178698203,-0.001277851018649
1.484,0.005741098015439,-0.017127612685475,-0.013566102413269,0.001452842130602,-0.001289486641425
1.488,0.005742780853444,-0.017132637158947,-0.013563794521148,0.001453346982004,-0.001254291286583
1.492,0.005741650947927,-0.017134416159123,-0.013567881413446,0.001451543941285,-0.001244122136925
1.496,0.005740184474808,-0.017137613551332,-0.013572449116602,0.001453635468519,-0.001251190056545
1.5,0.005745449353709,-0.017135113334868,-0.013578507333419,0.001453371022547,-0.001261383246746
1.504,0.005750209381208,-0.017135233537583,-0.013573290535604,0.001445389562296,-0.001257681003135
1.508,0.005746987948456,-0.017134488280752,-0.013563409872462,0.001442144089001,-0.001242920109779
1.512,0.005739511339606,-0.017137445267532,-0.013562760777803,0.001443802886463,-0.001243136474665
1.516,0.005741386501954,-0.017139632956938,-0.013562953102146,0.001444259656778,-0.001250396718629
1.52,0.005744631975249,-0.017140402254312,-0.013563650277891,0.001446952197586,-0.001242463339463
1.524,0.005746026326739,-0.01713816648382,-0.013564996548295,0.001448178265275,-0.001258426259966
1.528,0.005744824299593,-0.017134945051068,-0.01356232804803,0.001448034022017,-0.001247535894021
1.532,0.005749151597319,-0.017131314929086,-0.013556005385241,0.001447625332788,-0.001225490716158
1.536,0.005750642110981,-0.017134872929439,-0.013558721966591,0.001440365088824,-0.001213782971754
1.54,0.005744006921133,-0.017136988497216,-0.013560092277538,0.00143728789933,-0.001195271753701
1.544,0.005733837771476,-0.017134752726724,-0.013559731669394,0.00143589354784,-0.001193492753525
1.548,0.005734030095819,-0.017136531726901,-0.013559851872109,0.001438297602133,-0.001198949956769
1.552,0.005738549717889,-0.017133791105007,-0.013559875912652,0.001444139454064,-0.001197651767451
1.556,0.005740929731639,-0.017132757361661,-0.01356117410197,0.001447625332788,-0.001189550104485
1.56,0.005741699029012,-0.017134680605095,-0.013562808858889,0.001448947562649,-0.001164980669615
1.564,0.005748526543203,-0.017134704645638,-0.013564611899608,0.001449644738393,-0.00117176010272
1.568,0.005756844571055,-0.017138839619021,-0.013564323413093,0.001451351616941,-0.001183780374183
1.572,0.005754536678935,-0.017138310727077,-0.013566535143042,0.001450149589795,-0.001184261185041
1.576,0.005746314813254,-0.017135618186269,-0.013575742670982,0.001450918887168,-0.001152479587294
1.58,0.00574143458304,-0.017134993132153,-0.013572016386829,0.001453899914491,-0.001144714491929
1.584,0.00574833421886,-0.017134368078037,-0.013564083007664,0.001455895279554,-0.001148176330111
1.588,0.005746579259226,-0.01713537778084,-0.013567785251274,0.001458251252761,-0.001153008479239
1.592,0.005749031394605,-0.017137589510789,-0.013574059832978,0.001459333077192,-0.001137117680365
1.596,0.005752156665185,-0.017135930713327,-0.013564371494179,0.001460679347596,-0.001137358085794
1.6,0.005748141894516,-0.017136026875499,-0.013554947601352,0.00145947732045,-0.00112286163841
1.604,0.005745064705022,-0.01713792607839,-0.013554442749951,0.001457049225614,-0.001126587922564
1.608,0.005747805326915,-0.017136411524186,-0.013555236087867,0.00145339506309,-0.001101609798464
1.612,0.00575638780074,-0.017136387483643,-0.013555188006781,0.001452241117029,-0.001092089743466
1.616,0.00575383950319,-0.017133190091434,-0.013553505168776,0.001457650239188,-0.001116538975621
1.62,0.005746435015969,-0.017134704645638,-0.013553264763347,0.001463900780348,-0.001099470190144
1.624,0.005735063839165,-0.017135642226812,-0.013553505168776,0.00146654524007,-0.001079204012458
1.628,0.005727923797916,-0.017135594145727,-0.013553240722804,0.001469574348478,-0.001073867011929
1.632,0.005738333353003,-0.017138599213592,-0.013555308209496,0.001469742632279,-0.001074275701158
1.636,0.0057424202453,-0.017138022240562,-0.013557832466503,0.001463612293833,-0.001074083376815
1.64,0.005742901056159,-0.017136964456673,-0.01355937106125,0.00145906863122,-0.001052446888182
1.644,0.005743021258873,-0.017135882632242,-0.013559972074823,0.001457986806788,-0.001027252399197
1.648,0.005748983313519,-0.017135882632242,-0.01355994803428,0.001459717725879,-0.001035426183791
1.652,0.005755762746624,-0.017137805875676,-0.013559875912652,0.001458107009503,-0.001020689330978
1.656,0.00575088251641,-0.01714047437594,-0.013561847237171,0.001455799117382,-0.001014414749274
1.66,0.005743838637333,-0.017137829916219,-0.013565645642954,0.001453274860375,-0.001050523644748
1.664,0.005741963474985,-0.017137252943188,-0.013569900819051,0.001445678048811,-0.001005567829478
1.668,0.005751723935412,-0.017140354173226,-0.013576896617043,0.001439403467107,-0.001006505410652
1.672,0.005760402571408,-0.017140786902998,-0.01356215976423,0.001441927724114,-0.001013909897873
1.676,0.005759368828062,-0.01714244570046,-0.013545691992326,0.001462458347773,-0.000995014031134
1.68,0.005750906556953,-0.01714047437594,-0.013547182505987,0.001499192297362,-0.000972512082956
1.684,0.005745281069908,-0.017138647294678,-0.013550884749598,0.001543787504489,-0.0009832341651
1.688,0.005748935232433,-0.017138118402734,-0.013550259695482,0.001583262075972,-0.000969891663777
1.692,0.005757301341371,-0.017137733754047,-0.013549971208966,0.001594464968975,-0.000961573635925
1.696,0.00576206136887,-0.017138647294678,-0.013547062303272,0.001581627319053,-0.000951380445724
1.7,0.005753502935589,-0.017139969524539,-0.013545716032869,0.001561986195483,-0.000930344970665
1.704,0.005743910758962,-0.017141916808516,-0.013548937465621,0.001539412125676,-0.000947197391255
1.708,0.005733501203875,-0.017138863659564,-0.013551605965885,0.001511693379684,-0.00093811006603
1.712,0.005740953772182,-0.017137805875676,-0.013552663749774,0.001491811850684,-0.000915415793508
1.716,0.005753623138303,-0.017139200227165,-0.013553457087691,0.001475392159866,-0.000916233171968
1.72,0.005750978678582,-0.01714088306517,-0.013554827398637,0.00146120823954,-0.00090178480567
1.724,0.005741867312813,-0.01713891174065,-0.013556197709584,0.001460174496195,-0.000867358748201
1.728,0.005736530312283,-0.017138935781193,-0.013557952669218,0.001461929455828,-0.000856227976826
1.732,0.00573773233943,-0.017139777200196,-0.013560789453283,0.001458587820362,-0.000874066059677
1.736,0.005739559420692,-0.017137805875676,-0.013561390466856,0.00145635204987,-0.000860988004325
1.74,0.005741554785755,-0.017137685672961,-0.013559563385594,0.001456424171498,-0.000847717624631
1.744,0.005744103083305,-0.017138479010878,-0.01356783333236,0.001452241117029,-0.000824133852021
1.748,0.005743189542674,-0.017136844253959,-0.013569011318963,0.001453298900918,-0.000858175260803
1.752,0.005743478029189,-0.017135449902469,-0.013559851872109,0.001457530036473,-0.000866325004855
1.756,0.005745401272623,-0.01713972911911,-0.013554442749951,0.001456664576928,-0.000829831460694
1.76,0.005748550583746,-0.017140354173226,-0.013551557884799,0.001456039522812,-0.000811704891329
1.764,0.005748550583746,-0.017137276983731,-0.013548745141277,0.001457217509415,-0.000805093742024
1.768,0.005748069772888,-0.017136219199843,-0.013548216249333,0.001453443144176,-0.000811320242642
1.772,0.0057522768679,-0.01713595475387,-0.013547831600646,0.001451351616941,-0.000795838132998
1.776,0.00575441647622,-0.01713948871368,-0.013545956438298,0.001454765374036,-0.000794395700422
1.78,0.005754320314048,-0.017137637591875,-0.013545499667982,0.001455222144352,-0.000795838132998
1.784,0.005773769113275,-0.017138719416307,-0.013547182505987,0.001450726562825,-0.000785380496825
1.788,0.005783120884473,-0.0171412917544,-0.013549370195393,0.001451159292598,-0.000788097078176
1.792,0.005758022557659,-0.017141772565258,-0.013552471425431,0.001449596657308,-0.000758094480605
1.796,0.005736097582511,-0.017138479010878,-0.013557327615102,0.001447384927358,-0.0007713648603
1.8,0.005739126690919,-0.017138599213592,-0.013562544412916,0.001446471386727,-0.0007711965765
1.804,0.005747444718772,-0.017141604281458,-0.013566727467385,0.001445269359581,-0.000754921128939
1.808,0.005752060503013,-0.017141556200372,-0.013569083440592,0.001449476454593,-0.000745160668511
1.812,0.005754440516763,-0.017140570538112,-0.013562640575088,0.001449212008621,-0.000728019761406
1.816,0.005758623571232,-0.017137228902645,-0.01356134238577,0.001442913386374,-0.000732178775332
1.82,0.005758407206345,-0.017133574740121,-0.013568193940504,0.001443057629632,-0.000723764585308
1.824,0.005759416909148,-0.017133670902293,-0.013569540210908,0.001454068198292,-0.000703834975223
1.828,0.00576090742281,-0.017134896969982,-0.013566991913357,0.001453034454946,-0.000698786461209
1.832,0.005766268463882,-0.017135618186269,-0.013566871710643,0.001451375657484,-0.000677654823977
1.836,0.005775524072908,-0.017135401821383,-0.013562760777803,0.001449236049164,-0.000661066849359
1.84,0.005773360424045,-0.017137445267532,-0.013563818561691,0.001446447346184,-0.000692079149732
1.844,0.005764729869135,-0.017131771699401,-0.013564828264494,0.00144550976501,-0.000679770391755
1.848,0.005760570855209,-0.017133310294149,-0.013560813493826,0.001445774210982,-0.000682390810934
1.852,0.005767542612657,-0.017137541429703,-0.013557976709761,0.00144748108953,-0.00069123773073
1.856,0.005773721032189,-0.017136026875499,-0.013558361358447,0.001445654008268,-0.000677149972576
1.86,0.005768071504601,-0.017136219199843,-0.013560236520795,0.001446134819126,-0.000635079022457
1.864,0.005757012854856,-0.017134271915866,-0.013564179169835,0.00144041316991,-0.000634526089969
1.868,0.005743045299416,-0.017130377347912,-0.013565068669923,0.001438321642676,-0.000649863956356
1.872,0.00574044892078,-0.017131699577773,-0.013561053899255,0.001439667913079,-0.000632602846535
1.876,0.005743261664303,-0.017136267280928,-0.013555644777097,0.001439355386021,-0.000615413858344
1.88,0.005743958840047,-0.017138118402734,-0.013558890250392,0.001440220845567,-0.000616159115175
1.884,0.005741530745212,-0.017137276983731,-0.013563962804949,0.001440701656425,-0.000639598644527
1.888,0.005743502069732,-0.017137709713504,-0.013564443615807,0.001438898615706,-0.000618899737068
1.892,0.005749680489264,-0.017134728686181,-0.013561246223598,0.001437408102044,-0.000595099599572
1.896,0.005762446017557,-0.01713595475387,-0.013563866642777,0.001439211142764,-0.000588608652982
1.9,0.005776173167567,-0.017136435564729,-0.013570333548824,0.00144000448068,-0.000585026612086
1.904,0.005785548979308,-0.017134368078037,-0.013572256792258,0.001436061831641,-0.000570458043074
1.908,0.005788097276858,-0.017135882632242,-0.013568626670276,0.001437047493901,-0.00056278910988
1.912,0.005787111614598,-0.017136026875499,-0.013563097345404,0.001442937426917,-0.000550865000589
1.916,0.005796751872311,-0.01713932042988,-0.013558553682791,0.001443009548546,-0.000543484553911
1.92,0.005796848034483,-0.017139368510966,-0.01356035672351,0.001444283697321,-0.000523867470884
1.924,0.005778048329915,-0.017138310727077,-0.013554538912122,0.001444187535149,-0.000497086306066
1.928,0.005767783018086,-0.017136291321471,-0.013543624505634,0.001448274427447,-0.00051511671326
1.932,0.005768888883061,-0.017135666267355,-0.013544057235407,0.001447192603015,-0.000546441540691
1.936,0.005766821396369,-0.01713595475387,-0.013546076641013,0.001442408534973,-0.000529685282272
1.94,0.00576189308507,-0.017138791537936,-0.01354622088427,0.001438081237246,-0.000504659077087
1.944,0.005756580125083,-0.017143335200548,-0.013545932397755,0.001437840831817,-0.000492085873137
1.948,0.005754200111334,-0.017143743889778,-0.013548528776391,0.001441374791627,-0.000500427941532
1.952,0.0057524451517,-0.017142710146432,-0.013550115452224,0.001445413602839,-0.000485426642747
1.956,0.005752252827357,-0.017138599213592,-0.013547495033045,0.001446134819126,-0.000471651411651
1.96,0.005759969841636,-0.017139464673138,-0.013545740073412,0.00145159202237,-0.000471795654908
1.964,0.005759489030777,-0.017143046714033,-0.013552231020001,0.001447817657131,-0.000458116585984
1.968,0.005762830666244,-0.017144513187152,-0.013554586993208,0.001442841264746,-0.000448764814786
1.972,0.005766124220624,-0.017142493781546,-0.013555524574382,0.001438225480504,-0.000464920059632
1.976,0.005766316544968,-0.01714047437594,-0.013558601763877,0.001439884277966,-0.000470281100704
1.98,0.005764970274564,-0.017138310727077,-0.013562448250745,0.001452433441373,-0.000451505436679
1.984,0.005766917558541,-0.01713989740291,-0.013563241588661,0.001452914252231,-0.000442850841226
1.988,0.005773432545674,-0.017141027308428,-0.013556390033927,0.001447793616588,-0.000433787556543
1.992,0.005774153761962,-0.017141724484172,-0.013547735438474,0.001451952630514,-0.000421262433679
1.996,0.005766220382796,-0.017139969524539,-0.013541220451342,0.001455246184895,-0.000404554256346
2,0.005770307275093,-0.017140931146256,-0.013536460423842,0.00145553467141,-0.000398568161158
2.004,0.005778360856973,-0.017141988930145,-0.013540956005369,0.001451519900742,-0.000423185677113
2.008,0.005780596627465,-0.017140907105713,-0.013543720667806,0.001449404332964,-0.000392413782169
2.012,0.005780476424751,-0.017141219632771,-0.013543648546177,0.001447433008444,-0.000381307051338
2.016,0.005779899451721,-0.017140161848882,-0.013540763681026,0.00144575017044,-0.000358420454473
2.02,0.005769153329033,-0.017138022240562,-0.013542302275773,0.001450221711424,-0.000373013064028
2.024,0.005755137692508,-0.017136868294502,-0.013543408140748,0.001454597090236,-0.000369431023133
2.028,0.005745401272623,-0.017140233970511,-0.013544105316493,0.001452794049517,-0.000357386711127
2.032,0.005742227920957,-0.017138238605448,-0.013545908357212,0.001447577251702,-0.000348684034588
2.036,0.005747180272799,-0.01713833476762,-0.013546172803184,0.001446759873242,-0.000354213359461
2.04,0.005753815462647,-0.017141075389514,-0.013543143694776,0.001448899481563,-0.000354381643261
2.044,0.005756652246712,-0.0171412917544,-0.013547134424901,0.001450534238482,-0.00033620699281
2.048,0.005760546814666,-0.017138190524362,-0.013549105749421,0.001449139886992,-0.000346207858667
2.052,0.005759801557835,-0.017136700010701,-0.013546413208613,0.001448082103103,-0.000368084752729
2.056,0.005757661949515,-0.017137373145903,-0.013545018857124,0.00144649542727,-0.000336639722582
2.06,0.005757445584628,-0.017135642226812,-0.01354703826273,0.001444668346008,-0.000299016272904
2.064,0.005761748841812,-0.017135834551156,-0.01354876918182,0.001452385360287,-0.000337913871358
2.068,0.005765859774652,-0.017136675970158,-0.013549394235936,0.001454164360463,-0.000336231033353
2.072,0.005764152896105,-0.017136315362014,-0.013549009587249,0.001450293833052,-0.000314738787978
2.076,0.005762974909501,-0.017136411524186,-0.013544994816581,0.001451519900742,-0.000296948786213
2.08,0.005760186206522,-0.017136627889072,-0.013541220451342,0.00145159202237,-0.000297645961958
2.084,0.005757878314401,-0.017137084659388,-0.013540162667453,0.001453491225261,-0.000285289122894
2.088,0.005762133490499,-0.017137877997304,-0.013536676788729,0.00145414031992,-0.000248675376019
2.092,0.005764801990764,-0.017137517389161,-0.013541989748715,0.00145142373857,-0.000239780375137
2.096,0.005766556950397,-0.017141916808516,-0.013544754411152,0.001448995643734,-0.000244035551234
2.1,0.00578054854638,-0.017140089727254,-0.013543624505634,0.00145142373857,-0.00024367494309
2.104,0.005785140290078,-0.017140522457026,-0.013538239424019,0.001455606793039,-0.000238890875048
2.108,0.005777495397428,-0.017141171551685,-0.013533575558691,0.001457746401359,-0.000259709985222
2.112,0.005774802856621,-0.017138791537936,-0.013538696194334,0.001453443144176,-0.000212662642717
2.116,0.005768359991117,-0.017140666700284,-0.013540282870168,0.001447577251702,-0.000183886112835
2.12,0.005750089178493,-0.017141315794943,-0.013539633775509,0.001449692819479,-0.000191290600056
2.124,0.005740761447838,-0.017140594578655,-0.013540763681026,0.001451495860199,-0.000192372424488
2.128,0.005748574624289,-0.017141916808516,-0.013547951803361,0.001453491225261,-0.000215162859181
2.132,0.00575383950319,-0.017140834984084,-0.013552279101087,0.001454308603721,-0.00021737458913
2.136,0.005755113651965,-0.017142998632948,-0.013543528343462,0.001455919320097,-0.000205690885269
2.14,0.005757325381914,-0.01713948871368,-0.013534128491179,0.001455198103809,-0.000196146789727
2.144,0.005758479327974,-0.017140594578655,-0.01353208504503,0.001454044157749,-0.000174582422723
2.148,0.005761532476926,-0.017141844686887,-0.013533936166835,0.001453683549605,-0.000165999948899
2.152,0.005763551882531,-0.017140955186799,-0.013536316180585,0.001453996076663,-0.000170255124997
2.156,0.005764465423163,-0.017138286686534,-0.013535931531898,0.001455991441726,-0.00019246858666
2.16,0.00576872059926,-0.017141363876029,-0.013530089679967,0.001459429239364,-0.000158475258963
2.164,0.00577150930224,-0.017142758227518,-0.013533311112719,0.001455342347067,-0.000169341584366
2.168,0.005771749707669,-0.017142157213945,-0.013535066072353,0.00145611164444,-0.000149315812109
2.172,0.005771437180611,-0.017144200660094,-0.013529897355624,0.00145611164444,-0.000112197213832
2.176,0.005774153761962,-0.01714482571421,-0.013530137761053,0.001454428806436,-0.000120827768742
2.18,0.005777038627113,-0.017142037011231,-0.01352814239599,0.001451279495312,-0.000117942903591
2.184,0.005780788951809,-0.017141532159829,-0.013532710099146,0.00144887544102,-0.000123015458149
2.188,0.005771316977896,-0.017142325497746,-0.01353972993768,0.00144928413025,-0.000124794458325
2.192,0.005761147828239,-0.017143214997834,-0.013542422478488,0.001452144954858,-9.65708609307839E-05
2.196,0.005765330882708,-0.017142565903175,-0.013544033194864,0.001452842130602,-0.000102653118291
2.2,0.005765715531395,-0.017141652362544,-0.013543336019119,0.00145339506309,-0.000115755214185
2.204,0.00576362400416,-0.017134440199666,-0.013545571789611,0.001455342347067,-0.000100898158657
2.208,0.005760258328151,-0.017133045848176,-0.013554250425607,0.001451231414226,-7.66652913886656E-05
2.212,0.005759464990234,-0.017135425861926,-0.013549947168423,0.001449476454593,-7.82279266788077E-05
2.216,0.005761340152582,-0.017137373145903,-0.013534489099323,0.001449524535679,-8.14974405166436E-05
2.22,0.005767542612657,-0.017140955186799,-0.013530306044854,0.001450750603368,-6.65442228171296E-05
2.224,0.005768624437089,-0.017141532159829,-0.01353504203181,0.001450678481739,-6.03177221994864E-05
2.228,0.005770042829121,-0.017143190957291,-0.013536364261671,0.001452697887345,-5.95724653688032E-05
2.232,0.005783168965558,-0.017141940849059,-0.013535931531898,0.001452313238658,-4.43307611541861E-05
2.236,0.005797449048056,-0.017142493781546,-0.013531411909828,0.001450582319567,-2.04104209435488E-05
2.24,0.005789996479749,-0.017143960254665,-0.013522949638718,0.001452842130602,6.82751419077486E-06
2.244,0.005770547680523,-0.017143166916748,-0.013522132260259,0.001453755671234,-2.50262051851994E-05
2.248,0.005759537111863,-0.017141940849059,-0.013524416111837,0.001451231414226,-5.26487890063273E-06
2.252,0.005763335517645,-0.017143767930321,-0.013527349058074,0.001455246184895,1.19721903767813E-05
2.256,0.005773528707845,-0.017142517822089,-0.013529801193452,0.001461592888227,7.0679196200275E-06
2.26,0.005778144492087,-0.017142974592405,-0.013532686058603,0.00146301128026,2.39203402106373E-05
2.264,0.005764874112392,-0.017141724484172,-0.013534272734436,0.001467987672645,2.735813784895E-05
2.268,0.005751483529983,-0.017141435997657,-0.013535258396696,0.001475031551722,2.31991239228794E-05
2.272,0.005750113219036,-0.017141844686887,-0.013535859410269,0.001475151754437,3.36808006382943E-05
2.276,0.005758767814489,-0.017141195592228,-0.013536965275244,0.001472435173087,2.50262051851994E-05
2.28,0.005767350288314,-0.017140810943541,-0.013537205680673,0.001470463848567,2.68292459045942E-05
2.284,0.005770547680523,-0.017141075389514,-0.013537662450989,0.001467482821244,5.07495861152315E-05
2.288,0.005766677153112,-0.017143359241091,-0.013538527910534,0.001466449077898,6.46931010118843E-05
2.292,0.005763383598731,-0.017146532592758,-0.01354581219504,0.001466497158984,4.01236661422649E-05
2.296,0.005765547247594,-0.017143816011407,-0.013557063169129,0.00146654524007,1.58907988735992E-05
2.3,0.005765907855738,-0.017142229335574,-0.013550956871226,0.0014621939018,3.29355438076111E-05
2.304,0.005768191707316,-0.017145546930498,-0.013540499235054,0.001461472685513,3.27672600071343E-05
2.308,0.005775524072908,-0.01714343136272,-0.01353347939652,0.001463636334376,4.42586395254103E-05
2.312,0.005777230951456,-0.017146147944071,-0.013528406841962,0.001464381591207,5.91156950532232E-05
2.316,0.005772519005043,-0.017147085525245,-0.013530474328654,0.00146654524007,3.07238138584869E-05
2.32,0.005778913789461,-0.017147686538818,-0.013524896922695,0.001462818955916,4.80089642217514E-05
2.324,0.00577857722186,-0.017145715214298,-0.0135264114769,0.001460991874654,0.000102172307432
2.328,0.005770547680523,-0.017143647727607,-0.013528310679791,0.001455414468695,0.000126188809815
2.332,0.005769513937177,-0.017142565903175,-0.013527757747303,0.001446471386727,9.60179284435028E-05
2.336,0.005773985478161,-0.017147758660447,-0.013525546017354,0.001444019251349,0.000107605470133
2.34,0.005772206477985,-0.017146821079273,-0.013524584395637,0.001445125116323,0.000127727404562
2.344,0.005764777950221,-0.017145018038553,-0.013526916328301,0.001455919320097,0.000148762879622
2.348,0.005764273098819,-0.017145522889955,-0.013528791490649,0.001485320904094,0.000155470191098
2.352,0.005771316977896,-0.017144969957467,-0.013527877950018,0.001524915678292,0.000163283367548
2.356,0.00577364891056,-0.017146628754929,-0.013529176139336,0.001569006034017,0.000163523772978
2.36,0.005777495397428,-0.017146436430586,-0.013529296342051,0.001615861052179,0.000158499299506
2.364,0.005780500465294,-0.017144753592581,-0.013528647247392,0.00163305004037,0.000162081340402
2.368,0.00577956288412,-0.017145354606154,-0.013528527044677,0.001622207755511,0.000170904219656
2.372,0.005776653978426,-0.017146893200901,-0.013528310679791,0.001607639186498,0.000172106246802
2.376,0.005771220815725,-0.01714499399801,-0.013528310679791,0.001581579237967,0.000186867140158
2.38,0.005767109882884,-0.017143239038377,-0.013530257963768,0.001552562302656,0.000182323477545
2.384,0.005767686855915,-0.017145763295384,-0.013539008721392,0.001530877732938,0.00018458328858
2.388,0.005772446883414,-0.017145210362897,-0.013540330951253,0.001510491352537,0.000192781113718
2.392,0.005771028491381,-0.017143671768149,-0.013528527044677,0.00148791728273,0.000189006748478
2.396,0.00576912928849,-0.017144681470952,-0.013526147030927,0.001470992740511,0.000189631802594
2.4,0.005764729869135,-0.017146604714386,-0.013527757747303,0.001459813888051,0.000196507397871
2.404,0.005765210679993,-0.017147734619904,-0.013524512274009,0.001459813888051,0.00021992288668
2.408,0.005762806625701,-0.017147253809045,-0.013530065639424,0.001465126848037,0.000244949091866
2.412,0.005762109449956,-0.017146340268414,-0.013527180774273,0.001469213740335,0.000246535767699
2.416,0.005763744206875,-0.01714696532253,-0.013518285773391,0.001473637200233,0.000232448009544
2.42,0.005774322045762,-0.017144753592581,-0.013519151232936,0.001465896145411,0.000251079430311
2.424,0.005782567951985,-0.017145138241268,-0.01352246882786,0.001458683982533,0.000241391091513
2.428,0.00578326512773,-0.017142229335574,-0.013526820166129,0.001457530036473,0.000262787174716
2.432,0.005774081640333,-0.017143407322177,-0.013529031896079,0.001458708023076,0.000267186594071
2.436,0.005764513504248,-0.017144657430409,-0.013528190477076,0.001464501793921,0.000275240175951
2.44,0.005766148261167,-0.017143767930321,-0.013527084612102,0.001464213307406,0.000288390352931
2.444,0.005768071504601,-0.017144296822265,-0.013526387436357,0.001462049658543,0.000282644663172
2.448,0.005772422842871,-0.01714737401176,-0.013527685625675,0.001464020983063,0.000287861460987
2.452,0.005775524072908,-0.017148167349676,-0.013531123423313,0.001461977536914,0.000303055084116
2.456,0.005777519437971,-0.017148888565964,-0.013535234356153,0.001458852266334,0.000312695341829
2.46,0.005776990546027,-0.017149008768679,-0.013531652315257,0.001460559144881,0.000313079990516
2.464,0.00577422588359,-0.017146700876558,-0.013524295909122,0.001460150455652,0.000317118801727
2.468,0.005775956802681,-0.017144753592581,-0.013531820599058,0.001459837928594,0.00030358397606
2.472,0.005775283667479,-0.017142613984261,-0.013529464625851,0.001454428806436,0.000337120533441
2.476,0.005776173167567,-0.017143503484349,-0.013525497936268,0.001455029820009,0.000348227264272
2.48,0.005776702059512,-0.017144441065523,-0.013529152098793,0.001452842130602,0.000340053479678
2.484,0.00577660589734,-0.017145018038553,-0.013528743409563,0.001455150022723,0.000363276644144
2.488,0.005777928127201,-0.017149032809222,-0.013530402207025,0.001455630833582,0.000380369470164
2.492,0.005779370559776,-0.017150210795825,-0.013530426247568,0.001455582752496,0.000367459698613
2.496,0.005780452384208,-0.017147109565788,-0.01352739713916,0.001450991008797,0.000371234063852
2.5,0.005791871642097,-0.017146412390043,-0.013529873315081,0.001447841697674,0.000378301983472
2.504,0.005799107845518,-0.017146412390043,-0.013533359193805,0.00144632714347,0.000386355565352
2.508,0.005789563749977,-0.017142758227518,-0.013532806261318,0.001455967401183,0.000413713703201
2.512,0.005778384897516,-0.017143094795119,-0.013531868680144,0.00145454900915,0.00040178959391
2.516,0.005778216613716,-0.017142397619374,-0.013532541815346,0.001443129751261,0.000371738915253
2.52,0.005785308573879,-0.017143118835662,-0.013532710099146,0.001436614764128,0.00039373601203
2.524,0.005784539276505,-0.01714400833575,-0.013532181207202,0.001437792750731,0.000417512108983
2.528,0.005778793586746,-0.017147398052303,-0.013534441018237,0.001444331778407,0.000433066340256
2.532,0.005773841234903,-0.017150763728312,-0.013537037396873,0.00144279318366,0.000431696029309
2.536,0.00576814362623,-0.017149177052479,-0.013529224220422,0.001442937426917,0.000428546718186
2.54,0.005773192140245,-0.017149225133565,-0.013518814665335,0.001441639237599,0.000456674153408
2.544,0.00577956288412,-0.01714737401176,-0.013523310246862,0.001440124683395,0.000447875314698
2.548,0.005769682220977,-0.017146027741356,-0.013533936166835,0.001440341048281,0.000436359894636
2.552,0.005760691057923,-0.017144561268238,-0.013532806261318,0.001438009115618,0.00045775597784
2.556,0.005754801124907,-0.017142037011231,-0.013529031896079,0.001431638371742,0.000502976239082
2.56,0.005762277733756,-0.017139777200196,-0.013533695761406,0.001431253723056,0.000470377262876
2.564,0.005778913789461,-0.017139272348794,-0.0135367729509,0.001434282831464,0.000455544247891
2.568,0.00578639039831,-0.017143311160006,-0.013529368463679,0.001435605061325,0.000450063004104
2.572,0.005791198506896,-0.017143094795119,-0.013524704598352,0.001429066033649,0.000463092978369
2.576,0.005802762008043,-0.017141099430056,-0.013523815098264,0.001425796519812,0.000476435479693
2.58,0.005804757373105,-0.017144272781723,-0.013524247828036,0.00142389731692,0.000465184505604
2.584,0.005795718128965,-0.017142950551862,-0.013524656517266,0.001421829830229,0.000479103979958
2.588,0.005787231817313,-0.01713948871368,-0.013526892287758,0.001424450249408,0.000493287900283
2.592,0.005784996046821,-0.017144320862808,-0.013531556153086,0.001426517736099,0.000513121348197
2.596,0.005791511033954,-0.017140570538112,-0.013537109518501,0.001422502965431,0.00053730613438
2.6,0.00579468438562,-0.017138935781193,-0.013532830301861,0.001425940763069,0.000541465148306
2.604,0.00578917910129,-0.017139152146079,-0.013526868247215,0.001429763209394,0.000510116280331
2.608,0.005778144492087,-0.017139825281281,-0.013527228855359,0.001437720629102,0.000532978836653
2.612,0.00577348062676,-0.017138527091963,-0.013528839571735,0.001442745102574,0.000533195201539
2.616,0.005769874545321,-0.017139705078567,-0.013533431315434,0.001440701656425,0.000522953930253
2.62,0.005773721032189,-0.017139777200196,-0.013531147463856,0.001436807088471,0.000526776376578
2.624,0.005777279032542,-0.017138551132506,-0.013529224220422,0.001436422439785,0.000540912215818
2.628,0.005778240654259,-0.017139104064994,-0.013530786855712,0.001442336413344,0.000564520028971
2.632,0.005778721465117,-0.017140017605625,-0.013531940801772,0.0014469041165,0.000573366948768
2.636,0.00578309684393,-0.017141508119286,-0.013530955139513,0.001449837062737,0.000557331906636
2.64,0.005789395466176,-0.017140258011054,-0.013528430882505,0.001451952630514,0.000567933786066
2.644,0.005791270628524,-0.017136267280928,-0.013524127625322,0.001449668778936,0.000586541166291
2.648,0.005784467154876,-0.017138767497393,-0.013522300544059,0.001449308170792,0.000564976799287
2.652,0.005779442681405,-0.017139224267708,-0.013526483598528,0.001447577251702,0.000567380853579
2.656,0.005783361289902,-0.017139031943365,-0.013529440585308,0.001443610562119,0.000583391855167
2.66,0.005784010384561,-0.017140907105713,-0.013532830301861,0.001444331778407,0.000603393586881
2.664,0.00579115042581,-0.017140762862455,-0.013530474328654,0.001443706724291,0.000605533195202
2.668,0.005795309439736,-0.017141844686887,-0.013524560355094,0.001447697454416,0.000617865993722
2.672,0.005795477723536,-0.017142157213945,-0.013525666220069,0.001454669211865,0.000629814143556
2.676,0.005799612696919,-0.017141075389514,-0.013519415678908,0.001456592455299,0.000624164615969
2.68,0.005788986776946,-0.017141123470599,-0.013517468394931,0.00145947732045,0.000619356507384
2.684,0.005775836599966,-0.017143118835662,-0.013523815098264,0.001459116712306,0.000620005602043
2.688,0.005777783883943,-0.017145354606154,-0.013527541382417,0.001446014616412,0.000649190821154
2.692,0.005785092208993,-0.017144176619551,-0.013531003220598,0.001442336413344,0.000642074820448
2.696,0.005788746371517,-0.017143383281634,-0.01353545072104,0.001448779278848,0.000643541293566
2.7,0.005784130587276,-0.017141892767973,-0.013531556153086,0.001454188401006,0.000666355768802
2.704,0.005778961870547,-0.017142926511319,-0.013524872882152,0.001458611860905,0.000660177349271
2.708,0.00578975607432,-0.017146027741356,-0.013521290841257,0.001455246184895,0.000673640053309
2.712,0.005791631236668,-0.017144609349324,-0.013520160935739,0.001450077468166,0.000679337661982
2.716,0.005776653978426,-0.017145018038553,-0.013520257097911,0.001445798251525,0.000668591539295
2.72,0.005770715964323,-0.017147157646874,-0.013521338922342,0.001445990575869,0.000682703337992
2.724,0.005779370559776,-0.01714876836325,-0.013521218719628,0.001447457048987,0.000717321719804
2.728,0.005778649343489,-0.017146869160359,-0.013526074909299,0.001451519900742,0.000695372704113
2.732,0.005782543911442,-0.017146244106242,-0.013532974545118,0.001454861536208,0.000705469732142
2.736,0.005785428776593,-0.017144344903351,-0.013528334720334,0.001454164360463,0.000717514044147
2.74,0.005789635871605,-0.017143888133036,-0.013523310246862,0.001453082536032,0.000706311151144
2.744,0.005788914655318,-0.017142758227518,-0.013521723571029,0.001452938292774,0.000731842207731
2.748,0.005785500898222,-0.017141315794943,-0.013515737475841,0.001448923522106,0.000732298978046
2.752,0.005778913789461,-0.017144969957467,-0.013517396273303,0.001444067332435,0.00073446262691
2.756,0.005774610532277,-0.017146917241444,-0.013524271868579,0.0014469041165,0.000746771384887
2.76,0.005775500032365,-0.017146845119816,-0.013523069841433,0.0014518324278,0.000739270735495
2.764,0.005781942897869,-0.017148816444335,-0.013525065206496,0.001452649806259,0.00075508941274
2.768,0.005781173600496,-0.017148888565964,-0.013526820166129,0.0014569290229,0.000747540682261
2.772,0.005787904952515,-0.017145739254841,-0.013524704598352,0.00145808296896,0.000753550817992
2.776,0.005796968237198,-0.017146748957644,-0.013523286206319,0.001453947995577,0.000769730103381
2.78,0.005803459183787,-0.017143888133036,-0.01352501712541,0.001450293833052,0.000786871010487
2.784,0.005801776345783,-0.017146171984614,-0.013529969477253,0.001452120914315,0.000744295208966
2.788,0.005793482358473,-0.017145042079096,-0.013531171504399,0.001452721927888,0.000774442049794
2.792,0.005780500465294,-0.017143455403263,-0.013532806261318,0.001455991441726,0.000777831766347
2.796,0.005766941599084,-0.01713989740291,-0.013535955572441,0.001458275293304,0.000770162833154
2.8,0.005759681355121,-0.017140498416483,-0.013538503869991,0.001458443577104,0.000789755875638
2.804,0.005763816328504,-0.017142157213945,-0.013533431315434,0.001456568414756,0.000810118215496
2.808,0.005767758977543,-0.017140017605625,-0.013522949638718,0.001452120914315,0.000821032621984
2.812,0.005775187505307,-0.017139921443453,-0.013518574259906,0.001450942927711,0.000828629433548
2.816,0.005784923925192,-0.017139031943365,-0.013522132260259,0.001450269792509,0.000825720527854
2.82,0.005787448182199,-0.017140330132683,-0.013528815531192,0.001451904549428,0.000829735298523
2.824,0.005782303506013,-0.01714400833575,-0.013526627841786,0.001453082536032,0.000854857665879
2.828,0.005770427477808,-0.017144128538465,-0.013526459557986,0.001450822724997,0.000826730230657
2.832,0.005761869044527,-0.017140426294855,-0.013530426247568,0.001448899481563,0.000832115312272
2.836,0.005772110315813,-0.017140209929968,-0.013529584828566,0.001446303102927,0.000841803651071
2.84,0.005779610965206,-0.017140594578655,-0.013525666220069,0.001453346982004,0.000854497057736
2.844,0.005782303506013,-0.017139753159653,-0.013522420746774,0.001457409833758,0.000855074030766
2.848,0.005792424574585,-0.017139969524539,-0.0135216514494,0.001458371455475,0.000860218706952
2.852,0.005793506399016,-0.017141339835486,-0.01352501712541,0.001459116712306,0.000879379019663
2.856,0.005781365924839,-0.017139921443453,-0.013524632476723,0.001458948428505,0.000893611021075
2.86,0.005768432112745,-0.017136916375587,-0.013528503004134,0.001453731630691,0.000909117171262
2.864,0.005767254126142,-0.017137685672961,-0.01353208504503,0.001452265157572,0.000879114573691
2.868,0.005770595761609,-0.01713874345685,-0.013534416977694,0.00145849165819,0.000893202331845
2.872,0.005780764911266,-0.017137829916219,-0.013535763248098,0.001459693685336,0.000863127612646
2.876,0.005788337682287,-0.017135834551156,-0.013535138193982,0.001455005779466,0.000878152951974
2.88,0.005793265993587,-0.017137829916219,-0.01353816730239,0.001452553644087,0.000881061857668
2.884,0.005787977074144,-0.017137036578302,-0.013537061437416,0.001455270225438,0.000880893573868
2.888,0.005777206910913,-0.017137877997304,-0.013533166869462,0.001455486590324,0.000904140778876
2.892,0.005769586058806,-0.017140762862455,-0.013524536314551,0.001453587387433,0.00091000667135
2.896,0.005769225450662,-0.017141676403087,-0.013520834070941,0.001451351616941,0.000920007537207
2.9,0.005776052964853,-0.017140089727254,-0.013522829436004,0.001447336846273,0.000923878064618
2.904,0.005775692356709,-0.017140786902998,-0.013523791057721,0.001446687751614,0.000922315429328
2.908,0.005769778383149,-0.017140955186799,-0.013529416544765,0.001449716860022,0.000931474876182
2.912,0.005768480193831,-0.017139416592052,-0.013530185842139,0.001447336846273,0.000959530189776
2.916,0.00577578851888,-0.017137565470246,-0.013525257530839,0.001448154224732,0.000954072986532
2.92,0.005782135222213,-0.017137853956762,-0.013524223787493,0.001452217076486,0.000930777700437
2.924,0.005783553614245,-0.017139681038024,-0.013530714734083,0.0014520007116,0.000970877326037
2.928,0.005780428343665,-0.017141484078743,-0.013533359193805,0.001452168995401,0.000976598975253
2.932,0.005777303073085,-0.017148888565964,-0.013530666652997,0.001454645171322,0.00096556436605
2.936,0.005780211978779,-0.017151965755459,-0.013530209882682,0.001458155090589,0.000972199555898
2.94,0.005783962303475,-0.017151941714916,-0.013531700396343,0.001454236482092,0.000967102960798
2.944,0.005787856871429,-0.01714893664705,-0.013534392937151,0.001455558711953,0.00098051758375
2.948,0.005782471789814,-0.017147638457732,-0.01353956165388,0.001463203604603,0.000990085719834
2.952,0.005770667883237,-0.017147470173932,-0.013539249126822,0.001473300632632,0.000991744517296
2.956,0.005762734504072,-0.017150451201254,-0.013535522842668,0.001474791146293,0.000986407516766
2.96,0.005768047464059,-0.017151869593287,-0.013531772517972,0.001469021415991,0.001010063411005
2.964,0.005775932762138,-0.017152903336633,-0.013530618571912,0.001463900780348,0.000976671096882
2.968,0.005781365924839,-0.017151364741886,-0.013536099815699,0.001468372321332,0.000982705273156
2.972,0.005782664114157,-0.017151028174285,-0.013537614369903,0.001469045456534,0.001007995924313
2.976,0.005781245722124,-0.017150667566141,-0.013534657383123,0.001464621996636,0.001032204751039
2.98,0.005782567951985,-0.017152230201431,-0.01354112428917,0.00146926182142,0.00102292510147
2.984,0.005779707127377,-0.017152518687946,-0.013550211614396,0.001474214173263,0.001017491938769
2.988,0.005776822262226,-0.017156461336986,-0.013550355857653,0.001474502659778,0.001047518576883
2.992,0.005784899884649,-0.017154682336809,-0.013549995249509,0.001471737997342,0.001056798226452
2.996,0.005787496263285,-0.017152254241974,-0.013554322547236,0.001471858200056,0.001054466293788
3,0.005777856005572,-0.01715033099854,-0.013549610600823,0.001472314970372,0.001065188375933
3.004,0.005776509735168,-0.017148648160535,-0.013532469693717,0.00146926182142,0.001103028190497
3.008,0.005779923492264,-0.017151508985143,-0.013528478963591,0.001464020983063,0.001061053402549
3.012,0.005777351154171,-0.017151557066229,-0.01352559409844,0.001461400563884,0.001050355360948
3.016,0.005778336816431,-0.017148455836192,-0.013525882584955,0.00145159202237,0.001076583593279
3.02,0.005781438046468,-0.017148263511848,-0.013528911693364,0.001439066899506,0.00110560052859
3.024,0.005784322911619,-0.017150379079626,-0.013532445653174,0.001434451115265,0.001093051365183
3.028,0.005794972872135,-0.017149441498451,-0.013534368896608,0.001451255454769,0.001097570987253
3.032,0.005797304804799,-0.017149249174108,-0.013530883017884,0.001497461378272,0.001096873811508
3.036,0.005796391264167,-0.017149297255194,-0.013529777152909,0.001537128274098,0.001105816893476
3.04,0.005794347818019,-0.017148816444335,-0.013536556586014,0.001570616750393,0.001113101177983
3.044,0.005787231817313,-0.017152494647403,-0.013538816397049,0.001612327092369,0.001138487991312
3.048,0.005774346086305,-0.017151821512201,-0.013540691559397,0.0016283621345,0.001145243383874
3.052,0.005760546814666,-0.017153816877264,-0.013542374397402,0.001626054242379,0.001124039625014
3.056,0.005760210247065,-0.017153768796178,-0.013543576424548,0.00160970667319,0.001134136653042
3.06,0.005767999382973,-0.017153215863691,-0.013542831167718,0.001579776197248,0.001153296965754
3.064,0.005773576788931,-0.017154538093552,-0.013540859843198,0.001544556801862,0.001157191533708
3.068,0.005783769979132,-0.017153985161064,-0.013542638843374,0.001522223137485,0.001151686249378
3.072,0.005783577654788,-0.017149946349853,-0.01353915296465,0.001507726690101,0.001167961696938
3.076,0.00576698968017,-0.017147181687417,-0.013534441018237,0.001494095702262,0.00117865973854
3.08,0.005765619369223,-0.017145210362897,-0.013534921829095,0.001477916416874,0.001167024115764
3.084,0.005770980410295,-0.017145162281811,-0.013540330951253,0.001466449077898,0.001174909413843
3.088,0.005772158396899,-0.017146340268414,-0.013539898221481,0.001461857334199,0.001172481319008
3.092,0.005771605464411,-0.017150210795825,-0.013537614369903,0.001452625765716,0.001177698116823
3.096,0.005772470923957,-0.017148095228048,-0.013536123856241,0.001448274427447,0.001163153588353
3.1,0.005774923059335,-0.017149537660623,-0.013529825233995,0.00145964560425,0.00115368161444
3.104,0.00577521154585,-0.017149008768679,-0.013528503004134,0.001471016781054,0.001179332873742
3.108,0.005780452384208,-0.017150691606684,-0.013534200612807,0.001469886875536,0.00117923671157
3.112,0.005788650209345,-0.017149128971393,-0.013536532545471,0.001468540605133,0.001176520130219
3.116,0.005787856871429,-0.017150138674196,-0.013542206113602,0.001466929888757,0.00117060615666
3.12,0.005785861506366,-0.017149249174108,-0.013546725735672,0.001461568847684,0.001182962995723
3.124,0.005790861939295,-0.017151653228401,-0.013540643478311,0.001459741766422,0.001222581810464
3.128,0.00579624702091,-0.017150451201254,-0.013539008721392,0.001457241549958,0.001230467108544
3.132,0.005802449480985,-0.01714951362008,-0.013534849707466,0.001457770441902,0.001214792674557
3.136,0.005796511466882,-0.017150138674196,-0.013531003220598,0.001455150022723,0.001230659432887
3.14,0.005780981276152,-0.017149153011936,-0.013528478963591,0.001453515265804,0.00127686535639
3.144,0.005768840801975,-0.017150451201254,-0.01352739713916,0.001455198103809,0.001231332568089
3.148,0.005770619802152,-0.017151052214827,-0.01353249373426,0.001456279928241,0.0012453962857
3.152,0.005775572153994,-0.017152831215004,-0.013539802059309,0.001454500928064,0.001268018436593
3.156,0.00577932247869,-0.017153095660976,-0.013533743842492,0.00145240940083,0.001252512286406
3.16,0.005789972439206,-0.017152542728489,-0.013526748044501,0.0014518324278,0.001264845084927
3.164,0.005796703791225,-0.017152542728489,-0.01352715673373,0.001449115846449,0.001270686936858
3.168,0.005789395466176,-0.017155235269296,-0.013534008288464,0.00145060636011,0.001295568898785
3.172,0.005781005316695,-0.017159875094081,-0.013533287072176,0.001448683116676,0.001297131534076
3.176,0.005779995613892,-0.017163096526833,-0.013534657383123,0.00144846675179,0.001295256371727
3.18,0.005783601695331,-0.017162687837603,-0.013535354558868,0.001450486157396,0.001305497643014
3.184,0.005787279898399,-0.017159995296796,-0.013535691126469,0.001453467184719,0.001330740213085
3.188,0.005796198939824,-0.017159778931909,-0.013536244058956,0.001456279928241,0.001302468534605
3.192,0.005801367656553,-0.017160307823854,-0.013534849707466,0.001452505563002,0.001309320089339
3.196,0.005798026021086,-0.017159490445394,-0.013533623639777,0.001454500928064,0.001314032035752
3.2,0.005785140290078,-0.017157879729018,-0.013541364694599,0.001454428806436,0.00131220495449
3.204,0.005779082073261,-0.017157783566847,-0.013542446519031,0.001451880508885,0.001323239563692
3.208,0.005780885113981,-0.017157422958703,-0.013536099815699,0.00144575017044,0.001337952375963
3.212,0.005777783883943,-0.017156485377529,-0.013534441018237,0.001442576818773,0.001350573660998
3.216,0.005773144059159,-0.017156870026215,-0.013539922262024,0.001442264291715,0.001354708634382
3.22,0.005771028491381,-0.017157374877617,-0.013540739640483,0.001441014183483,0.001351415080001
3.224,0.005774273964676,-0.017155115066582,-0.01353446505878,0.001442240251172,0.001370094581854
3.228,0.005774201843047,-0.017153913039436,-0.013530282004311,0.001441567115971,0.00137343621732
3.232,0.005773865275446,-0.017154225566494,-0.01352994543671,0.001440341048281,0.001343289376492
3.236,0.005782952600672,-0.017152783133918,-0.013531003220598,0.001438682250819,0.001351823769231
3.24,0.005792785182729,-0.017151100295913,-0.013542206113602,0.001435412736982,0.001391081975827
3.244,0.005801728264697,-0.017153672634006,-0.013537373964474,0.001431566250114,0.00140605923407
3.248,0.005806536373282,-0.017154153444865,-0.013521507206143,0.001420579721997,0.001399207679336
3.252,0.005803939994646,-0.017156148809928,-0.013526219152556,0.001418872843449,0.001408367126191
3.256,0.005798362588687,-0.017156220931556,-0.013535643045383,0.001429210276907,0.001413559883463
3.26,0.00579369872336,-0.017156629620786,-0.013539080843021,0.001431830696086,0.001404472558237
3.264,0.005799564615834,-0.017157278715445,-0.013540090545824,0.001429907452652,0.00141452150518
3.268,0.005804637170391,-0.017155884363955,-0.013540643478311,0.00142767168216,0.001424426208865
3.272,0.005794588223448,-0.017150427160711,-0.013542855208261,0.001424185803436,0.001431325844684
3.276,0.005780812992352,-0.017148023106419,-0.013544514005722,0.001425748438726,0.001405818828641
3.28,0.005779298438148,-0.017145354606154,-0.013541821464915,0.001428801587677,0.001402741639146
3.284,0.005788505966088,-0.017145330565611,-0.013533311112719,0.00143120564197,0.0014166611135
3.288,0.005794564182905,-0.017147325930674,-0.013526243193099,0.001434427074722,0.00142257508706
3.292,0.005794203574761,-0.017148167349676,-0.013525858544412,0.001429546844508,0.001442288332258
3.296,0.005789395466176,-0.017152422525774,-0.013526098949842,0.001426133087412,0.001447625332788
3.3,0.005787832830886,-0.017149441498451,-0.013535378599411,0.001431878777172,0.00143786487236
3.304,0.005795621966794,-0.017152085958173,-0.013538840437592,0.001444692386551,0.001445629967725
3.308,0.005793626601731,-0.017154922742238,-0.01353799901859,0.001445052994695,0.001457481955387
3.312,0.005787904952515,-0.017154177485408,-0.013536171937327,0.001441615197056,0.001458203171675
3.316,0.005784346952162,-0.017153792836721,-0.013534200612807,0.001447408967901,0.001467458780701
3.32,0.005776846302769,-0.017153143742062,-0.013532541815346,0.001450870806083,0.001493951459005
3.324,0.005776437613539,-0.017153504350206,-0.013523670855006,0.001452890211688,0.001459741766422
3.328,0.005780861073438,-0.017153528390749,-0.013526868247215,0.001456712658013,0.001467578983416
3.332,0.005783625735874,-0.01715230232306,-0.01353619597787,0.001455174063266,0.0014820754308
3.336,0.005785332614422,-0.017154321728665,-0.013540282870168,0.001451063130426,0.001489744363993
3.34,0.005788289601202,-0.017155139107125,-0.013542494600117,0.001454524968607,0.001519194029076
3.344,0.005798554913031,-0.017152711012289,-0.013545740073412,0.001456832860728,0.001529940151764
3.348,0.005796583588511,-0.017152590809575,-0.013548985546706,0.001455558711953,0.001505202433094
3.352,0.005786510601025,-0.01715247060686,-0.013540595397226,0.001452745968431,0.001488253850331
3.356,0.005782375627642,-0.017153913039436,-0.013533936166835,0.001451736265628,0.001500778973195
3.36,0.005789780114863,-0.017151989796002,-0.013530546450283,0.001450774643911,0.001526406191954
3.364,0.005807473954456,-0.017154538093552,-0.013536676788729,0.001449813022194,0.001545013572178
3.368,0.005800117548321,-0.017156557499157,-0.013539080843021,0.001450462116853,0.001506043852096
3.372,0.005782015019498,-0.017157182553273,-0.013540403072882,0.001452289198115,0.001522896272687
3.376,0.005767855139715,-0.017153792836721,-0.013535474761582,0.001453202738746,0.001543402855802
3.38,0.005773264261873,-0.017151869593287,-0.013535114153439,0.001453947995577,0.001543090328744
3.384,0.005778793586746,-0.017153937079979,-0.013535691126469,0.001451303535855,0.001538931314818
3.388,0.005783553614245,-0.017152855255547,-0.013536917194158,0.001440701656425,0.001560207195307
3.392,0.00579131870961,-0.017152614850118,-0.013536003653527,0.001439547710365,0.001560567803451
3.396,0.005799011683346,-0.01715583628287,-0.013535835369726,0.001452193035943,0.001547081058869
3.4,0.005805694954279,-0.017157374877617,-0.013538527910534,0.001455318306524,0.001546456004753
3.404,0.005791198506896,-0.017156870026215,-0.013538912559221,0.001454476887521,0.001574920007577
3.408,0.0057726632483,-0.017156509418072,-0.013537662450989,0.001452505563002,0.001608985456902
3.412,0.005769994748035,-0.017157062350559,-0.013537614369903,0.001456159725526,0.001563188222629
3.416,0.005768408072202,-0.017157519120874,-0.013539778018766,0.001454789414579,0.001571386047767
3.42,0.005770427477808,-0.017156677701872,-0.013539874180938,0.00145315465766,0.001589055846817
3.424,0.005776870343312,-0.017154994863867,-0.013542302275773,0.001453587387433,0.001595907401551
3.428,0.005778865708375,-0.017154802539524,-0.013547134424901,0.001453635468519,0.001596941144896
3.432,0.005782760276329,-0.017156244972099,-0.013544850573323,0.001451952630514,0.001581483075796
3.436,0.005785212411707,-0.017155403553097,-0.013541845505458,0.001451760306171,0.001591844549796
3.44,0.005781341884296,-0.017154994863867,-0.013540523275597,0.001452866171145,0.001623554025915
3.444,0.005781486127554,-0.017155475674726,-0.01354350430292,0.001453635468519,0.001633819337744
3.448,0.005785981709081,-0.017155884363955,-0.013535474761582,0.001453130617118,0.001624227161117
3.452,0.005786582722654,-0.017154754458438,-0.013530282004311,0.001451664143999,0.001647113757982
3.456,0.005791943763726,-0.017155667999069,-0.013528983814993,0.00145142373857,0.001633290445799
3.46,0.005799035723889,-0.017151749390572,-0.013529632909652,0.001452193035943,0.001636103189322
3.464,0.005794083372047,-0.01715600456667,-0.013531748477429,0.001453010414403,0.001632833675484
3.468,0.005792592858385,-0.017155259309839,-0.013534392937151,0.001449837062737,0.001661586164823
3.472,0.005791246587981,-0.017150619485055,-0.013535090112896,0.001448707157219,0.001681227288392
3.476,0.005787880911972,-0.017149729984967,-0.013534416977694,0.001454116279378,0.001692165735423
3.48,0.005773456586217,-0.017153720715092,-0.013533960207378,0.001462650672116,0.001679784855817
3.484,0.0057624700581,-0.017153360106948,-0.013533936166835,0.001461112077369,0.001666634678837
3.488,0.005765114517822,-0.017154009201607,-0.013535811329183,0.001456135684983,0.001679424247673
3.492,0.005781029357238,-0.017152855255547,-0.013541028126998,0.001459813888051,0.001693199478769
3.496,0.005787279898399,-0.017153384147491,-0.01354350430292,0.001457650239188,0.001693920695057
3.5,0.005778240654259,-0.017153215863691,-0.013543864911063,0.001455678914668,0.001690795424477
3.504,0.005777567519057,-0.017152855255547,-0.013536845072529,0.001458155090589,0.001676010490578
3.508,0.005778889748918,-0.017152783133918,-0.013530762815169,0.001456664576928,0.001716110116177
3.512,0.00578153420864,-0.017156485377529,-0.013539802059309,0.001459092671763,0.001697671019753
3.516,0.005782159262756,-0.017156749823501,-0.013556365993385,0.001458034887874,0.001685049734718
3.52,0.005788890614775,-0.017156220931556,-0.013552807993032,0.001454236482092,0.001703032060826
3.524,0.005789395466176,-0.017156317093728,-0.013543023492061,0.001451351616941,0.001708032493754
3.528,0.005792544777299,-0.017157543161417,-0.013539657816051,0.00145536638761,0.001719764278702
3.532,0.005798554913031,-0.017158576904763,-0.013540859843198,0.001463203604603,0.001731496063649
3.536,0.005801007048409,-0.017160163580596,-0.013540811762112,0.001463203604603,0.001745295335288
3.54,0.005803074535101,-0.017156389215357,-0.013534392937151,0.001457530036473,0.001754046092913
3.544,0.005798458750859,-0.017153384147491,-0.013531556153086,0.001457722360816,0.001768999310613
3.548,0.005788650209345,-0.017154586174638,-0.013534416977694,0.001455029820009,0.001754286498342
3.552,0.005779538843577,-0.017155475674726,-0.013537373964474,0.001453683549605,0.001747074335465
3.556,0.005776726100055,-0.017157158512731,-0.013537373964474,0.001454404765893,0.001739862172587
3.56,0.005776581856797,-0.017156677701872,-0.013534416977694,0.001449885143823,0.001772124581193
3.564,0.005783649776417,-0.017157999931733,-0.01353323899109,0.001447769576045,0.001768037688896
3.568,0.005791342750153,-0.017158432661506,-0.013534897788552,0.001444283697321,0.001767532837494
3.572,0.005790525371694,-0.017157663364132,-0.013534561220951,0.001442865305288,0.001788832758526
3.576,0.005782423708728,-0.017155499715269,-0.013528358760877,0.001444596224379,0.001791453177705
3.58,0.005780019654435,-0.017160836715798,-0.013538311545648,0.001447336846273,0.00180686316572
3.584,0.005782616033071,-0.017159250039965,-0.01354424955975,0.001447168562472,0.001822898207851
3.588,0.005784395033248,-0.017155355472011,-0.013547014222187,0.001451135252055,0.001835639695601
3.592,0.005789467587805,-0.017155571836897,-0.013550620303625,0.001449236049164,0.001795035218601
3.596,0.005793265993587,-0.017153576471835,-0.013550235654939,0.001447000278672,0.001782510095737
3.6,0.005794612263991,-0.017153792836721,-0.013546004519384,0.001445221278495,0.00179938655687
3.604,0.005790789817666,-0.017154874661153,-0.013542422478488,0.001444043291892,0.001827201465035
3.608,0.005787231817313,-0.01715501890441,-0.013548336452047,0.001443971170263,0.001837899506636
3.612,0.005787832830886,-0.017152783133918,-0.013546341086985,0.001445990575869,0.001816094734203
3.616,0.005797593291314,-0.017152013836544,-0.013538503869991,0.001452505563002,0.001820133545415
3.62,0.005811224279152,-0.017151292620257,-0.013536316180585,0.001453034454946,0.001823859829568
3.624,0.005799732899634,-0.017152422525774,-0.01353619597787,0.001450077468166,0.001836865763291
3.628,0.005782375627642,-0.017153720715092,-0.013537133559044,0.001451712225085,0.001842539331421
3.632,0.005777134789284,-0.017157639323589,-0.013537854775332,0.001453875873948,0.001842130642191
3.636,0.005777856005572,-0.017157471039789,-0.013538503869991,0.001455198103809,0.001854463440712
3.64,0.005774129721419,-0.017152109998716,-0.013539393370079,0.00145808296896,0.001874176685911
3.644,0.005774081640333,-0.017155475674726,-0.013541004086455,0.001461689050399,0.001884682403169
3.648,0.005771581423869,-0.017159057715622,-0.013542037829801,0.001463155523517,0.00187146010456
3.652,0.005778601262403,-0.017157951850647,-0.013536748910358,0.001466833726585,0.001861122671102
3.656,0.005784851803563,-0.017155379512554,-0.013534825666923,0.001465054726408,0.001866579874346
3.66,0.005782375627642,-0.01715362455292,-0.013544417843551,0.00145890034742,0.001864127738968
3.664,0.005779298438148,-0.017155139107125,-0.013554827398637,0.001462049658543,0.001870017671985
3.668,0.005782207343841,-0.017156389215357,-0.013555861141983,0.001467987672645,0.001877157713233
3.672,0.005783745938589,-0.017155956485584,-0.013549826965709,0.00146967051065,0.001881100362273
3.676,0.005786294236139,-0.017157543161417,-0.013543576424548,0.001466905848214,0.001919012298466
3.68,0.005785621100937,-0.01715838458042,-0.013546172803184,0.001465223010209,0.001938725543665
3.684,0.005787015452427,-0.017156437296443,-0.013552591628145,0.001463732496548,0.001918940176837
3.688,0.00578958779052,-0.017156845985672,-0.013544538046265,0.001465463415638,0.001934614610825
3.692,0.00579115042581,-0.017159394283223,-0.013535090112896,0.001466809686042,0.001935023300054
3.696,0.005788818493146,-0.01715838458042,-0.013537806694246,0.001469598389021,0.001901078053444
3.7,0.005790789817666,-0.017155259309839,-0.013539393370079,0.001465295131838,0.001927113961432
3.704,0.005794323777476,-0.017149128971393,-0.013537638410446,0.001464381591207,0.001962790127133
3.708,0.005797881777829,-0.017147085525245,-0.013529007855536,0.001458275293304,0.001958102221263
3.712,0.005803531305416,-0.01715009059311,-0.013526531679614,0.001448683116676,0.001947043571517
3.716,0.005800309872664,-0.017148984728136,-0.013530955139513,0.001440365088824,0.001947836909434
3.72,0.005800285832121,-0.017148888565964,-0.013532806261318,0.001435917588383,0.001966348127486
3.724,0.005806872940883,-0.017149369376823,-0.013541028126998,0.001447601292245,0.001989787656838
3.728,0.005799564615834,-0.017148840484878,-0.013546461289699,0.001478902079133,0.001963463262335
3.732,0.005779514803034,-0.017149994430939,-0.013546894019472,0.001517679474872,0.001973223722763
3.736,0.005776389532454,-0.017148407755106,-0.013547422911416,0.00155390857306,0.001988609670235
3.74,0.005776293370282,-0.017146893200901,-0.013542206113602,0.001593311022915,0.001988104818833
3.744,0.005770355356179,-0.017147686538818,-0.013537878815875,0.001606389078266,0.00199596607637
3.748,0.005769153329033,-0.017147085525245,-0.013536147896784,0.001599874091133,0.001987936535033
3.752,0.005782928560129,-0.017149225133565,-0.013536845072529,0.001583694805745,0.002011616469814
3.756,0.005782567951985,-0.017148215430762,-0.013539128924107,0.001560904371052,0.002028324647147
3.76,0.005775091343136,-0.017151052214827,-0.013540018424195,0.001540373747393,0.002027723633574
3.764,0.005774562451191,-0.017152783133918,-0.013543985113778,0.001525492651323,0.002001735806672
3.768,0.005780452384208,-0.017149898268767,-0.013542326316316,0.001507486284672,0.002035080039709
3.772,0.005779586924663,-0.017146652795472,-0.013533118788376,0.001489984769422,0.002007457455888
3.776,0.005777952167744,-0.017146989363073,-0.013531363828742,0.00147854147099,0.002008322915434
3.78,0.005782928560129,-0.017148335633477,-0.013545667951783,0.001472579416344,0.002018107416404
3.784,0.005783241087187,-0.017146628754929,-0.013548985546706,0.001465848064325,0.002020751876126
3.788,0.005781798654612,-0.017147205727959,-0.013543167735319,0.001461977536914,0.002061188069326
3.792,0.005783769979132,-0.017149369376823,-0.01353799901859,0.001462217942343,0.002088978936948
3.796,0.005789467587805,-0.017146676836015,-0.013535498802125,0.001463131482974,0.002062870907331
3.8,0.005793338115216,-0.017143719849235,-0.013538479829448,0.001456207806612,0.002057630068973
3.804,0.005794347818019,-0.017144368943894,-0.013543071573147,0.001456688617471,0.002077439476344
3.808,0.005805767075908,-0.017148239471305,-0.013542590762288,0.001457770441902,0.002080829192896
3.812,0.005815599657965,-0.017148792403793,-0.013534296774979,0.001456039522812,0.002079290598149
3.816,0.00581177721164,-0.017148960687593,-0.013526772085044,0.001452481522459,0.002052821960388
3.82,0.005800093507778,-0.01715033099854,-0.013523815098264,0.001449957265451,0.002064169096649
3.824,0.005794564182905,-0.017147494214475,-0.013525161368668,0.001454068198292,0.002064722029136
3.828,0.00579937229149,-0.017144657430409,-0.013521867814287,0.00146341996949,0.002076165327569
3.832,0.005784611398134,-0.017145522889955,-0.013515641313669,0.001460679347596,0.002084819923022
3.836,0.005770042829121,-0.017148287552391,-0.013528310679791,0.001459549442079,0.002092560977844
3.84,0.005767831099172,-0.017148455836192,-0.013534801626381,0.001458299333846,0.002102609924786
3.844,0.005776557816254,-0.0171462200657,-0.013532109085573,0.001458996509591,0.002102706086958
3.848,0.00578605383071,-0.017145619052126,-0.013531964842315,0.001460607225967,0.002112947358244
3.852,0.005793746804446,-0.017146292187328,-0.01353521031561,0.001457794482445,0.002117418899228
3.856,0.005794660345077,-0.017146099862985,-0.013532926464032,0.001449813022194,0.002146724321054
3.86,0.005782976641215,-0.017145498849412,-0.013526459557986,0.001445990575869,0.002143599050474
3.864,0.005784803722477,-0.017144368943894,-0.013526074909299,0.00144591845424,0.002098883640633
3.868,0.005789491628348,-0.017142565903175,-0.013529512706937,0.00144748108953,0.0021124184663
3.872,0.00578975607432,-0.017144320862808,-0.013531435950371,0.001450558279025,0.002143743293732
3.876,0.005794636304534,-0.017146051781899,-0.013534272734436,0.001452241117029,0.002137035982255
3.88,0.005799492494205,-0.017149201093022,-0.013530546450283,0.001453923955034,0.002138262049945
3.884,0.005798675115745,-0.017150883931027,-0.013524536314551,0.00144575017044,0.002146411793996
3.888,0.005802569683699,-0.017148143309134,-0.013520209016825,0.001445629967725,0.002147806145486
3.892,0.005798747237374,-0.017147301890131,-0.013515376867697,0.001444548143293,0.002146964726484
3.896,0.005791054263638,-0.017147301890131,-0.013517011624616,0.001438586088648,0.002150450605208
3.9,0.005785020087364,-0.017149128971393,-0.013530907058427,0.001442600859316,0.002181078256895
3.904,0.005772639207757,-0.017148167349676,-0.013534729504752,0.00145159202237,0.002182857257071
3.908,0.005762902787872,-0.017148071187505,-0.013530546450283,0.001454164360463,0.002159994700749
3.912,0.005762373895928,-0.017147758660447,-0.01352871936902,0.001449476454593,0.002172928512843
3.916,0.005769153329033,-0.017145258443983,-0.013530282004311,0.001444211575692,0.002183217865215
3.92,0.00578309684393,-0.017145378646697,-0.013525762382241,0.001444403900036,0.002187881730542
3.924,0.00579740096697,-0.017146292187328,-0.013520184976282,0.001445173197409,0.002217523719969
3.928,0.00580487757582,-0.017148600079449,-0.013522997719804,0.001446711792157,0.002215071584591
3.932,0.005806800819254,-0.01715033099854,-0.013522757314375,0.001444067332435,0.002207330529769
3.936,0.005804204440618,-0.017149128971393,-0.013520930233113,0.001441278629455,0.002220721112178
3.94,0.005805839197537,-0.017147229768502,-0.01352362277392,0.001441278629455,0.002220528787835
3.944,0.005806392130024,-0.01714696532253,-0.013523358327948,0.001442360453887,0.002226274477594
3.948,0.005808627900516,-0.017147422092846,-0.013517973246333,0.00144082185914,0.002246180047136
3.952,0.005806824859797,-0.017151244539171,-0.013520593665512,0.001439283264393,0.002204613948418
3.956,0.005804132318989,-0.017150258876911,-0.013519079111307,0.001436494561413,0.002224711842304
3.96,0.005811657008925,-0.017151244539171,-0.013516530813757,0.001433681817891,0.002248271574371
3.964,0.005810527103407,-0.017150258876911,-0.013522300544059,0.001429907452652,0.002242694168412
3.968,0.005793025588158,-0.017150691606684,-0.013526363395814,0.001427912087589,0.002219639287747
3.972,0.005776485694625,-0.017150258876911,-0.013529272301508,0.001433994344949,0.002249016831201
3.976,0.005774129721419,-0.017149898268767,-0.013528454923048,0.00143235958803,0.002245458830848
3.98,0.005773672951103,-0.017147926944247,-0.013527252895902,0.001431590290657,0.002224447396332
3.984,0.005783433411531,-0.01714795098479,-0.013527757747303,0.001434859804494,0.002236227262365
3.988,0.005785020087364,-0.01714737401176,-0.013528310679791,0.001432167263687,0.002257431021225
3.992,0.005781654411354,-0.017150186755282,-0.013529464625851,0.001435412736982,0.002267672292511
3.996,0.005782207343841,-0.017152134039259,-0.013532613936974,0.001445389562296,0.002244280844245
4,0.005784106546733,-0.017147494214475,-0.013534441018237,0.001451712225085,0.002251589169294
4.004,0.005784178668361,-0.017148407755106,-0.013535498802125,0.001451231414226,0.00228327460487
4.008,0.005786775046997,-0.017151941714916,-0.013540499235054,0.001451543941285,0.002291159902949
4.012,0.005784130587276,-0.017151412822971,-0.0135417012622,0.001452337279201,0.002287289375538
4.016,0.005783433411531,-0.017149369376823,-0.013536821031986,0.001452673846802,0.002284596834731
4.02,0.005785548979308,-0.017147830782076,-0.013536244058956,0.001450462116853,0.002322292406038
4.024,0.005787808790343,-0.017147301890131,-0.013536484464385,0.001450942927711,0.002326499501049
4.028,0.00579091002038,-0.017148143309134,-0.013532782220775,0.00145142373857,0.002320609568033
4.032,0.005791799520469,-0.017149633822795,-0.01353545072104,0.001452866171145,0.002311161634663
4.036,0.005791198506896,-0.017154778498981,-0.013534176572265,0.00145339506309,0.002334553082929
4.04,0.005796727831768,-0.017148503917277,-0.013531868680144,0.001454116279378,0.002350299638545
4.044,0.005803242818901,-0.017147470173932,-0.013536147896784,0.00145635204987,0.002338351488712
4.048,0.005806560413825,-0.017142373578831,-0.013529921396167,0.001452890211688,0.002329456487829
4.052,0.005806872940883,-0.017143671768149,-0.013525618138983,0.001448370589618,0.002342462421552
4.056,0.005793362155759,-0.017148503917277,-0.013529031896079,0.001454765374036,0.002344626070415
4.06,0.005779923492264,-0.01715049928234,-0.013528118355447,0.001456424171498,0.002357728166309
4.064,0.005783217046644,-0.017151148376999,-0.013525738341698,0.001452625765716,0.002364411437243
4.068,0.005789227182376,-0.01714876836325,-0.013523767017178,0.001453274860375,0.002367849234881
4.072,0.005786342317225,-0.017146244106242,-0.013523815098264,0.001453419103633,0.002378475154854
4.076,0.005781510168097,-0.01714540268724,-0.013525906625498,0.001457554077016,0.002384918020358
4.08,0.005783048762844,-0.017149297255194,-0.013527445220245,0.001463131482974,0.002383836195926
4.084,0.00577857722186,-0.017151100295913,-0.013528743409563,0.001461689050399,0.002373258357039
4.088,0.00577150930224,-0.017147902903704,-0.01352814239599,0.001454645171322,0.002351429544063
4.092,0.005771389099525,-0.017145474808869,-0.013525065206496,0.001450558279025,0.002372921789438
4.096,0.005774177802504,-0.017145907538641,-0.013527300976988,0.001450414035767,0.002379677182
4.1,0.005784443114334,-0.01714934533628,-0.013534200612807,0.001452193035943,0.00238181679032
4.104,0.005786678884826,-0.017150186755282,-0.013539297207908,0.001454597090236,0.002395471818702
4.108,0.005778673384031,-0.017149874228224,-0.013537710532075,0.001450918887168,0.002394774642957
4.112,0.005775163464764,-0.017148816444335,-0.013537878815875,0.001446375224556,0.002397154656707
4.116,0.005777423275799,-0.017149994430939,-0.013543167735319,0.001452337279201,0.002405160157501
4.12,0.005778721465117,-0.017153336066405,-0.013546533411328,0.001455270225438,0.002406722792791
4.124,0.005780404303122,-0.017153937079979,-0.013550980911769,0.001450125549252,0.002428599686853
4.128,0.005781630370811,-0.017153937079979,-0.013554154263435,0.001447625332788,0.002464299893097
4.132,0.005781077438324,-0.017155523755812,-0.013544634208437,0.0014469041165,0.002412492523093
4.136,0.005784298871076,-0.017154369809751,-0.01352912805825,0.001446375224556,0.002414728293585
4.14,0.005786534641568,-0.017155379512554,-0.013516338489414,0.001451640103456,0.002435523363216
4.144,0.005787231817313,-0.017156196891014,-0.0135216514494,0.001452890211688,0.002433167390009
4.148,0.005788457885002,-0.017151581106772,-0.013528767450106,0.001449548576222,0.002431821119605
4.152,0.005787424141656,-0.017147686538818,-0.013533984247921,0.001451447779113,0.002437927417508
4.156,0.005786510601025,-0.017145114200725,-0.01353521031561,0.001457554077016,0.00244468281007
4.16,0.005788049195772,-0.01714400833575,-0.013533575558691,0.001462530469401,0.002443312499123
4.164,0.00579485266942,-0.017149008768679,-0.013534681423666,0.001460414901624,0.00243268657915
4.168,0.005804060197361,-0.017149177052479,-0.01353898468085,0.001454645171322,0.002458794608767
4.172,0.005797761575114,-0.017150427160711,-0.013542350356859,0.001454476887521,0.002498557666766
4.176,0.005780332181493,-0.017150523322883,-0.013542422478488,0.001458323374389,0.002479998367627
4.18,0.005773168099702,-0.017148455836192,-0.013540282870168,0.001459188833935,0.002480407056857
4.184,0.005781462087011,-0.01714795098479,-0.013538503869991,0.001455847198468,0.002481104232602
4.188,0.005796319142539,-0.017146724917101,-0.013540595397226,0.001451640103456,0.002518871925537
4.192,0.005793746804446,-0.017146941281987,-0.013544706330066,0.00144928413025,0.002516155344187
4.196,0.005776990546027,-0.017148023106419,-0.013542398437945,0.001447817657131,0.002476392286188
4.2,0.005767855139715,-0.01714737401176,-0.013538239424019,0.001452144954858,0.002467833852907
4.204,0.005771966072555,-0.017149729984967,-0.013534753545295,0.001464141185777,0.002476127840216
4.208,0.005781822695155,-0.017150980093199,-0.013545475627439,0.00146868484839,0.002491417625517
4.212,0.005785548979308,-0.017150379079626,-0.013550307776567,0.001464285429035,0.002518222830878
4.216,0.00578622211451,-0.017147566336103,-0.013543215816404,0.001460919753025,0.002526829345246
4.22,0.00578482776302,-0.017150427160711,-0.013538479829448,0.00146474219935,0.002514520587268
4.224,0.005784370992705,-0.017145498849412,-0.01354071559994,0.001458058928417,0.002502452234719
4.228,0.005786823128083,-0.017144921876382,-0.013542254194687,0.001459212874478,0.002519328695853
4.232,0.005785669182023,-0.017146027741356,-0.013540787721569,0.001462939158631,0.002526757223617
4.236,0.005782736235786,-0.017144128538465,-0.013542927329889,0.001460751469225,0.002537311021961
4.24,0.00578425078999,-0.017141604281458,-0.013545355424725,0.00146399694252,0.002552168077489
4.244,0.005783385330445,-0.017140834984084,-0.013547855641189,0.001465295131838,0.002537767792277
4.248,0.0057828564385,-0.017144681470952,-0.013552832033575,0.00146161692877,0.002549595739396
4.252,0.00578030814095,-0.017144128538465,-0.013554394668865,0.001459236915021,0.002536902332731
4.256,0.005781894816783,-0.017144368943894,-0.013547831600646,0.001458876306877,0.00255505294264
4.26,0.005790669614951,-0.017144777633124,-0.013547230587073,0.001457530036473,0.002578179944934
4.264,0.005797953899458,-0.017145739254841,-0.013543384100205,0.00145414031992,0.002554956780468
4.268,0.005792448615128,-0.017146051781899,-0.013541364694599,0.001448130184189,0.002531565332202
4.272,0.005787303938942,-0.017145787335927,-0.01354975484408,0.001445004913609,0.002581737945287
4.276,0.005786678884826,-0.017144921876382,-0.013555476493296,0.001443658643205,0.002590128094768
4.28,0.005787111614598,-0.017144320862808,-0.013555380331125,0.001446399265098,0.002569405146766
4.284,0.005783553614245,-0.017145570971041,-0.013553625371491,0.001446110778583,0.002584093918494
4.288,0.00578465947922,-0.017143166916748,-0.01354506693821,0.001445052994695,0.002594094784351
4.292,0.005791222547438,-0.017141820646344,-0.013535763248098,0.00144805806256,0.002600465528226
4.296,0.005786871209169,-0.017142061051773,-0.013534489099323,0.00145652033367,0.002575246998697
4.3,0.005782255424927,-0.017142758227518,-0.01353775861316,0.001459405198821,0.002585993121385
4.304,0.005781173600496,-0.017142926511319,-0.013541268532427,0.001456592455299,0.002603350393377
4.308,0.005782495830357,-0.017144657430409,-0.013542927329889,0.001451087170969,0.002610682758969
4.312,0.005784154627818,-0.017144152579008,-0.013544682289523,0.00144945241405,0.002586666256587
4.316,0.005785428776593,-0.017145282484525,-0.01354605260047,0.001452193035943,0.002603278271748
4.32,0.005789467587805,-0.017146821079273,-0.013547903722275,0.001453274860375,0.002602004122973
4.324,0.005788001114686,-0.017145787335927,-0.013549730803537,0.001446759873242,0.002612942570004
4.328,0.005789996479749,-0.017147662498275,-0.013551125155027,0.001449957265451,0.002639315045593
4.332,0.005791703358297,-0.017146532592758,-0.013550788587426,0.001455775076839,0.002627895787703
4.336,0.005790429209522,-0.017146989363073,-0.013549826965709,0.001459188833935,0.002637584126502
4.34,0.005790525371694,-0.017145691173755,-0.013552639709231,0.001459741766422,0.002646863776072
4.344,0.005796391264167,-0.017146051781899,-0.013554346587779,0.001456159725526,0.002628905490506
4.348,0.005799684818548,-0.01714876836325,-0.013554010020178,0.001455101941637,0.002652056533343
4.352,0.005800309872664,-0.017147975025333,-0.013559226817993,0.001456207806612,0.002673043927317
4.356,0.0057976413724,-0.017148335633477,-0.013563746440063,0.001462987239717,0.002630612369054
4.36,0.005791943763726,-0.017149778066052,-0.013567544845845,0.001468949294362,0.002605898690927
4.364,0.005796703791225,-0.017146292187328,-0.013558169034104,0.001468732929476,0.002623953138664
4.368,0.005803363021616,-0.01714499399801,-0.013548312411505,0.001465920185954,0.002647440749102
4.372,0.005798602994117,-0.017145282484525,-0.013545740073412,0.001462217942343,0.002664677818379
4.376,0.005800790683523,-0.017146604714386,-0.01354917787105,0.001460246617823,0.002646599330099
4.38,0.005801127251124,-0.017145859457556,-0.013550067371138,0.00146317956406,0.002634699261351
4.384,0.005803771710845,-0.017144777633124,-0.013547879681732,0.001469021415991,0.002640060302424
4.388,0.005808916387031,-0.017143767930321,-0.013543480262377,0.001469550307936,0.002671841900171
4.392,0.005805117981249,-0.017143960254665,-0.013545595830154,0.001467482821244,0.002697541240558
4.396,0.005794035290961,-0.01714400833575,-0.013553433047148,0.001460895712482,0.002707325741529
4.4,0.005785452817136,-0.017140233970511,-0.013555091844609,0.001458804185248,0.00268095326594
4.404,0.005782543911442,-0.017141556200372,-0.013553937898549,0.001460438942167,0.002696868105356
4.408,0.005789155060747,-0.017144296822265,-0.013550019290052,0.001464718158808,0.002714465782777
4.412,0.005790597493322,-0.017144489146609,-0.013551533844257,0.001463900780348,0.002702709957287
4.416,0.005791366790696,-0.017138983862279,-0.013550427979282,0.001460078334023,0.002710090403965
4.42,0.005794516101819,-0.017136531726901,-0.013547927762818,0.001459621563707,0.002707878674016
4.424,0.005797160561541,-0.017138262645991,-0.013547975843904,0.001455462549781,0.002695233348437
4.428,0.005795141155935,-0.017139512754223,-0.013550764546883,0.001449115846449,0.002715956296439
4.432,0.00579444398019,-0.017139080024451,-0.013558289236819,0.001447192603015,0.002723817553975
4.436,0.005797040358826,-0.017140354173226,-0.013559515304508,0.001457289631044,0.002725428270351
4.44,0.005793386196302,-0.017140450335397,-0.013555909223069,0.00149284559403,0.002736198433582
4.444,0.005791390831239,-0.017139200227165,-0.013555572655468,0.001526574475754,0.002734467514491
4.448,0.005792689020557,-0.01713833476762,-0.013560068236995,0.00156253912797,0.002697421037843
4.452,0.005786125952338,-0.017135065253782,-0.013559491263965,0.001605860186322,0.002723288662031
4.456,0.005783505533159,-0.017137060618845,-0.013553841736377,0.001621630782481,0.002753315300145
4.46,0.005787496263285,-0.017139801240738,-0.013552783952489,0.001616149538694,0.002755959759866
4.464,0.005792039925898,-0.017135546064641,-0.013553553249862,0.001606124632294,0.002757378151899
4.468,0.005788241520116,-0.017135161415954,-0.013554034060721,0.001575040210292,0.002752137313541
4.472,0.005789323344547,-0.017136675970158,-0.013550307776567,0.001541768098883,0.002757426232985
4.476,0.00579312175033,-0.017138358808163,-0.013548697060191,0.00151897766419,0.002753315300145
4.48,0.005791847601555,-0.017140642659741,-0.013553192641718,0.001496836324156,0.002759325435876
4.484,0.00578679908754,-0.017139753159653,-0.013554923560809,0.001483926552605,0.002772211166884
4.488,0.005785548979308,-0.017138527091963,-0.013549610600823,0.001476305700498,0.002780096464963
4.492,0.0057927130611,-0.017142133173402,-0.0135467978573,0.001469550307936,0.002770576409965
4.496,0.005799973305063,-0.017141435997657,-0.013548961506164,0.001460583185424,0.002785529627664
4.5,0.005807690319342,-0.017140137808339,-0.013549947168423,0.00146087167194,0.002780697478536
4.504,0.005810935792637,-0.017139055983908,-0.01355369749312,0.001466040388668,0.00278853469553
4.508,0.005813387928016,-0.017141508119286,-0.013554130222892,0.00146810787536,0.002818056482242
4.512,0.005809541441148,-0.017143479443806,-0.013552567587602,0.00147007919988,0.002793823614974
4.516,0.005799324210404,-0.017142613984261,-0.013553601330948,0.001465992307583,0.002801901237397
4.52,0.005798554913031,-0.017143503484349,-0.013551341519913,0.001464477753378,0.002813320495286
4.524,0.00580470929202,-0.017139560835309,-0.01354819220879,0.00146161692877,0.002793607250087
4.528,0.005805406467764,-0.017137036578302,-0.013546076641013,0.001459597523164,0.002798463439758
4.532,0.005798627034659,-0.017142950551862,-0.013543528343462,0.001459693685336,0.002817527590298
4.536,0.005794395899105,-0.01714540268724,-0.013541821464915,0.001458227212218,0.002808776832673
4.54,0.005789707993234,-0.017142253376117,-0.013547422911416,0.001460559144881,0.002834644456861
4.544,0.005792280331327,-0.017141556200372,-0.013550235654939,0.001459597523164,0.002844428957831
4.548,0.005796367223624,-0.017143166916748,-0.0135517261686,0.001451399698027,0.002831807672796
4.552,0.005797545210228,-0.017145378646697,-0.013553192641718,0.001447216643558,0.002855319323776
4.556,0.005797352885884,-0.017143118835662,-0.013551702128057,0.001451904549428,0.002877220258381
4.56,0.005797929858915,-0.017142373578831,-0.013547302708702,0.001459789847508,0.002852530620797
4.564,0.005800165629407,-0.017140594578655,-0.013555043763524,0.001455967401183,0.002862339162311
4.568,0.005801247453838,-0.01713816648382,-0.013559250858536,0.001450582319567,0.002868974352158
4.572,0.005800430075379,-0.017138839619021,-0.013567448683673,0.001451784346714,0.002876354798836
4.576,0.005800694521351,-0.017143359241091,-0.013570069102852,0.00145281809006,0.002897390273896
4.58,0.005800454115922,-0.017142878430233,-0.0135668476701,0.001449139886992,0.002871234163193
4.584,0.005798747237374,-0.017138983862279,-0.013565525440239,0.001448490792333,0.002843178849599
4.588,0.005796607629054,-0.017141171551685,-0.01356528503481,0.001450053427623,0.002871931338938
4.592,0.005798194304887,-0.017139608916395,-0.013555596696011,0.001454164360463,0.002886307583607
4.596,0.005804204440618,-0.017140089727254,-0.013543912992149,0.001451616062913,0.002887413448582
4.6,0.005804541008219,-0.017139969524539,-0.013545547749068,0.001449476454593,0.002886620110665
4.604,0.005792520736756,-0.017141556200372,-0.013548288370962,0.001450341914138,0.002868373338585
4.608,0.005778408938059,-0.017144777633124,-0.01354917787105,0.001449260089707,0.002881595637194
4.612,0.00578425078999,-0.017141604281458,-0.013549802925166,0.001446591589442,0.00288082633982
4.616,0.005801151291667,-0.017142589943718,-0.013552471425431,0.001442023886286,0.002883879488772
4.62,0.005824254253418,-0.017142253376117,-0.013553745574206,0.001439090940049,0.002909723072416
4.624,0.005840121011748,-0.017139969524539,-0.01355312052009,0.001432792317803,0.002933330885569
4.628,0.005835336943706,-0.017139464673138,-0.013551774249686,0.001432888479974,0.002915300478375
4.632,0.005822595455956,-0.017137397186446,-0.013552639709231,0.001434955966666,0.002906405477493
4.636,0.00580980588712,-0.017138719416307,-0.01355468315538,0.00143473960178,0.002912752180825
4.64,0.005809613562776,-0.017138238605448,-0.013553457087691,0.001432720196174,0.002924748411745
4.644,0.005813027319872,-0.017137493348618,-0.013543456221834,0.001428897749849,0.002955255860717
4.648,0.005801896548497,-0.017136748091787,-0.013547326749245,0.001427142790215,0.002938018791439
4.652,0.005794107412589,-0.01713694041613,-0.013561126020884,0.001422358722173,0.002962564185766
4.656,0.005793722763903,-0.017137613551332,-0.013569660413622,0.001423344384433,0.00296391045617
4.66,0.005800285832121,-0.017138767497393,-0.013573627103205,0.001427864006503,0.002955784752661
4.664,0.005804492927133,-0.017139536794766,-0.013564083007664,0.001433152925947,0.002978551146811
4.668,0.005803843832474,-0.017140690740827,-0.013556101547412,0.001438345683219,0.002982902485081
4.672,0.005811176198066,-0.017140666700284,-0.013552182938916,0.001434258790921,0.002974247889628
4.676,0.005813363887473,-0.017139584875852,-0.013551509803714,0.001428633303877,0.002977781849438
4.68,0.005809349116804,-0.017138070321648,-0.013548817262906,0.001427815925417,0.002962107415451
4.684,0.005801656143068,-0.017137493348618,-0.013546605532957,0.001423488627691,0.002955207779631
4.688,0.005804492927133,-0.017139128105537,-0.013545932397755,0.001421421140999,0.002998480756896
4.692,0.005810743468294,-0.017140378213769,-0.013542759046089,0.001425844600897,0.00299415345917
4.696,0.005809060630289,-0.017136627889072,-0.013535474761582,0.001434210709835,0.00296506440223
4.7,0.005802136953927,-0.017140282051597,-0.013538479829448,0.001436927291186,0.002976772146635
4.704,0.005800718561894,-0.017141892767973,-0.013549225952136,0.001433850101692,0.002996365189119
4.708,0.005802016751212,-0.017145090160182,-0.013557063169129,0.001433994344949,0.003016631366805
4.712,0.005798001980543,-0.017145042079096,-0.013553913858006,0.00143317696649,0.003028868003154
4.716,0.005793626601731,-0.017144513187152,-0.013555236087867,0.001431277763599,0.002978382863011
4.72,0.005795886412766,-0.017146436430586,-0.013553336884976,0.001435052128838,0.003005861203574
4.724,0.005803771710845,-0.017144657430409,-0.013548576857477,0.001439499629279,0.003018386326439
4.728,0.00580372362976,-0.017142638024804,-0.013548480695305,0.001439379426564,0.00302103078616
4.732,0.005798651075202,-0.017142421659917,-0.013547398870873,0.001444836629808,0.003033339544138
4.736,0.005798410669773,-0.017142085092316,-0.013545908357212,0.001447144521929,0.003040263220501
4.74,0.005801295534924,-0.017141363876029,-0.013541581059485,0.001445149156866,0.003021920286249
4.744,0.005805646873194,-0.01714285438969,-0.013539898221481,0.001440509332082,0.003035382990287
4.748,0.005803867873017,-0.017142758227518,-0.013539778018766,0.001443105710718,0.00303894099064
4.752,0.005804012116275,-0.017142397619374,-0.013539826099852,0.00145315465766,0.003045624261573
4.756,0.005810911752094,-0.017140546497569,-0.013542494600117,0.001456472252584,0.003077646264749
4.76,0.005814950563306,-0.017142421659917,-0.013546725735672,0.001451760306171,0.003057981100636
4.764,0.00581449379299,-0.017140762862455,-0.013549129789964,0.001451183333141,0.003028363151753
4.768,0.00580898850866,-0.017140041646168,-0.013549057668335,0.001450462116853,0.003029204570755
4.772,0.005809733765491,-0.017140233970511,-0.013549802925166,0.001449596657308,0.003050408329615
4.776,0.005813820657788,-0.017138839619021,-0.013548793222363,0.001447937859846,0.003065073060799
4.78,0.005805190102878,-0.017139777200196,-0.013546148762641,0.001447793616588,0.003062188195648
4.784,0.005797761575114,-0.017142181254488,-0.013552807993032,0.00144608673804,0.003059014843982
4.788,0.005795309439736,-0.017143118835662,-0.013564732102323,0.001446735832699,0.003086637427803
4.792,0.005801535940353,-0.017143335200548,-0.013569131521678,0.001445101075781,0.0030852911574
4.796,0.005802088872841,-0.017146051781899,-0.013565092710466,0.001446952197586,0.003084521860026
4.8,0.005793794885531,-0.017146027741356,-0.013560332682967,0.001451880508885,0.003088031779293
4.804,0.005789539709434,-0.017144056416836,-0.013557327615102,0.001450822724997,0.003110942416701
4.808,0.005797761575114,-0.017140810943541,-0.013566775548471,0.001446062697498,0.003075963426745
4.812,0.005804132318989,-0.017138719416307,-0.013567039994443,0.00144000448068,0.003093849590681
4.816,0.005803531305416,-0.017141964889602,-0.013557279534016,0.001435605061325,0.003092599482449
4.82,0.005802377359356,-0.017143864092493,-0.01354958656028,0.001442216210629,0.003112024241132
4.824,0.005802569683699,-0.017141219632771,-0.013548216249333,0.00145142373857,0.00313238658099
4.828,0.005807930724772,-0.017140354173226,-0.013551918492943,0.001447721494959,0.003090363711957
4.832,0.005813267725301,-0.017139200227165,-0.013552255060544,0.001442769143117,0.003098561537094
4.836,0.005808940427574,-0.017139104064994,-0.013551581925342,0.0014469041165,0.003118707512066
4.84,0.005803242818901,-0.017142517822089,-0.013562880980517,0.001449813022194,0.003133444364879
4.844,0.00580701718414,-0.017142950551862,-0.013566655345757,0.001448586954505,0.003134742554197
4.848,0.005816368955338,-0.017141964889602,-0.013558409439533,0.001450942927711,0.003144166447024
4.852,0.005818147955515,-0.017139128105537,-0.013551678087514,0.00144962069785,0.003113899403481
4.856,0.005816609360768,-0.017138238605448,-0.013546581492414,0.001448442711247,0.003137459135547
4.86,0.005809180833004,-0.017139993565082,-0.013551846371315,0.001446783913785,0.003136569635459
4.864,0.005802136953927,-0.017141219632771,-0.013556774682614,0.001444476021664,0.003128419891407
4.868,0.005799492494205,-0.017142565903175,-0.013556269831213,0.00144534148121,0.003155056812969
4.872,0.005791823561012,-0.017141123470599,-0.013552735871403,0.001444716427094,0.003138084189663
4.876,0.005791174466353,-0.017139128105537,-0.013551269398284,0.001442047926829,0.003136377311116
4.88,0.005801199372752,-0.017138430929792,-0.013548384533133,0.0014368792101,0.003136353270573
4.884,0.005809012549203,-0.017136531726901,-0.013544153397578,0.001440966102397,0.003158542691693
4.888,0.005812450346841,-0.017137805875676,-0.013546293005899,0.001444427940579,0.003172149638989
4.892,0.005802641805328,-0.017140233970511,-0.013549153830507,0.001444812589265,0.003182871721133
4.896,0.005789828195949,-0.017139584875852,-0.013551581925342,0.001451664143999,0.00316008128644
4.9,0.005792785182729,-0.017137108699931,-0.013553312844433,0.001457626198645,0.00318227070756
