time,channel1,channel2,channel3,channel4,channel5
0,-0.005628419990749,-0.009036022707147,-0.012013083340297,0.009279024515036,0.014745363165382
0.004,-0.005624573503881,-0.009034676436743,-0.012013972840385,0.009273254784734,0.014760436585796
0.008,-0.005622530057732,-0.009029315395671,-0.012014742137759,0.009259263188751,0.014758561423448
0.012,-0.005621496314386,-0.009026526692692,-0.012011785150979,0.009259094904951,0.014769043100164
0.016,-0.005607913407633,-0.00903095015259,-0.012005270163847,0.009241713592416,0.014770148965138
0.02,-0.005601494582672,-0.009032993598739,-0.012002481460867,0.009229356753352,0.014772697262688
0.024,-0.005606759461573,-0.009021406057049,-0.012004813393531,0.009242939660105,0.014785967642383
0.028,-0.005605148745197,-0.008977267620238,-0.012012506367267,0.009259359350923,0.014810032225851
0.032,-0.005590315730212,-0.008987821418582,-0.012020704192405,0.009251353850129,0.014811546780055
0.036,-0.005606951785916,-0.009000586946875,-0.012027267260623,0.009228779780322,0.014832486092943
0.04,-0.005635920640141,-0.009011861961507,-0.012032508098981,0.009209643508153,0.014844698688749
0.044,-0.005634886896795,-0.009027608517123,-0.01203587377499,0.00919925799361,0.014854988041121
0.048,-0.005623539760535,-0.009000346541446,-0.012038638437427,0.009208345318835,0.014873403097002
0.052,-0.005617265178831,-0.008891226517108,-0.012041763708007,0.009215749806056,0.014869989339907
0.056,-0.005609548164552,-0.008967266754381,-0.012044720694787,0.009213850603165,0.014868474785702
0.06,-0.005591686041159,-0.009074487575828,-0.012042004113436,0.00920747985929,0.014874749367406
0.064,-0.005585651864885,-0.009079488008756,-0.012035825693905,0.009182261329762,0.014870109542621
0.068,-0.005605918042571,-0.009071746953934,-0.012033349517983,0.009177789788777,0.014851454081311
0.072,-0.005616159313857,-0.009060471939302,-0.012038566315798,0.009199065669266,0.014838977039533
0.076,-0.005629285450294,-0.009046864992006,-0.012048398897854,0.009228851901951,0.014830202241365
0.08,-0.005627290085231,-0.009016213299777,-0.012042316640494,0.009248468984978,0.014826716362641
0.084,-0.005617193057202,-0.00897695509318,-0.012027315341709,0.009260681580784,0.014801257427683
0.088,-0.005608057650891,-0.008979888039417,-0.012027291301166,0.009238732565093,0.014779813263394
0.092,-0.005604018839679,-0.009000683109047,-0.012029695355459,0.009208729967522,0.014775005154809
0.096,-0.005593681406222,-0.009007414461066,-0.012023613098098,0.009212432211133,0.014775630208925
0.1,-0.005607120069717,-0.009024435165457,-0.012018396300284,0.009230390496698,0.014771254830113
0.104,-0.00561224070536,-0.009032056017564,-0.012021257124892,0.009246329376657,0.014765965910669
0.108,-0.005601951352988,-0.009034291788057,-0.012029382828401,0.009262676945847,0.014768706532563
0.112,-0.005596157582143,-0.009028473976669,-0.012033349517983,0.009250175863525,0.014772985749203
0.116,-0.005610605948441,-0.009023233138311,-0.012031209909663,0.009227145023403,0.014769403708307
0.12,-0.005612577272961,-0.009018136543211,-0.01203159455835,0.009222457117533,0.014765268734924
0.124,-0.005603826515336,-0.009014626623944,-0.012034431342415,0.009215966170943,0.014767191978358
0.128,-0.005594835352282,-0.00900267847411,-0.012036186302048,0.009216879711574,0.014753585031063
0.132,-0.005607937448176,-0.008946736130723,-0.012037075802137,0.009204787318482,0.014729520447594
0.136,-0.00561067807007,-0.008875744407464,-0.012037436410281,0.009198560817865,0.014720841811598
0.14,-0.00560163882593,-0.008919618398303,-0.012036186302048,0.009208152994492,0.014710071648368
0.144,-0.005591085027586,-0.008959958429332,-0.012032964869296,0.009215677684428,0.014714783594781
0.148,-0.005590868662699,-0.008988037783468,-0.012031546477264,0.009217817292748,0.014718678162735
0.152,-0.005601831150273,-0.009025516989889,-0.012032628301695,0.00921964437401,0.014720336960197
0.156,-0.005594883433368,-0.009077973454552,-0.012036570950735,0.009220173265955,0.014722452527974
0.16,-0.005590363811298,-0.009066193588518,-0.012038734599598,0.009229116347923,0.014724688298466
0.164,-0.005592936149391,-0.009040013437273,-0.012038638437427,0.009247266957831,0.014726371136471
0.168,-0.005599114568923,-0.009030228936302,-0.012038854802313,0.009255512864055,0.014746180543842
0.172,-0.00560731239406,-0.00902486789523,-0.012029238585143,0.009228611496521,0.014761109720998
0.176,-0.005598369312092,-0.009019098164928,-0.012020367624804,0.009218971238808,0.014756830504358
0.18,-0.005580987999557,-0.009007630825952,-0.012015319110789,0.009203489129165,0.014769932600252
0.184,-0.005576372215315,-0.008989480216044,-0.01200209681218,0.009193223817335,0.014787001385729
0.188,-0.005584233472852,-0.00898871091867,-0.012001014987749,0.009207936629606,0.014793131724175
0.192,-0.005591830284416,-0.00900070714959,-0.01200209681218,0.009234669713339,0.014803925927948
0.196,-0.005597047082231,-0.009015395921317,-0.012005294204389,0.009236040024285,0.014812292036886
0.2,-0.005607528758947,-0.008992148716309,-0.012015174867532,0.009236232348629,0.014822028456771
0.204,-0.005600989731271,-0.008908271262042,-0.012019357922001,0.009236040024285,0.014820417740395
0.208,-0.005596734555173,-0.008957241847981,-0.01201762700291,0.009239814389525,0.01482794243033
0.212,-0.005599451136524,-0.009021213732705,-0.012018300138112,0.009222961968934,0.01483368812009
0.216,-0.005597071122774,-0.009025709314232,-0.012017170232595,0.009189377330467,0.014836116214925
0.22,-0.005589522392295,-0.00902527658446,-0.0120190213544,0.009199041628723,0.014825538376038
0.224,-0.005583223770049,-0.009001236041534,-0.012018155894854,0.009234309105195,0.014831524471226
0.228,-0.005585002770226,-0.008941543373451,-0.012016376894678,0.009254959931568,0.014840491593737
0.232,-0.005606278650714,-0.008995802878833,-0.012022699557467,0.009242290565446,0.014848665378332
0.236,-0.00559416221708,-0.009029435598386,-0.01202296400344,0.009215172833026,0.014835779647324
0.24,-0.005567958025292,-0.00900111583882,-0.012019934895031,0.00921183119756,0.014829793552136
0.244,-0.005575554836856,-0.008997389554666,-0.012019237719286,0.009253229012477,0.014825947065268
0.248,-0.005595652730741,-0.008981041985477,-0.012015848002734,0.009278952393407,0.014833327511946
0.252,-0.005601518623215,-0.008968540903156,-0.012012338083467,0.009281909380187,0.014838928958447
0.256,-0.005600388717698,-0.008972796079254,-0.012015848002734,0.009265946459684,0.014829601227792
0.26,-0.005596253744315,-0.008948707455243,-0.012014044962014,0.009252892444876,0.014840155026137
0.264,-0.005585507621627,-0.008930364520991,-0.012011232218492,0.009253878107136,0.014826836565356
0.268,-0.005574424931338,-0.008976858931008,-0.012010318677861,0.009237530537947,0.014824937362465
0.272,-0.005585579743256,-0.008967170592209,-0.012009188772343,0.009229621199324,0.014820826429625
0.276,-0.005594715149567,-0.008895866341893,-0.012006135623392,0.0092312319157,0.014804671184779
0.28,-0.005583752661993,-0.008892692990227,-0.011992408473382,0.009233876375422,0.014804959671294
0.284,-0.005581444769873,-0.008952986671883,-0.011981061337121,0.009237121848717,0.014800992981711
0.288,-0.005574160485366,-0.00900111583882,-0.01200192852838,0.009240006713868,0.014795920427154
0.292,-0.005562284457161,-0.009014001569828,-0.012023156327783,0.009241593389701,0.014788059169617
0.296,-0.005574136444823,-0.009011573474992,-0.012027339382252,0.009253565580078,0.014777289006387
0.3,-0.005582238107789,-0.009001788974022,-0.012021329246521,0.009252555877275,0.014773418478976
0.304,-0.005578006972234,-0.009002822717367,-0.012014766178302,0.009237843065005,0.01476844208659
0.308,-0.005577934850606,-0.008985802012976,-0.01201351607007,0.009234068699765,0.014773081911375
0.312,-0.00557690110726,-0.008959405496844,-0.012017915489425,0.009232554145561,0.014769379667765
0.316,-0.005574641296225,-0.008949572914788,-0.012021617733036,0.009234116780851,0.014769115221792
0.32,-0.005574448971881,-0.009001067757734,-0.0120241179495,0.009238275794777,0.014770004721881
0.324,-0.005570506322842,-0.008991980432508,-0.012023781381899,0.0092410885383,0.014782313479858
0.328,-0.005565097200683,-0.008886923259925,-0.012019718530145,0.009235487091798,0.014797627305702
0.332,-0.005570674606642,-0.008792780493829,-0.01201844438137,0.009225293901598,0.01481027263128
0.336,-0.00558043506707,-0.008943827225029,-0.01201861266517,0.009221327212015,0.01482053794311
0.34,-0.005568198430721,-0.009011453272278,-0.012017675083996,0.009224668847482,0.014824769078664
0.344,-0.005551971064246,-0.008999793608959,-0.012019454084172,0.009233275361849,0.014833832363347
0.348,-0.005566731957602,-0.009020612719132,-0.012020680151862,0.009246329376657,0.014849867405478
0.352,-0.005590796541071,-0.009009481947758,-0.012019093476029,0.009263109675619,0.014856093906096
0.356,-0.005584065189051,-0.008938778711014,-0.01201491042156,0.00925777267509,0.01484659789164
0.36,-0.005553245213021,-0.008864108784689,-0.012071309535262,0.009257964999433,0.014845371823951
0.364,-0.005568390755064,-0.008945942792806,-0.012052413668523,0.009247603525432,0.014851862770541
0.368,-0.005561010308386,-0.008987124242837,-0.012064890710301,0.009228226847835,0.014858065230616
0.372,-0.005562116173361,-0.009002558271395,-0.012064746467044,0.009234910118768,0.014857969068444
0.376,-0.005562188294989,-0.009000514825247,-0.012051500127892,0.009261210472728,0.014852463784114
0.38,-0.005549182361267,-0.008972988403597,-0.012048374857312,0.009249430606695,0.014844265958977
0.384,-0.005538436238579,-0.008930172196647,-0.012048759505998,0.009243180065534,0.014847535472815
0.388,-0.005533051156964,-0.008938418102871,-0.012053687817298,0.009232482023932,0.014833904484976
0.392,-0.005528291129465,-0.008978637931185,-0.012062438574923,0.009203753575137,0.014835178633751
0.396,-0.005521968466676,-0.008978157120326,-0.012069434372914,0.009200892750529,0.014844121715719
0.4,-0.00555668301066,-0.008967362916553,-0.012067439007851,0.009247723728147,0.014827221214043
0.404,-0.005559832321783,-0.00893199927791,-0.012060827858547,0.009264143418965,0.014822220781114
0.408,-0.005548773672037,-0.008919858803732,-0.012054144587614,0.009260080567211,0.014821451483741
0.412,-0.005539686346811,-0.008978806214985,-0.012047509397766,0.009251594255558,0.014825297970609
0.416,-0.005548196699007,-0.008991691945993,-0.012043374424383,0.009241761673502,0.01482818283576
0.42,-0.00554822073955,-0.008956087901921,-0.012045562113789,0.009243011781734,0.014826187470697
0.424,-0.005546393658288,-0.008954044455772,-0.012048567181655,0.009240319240926,0.01482892809259
0.428,-0.005539109373781,-0.00893019623719,-0.012048879708713,0.009241857835673,0.014838135620531
0.432,-0.005557500389119,-0.008902189004682,-0.012030753139347,0.009238155592063,0.014838568350303
0.436,-0.00557492978274,-0.008947192901038,-0.011999500433544,0.009236641037858,0.01484880962159
0.44,-0.005573607552879,-0.008948394928185,-0.012006231785564,0.009234285064652,0.014858810487447
0.444,-0.005571540066187,-0.008957049523638,-0.012064674345415,0.009235847699942,0.014847463351186
0.448,-0.005563678808651,-0.008939283562416,-0.012093595118554,0.009236064064828,0.014839145323334
0.452,-0.005557115740432,-0.008886514570695,-0.0121046537683,0.009239622065181,0.014840419472109
0.456,-0.005543436671508,-0.008822975415743,-0.012123790040468,0.009245656241455,0.014838496228675
0.46,-0.005506846965176,-0.008951832725823,-0.012123525594496,0.009249839295924,0.014829072335848
0.464,-0.005498601058952,-0.00901246297508,-0.01209265753738,0.009250031620268,0.014826187470697
0.468,-0.005516655506689,-0.008975921349834,-0.012069843062144,0.009243708957478,0.014816715496784
0.472,-0.005543797279652,-0.008993567108341,-0.012055058128245,0.009246569782087,0.014815801956153
0.476,-0.005542475049791,-0.008986282823835,-0.012054577317386,0.009251185566328,0.014823735335319
0.48,-0.005542402928162,-0.008970247781704,-0.012063592520983,0.009246545741544,0.014824384429978
0.484,-0.005562645065305,-0.008946591887465,-0.01206340019664,0.009239742267896,0.014830707092767
0.488,-0.005556154118715,-0.00891565170872,-0.012044648573158,0.009239429740838,0.01482284583523
0.492,-0.005542162522733,-0.008959693983359,-0.01202354097647,0.009229573118238,0.014822701591973
0.496,-0.005540720090157,-0.008951832725823,-0.012023156327783,0.009229188469552,0.014822461186544
0.5,-0.005525262021056,-0.008867907190471,-0.012042821491896,0.009238732565093,0.014814672050636
0.504,-0.005518650871752,-0.008791842912655,-0.012058928655656,0.009242314605989,0.014812700726116
0.508,-0.005558029281063,-0.008780063046622,-0.012057101574393,0.009245992809056,0.01480344511709
0.512,-0.005560409294813,-0.008881514137766,-0.012039624099687,0.009241569349158,0.014817797321216
0.516,-0.005546537901545,-0.009014314096886,-0.01204491301913,0.009242122281645,0.014825898984182
0.52,-0.005538796846723,-0.009032897436567,-0.012068857399884,0.009252652039447,0.014828543443904
0.524,-0.005547211036747,-0.008987581013153,-0.012078786144112,0.00925695529663,0.01482916849802
0.528,-0.005550384388413,-0.008963011578283,-0.012081045955147,0.009257604391289,0.014831356187426
0.532,-0.005546778306974,-0.008970223741161,-0.012080517063203,0.009250392228412,0.01482835111956
0.536,-0.005542402928162,-0.00896027095639,-0.012079315036056,0.00922950099661,0.014822653510887
0.54,-0.005534012778681,-0.008943490657428,-0.0120745790491,0.009212744738191,0.014817845402302
0.544,-0.005551153685787,-0.008938370021785,-0.01207219903535,0.00922474096911,0.014818374294246
0.548,-0.00555766867292,-0.008922671547255,-0.012073256819239,0.009242699254676,0.014818494496961
0.552,-0.005535599454514,-0.008908872275615,-0.012072126913722,0.009248228579548,0.014812556482858
0.556,-0.005505909384001,-0.008898174234014,-0.012071261454176,0.009244862903539,0.014808060901331
0.56,-0.005509178897839,-0.00890783853227,-0.012062486656009,0.009250247985154,0.014818686821304
0.564,-0.005542499090334,-0.008920147290247,-0.012053303168611,0.009259191067122,0.014819095510534
0.568,-0.005553822186051,-0.008941687616708,-0.012054505195757,0.009249382525609,0.014814599929007
0.572,-0.005550071861355,-0.008933441710485,-0.01206200584515,0.009237049727088,0.014808108982417
0.576,-0.005535599454514,-0.008883749908259,-0.012069097805313,0.009238997011065,0.014819624402478
0.58,-0.005537594819577,-0.008817157604356,-0.012071405697434,0.009233804253793,0.014808277266218
0.584,-0.005540888373958,-0.008823912996918,-0.01207301641381,0.009237602659575,0.014806426144412
0.588,-0.005512520533306,-0.00889682796361,-0.012072631765123,0.009244694619738,0.014798877413934
0.592,-0.005543196266079,-0.008974911647031,-0.012068809318798,0.009251498093386,0.014800103481623
0.596,-0.005554495321253,-0.008990369716132,-0.012070299832459,0.009253325174649,0.014792723034945
0.6,-0.00554254717142,-0.00891235815434,-0.012075276224845,0.009251666377187,0.014774860911552
0.604,-0.005547018712404,-0.008894832598547,-0.012074627130186,0.009252652039447,0.014765965910669
0.608,-0.005539830590069,-0.008876080975065,-0.012064265656185,0.009254887809939,0.014774957073723
0.612,-0.005534181062482,-0.008907477924126,-0.012046403532792,0.009253108809762,0.014776111019784
0.616,-0.005533796413795,-0.008944668644031,-0.012047100708536,0.009257556310203,0.014772985749203
0.62,-0.00553228185959,-0.008952097171795,-0.012092465213036,0.009258157323777,0.014787770683102
0.624,-0.005524276358796,-0.008907189437611,-0.012111361079776,0.009253445377363,0.014792915359288
0.628,-0.005509299100554,-0.008861897054739,-0.012100350511116,0.009232842632076,0.014794526075664
0.632,-0.005513794682081,-0.008861848973654,-0.012085349212331,0.00923418890248,0.014804647144236
0.636,-0.005544254049967,-0.008922262858025,-0.012071213373091,0.009240920254499,0.01480303642786
0.64,-0.005568054187463,-0.008931133818364,-0.012069939224315,0.009245704322541,0.01480616169844
0.644,-0.005561827686846,-0.00891959435776,-0.012076886941221,0.009246016849599,0.014815898118325
0.648,-0.005547691847606,-0.008907237518696,-0.012079627563114,0.009242579051961,0.014819071469991
0.652,-0.005524781210198,-0.008929643304703,-0.012080637265917,0.009242170362731,0.014802892184602
0.656,-0.00552817092675,-0.008881658381024,-0.012080060292887,0.009248541106606,0.01481931187542
0.66,-0.00553326752185,-0.008814609306805,-0.012078281292711,0.009244334011595,0.014831091741454
0.664,-0.005515477520086,-0.008887716597841,-0.012076430170905,0.009235823659399,0.014834000647148
0.668,-0.005501822491704,-0.008949164225558,-0.012075107941044,0.009232241618503,0.014836212377097
0.672,-0.005485090273828,-0.008938971035358,-0.012074506927471,0.009226471888201,0.014827173132957
0.676,-0.005472228583363,-0.008931686750851,-0.012072872170552,0.00924438209268,0.014833832363347
0.68,-0.005510140519556,-0.008926469953037,-0.01206907376477,0.009283808583078,0.014834577620178
0.684,-0.005557187862061,-0.008904953667119,-0.012066405264505,0.009320951221897,0.01483820774216
0.688,-0.005556707051203,-0.008782755587429,-0.012066982237536,0.009349799873408,0.014844746769835
0.692,-0.005542354847076,-0.008729746190279,-0.012069097805313,0.009358574671575,0.014842006147942
0.696,-0.005528651737609,-0.008845357161207,-0.012071285494719,0.009353357873761,0.014835587322981
0.7,-0.005514275492939,-0.008720129973109,-0.012070131548659,0.009360281550123,0.014825995146354
0.704,-0.005508337478837,-0.00889879928813,-0.012065179196816,0.009345352372967,0.014819167632163
0.708,-0.005516847831032,-0.009029724084901,-0.012058784412398,0.009329004803777,0.014825033524637
0.712,-0.005520646236815,-0.00905609656049,-0.012055851466161,0.009304531531079,0.014814888415522
0.716,-0.005509707789784,-0.008849131526446,-0.012062270291122,0.009276836825629,0.014810488996167
0.72,-0.005518073898722,-0.008862834635914,-0.012063328075011,0.00925794095889,0.014812267996343
0.724,-0.005521319372017,-0.008947048657781,-0.012055466817474,0.009249334444523,0.014820321578223
0.728,-0.005501269559217,-0.008943490657428,-0.012054216709242,0.009240487524727,0.01482284583523
0.732,-0.005500764707815,-0.008922455182368,-0.012069458413457,0.009242266524903,0.014819432078135
0.736,-0.005538364116951,-0.008913151492256,-0.012073377021954,0.00924873343095,0.014819167632163
0.74,-0.005540455644185,-0.008897933828584,-0.012064818588672,0.00924914212018,0.014815633672353
0.744,-0.005516968033747,-0.008891755409053,-0.012061164426148,0.009252555877275,0.014809912023137
0.748,-0.00549324001788,-0.008887331949154,-0.012063856966955,0.009257604391289,0.01481560963181
0.752,-0.005490787882501,-0.008891539044166,-0.012056644804078,0.009256306201971,0.014825538376038
0.756,-0.005505500694772,-0.008900962936993,-0.012050298100746,0.009252051025874,0.01482678848427
0.76,-0.005531512562217,-0.008898534842158,-0.012052245384722,0.009247411201089,0.014823615132604
0.764,-0.005526800615803,-0.008891082273851,-0.012051548208978,0.00923534284854,0.014820489862024
0.768,-0.005523122412736,-0.008885048097576,-0.012051428006263,0.009244718660281,0.014824913321922
0.772,-0.005536272589716,-0.008882644043284,-0.012057942993396,0.00925539266134,0.014820465821481
0.776,-0.005521824223418,-0.00888112948908,-0.01207104508929,0.009259167026579,0.014819672483564
0.78,-0.005516126614745,-0.008881033326908,-0.012074555008557,0.009258950661693,0.014819383997049
0.784,-0.005516246817459,-0.008884591327261,-0.012072872170552,0.009252940525962,0.014813157496431
0.788,-0.005506101708345,-0.008874253893803,-0.012068953562056,0.009251377890672,0.014816090442668
0.792,-0.005496004680316,-0.008802781359686,-0.012065034953559,0.009249574849952,0.01482678848427
0.796,-0.005519444209668,-0.008695464376068,-0.01206241453438,0.009251425971757,0.014826187470697
0.8,-0.005543893441823,-0.008667529265189,-0.012055322574217,0.009255440742426,0.014830130119737
0.804,-0.005530070129641,-0.008742127069886,-0.01205650056082,0.009253589620621,0.014822004416228
0.808,-0.005517809452749,-0.008876585826467,-0.012066813953735,0.009249622931038,0.014823422808261
0.812,-0.005515669844429,-0.008963324105341,-0.012070203670288,0.009251185566328,0.01482563453821
0.816,-0.005516270858002,-0.008945870671177,-0.012067054359164,0.009248637268778,0.014814407604664
0.82,-0.005531656805474,-0.008869565987933,-0.012070588318974,0.009246978471316,0.014812989212631
0.824,-0.005520141385413,-0.008843121390715,-0.012073569346297,0.009252820323247,0.014813614266747
0.828,-0.00548338339528,-0.008892164098282,-0.012064169494013,0.009254070431479,0.014821138956683
0.832,-0.005490403233815,-0.0089135121004,-0.01205575530399,0.009247819890319,0.014813542145118
0.836,-0.005549014077466,-0.00893471585926,-0.012062318372208,0.009246954430773,0.014825322011152
0.84,-0.005549230442353,-0.008884447084003,-0.012075420468102,0.009247988174119,0.014827149092414
0.844,-0.005524108074996,-0.008824129361804,-0.012080829590261,0.009254839728853,0.01484330433726
0.848,-0.005513818722624,-0.00876287405843,-0.012083377887811,0.009256426404686,0.014831476390141
0.852,-0.00550934718164,-0.008750685503167,-0.012086382955676,0.009238924889436,0.014823014119031
0.856,-0.005506582519203,-0.00884357816103,-0.012084676077129,0.009235775578313,0.014819624402478
0.86,-0.005518602790666,-0.008893774814658,-0.012081286360576,0.009241040457214,0.014818013686102
0.864,-0.005513193668508,-0.008886730935581,-0.012076742697963,0.009245295633312,0.014837558647501
0.868,-0.005513914884796,-0.008855382067607,-0.012074627130186,0.009251786579901,0.014840155026137
0.872,-0.005522208872105,-0.008783741249689,-0.012072463481323,0.009250897079813,0.014824095943462
0.876,-0.005508698086981,-0.008798670426846,-0.012070924886575,0.009248012214662,0.014827101011328
0.88,-0.005498817423838,-0.008695969227469,-0.012069097805313,0.00924479078191,0.014846213242954
0.884,-0.005494105477425,-0.008838409444301,-0.012066212940162,0.009244694619738,0.014844145756262
0.888,-0.005488071301151,-0.008914281397774,-0.012061957764064,0.009246569782087,0.014850684783938
0.892,-0.005480907219359,-0.008874301974889,-0.012056837128421,0.009247194836203,0.014845083337436
0.896,-0.005512208006248,-0.008827663321614,-0.012055178330959,0.009242675214133,0.014831909119913
0.9,-0.005535960062658,-0.008882067070254,-0.012059481588143,0.009241978038388,0.014822917956859
0.904,-0.005533459846194,-0.008568866877023,-0.012070227710831,0.009243180065534,0.014825947065268
0.908,-0.005523002210021,-0.008745324462095,-0.012073617427383,0.00925029606624,0.014829553146706
0.912,-0.00550088491053,-0.008947553509182,-0.012075180062673,0.009254455080166,0.014832774579458
0.916,-0.005487878976807,-0.008905843167207,-0.012077055225021,0.00925383002605,0.01482580282201
0.92,-0.005528146886207,-0.008811387874053,-0.012075708954618,0.009256330242514,0.014825273930066
0.924,-0.005527954561864,-0.008561125822201,-0.012073280859782,0.009257724594004,0.014828014551959
0.928,-0.005512712857649,-0.008430753957918,-0.012071982670464,0.009253469417906,0.014824865240836
0.932,-0.005509226978925,-0.008688636861877,-0.01207498773833,0.009247699687604,0.014832510133486
0.936,-0.005504490991969,-0.008941302968022,-0.012077632198052,0.009245872606342,0.014831957200999
0.94,-0.005495836396516,-0.00900695769075,-0.012076502292534,0.009234285064652,0.014822869875773
0.944,-0.005487951098436,-0.008977556106753,-0.012074603089643,0.009230606861584,0.014826499997755
0.948,-0.005471675650876,-0.008907093275439,-0.012073112575982,0.009245103308968,0.014833351552489
0.952,-0.005488624233638,-0.008854636810776,-0.012069410332371,0.009248949795836,0.014836789350127
0.956,-0.005527810318606,-0.008839563390362,-0.012065491723874,0.009253805985507,0.014824480592149
0.96,-0.005439389201727,-0.008825691997094,-0.012063712723698,0.009260609459155,0.014821547645912
0.964,-0.00547203625902,-0.008824538051034,-0.012069362251285,0.009260585418612,0.01482128319994
0.968,-0.005496533572261,-0.008825523713294,-0.012078425535968,0.009257796715633,0.014813494064032
0.972,-0.00546357398791,-0.008815234360922,-0.01207852169814,0.009250824958184,0.014815970239954
0.976,-0.005459222649641,-0.008809921400935,-0.012063328075011,0.009248997876922,0.014828158795217
0.98,-0.005470617866987,-0.008805425819408,-0.012048975870885,0.009247819890319,0.014828327079017
0.984,-0.005457059000777,-0.008718807743248,-0.012062871304695,0.009240487524727,0.014822917956859
0.988,-0.005483359354738,-0.008628126815334,-0.012080300698316,0.009225630469199,0.014825874943639
0.992,-0.005487277963234,-0.008660004575253,-0.012092272888693,0.009230895348099,0.014823855538033
0.996,-0.005462684487822,-0.008737847853245,-0.012096239578276,0.009240078835497,0.014831284065797
1,-0.005457948500866,-0.008871056501594,-0.012094965429501,0.009245536038741,0.014833760241718
1.004,-0.00545667435209,-0.008683997037092,-0.012092537334665,0.009249238282351,0.014839049161162
1.008,-0.005450640175816,-0.008764604977521,-0.012090037118201,0.00925046435004,0.014839722296364
1.012,-0.005466963704463,-0.008934355251116,-0.01208871488834,0.009253060728676,0.014837438444786
1.016,-0.005472877678022,-0.008904785383318,-0.012087056090878,0.009257027418259,0.014837270160985
1.02,-0.005468959069525,-0.008812710103914,-0.012084988604187,0.009258830458978,0.014837246120443
1.024,-0.005459222649641,-0.008739795137222,-0.012082512428265,0.009256546607401,0.014838496228675
1.028,-0.005463742271711,-0.00877898122219,-0.012080517063203,0.009249767174296,0.014831764876656
1.032,-0.005463021055423,-0.008812637982286,-0.012078593819769,0.009247988174119,0.014828399200646
1.036,-0.005451673919162,-0.008804416116605,-0.012080901711889,0.009251930823159,0.014824504632692
1.04,-0.00545198644622,-0.008691521727028,-0.012084147185184,0.009249791214839,0.014827726065444
1.044,-0.005468742704639,-0.008324446677102,-0.012084964563644,0.00924305986282,0.014830202241365
1.048,-0.005461314176875,-0.008615265124869,-0.012084916482558,0.00923854024075,0.01482580282201
1.052,-0.005447995716094,-0.00882689402424,-0.012087993672052,0.009243420470963,0.014822725632516
1.056,-0.005444557918456,-0.008786001060724,-0.012093619159097,0.009249695052667,0.014821475524284
1.06,-0.005454895351914,-0.008995899041005,-0.012096864632392,0.009254118512565,0.014831668714484
1.064,-0.005479344584069,-0.008972747998168,-0.012096864632392,0.009252700120533,0.014837775012387
1.068,-0.00547475284037,-0.008922407101282,-0.012095590483617,0.009252940525962,0.01483993866125
1.072,-0.005495187301857,-0.008866368595724,-0.012095951091761,0.00925070475547,0.014834866106693
1.076,-0.005484393098083,-0.008823552388774,-0.012093042186067,0.009240511565269,0.014840130985594
1.08,-0.005484657544055,-0.008606249921272,-0.012079988171258,0.009242843497933,0.014841958066856
1.084,-0.005462828731079,-0.008570790120457,-0.012078545738683,0.009249574849952,0.014827894349245
1.088,-0.005439100715212,-0.008583459486579,-0.012091719956206,0.009247867971405,0.014830803254939
1.092,-0.005421887686478,-0.008840957741852,-0.012095854929589,0.009246834228059,0.014832389930772
1.096,-0.005451265229932,-0.009014097731999,-0.012095133713301,0.009249094039094,0.014829312741277
1.1,-0.005471387164361,-0.008908511667472,-0.012097032916192,0.009250151822982,0.014830226281908
1.104,-0.005465112582657,-0.008602523637119,-0.012104269119613,0.009248973836379,0.014830562849509
1.108,-0.005462900852708,-0.008770639153795,-0.01210835601191,0.009249069998551,0.014822052497314
1.112,-0.00546242004185,-0.008824826537549,-0.012107466511822,0.009249190201265,0.014828327079017
1.116,-0.005457203244035,-0.008815691131237,-0.012104317200699,0.009248565147149,0.014833327511946
1.12,-0.005455015554629,-0.008836125592724,-0.01210285072758,0.009237458416318,0.014817484794158
1.124,-0.005454438581598,-0.008811940806541,-0.012107250146935,0.009234669713339,0.014826427876126
1.128,-0.005439942134215,-0.008783813371318,-0.012113116039409,0.0092461851334,0.014824528673235
1.132,-0.005392750548452,-0.008772201789085,-0.012116073026189,0.009255008012653,0.014827221214043
1.136,-0.005445808026688,-0.008767850450816,-0.012116048985646,0.009255753269484,0.014830562849509
1.14,-0.005469752407442,-0.008765230031637,-0.012113789174611,0.009254671445052,0.014821788051342
1.144,-0.005466867542291,-0.008762200923228,-0.012111288958147,0.009251185566328,0.014831428309055
1.148,-0.005482325611392,-0.008761479706941,-0.012109125309284,0.009255440742426,0.014829793552136
1.152,-0.005466506934147,-0.008748017002902,-0.012107466511822,0.00926344624322,0.014830803254939
1.156,-0.005453068270652,-0.008712701445345,-0.012105903876532,0.009259046823865,0.014838856836819
1.16,-0.005433186741653,-0.008707268282644,-0.012104846092643,0.009256859134459,0.014845684351009
1.164,-0.005419147064584,-0.008612091773203,-0.01210383638984,0.009250945160899,0.014832077403714
1.168,-0.005445567621259,-0.008668803413964,-0.012102826687037,0.009248180498463,0.014831043660368
1.172,-0.005479777313842,-0.008762369207029,-0.012096936754021,0.009255440742426,0.014842655242601
1.176,-0.00547828680018,-0.008766311856069,-0.012083161522924,0.009257676512918,0.014846333445668
1.18,-0.005460472757873,-0.008792083318084,-0.0120795073604,0.009262027851188,0.014842174431742
1.184,-0.005462299839135,-0.008794463331834,-0.012092128645435,0.009259046823865,0.014833591957918
1.188,-0.005471603529247,-0.008790881290938,-0.012090301564173,0.009252195269131,0.014833519836289
1.192,-0.005456554149376,-0.008825475632208,-0.012084075063556,0.009247218876746,0.014839578053106
1.196,-0.0054399902153,-0.008801867819055,-0.012095734726874,0.009248589187692,0.014833591957918
1.2,-0.005449005418897,-0.008757681301158,-0.012102946889752,0.009249286363437,0.014837342282614
1.204,-0.005493119815165,-0.008724601514093,-0.012112274620407,0.009249069998551,0.014844265958977
1.208,-0.005480979340988,-0.008681689144972,-0.01211953486437,0.009244478254852,0.014840251188308
1.212,-0.005465905920574,-0.008708975161192,-0.01212306882418,0.009231400199501,0.014843208175088
1.216,-0.005474608597113,-0.008744963853951,-0.01212446317567,0.009235030321482,0.014843520702146
1.22,-0.00546907927224,-0.008737198758586,-0.012123189026895,0.009242482889789,0.014846165161868
1.224,-0.005477565583893,-0.008693901740778,-0.012119102134598,0.00924873343095,0.014846068999696
1.228,-0.005448765013468,-0.008766720545298,-0.012115928782932,0.009253060728676,0.014842342715543
1.232,-0.005424003254255,-0.008698301160133,-0.012114919080129,0.00925678701283,0.01484190998577
1.236,-0.005416502604862,-0.008744963853951,-0.012115640296416,0.009257916918347,0.014840611796452
1.24,-0.005413954307312,-0.008801050440596,-0.012115207566644,0.00925383002605,0.014844722729292
1.244,-0.005430349957587,-0.008799295480962,-0.012113404525924,0.009251882742073,0.014844674648206
1.248,-0.005453092311195,-0.008775976154325,-0.012112274620407,0.009250921120356,0.01484642960784
1.252,-0.005447514905236,-0.008771480572798,-0.012112394823121,0.009247242917289,0.014841116647854
1.256,-0.005450928662331,-0.008757392814643,-0.012111553404119,0.009246064930685,0.014837943296187
1.26,-0.00544335589131,-0.008744987894494,-0.012110351376973,0.009249550809409,0.014841885945227
1.264,-0.005428162268181,-0.008720658865054,-0.012109558039056,0.009254647404509,0.014837654809672
1.268,-0.005431263498218,-0.008668635130163,-0.012108259849738,0.009252820323247,0.014834289133663
1.272,-0.005428979646641,-0.008616346949301,-0.012105447106216,0.009253301134106,0.014833471755203
1.276,-0.005442442350679,-0.008701041782027,-0.01210013414623,0.009257075499345,0.014832678417287
1.28,-0.005452851905765,-0.008775062613693,-0.012098451308225,0.009264239581137,0.014822292902743
1.284,-0.005436672620377,-0.008798141534902,-0.01209931676777,0.009262604824218,0.014822701591973
1.288,-0.005442057701992,-0.008804584400406,-0.012103403660067,0.009259719959067,0.014825514335495
1.292,-0.005435999485175,-0.008776769492241,-0.012103956592555,0.009251762539358,0.014837173998814
1.296,-0.005436047566261,-0.008755613814467,-0.012095927051218,0.009253709823335,0.014839722296364
1.3,-0.005452755743594,-0.008742535759116,-0.012092320969779,0.009251642336644,0.014830226281908
1.304,-0.00543448493097,-0.008734337933978,-0.012101384254462,0.009253950228765,0.014827149092414
1.308,-0.005430662484645,-0.008734313893435,-0.012108524295711,0.009253637701707,0.01482835111956
1.312,-0.005474945164714,-0.008733015704117,-0.012117371215507,0.009255873472199,0.014823711294776
1.316,-0.005472973840194,-0.008723543730205,-0.012125472878473,0.009256642769572,0.014824312308349
1.32,-0.00545256341925,-0.008676400225528,-0.012129752095114,0.009257388026403,0.014824937362465
1.324,-0.005412271469308,-0.008687074226587,-0.012134632325327,0.009259239148208,0.014818206010446
1.328,-0.005390082048188,-0.008733183987918,-0.012137012339077,0.009258710256264,0.014823446848803
1.332,-0.005428787322297,-0.00874602163784,-0.01213859901491,0.009258590053549,0.014824168065091
1.336,-0.005433114620024,-0.008747295786615,-0.012139488514998,0.00925678701283,0.014827533741101
1.34,-0.005447250459264,-0.008739915339937,-0.012140017406943,0.009253180931391,0.014824937362465
1.344,-0.00545633778449,-0.008709744458565,-0.012142878231551,0.009239838430068,0.01482366321369
1.348,-0.005443884783254,-0.008675943455213,-0.01214468127227,0.0092312319157,0.014810176469109
1.352,-0.005434268566084,-0.008673491319834,-0.01214549865073,0.009238251754234,0.014816547212984
1.356,-0.005433210782195,-0.008655196466668,-0.012145739056159,0.009241689551873,0.01483525075538
1.36,-0.005426575592348,-0.008677169522902,-0.0121452582453,0.009241160659928,0.014838856836819
1.364,-0.005425301443573,-0.008716571972756,-0.012144128339783,0.009238876808351,0.014831163863082
1.368,-0.00541270419908,-0.008713711148148,-0.012143383082952,0.009236400632429,0.014834649741807
1.372,-0.005424604267828,-0.008701498552342,-0.012142205096349,0.009226447847658,0.014838640471932
1.376,-0.005462660447279,-0.008741646259027,-0.01214057033943,0.009242170362731,0.014834721863435
1.38,-0.00546867058301,-0.008722125338172,-0.012137998001337,0.00927815905549,0.014843232215631
1.384,-0.005452611500336,-0.008656759101958,-0.012133165852209,0.009315926748426,0.014850059729822
1.388,-0.005432225119935,-0.008523742777953,-0.012125112270329,0.009346722683913,0.014838496228675
1.392,-0.005425301443573,-0.008681232374656,-0.012126626824533,0.009372518186472,0.014833808322804
1.396,-0.005429700862928,-0.008755036841437,-0.012130857960088,0.009374585673164,0.014844770810378
1.4,-0.005441721134391,-0.00876583104521,-0.012125881567703,0.009360137306866,0.014843977472462
1.404,-0.005441240323532,-0.008774990492065,-0.012123044783637,0.009340255777866,0.014844025553547
1.408,-0.00543587928246,-0.008755830179353,-0.012136315163332,0.009313811180649,0.014840563715366
1.412,-0.005429364295327,-0.008729145176706,-0.012147974826651,0.009296213503227,0.014848449013446
1.416,-0.005430926930618,-0.008713927513034,-0.012152037678405,0.009280154420553,0.014841934026313
1.42,-0.005429123889898,-0.008710417593767,-0.012156196692331,0.009262124013359,0.014832125484799
1.424,-0.005420661618788,-0.008707652931331,-0.012157398719478,0.009256979337173,0.014834168930948
1.428,-0.005417392104951,-0.008709119404449,-0.012156725584276,0.009257868837261,0.014843688985947
1.432,-0.005436937066349,-0.008711860026343,-0.012156004367988,0.009254791647767,0.01483837602596
1.436,-0.005445928229403,-0.008707172120472,-0.012155162948986,0.009251401931215,0.014829072335848
1.44,-0.005438908390869,-0.008708109701647,-0.012154465773241,0.009252075066416,0.014830923457653
1.444,-0.005420036564672,-0.008707821215131,-0.012152302124377,0.009256522566858,0.01482777414653
1.448,-0.005395947940661,-0.008713182256204,-0.012148768164567,0.00925736398586,0.014823422808261
1.452,-0.005420445253902,-0.008711980229058,-0.012146941083305,0.009255032053196,0.014818590659133
1.456,-0.00544729854035,-0.008626251652986,-0.012144849556071,0.009253709823335,0.01482794243033
1.46,-0.005434292606627,-0.008614159259895,-0.012142733988293,0.009254479120709,0.014836669147412
1.464,-0.00541409855057,-0.008676015576841,-0.012145522691273,0.009260032486125,0.014840491593737
1.468,-0.005415997753461,-0.008705537363554,-0.012150402921486,0.009259888242867,0.014839698255821
1.472,-0.005438908390869,-0.008696161551813,-0.012151027975602,0.00925185870153,0.014847703756615
1.476,-0.005442562553393,-0.008692795875803,-0.012146724718419,0.00924733907946,0.014845203540151
1.48,-0.00543234532265,-0.008635988072871,-0.012139151947397,0.009233684051079,0.01483820774216
1.484,-0.005425181240858,-0.008659547804938,-0.012141003069203,0.009229044226294,0.014839481890935
1.488,-0.005417584429294,-0.008741958786085,-0.01214977786737,0.009239165294866,0.014836957633927
1.492,-0.005416743010292,-0.008757464936272,-0.012153504151524,0.009246305336114,0.01484092432351
1.496,-0.005415877550746,-0.008740324029166,-0.012150571205287,0.009249430606695,0.01484642960784
1.5,-0.005442586593936,-0.008723086959889,-0.012145811177788,0.0092461851334,0.014836140255468
1.504,-0.005451505635362,-0.008710489715396,-0.01214427258304,0.009245848565799,0.014838904917904
1.508,-0.005438139093495,-0.008702267849716,-0.012144873596614,0.009243588754764,0.014840731999167
1.512,-0.005430133592701,-0.008697964592532,-0.012144416826298,0.009242458849246,0.014844915053636
1.516,-0.005428018024924,-0.008693517092091,-0.012142613785579,0.009247723728147,0.014846165161868
1.52,-0.005418257564496,-0.008695007605752,-0.012145450569644,0.009249190201265,0.014836260458183
1.524,-0.005413064807224,-0.008697363578959,-0.012151677070261,0.009246281295571,0.014834120849862
1.528,-0.005419002821327,-0.008695921146383,-0.012146532394075,0.009245656241455,0.014841044526225
1.532,-0.005425734173346,-0.008698156916875,-0.012143335001866,0.009247627565975,0.014849675081135
1.536,-0.005429460457499,-0.008695680740954,-0.012151196259403,0.009244742700824,0.014855204406008
1.54,-0.005430878849532,-0.008680847725969,-0.012156941949162,0.00924560816037,0.014849627000049
1.544,-0.00540998761773,-0.00864469074941,-0.012158672868253,0.009250103741897,0.014851622365112
1.548,-0.005388904061584,-0.008606177799643,-0.012158119935765,0.009248709390407,0.014849050027019
1.552,-0.005400443522188,-0.008582377662147,-0.012157879530336,0.009243348349335,0.014844410202234
1.556,-0.005415925631832,-0.008621203138972,-0.012158672868253,0.009242410768161,0.014842390796629
1.56,-0.005422416578422,-0.008681617023343,-0.012157951651965,0.009243492592592,0.014853016716602
1.564,-0.005418810496983,-0.008719793405508,-0.012155715881473,0.009245824525256,0.014854843797864
1.568,-0.005407295076922,-0.008723904338348,-0.012152975259579,0.009239237416494,0.014842510999343
1.572,-0.005415420780431,-0.008712364877744,-0.012150667367459,0.009229885645296,0.014843544742689
1.576,-0.005418834537526,-0.008711980229058,-0.012148119069908,0.009240126916583,0.014848328810731
1.58,-0.00540998761773,-0.008710129107252,-0.012145811177788,0.009242723295219,0.014853761973432
1.584,-0.005403472630597,-0.008709311728793,-0.012145618853444,0.009248589187692,0.014851862770541
1.588,-0.005401188779019,-0.008710032945081,-0.012146724718419,0.009255152255911,0.014850516500137
1.592,-0.0053995540221,-0.00870772505296,-0.012147830583393,0.009250560512212,0.014848881743218
1.596,-0.005403688995483,-0.008697916511446,-0.012148311394252,0.009250344147326,0.014854507230263
1.6,-0.00540859326624,-0.008690391821511,-0.012143022474808,0.009253781944964,0.014852776311172
1.604,-0.005408905793298,-0.008685751996726,-0.012138094163509,0.009254551242338,0.014853257122031
1.608,-0.005404145765799,-0.008684910577724,-0.012140378015087,0.009259118945494,0.014863666677117
1.612,-0.005402727373766,-0.008681496820628,-0.012142084893634,0.009259768040153,0.014855084203293
1.616,-0.005401597468249,-0.008682410361259,-0.012142397420692,0.009257604391289,0.014843568783232
1.62,-0.005387846277695,-0.008677938820275,-0.012139416393369,0.009256859134459,0.014850516500137
1.624,-0.005389216588642,-0.008629473085738,-0.012140305893458,0.009258109242691,0.014845828594267
1.628,-0.005403328387339,-0.008617597057533,-0.012145065920957,0.009262148053902,0.01484428999952
1.632,-0.00539364004854,-0.008655605155898,-0.012147830583393,0.00926640323,0.014845371823951
1.636,-0.005408809631126,-0.008651133614914,-0.012148744124024,0.009268518797777,0.014849915486564
1.64,-0.005414459158714,-0.008670798779027,-0.012146917042762,0.009270442041211,0.014849867405478
1.644,-0.005415613104774,-0.008657360115531,-0.012142782069379,0.009272293163017,0.014844506364406
1.648,-0.00541936342947,-0.008713879431949,-0.012140690542145,0.009272533568446,0.014835851768953
1.652,-0.005411670455734,-0.008725923743954,-0.012140017406943,0.009274480852423,0.014843688985947
1.656,-0.005408737509498,-0.00870140239017,-0.012141363677346,0.009273374987448,0.014847799918787
1.66,-0.005403328387339,-0.008679717820452,-0.012137084460706,0.009271788311615,0.014842703323687
1.664,-0.005404939103715,-0.008597811690705,-0.012136267082246,0.009278231177119,0.014841405134369
1.668,-0.005397630778666,-0.008631732896773,-0.012139656798799,0.009279817852952,0.014845780513181
1.672,-0.005381667858164,-0.008674044252321,-0.012140834785402,0.009277606123003,0.01484659789164
1.676,-0.005353155774254,-0.008676159820099,-0.012140498217801,0.009273350946905,0.014853858135604
1.68,-0.005340943178448,-0.008705417160839,-0.012138815379796,0.009274384690251,0.01485546885198
1.684,-0.005369479302901,-0.008675222238925,-0.012138719217625,0.00927503378491,0.014846549810555
1.688,-0.005392558224109,-0.008689382118708,-0.012136964257991,0.009278736028521,0.014852583986829
1.692,-0.005387028899236,-0.008696353876156,-0.012133358176552,0.009284000907421,0.014850612662309
1.696,-0.005383663223226,-0.008692483348745,-0.012130713716831,0.00928448171828,0.014851718527284
1.7,-0.005375874087319,-0.008690199497167,-0.012129030878826,0.009281668974757,0.01485054054068
1.704,-0.005383374736711,-0.008690992835084,-0.012130353108687,0.009268037986919,0.014841164728939
1.708,-0.005392630345738,-0.008685727956183,-0.012131314730404,0.009259118945494,0.014846093040239
1.712,-0.005393976616141,-0.008681809347686,-0.012130497351944,0.009264215540594,0.014845395864494
1.716,-0.005406405576834,-0.008677962860818,-0.012130353108687,0.009272100838673,0.01484404959409
1.72,-0.005406501739005,-0.008673875968521,-0.012128477946338,0.009279072596122,0.014843448580517
1.724,-0.005402535049423,-0.008672890306261,-0.012131002203346,0.009280490988154,0.014850708824481
1.728,-0.005400780089789,-0.008673010508976,-0.012131771500719,0.009283640299277,0.014852559946286
1.732,-0.005397222089436,-0.008676640630957,-0.012123573675582,0.009277509960831,0.014860445244365
1.736,-0.00539347176474,-0.008673082630604,-0.012120256080658,0.009272028717044,0.01486039716328
1.74,-0.005388351129097,-0.008638464248792,-0.01213037714923,0.009273951960478,0.014862416568885
1.744,-0.005389985886016,-0.008614784314011,-0.012141796407119,0.009274913582195,0.014868378623531
1.748,-0.005391933169993,-0.00868003034751,-0.012148095029366,0.009271571946729,0.014854771676235
1.752,-0.005389432953529,-0.008669885238395,-0.012150330799858,0.009272197000845,0.014856117946639
1.756,-0.005389601237329,-0.008615337246498,-0.012148960488911,0.009272052757587,0.014860877974138
1.76,-0.005391476399677,-0.008639017181279,-0.012145234204757,0.009270033351982,0.014857776744101
1.764,-0.005392942872796,-0.008665245413611,-0.012140810744859,0.009267244649002,0.014856166027725
1.768,-0.005395779656861,-0.008665581981212,-0.012135617987587,0.009270225676325,0.014850660743395
1.772,-0.005391716805106,-0.008624689017696,-0.012131146446603,0.009271211338585,0.014843496661603
1.776,-0.00538524989906,-0.008645484087326,-0.012131194527689,0.009270490122297,0.014849819324392
1.78,-0.005386259601862,-0.008691257281056,-0.012137925879708,0.009269816987095,0.014849458716249
1.784,-0.005384624844943,-0.008700056119767,-0.012142253177435,0.009270970933156,0.014845227580694
1.788,-0.00537777329021,-0.008704407458036,-0.012142782069379,0.009270538203383,0.014852151257056
1.792,-0.005360656423647,-0.008694070024578,-0.012140762663773,0.009268206270719,0.014844193837348
1.796,-0.005343371273284,-0.008676616590414,-0.012136747893105,0.009267052324659,0.014836572985241
1.8,-0.00535500689606,-0.008669813116767,-0.012136916176905,0.00927190851433,0.014837726931301
1.804,-0.005390082048188,-0.008668514927449,-0.012138574974367,0.009270418000668,0.014842535039886
1.808,-0.005380129263416,-0.008667481184103,-0.012139320231198,0.009261234513271,0.014843087972373
1.812,-0.005371114059819,-0.008665461778497,-0.012137565271564,0.009266234946199,0.014845323742865
1.816,-0.005397750981381,-0.008664067427007,-0.012135161217272,0.00926681191923,0.014842270593914
1.82,-0.005398808765269,-0.008661975899773,-0.012132348473749,0.009268687081578,0.014839650174735
1.824,-0.005398592400383,-0.008663033683662,-0.012131242608775,0.009275634798483,0.014845419905037
1.828,-0.005391716805106,-0.008656518696529,-0.0121301367438,0.009276380055314,0.014852583986829
1.832,-0.00539544308926,-0.008646806317187,-0.012131987865606,0.009273254784734,0.014856382392611
1.836,-0.005391644683478,-0.0085808390674,-0.012136243041703,0.009267172527374,0.014849218310819
1.84,-0.005384937372002,-0.008568626471594,-0.012136122838989,0.009248108376834,0.014850083770365
1.844,-0.005373950843885,-0.008646012979271,-0.01213720466342,0.00925226739076,0.014855276527637
1.848,-0.005363204721197,-0.008675294360554,-0.012140113569114,0.009266138784028,0.014856839162927
1.852,-0.005360343896589,-0.00868964656468,-0.012138887501425,0.009273326906362,0.014854266824834
1.856,-0.005376811668493,-0.008677217603988,-0.012134391919898,0.009271571946729,0.014847295067385
1.86,-0.005385346061231,-0.008663274089091,-0.012133310095466,0.009272389325188,0.014835491160809
1.864,-0.005375104789945,-0.008665221373068,-0.012134127473926,0.009272028717044,0.014838977039533
1.868,-0.005378254101068,-0.008672890306261,-0.012139151947397,0.009271523865643,0.014842126350656
1.872,-0.005367892627067,-0.008689718686309,-0.012144609150641,0.009268663041035,0.0148475835539
1.876,-0.005377725209124,-0.008678924482535,-0.012143503285667,0.009268182230176,0.014857560379214
1.88,-0.005391788926735,-0.008650604722969,-0.012138382650024,0.009266379189457,0.014845179499608
1.884,-0.00539700572455,-0.008637358383817,-0.012139680839342,0.009266307067828,0.014843833229204
1.888,-0.005393231359311,-0.008667721589532,-0.012143407123495,0.009271980635959,0.01484642960784
1.892,-0.005384456561143,-0.008666952292158,-0.0121401616502,0.009276740663458,0.014839650174735
1.896,-0.005373566195198,-0.008651157655457,-0.012137372947221,0.009278110974405,0.014836837431213
1.9,-0.005364334626715,-0.008668731292335,-0.012139079825769,0.009279817852952,0.014838063498902
1.904,-0.005374022965513,-0.008671760400744,-0.012141748326033,0.009282005542358,0.014832750538916
1.908,-0.005375946208947,-0.008667913913875,-0.012142685907207,0.00928094775847,0.014838159661074
1.912,-0.005359502477587,-0.008664668440581,-0.012143383082952,0.00927839946092,0.014842655242601
1.916,-0.005375850046776,-0.008662504791717,-0.012142205096349,0.009277485920288,0.014831788917199
1.92,-0.005381571695992,-0.008660413264483,-0.012135882433559,0.009276139649885,0.014842174431742
1.924,-0.005390947507733,-0.008656903345216,-0.012131867662891,0.009274216406451,0.01484272736423
1.928,-0.00541073287456,-0.008643031951948,-0.012134920811842,0.009268711122121,0.014838255823245
1.932,-0.005404121725256,-0.008642190532945,-0.012137973960794,0.009266283027285,0.014839722296364
1.936,-0.005405275671316,-0.008650220074283,-0.012139777001513,0.009270201635782,0.014834289133663
1.94,-0.00540621325249,-0.008650123912111,-0.012140642461059,0.009273976001021,0.014838568350303
1.944,-0.005400058873501,-0.008628078734248,-0.012141700244947,0.009277918650061,0.014831091741454
1.948,-0.005384528682772,-0.008597162596046,-0.012141099231374,0.009277918650061,0.01483171679557
1.952,-0.005391812967278,-0.008602523637119,-0.01213859901491,0.009270610325012,0.014840323309937
1.956,-0.005407727806695,-0.008636468883729,-0.012136820014734,0.009271740230529,0.014838688553018
1.96,-0.005398688562555,-0.008623198504035,-0.012135521825416,0.009274913582195,0.01483993866125
1.964,-0.005393808332341,-0.008637574748704,-0.012134752528042,0.009277942690604,0.014835971971668
1.968,-0.005388928102127,-0.008662769237689,-0.012135714149759,0.009280659271955,0.014840707958624
1.972,-0.00538599515589,-0.008675246279468,-0.012135209298358,0.009274000041564,0.014836452782526
1.976,-0.005382701601509,-0.008663201967462,-0.012134271717183,0.009259118945494,0.014844362121148
1.98,-0.00538912042647,-0.008646541871215,-0.012126674905619,0.009270850730441,0.014843232215631
1.984,-0.005389216588642,-0.008619520300967,-0.012119390621113,0.009277870568975,0.014843833229204
1.988,-0.005387317385751,-0.008626131450271,-0.012129679973485,0.009282245947788,0.014839457850392
1.992,-0.005394457427,-0.008645387925155,-0.012136122838989,0.0092866213266,0.014841284931654
1.996,-0.005393351562025,-0.008654427169294,-0.012140642461059,0.009286645367143,0.014845732432095
2,-0.005390202250902,-0.008654258885494,-0.01214295035318,0.009285515461626,0.014846213242954
2.004,-0.005388351129097,-0.00864312811412,-0.012136916176905,0.009283039285704,0.014848953864847
2.008,-0.005378037736182,-0.008628559545107,-0.012137108501249,0.009284289393936,0.01484428999952
2.012,-0.005372388208595,-0.008622164760689,-0.012142806109922,0.009283712420906,0.014854026419404
2.016,-0.005377028033379,-0.008629905815511,-0.012145378448015,0.009282702718103,0.014848136486388
2.02,-0.005375249033203,-0.008638103640648,-0.012143070555894,0.009279000474493,0.014847319107928
2.024,-0.005385466263946,-0.008644306100723,-0.012139704879885,0.009273254784734,0.014845972837524
2.028,-0.005394481467543,-0.008635194734954,-0.012140642461059,0.009269504460037,0.014848184567474
2.032,-0.005387413547923,-0.008573674985608,-0.012140137609657,0.009262556743132,0.014845732432095
2.036,-0.005384336358428,-0.008550115253542,-0.012139873163685,0.009258878540064,0.01484486697255
2.04,-0.005387750115524,-0.008576247323701,-0.01214155600169,0.00926796586529,0.014846165161868
2.044,-0.005371979519365,-0.008640074965168,-0.012141123271917,0.009298497354805,0.014846189202411
2.048,-0.005368685964984,-0.008663009643119,-0.012140666501602,0.009330038547123,0.014842943729116
2.052,-0.005390274372531,-0.008655605155898,-0.012140858825945,0.009362132671928,0.014826427876126
2.056,-0.005387533750637,-0.008644762871038,-0.012139728920428,0.009388865755661,0.014835851768953
2.06,-0.005390562859046,-0.008596801987903,-0.012137661433736,0.009405525851908,0.014842871607487
2.064,-0.005392750548452,-0.008577401269762,-0.012136411325504,0.009392712242529,0.014834072768776
2.068,-0.005385057574716,-0.008627285396332,-0.01213095412226,0.009374417389363,0.014838303904331
2.072,-0.005379768655273,-0.008634209072694,-0.012122660134951,0.009354367576563,0.01484133301274
2.076,-0.005380513912103,-0.008632598356318,-0.01212208316192,0.00933592848014,0.014844410202234
2.08,-0.005376523181978,-0.008646061060356,-0.012132540798093,0.009315974829512,0.014844506364406
2.084,-0.005373470033026,-0.008639065262365,-0.012140474177258,0.009297944422318,0.01483779905293
2.088,-0.005381619777078,-0.008629352883023,-0.012142517623407,0.00928621263737,0.014838327944874
2.092,-0.005380249466131,-0.008613822692294,-0.012143214799152,0.009282294028874,0.014841525337083
2.096,-0.00537818197944,-0.008610457016284,-0.012143335001866,0.009282029582901,0.014840251188308
2.1,-0.005379239763328,-0.008603316975035,-0.012141003069203,0.009282534434303,0.014839914620707
2.104,-0.00537128234362,-0.008611851367774,-0.012138719217625,0.009279120677207,0.0148474152701
2.108,-0.00537046496516,-0.008639666275938,-0.012137300825592,0.009270490122297,0.01484150129654
2.112,-0.005357531153067,-0.008629905815511,-0.012136194960618,0.009275418433597,0.0148475835539
2.116,-0.005363036437397,-0.008627838328819,-0.012137372947221,0.00928070735304,0.014839698255821
2.12,-0.005371186181448,-0.008641998208602,-0.012138238406766,0.009279120677207,0.014839866539621
2.124,-0.005354333760858,-0.008638007478476,-0.012139200028483,0.009275298230882,0.014837775012387
2.128,-0.005360824707447,-0.00862504962584,-0.012139031744683,0.009274817420024,0.014835755606781
2.132,-0.005362435423823,-0.008602932326349,-0.012133718784696,0.009275298230882,0.014844842932007
2.136,-0.005364935640288,-0.008617020084503,-0.012126987432677,0.009277558041917,0.014849578918963
2.14,-0.00537580196569,-0.008605624867156,-0.012133117771123,0.009276620460743,0.014852271459771
2.144,-0.005377003992836,-0.008593893082209,-0.012142974393722,0.009273783676678,0.014853185000402
2.148,-0.005381643817621,-0.008614303503152,-0.012145618853444,0.009270802649355,0.014859243217219
2.152,-0.005381908263593,-0.008601441812687,-0.012145546731815,0.00926911981135,0.014854290865377
2.156,-0.005377989655096,-0.008597667447448,-0.012144897637156,0.009266499392172,0.014848184567474
2.16,-0.00538188422305,-0.008599999380112,-0.012142806109922,0.009269504460037,0.014853978338319
2.164,-0.005380297547217,-0.008607740434934,-0.012140257812372,0.009274432771337,0.014856406433154
2.168,-0.005374455695286,-0.008603052529063,-0.01213605071736,0.009278279258205,0.014853160959859
2.172,-0.005380922601333,-0.008580478459256,-0.012133189892752,0.009277437839203,0.014857199771071
2.176,-0.005372243965337,-0.00855338476738,-0.012130473311401,0.009273254784734,0.01485111751371
2.18,-0.005357603274695,-0.008578170567135,-0.012126819148877,0.009265898378599,0.014849506797334
2.184,-0.005352290314709,-0.008594878744469,-0.012121361945633,0.009262364418788,0.014853112878773
2.188,-0.005370320721903,-0.008614567949124,-0.012116601918133,0.009262845229647,0.014852391662485
2.192,-0.005371210221991,-0.008623799517608,-0.012112539066379,0.00926698020303,0.01485390621669
2.196,-0.005371306384163,-0.008609856002711,-0.012109558039056,0.009259239148208,0.014846165161868
2.2,-0.005384576763858,-0.008637598789247,-0.012114654634156,0.009244886944082,0.014841573418169
2.204,-0.005377124195551,-0.008639065262365,-0.012118573242653,0.009251834660987,0.014842703323687
2.208,-0.005366666559378,-0.008631204004829,-0.012118236675052,0.009260753702413,0.014845636269923
2.212,-0.005365127964631,-0.008623126382406,-0.012121866797034,0.009266379189457,0.014848232648559
2.216,-0.005366426153949,-0.008613774611208,-0.012125641162273,0.009268206270719,0.014844386161691
2.22,-0.005360247734417,-0.008608726097193,-0.012128694311225,0.009273591352335,0.014849410635163
2.224,-0.005353420220226,-0.008605961434757,-0.012130882000631,0.009271211338585,0.014858089271159
2.228,-0.00535303557154,-0.008602956366891,-0.012130160784343,0.009269624662752,0.014859387460477
2.232,-0.005354838612259,-0.008599278163824,-0.012127540365164,0.009269167892436,0.014858281595502
2.236,-0.005366979086436,-0.008599398366538,-0.01212405448644,0.009268687081578,0.01485546885198
2.24,-0.005363348964455,-0.00859382096058,-0.012124246810784,0.009272004676502,0.014860132717307
2.244,-0.005346640787122,-0.008585863540872,-0.012124751662185,0.009260032486125,0.014850853067738
2.248,-0.005349838179331,-0.008563025025093,-0.012123862162097,0.00926205189173,0.014854964000578
2.252,-0.005378206019982,-0.008563025025093,-0.012122443770064,0.009266475351629,0.014853112878773
2.256,-0.005383879588113,-0.008564852106355,-0.012119270418398,0.009271379622385,0.014853834095061
2.26,-0.005383663223226,-0.008578459053651,-0.012117876066908,0.009274144284822,0.014856839162927
2.264,-0.005366738681007,-0.008601393731601,-0.012127540365164,0.009273230744191,0.014858546041474
2.268,-0.00536084874799,-0.008581367959345,-0.01213292544678,0.009270562243926,0.014854002378861
2.272,-0.005346520584407,-0.0085555243757,-0.012133069690037,0.009270610325012,0.014847222945757
2.276,-0.00534358763817,-0.008579901486226,-0.012133478379267,0.009275658839026,0.01485135791914
2.28,-0.005349116963043,-0.008578675418537,-0.012132564838636,0.009277437839203,0.014849627000049
2.284,-0.005347794733182,-0.008559202578767,-0.012130040581629,0.009277437839203,0.014850107810908
2.288,-0.005344429057172,-0.008560164200484,-0.012128886635568,0.009265345446111,0.0148424869588
2.292,-0.005339524786416,-0.00855824095705,-0.012128261581452,0.009260657540241,0.014849338513534
2.296,-0.005341736516365,-0.008592402568547,-0.012130569473573,0.009270586284469,0.014846333445668
2.3,-0.005343515516541,-0.008617765341333,-0.012133526460353,0.009275178028168,0.014840130985594
2.304,-0.005350391111818,-0.008621876274174,-0.012131987865606,0.009273086500933,0.01484388131029
2.308,-0.005339765191845,-0.008614135219352,-0.012130112703257,0.009274697217309,0.014844506364406
2.312,-0.005330894231506,-0.008594950866097,-0.012133766865782,0.00927486550111,0.014857368054871
2.316,-0.005347818773725,-0.008581993013461,-0.012134728487499,0.009274432771337,0.014852271459771
2.32,-0.00534202500288,-0.008578266729307,-0.012131867662891,0.009277125312145,0.014853040757144
2.324,-0.005343058746226,-0.008562640376406,-0.012134271717183,0.009277077231059,0.014853233081488
2.328,-0.005360151572246,-0.008578915823966,-0.012133863027954,0.009271259419671,0.014857728663015
2.332,-0.005360247734417,-0.008594181568724,-0.012126362378561,0.009265129081225,0.014849410635163
2.336,-0.005360295815503,-0.008596874109531,-0.012124775702728,0.009268446676149,0.014845636269923
2.34,-0.005359550558672,-0.00857278548552,-0.012134247676641,0.009269624662752,0.014840082904508
2.344,-0.005359574599215,-0.008552735672721,-0.012140017406943,0.009270153554696,0.014849410635163
2.348,-0.00537128234362,-0.008546028361244,-0.012141483880061,0.009272846095504,0.014853112878773
2.352,-0.005372340127509,-0.008573867309952,-0.012138358609481,0.009274673176766,0.014845972837524
2.356,-0.005366810802636,-0.008588676284394,-0.012138839420339,0.009276524298571,0.014853425405831
2.36,-0.005364550991601,-0.008590166798055,-0.012143815812725,0.009279240879922,0.014851550243483
2.364,-0.005360367937132,-0.008559971876141,-0.012145883299416,0.009282871001904,0.014848593256703
2.368,-0.00534515027346,-0.008556726402846,-0.012142782069379,0.009279625528609,0.014854002378861
2.372,-0.005334788799459,-0.008581800689117,-0.012139656798799,0.009275586717397,0.014856238149354
2.376,-0.005323273379398,-0.008587882946477,-0.012140930947574,0.00927445681188,0.01485292055443
2.38,-0.005333899299371,-0.008588339716793,-0.012140378015087,0.009273807717221,0.014852944594973
2.384,-0.005351376774078,-0.008582209378347,-0.012138478812195,0.009275658839026,0.01484979528385
2.388,-0.005348660192727,-0.008574804891126,-0.012137565271564,0.009273543271249,0.014852728230086
2.392,-0.005350150706389,-0.00856160663306,-0.012136122838989,0.009271668108901,0.014858257554959
2.396,-0.005352915368825,-0.008524824602384,-0.012132132108863,0.009271740230529,0.014857344014328
2.4,-0.005353396179684,-0.008529608670426,-0.012131194527689,0.00927092285207,0.014844217877891
2.404,-0.005349573733358,-0.008517684561136,-0.012130112703257,0.00926854283832,0.014850973270453
2.408,-0.005348924638699,-0.008532060805805,-0.012128958757197,0.00926524928394,0.014850973270453
2.412,-0.005349477571187,-0.008562976944007,-0.012132588879179,0.009267364851717,0.014846501729469
2.416,-0.005345486841061,-0.008602138988432,-0.012134151514469,0.00926878324375,0.014853713892346
2.42,-0.005334860921088,-0.008615914219528,-0.012132997568408,0.009264768473081,0.014854795716778
2.424,-0.005338226597098,-0.00855667832176,-0.012130737757373,0.009248252620091,0.014849410635163
2.428,-0.005360127531703,-0.008546413009931,-0.012131074324974,0.009252339512389,0.014847054661956
2.432,-0.005354934774431,-0.008588508000593,-0.012131987865606,0.009259359350923,0.014843977472462
2.436,-0.005339861354017,-0.008584108581238,-0.012131242608775,0.009263734729735,0.014842967769659
2.44,-0.005330677866619,-0.008592234284747,-0.01213210806832,0.009266258986742,0.01484051563428
2.444,-0.005345390678889,-0.00859891755568,-0.012132973527866,0.009270297797954,0.01484642960784
2.448,-0.005361305518306,-0.008586536676073,-0.012133069690037,0.009274096203736,0.01484799224313
2.452,-0.005354165477057,-0.008581151594458,-0.012133117771123,0.00927601944717,0.014851670446198
2.456,-0.005346256138435,-0.008575910756101,-0.01213210806832,0.009275346311968,0.014857896946815
2.46,-0.005335846583348,-0.008575718431757,-0.012130930081717,0.009275370352511,0.014866166893582
2.464,-0.005338034272754,-0.008574612566783,-0.012129319365341,0.009274072163193,0.014859724028078
2.468,-0.005349717976616,-0.008577761877906,-0.012125280554129,0.00927190851433,0.014853978338319
2.472,-0.00534950161173,-0.00855905833551,-0.012118140512881,0.009275995406627,0.01485390621669
2.476,-0.005360175612788,-0.008551317280688,-0.01211624130999,0.009274937622738,0.014851165594796
2.48,-0.005352699003939,-0.008552110618605,-0.012117876066908,0.009278014812233,0.014857151689985
2.484,-0.005335798502262,-0.008575838634472,-0.012115712418045,0.009276356014771,0.014856887244013
2.488,-0.005321927108994,-0.008566174336216,-0.012122756297122,0.009275274190339,0.014863282028431
2.492,-0.005338010232211,-0.00854763907762,-0.012135113136186,0.009275562676854,0.014856358352068
2.496,-0.005353564463484,-0.008539537414655,-0.012141940650377,0.009268687081578,0.014856478554783
2.5,-0.005364070180742,-0.008496937572591,-0.012142325299063,0.009269576581666,0.014855108243836
2.504,-0.00536462311323,-0.008516218088017,-0.012141459839518,0.009274745298395,0.014855348649265
2.508,-0.005357651355781,-0.008528430683823,-0.012140402055629,0.00927741379866,0.01486352243386
2.512,-0.005345703205947,-0.008547350591105,-0.012137829717536,0.009275586717397,0.01485332924366
2.516,-0.005337048610494,-0.008576631972388,-0.012137781636451,0.009278086933862,0.014854603392435
2.52,-0.005349044841414,-0.008620866571371,-0.012139801042056,0.009275153987625,0.014856430473697
2.524,-0.00534868423327,-0.00858141604043,-0.012140402055629,0.00926878324375,0.014856141987182
2.528,-0.005345366638347,-0.008555548416243,-0.012139728920428,0.009268566878863,0.014857319973785
2.532,-0.005337289015924,-0.008578771580709,-0.012140930947574,0.009269504460037,0.014859074933419
2.536,-0.005329884528703,-0.008580238053827,-0.012142229136892,0.00926796586529,0.014857560379214
2.54,-0.005343275111112,-0.008575766512843,-0.012141868528748,0.009270682446641,0.014858762406361
2.544,-0.005346159976263,-0.008564203011696,-0.012140209731286,0.009274985703824,0.014860276960565
2.548,-0.005334933042717,-0.008554851240498,-0.012139512555541,0.009272221041388,0.014862897379744
2.552,-0.005350126665846,-0.008548841104767,-0.012139055785226,0.009270850730441,0.014873980070032
2.556,-0.005357242666552,-0.008552519307834,-0.012137156582335,0.009264311702765,0.014862656974315
2.56,-0.005351328692992,-0.008559178538225,-0.012137998001337,0.009253301134106,0.014859387460477
2.564,-0.005342121165052,-0.008547951604678,-0.012141075190831,0.00926327795942,0.014859219176676
2.568,-0.005343683800342,-0.008518958709911,-0.012138719217625,0.009270321838497,0.014856310270982
2.572,-0.005343900165228,-0.008515809398787,-0.012142205096349,0.009271644068358,0.014854723595149
2.576,-0.005340678732476,-0.00852782967025,-0.012149080691625,0.009270418000668,0.01485465147352
2.58,-0.005331278880192,-0.008528430683823,-0.012149561502484,0.009272100838673,0.014860661609252
2.584,-0.005337745786239,-0.00855372133498,-0.012148191191537,0.009271980635959,0.014868258420816
2.588,-0.005338563164699,-0.00858264210812,-0.012146893002219,0.009275057825453,0.01486015675785
2.592,-0.005328490177213,-0.008578362891479,-0.0121452582453,0.009280442907068,0.014861815555312
2.596,-0.005334812840002,-0.008559611267997,-0.012143022474808,0.009281644934215,0.014863738798746
2.6,-0.005342265408309,-0.008541989550033,-0.012142205096349,0.009280178461096,0.014856069865553
2.604,-0.005330341299018,-0.008530666454315,-0.012143815812725,0.00927938512318,0.014853545608546
2.608,-0.005332721312768,-0.008529416346083,-0.012143503285667,0.009278423501463,0.014857416135957
2.612,-0.005343804003056,-0.008523117723837,-0.012140378015087,0.00928070735304,0.014862921420287
2.616,-0.005342505813738,-0.008489412882655,-0.012140378015087,0.009285731826512,0.014858762406361
2.62,-0.005342409651567,-0.008532012724719,-0.012144416826298,0.009287078096916,0.014855396730351
2.624,-0.005333899299371,-0.008563962606267,-0.012148936448368,0.009284193231765,0.014854411068091
2.628,-0.005325124501203,-0.008555716700043,-0.012148431596966,0.009285876069769,0.014855781379038
2.632,-0.005324787933602,-0.008553192443036,-0.012143936015439,0.009285034650767,0.014855709257409
2.636,-0.005327264109524,-0.008543335820437,-0.012146388150818,0.009287366583431,0.014848713459418
2.64,-0.005324186920029,-0.008526242994417,-0.012151941516234,0.009288809016006,0.014858113311702
2.644,-0.00532336954157,-0.008535907292673,-0.012154345570526,0.009282798880275,0.014860204838936
2.648,-0.005327095825723,-0.008552038496976,-0.012155162948986,0.009266860000316,0.014847030621413
2.652,-0.005322239636052,-0.008554081943124,-0.012154489813784,0.009269744865467,0.014854050459947
2.656,-0.0053188499195,-0.0085454994693,-0.012153407989352,0.009278447542005,0.014851069432625
2.66,-0.005313681202771,-0.008547398672191,-0.012150451002572,0.009285683745426,0.014845299702323
2.664,-0.005304858323517,-0.008558721767909,-0.01214722956982,0.009288424367319,0.014842462918257
2.668,-0.00531416201363,-0.008535450522357,-0.012147349772535,0.00928703001583,0.014839578053106
2.672,-0.005323465703742,-0.008521987818319,-0.012152999300122,0.009288087799719,0.014844241918434
2.676,-0.005320436595333,-0.008526315116046,-0.012155451435501,0.009288616691663,0.014846742134898
2.68,-0.005316566067922,-0.008534969711499,-0.012156629422104,0.009282726758646,0.014845540107752
2.684,-0.00532279256854,-0.008552471226748,-0.012157206395134,0.00927717339323,0.014848352851274
2.688,-0.005316782432808,-0.008537998819907,-0.012154369611069,0.00927207679813,0.014849434675706
2.692,-0.005306709445323,-0.008532589697749,-0.012145522691273,0.009259287229294,0.014848665378332
2.696,-0.005321518419765,-0.008512251398434,-0.0121401616502,0.009254647404509,0.014854122581576
2.7,-0.005329163312415,-0.008543215617722,-0.012141604082776,0.009266307067828,0.014853401365288
2.704,-0.005318609514071,-0.008554009821496,-0.012142806109922,0.009292511259617,0.014856550676412
2.708,-0.00530627671555,-0.00856497230907,-0.012144344704669,0.009325951654826,0.014857728663015
2.712,-0.005302117701624,-0.008571727701632,-0.012148287353709,0.009358815077005,0.014855156324922
2.716,-0.005328610379928,-0.008557447619134,-0.012152951219036,0.009383144106445,0.014855300568179
2.72,-0.0053390680161,-0.008546100482873,-0.012154994665185,0.009394707607592,0.014852824392258
2.724,-0.005328922906986,-0.008540571158,-0.01215470617867,0.009393072850673,0.014856117946639
2.728,-0.005306517120979,-0.008519944372171,-0.012150475043115,0.00938071601161,0.014859195136133
2.732,-0.005303439931485,-0.008548600699337,-0.012147542096878,0.009361411455641,0.014853377324745
2.736,-0.00531473898666,-0.008557976511078,-0.012150715448544,0.009336433331541,0.014844121715719
2.74,-0.005313585040599,-0.008550547983314,-0.012153432029895,0.009313498653591,0.01484428999952
2.744,-0.005310700175448,-0.008552807794349,-0.012153119502837,0.009307488517859,0.014847222945757
2.748,-0.005312286851281,-0.008547182307305,-0.012151436664832,0.009297776138517,0.014847150824128
2.752,-0.00531473898666,-0.008537974779364,-0.012150066353885,0.009295420165311,0.01484527566178
2.756,-0.005316421824665,-0.008549874848112,-0.012146868961676,0.009289073461978,0.014846381526754
2.76,-0.005313008067569,-0.008491239963918,-0.012143455204581,0.009286092434656,0.014845299702323
2.764,-0.005308969256358,-0.008481215057518,-0.012143767731639,0.009284361515565,0.014843929391376
2.768,-0.005315436162405,-0.00852487268347,-0.012146291988646,0.009282558474846,0.014844145756262
2.772,-0.005320556798048,-0.008535210116928,-0.012146917042762,0.009287655069946,0.014843208175088
2.776,-0.005318056581583,-0.008559322781482,-0.012145114002043,0.00928743870506,0.014853617730175
2.78,-0.005306733485866,-0.008587281932904,-0.012140402055629,0.009280659271955,0.014852247419228
2.784,-0.00528622690275,-0.008578555215822,-0.012139296190655,0.009261811486301,0.014850492459594
2.788,-0.005273557536629,-0.008571703661089,-0.012140209731286,0.009264528067652,0.014852896513887
2.792,-0.005286010537864,-0.008552783753806,-0.012145186123672,0.009270466081754,0.014855805419581
2.796,-0.005312262810738,-0.008557880348907,-0.012146604515704,0.009277846528432,0.014853185000402
2.8,-0.005325388947176,-0.008551365361774,-0.012145234204757,0.009280490988154,0.014857007446727
2.804,-0.005318417189727,-0.008533695562724,-0.012148816245653,0.009280803515212,0.014858762406361
2.808,-0.00531120502685,-0.008559851673426,-0.012153383948809,0.009281067961184,0.014864171528519
2.812,-0.005306565202065,-0.008565356957756,-0.012152470408178,0.009273447109077,0.014856694919669
2.816,-0.005305074688404,-0.008558577524651,-0.01215134050266,0.009270778608812,0.014851213675882
2.82,-0.005304185188316,-0.00855667832176,-0.01215158090809,0.009276524298571,0.014858714325275
2.824,-0.005309690472645,-0.008560861376229,-0.012151436664832,0.009276307933685,0.014864195569062
2.828,-0.005312551297254,-0.008559346822025,-0.012151773232433,0.009274552974052,0.014849843364935
2.832,-0.005298463539099,-0.008555860943301,-0.01215273485415,0.009278880271778,0.014845251621237
2.836,-0.005282957388913,-0.008557183173162,-0.012152470408178,0.009280683312498,0.014846141121325
2.84,-0.005307382580525,-0.008534128292496,-0.012151556867547,0.009280563109783,0.014848953864847
2.844,-0.005312647459425,-0.008535137995299,-0.012149681705199,0.009279313001551,0.014842919688573
2.848,-0.005291443700565,-0.008539537414655,-0.012146700677876,0.009281909380187,0.014853305203117
2.852,-0.005296107565893,-0.008545186942242,-0.012144849556071,0.00928308736679,0.01485784886573
2.856,-0.005294833417118,-0.008554178105296,-0.012143431164038,0.009280515028697,0.014855156324922
2.86,-0.005286154781122,-0.008559130457139,-0.01214073862323,0.00927799077169,0.014861238582282
2.864,-0.005303031242255,-0.008546557253189,-0.012138526893281,0.009280322704354,0.014864243650148
2.868,-0.005306877729123,-0.008549658483226,-0.012134512122613,0.00928366433982,0.014863642636575
2.872,-0.005300074255475,-0.008538311346965,-0.012129704014028,0.009279288961008,0.014856743000755
2.876,-0.005300122336561,-0.008565573322643,-0.012132156149406,0.009280803515212,0.014859435541563
2.88,-0.005295698876663,-0.008578843702337,-0.01213268504135,0.009281308366614,0.014860325041651
2.884,-0.005293991998115,-0.008565933930787,-0.012129199162626,0.009275298230882,0.014865686082723
2.888,-0.005296396052408,-0.00857533378307,-0.012130353108687,0.009275202068711,0.014868258420816
2.892,-0.005292285119568,-0.008576415607502,-0.01213292544678,0.009275153987625,0.014863883042004
2.896,-0.0052736536988,-0.008565813728072,-0.012133189892752,0.009275706920112,0.014862080001284
2.9,-0.005280817780592,-0.00855922661931,-0.012131723419633,0.009270610325012,0.014855156324922
2.904,-0.005306132472292,-0.008537782455021,-0.012131507054747,0.009269336176237,0.014863378190602
2.908,-0.005306228634464,-0.008545739874729,-0.012133310095466,0.009272293163017,0.01486705639367
2.912,-0.005300458904162,-0.008566655147074,-0.012134031311754,0.009268566878863,0.01485900281179
2.916,-0.005301468606965,-0.008558841970624,-0.012130353108687,0.009263326040506,0.014857055527813
2.92,-0.005293991998115,-0.00854862473988,-0.012128862595025,0.009253926188222,0.014861166460653
2.924,-0.005288486713785,-0.00854237419872,-0.012134151514469,0.009262124013359,0.014863810920375
2.928,-0.005297453836296,-0.008555163767556,-0.012135954555188,0.009269720824924,0.014865541839466
2.932,-0.00529468917386,-0.008560837335686,-0.012134872730757,0.009271067095327,0.014863161825716
2.936,-0.005283582443029,-0.008554009821496,-0.012137132541792,0.009275153987625,0.014861238582282
2.94,-0.005295290187433,-0.0085404028742,-0.012137108501249,0.009280995839556,0.014868426704617
2.944,-0.005302310025967,-0.008539537414655,-0.012136483447133,0.009281813218015,0.014864940825892
2.948,-0.005292982295312,-0.008538311346965,-0.012137709514822,0.009278543704177,0.014855685216866
2.952,-0.005293511187257,-0.008549874848112,-0.012137012339077,0.009277029149973,0.014864484055577
2.956,-0.005292910173684,-0.008513333222866,-0.012135690109216,0.009276356014771,0.014876360083782
2.96,-0.00527603371255,-0.008468088921081,-0.012133959190125,0.009273447109077,0.014864363852862
2.964,-0.005262811413941,-0.008480734246659,-0.012128381784167,0.009268855365378,0.014859555744277
2.968,-0.005295987363178,-0.008556245591988,-0.012124415094584,0.009271980635959,0.014859892311878
2.972,-0.005302093661081,-0.008571439215116,-0.012131723419633,0.009271788311615,0.01486352243386
2.976,-0.005295602714491,-0.008557327416419,-0.012135810311931,0.009271620027815,0.014855709257409
2.98,-0.005299304958102,-0.008554274267468,-0.012138863460882,0.00927717339323,0.014862200203999
2.984,-0.005301324363707,-0.008546629374818,-0.012141652163862,0.009279240879922,0.014866142853039
2.988,-0.005295434430691,-0.008530402008343,-0.012139680839342,0.009285539502168,0.014859339379391
2.992,-0.005286948119038,-0.008525305413243,-0.012133382217095,0.00928465000208,0.014864339812319
2.996,-0.005284568105289,-0.008544946536813,-0.012132035946691,0.009280466947611,0.014865782244895
3,-0.005286250943293,-0.00854706210459,-0.012136844055276,0.00927231720356,0.014861527068797
3.004,-0.005277452104583,-0.008555332051356,-0.01213917598794,0.009271620027815,0.014861527068797
3.008,-0.00530529105329,-0.008566847471418,-0.012138070122966,0.009260921986213,0.014859026852333
3.012,-0.00531786425724,-0.008558793889538,-0.012137517190478,0.009265778175884,0.014866287096296
3.016,-0.005311517553908,-0.008551870213175,-0.012138647095996,0.009272990338761,0.014862608893229
3.02,-0.005301997498909,-0.008545860077444,-0.012138647095996,0.009280971799013,0.014858401798217
3.024,-0.005302766796283,-0.008550355658971,-0.012138358609481,0.00928604435357,0.014866815988241
3.028,-0.005309281783416,-0.00853900852271,-0.012139248109569,0.009286717488772,0.014870373988594
3.032,-0.005303247607141,-0.008531219386802,-0.012139608717713,0.009283423934391,0.014871792380626
3.036,-0.005281803442852,-0.008532084846348,-0.012139055785226,0.009280034217839,0.014873355015916
3.04,-0.00527447107726,-0.008523766818496,-0.012142181055806,0.009281092001727,0.01487215298877
3.044,-0.005275144212462,-0.008518501939595,-0.012143911974897,0.009284217272308,0.014875807151295
3.048,-0.005280697577878,-0.00852290135895,-0.012143310961323,0.009282245947788,0.014878908381332
3.052,-0.005274374915088,-0.008537566090135,-0.012141243474632,0.009280082298924,0.014865854366524
3.056,-0.005265071224976,-0.008544297442154,-0.012138887501425,0.009285154853482,0.014868739231675
3.06,-0.005266970427867,-0.00854081156343,-0.012138046082423,0.00928448171828,0.014863498393317
3.064,-0.005279014739873,-0.00853489758987,-0.012136892136362,0.009284024947964,0.014864556177206
3.068,-0.005279591712903,-0.008535498603443,-0.012129848257285,0.009284193231765,0.014864484055577
3.072,-0.0052785820101,-0.008529728873141,-0.012126915311048,0.009285202934567,0.014870854799452
3.076,-0.005286154781122,-0.008524079345554,-0.012134968892928,0.009284048988507,0.014866912150412
3.08,-0.005278485847928,-0.008521867615605,-0.01214196469092,0.009287558907774,0.014870494191308
3.084,-0.005270023576819,-0.008521002156059,-0.012145522691273,0.009287054056373,0.014870133583164
3.088,-0.00528901560573,-0.008506457627589,-0.012143647528924,0.009285683745426,0.014865902447609
3.092,-0.005284688308003,-0.008469050542798,-0.012139969325857,0.009288616691663,0.014876720691926
3.096,-0.005273100766313,-0.008484412449727,-0.012141411758432,0.009285852029226,0.014867032353127
3.1,-0.005278846456072,-0.008477320489564,-0.012145426529101,0.00928366433982,0.014862681014858
3.104,-0.005293415025085,-0.008502322654206,-0.012142661866664,0.009285491421083,0.014859724028078
3.108,-0.005279110902044,-0.008543215617722,-0.012144657231727,0.009285755867055,0.014861599190426
3.112,-0.005279255145302,-0.008552038496976,-0.0121503548404,0.00928465000208,0.014859651906449
3.116,-0.00529428048463,-0.008525762183558,-0.012152037678405,0.009283856664164,0.014864195569062
3.12,-0.005295338268519,-0.008516290209646,-0.012151965556776,0.009282197866702,0.014861070298482
3.124,-0.005285962456778,-0.008536989117105,-0.012152109800034,0.00928916962415,0.014859699987535
3.128,-0.005284568105289,-0.008517347993535,-0.012152230002749,0.009288135880804,0.014856478554783
3.132,-0.005284159416059,-0.008486936706734,-0.01215273485415,0.009286597286057,0.014856670879126
3.136,-0.005282332334796,-0.008488114693337,-0.012150451002572,0.009285395258911,0.014861070298482
3.14,-0.005283654564657,-0.008520737710087,-0.012147013204934,0.009283183528962,0.014859507663191
3.144,-0.005272067022967,-0.008532084846348,-0.012145306326386,0.009278279258205,0.014854843797864
3.148,-0.005273749860972,-0.008525930467359,-0.012144777434442,0.009273759636135,0.014855324608722
3.152,-0.005281563037423,-0.008517732642221,-0.012144464907384,0.009279601488066,0.014860421203823
3.156,-0.005278437766843,-0.008512780290379,-0.012142036812548,0.009286957894201,0.014863762839289
3.16,-0.005274855725947,-0.008510376236086,-0.012135738190302,0.009290203367496,0.014861046257939
3.164,-0.005277067455896,-0.008508404911566,-0.012128670270682,0.00928743870506,0.014866142853039
3.168,-0.005287837619126,-0.008524271669897,-0.012133574541439,0.009285755867055,0.014861454947168
3.172,-0.005282404456425,-0.008538407509137,-0.012142205096349,0.009287294461802,0.014865902447609
3.176,-0.005283462240314,-0.008508813600796,-0.01214665259679,0.009287847394289,0.014872417434742
3.18,-0.005288053984013,-0.00851484777707,-0.012147349772535,0.009289241745779,0.014875710989123
3.184,-0.005280409091362,-0.008488571463653,-0.01214682088059,0.009288929218721,0.014873066529401
3.188,-0.005266633860266,-0.008458689068797,-0.012148455637509,0.00928291908299,0.014860012514593
3.192,-0.005264686576289,-0.008496552923904,-0.012152710813607,0.009281668974757,0.014863017582458
3.196,-0.005275600982777,-0.008516698898876,-0.012153504151524,0.009280659271955,0.014867441042357
3.2,-0.005289063686816,-0.008518021128736,-0.012153528192067,0.009278760069064,0.014874004110575
3.204,-0.005290361876134,-0.008512972614722,-0.012153576273152,0.00927799077169,0.014870662475109
3.208,-0.00528269294294,-0.008507972181794,-0.012152278083835,0.009279313001551,0.01486919600199
3.212,-0.005273341171742,-0.00849955799177,-0.012151124137774,0.009281765136929,0.014872489556371
3.216,-0.005258652400015,-0.008495495140016,-0.012148864326739,0.009281452609871,0.014864700420463
3.22,-0.005273677739343,-0.008494894126442,-0.012144464907384,0.009284529799366,0.014867128515299
3.224,-0.005302189823253,-0.008497394342907,-0.012144344704669,0.009289049421436,0.014876744732469
3.228,-0.005292645727711,-0.008502226492035,-0.012143815812725,0.009289289826865,0.01487650432704
3.232,-0.005272716117626,-0.008506818235733,-0.012139344271741,0.009271547906186,0.014864484055577
3.236,-0.005275384617891,-0.008516266169103,-0.01213900770414,0.009268903446464,0.014862512731057
3.24,-0.005286803875781,-0.008499798397199,-0.01214328692078,0.009278207136576,0.014862656974315
3.244,-0.005281178388736,-0.008503644884067,-0.012150571205287,0.009289049421436,0.014861599190426
3.248,-0.00528153899688,-0.008505039235557,-0.012155186989528,0.009295588449111,0.01486566204218
3.252,-0.005294785336032,-0.008516746979961,-0.01215487446247,0.009295949057255,0.014859820190249
3.256,-0.005290458038305,-0.008486455895876,-0.012156461138304,0.009293833489478,0.014864003244718
3.26,-0.005280192726476,-0.008484965382214,-0.012156965989705,0.009291477516271,0.014873210772659
3.264,-0.005277355942411,-0.008493091085723,-0.012156124570703,0.009293785408392,0.01487354734026
3.268,-0.005282091929367,-0.008490975517946,-0.01215314354338,0.009295420165311,0.014874869570121
3.272,-0.005283245875428,-0.008503813167868,-0.012154682138127,0.009296622192457,0.014878139083958
3.276,-0.00527939938856,-0.008508140465594,-0.01215626881396,0.009284361515565,0.014877441908214
3.28,-0.00527759634784,-0.008486215490446,-0.012155932246359,0.009274817420024,0.014876215840524
3.284,-0.005268845590215,-0.008450851851803,-0.012158720949338,0.009284529799366,0.014875783110752
3.288,-0.005264325968145,-0.008482729611722,-0.012159730652141,0.009292078529844,0.014871335610311
3.292,-0.005275192293548,-0.008510183911743,-0.012158360341195,0.00929073225944,0.014874220475462
3.296,-0.005268412860443,-0.008505616208587,-0.012154778300299,0.00929114094867,0.014875230178264
3.3,-0.005262691211227,-0.008504726708499,-0.012152662732521,0.009293929651649,0.014868570947874
3.304,-0.005247064858325,-0.008509054006225,-0.012150619286373,0.009292727624503,0.014869941258821
3.308,-0.005274206631288,-0.008514703533813,-0.012150138475514,0.009291741962243,0.014869580650677
3.312,-0.005273461374457,-0.008487489639221,-0.012149056651083,0.009288400326777,0.014868883474932
3.316,-0.005272740158169,-0.008460011298658,-0.01215331182718,0.00928703001583,0.014867873772129
3.32,-0.005272740158169,-0.008455635919845,-0.012157326597849,0.00928291908299,0.014865950528695
3.324,-0.005271321766137,-0.008476767557077,-0.012160884598202,0.009279745731323,0.014867417001814
3.328,-0.005271778536452,-0.008505760451845,-0.012162591476749,0.009285924150855,0.014871311569768
3.332,-0.005264325968145,-0.00849289876138,-0.012161052882002,0.009289770637723,0.014872177029313
3.336,-0.005263172022085,-0.008497947275394,-0.012161726017204,0.009291453475728,0.014866527501726
3.34,-0.005269350441617,-0.008511890790291,-0.012161004800916,0.009292847827218,0.014867825691044
3.344,-0.00526172958951,-0.008512395641692,-0.012157518922192,0.009288376286234,0.014875807151295
3.348,-0.005270384184963,-0.008511530182147,-0.012153167583923,0.009285443339997,0.014876432205411
3.352,-0.005290602281563,-0.008505616208587,-0.01215174919189,0.009283520096563,0.014879389192191
3.356,-0.00529411220083,-0.008491576531519,-0.012152999300122,0.00928070735304,0.014878571813731
3.36,-0.005301107998821,-0.008463376974667,-0.012153191624466,0.009276572379657,0.014881552841054
3.364,-0.005303512053114,-0.008482393044121,-0.012153071421751,0.009270418000668,0.014873980070032
3.368,-0.005293871795401,-0.008497298180735,-0.012152975259579,0.009271019014242,0.014874268556547
3.372,-0.005292982295312,-0.008511121492917,-0.012154153246183,0.009307368315145,0.014875230178264
3.376,-0.00529468917386,-0.008519054872082,-0.012154225367811,0.00934669864337,0.014868691150589
3.38,-0.005291924511424,-0.00850424589764,-0.012153984962382,0.009375427092166,0.014867777609958
3.384,-0.005282765064569,-0.008505159438271,-0.012153648394781,0.009388384944803,0.014869797015563
3.388,-0.005282861226741,-0.008518093250365,-0.012146772799505,0.009392135269499,0.014871624096826
3.392,-0.005296299890236,-0.00851641041236,-0.012146460272447,0.009382735417215,0.014876384124325
3.396,-0.005292573606083,-0.008505423884244,-0.012155547597672,0.009370017970008,0.014879124746218
3.4,-0.005291611984366,-0.008495086450786,-0.012157927611422,0.009346554400113,0.014875590786408
3.404,-0.00528605861895,-0.008495663423816,-0.012154802340842,0.009324220735735,0.014873403097002
3.408,-0.005280361010277,-0.008496985653677,-0.012147974826651,0.009311887937215,0.014875470583694
3.412,-0.005280072523762,-0.008498956978197,-0.012144873596614,0.009296982800601,0.014871407731939
3.416,-0.005283342037599,-0.008478426354539,-0.012143767731639,0.009288953259264,0.014869412366877
3.42,-0.005276153915265,-0.008481431422404,-0.012147878664479,0.009290708218897,0.014872345313113
3.424,-0.005263917278916,-0.008512227357891,-0.01215232616492,0.009291958327129,0.014868474785702
3.428,-0.005285217199948,-0.008524632278041,-0.012149080691625,0.009293545002963,0.01487215298877
3.432,-0.005290962889707,-0.008522997521122,-0.01214977786737,0.009296093300513,0.014874845529578
3.436,-0.005287428929897,-0.008487826206822,-0.012152350205463,0.009294891273366,0.014874773407949
3.44,-0.005285842254064,-0.008496697167162,-0.012152302124377,0.009287366583431,0.014874508961977
3.444,-0.005287501051525,-0.008507755816907,-0.012153576273152,0.009285707785969,0.014875230178264
3.448,-0.005288102065099,-0.008474147137898,-0.012153840719125,0.009290852462155,0.01488119223291
3.452,-0.005286539429808,-0.008480085152,-0.012150138475514,0.009287847394289,0.014886649436154
3.456,-0.005281082226564,-0.008543239658265,-0.0121500182728,0.009282173826159,0.014878283327216
3.46,-0.00526658577918,-0.008549153631825,-0.012152638691978,0.00928407302905,0.014874797448492
3.464,-0.005245021412176,-0.008542590563606,-0.012153119502837,0.009286597286057,0.01487198470497
3.468,-0.00527718765861,-0.008538119022622,-0.012152061718948,0.00928621263737,0.014869748934478
3.472,-0.005289544497674,-0.008532373332863,-0.012152302124377,0.009285275056196,0.014868498826245
3.476,-0.005276322199065,-0.008526940170162,-0.012152085759491,0.009284914448052,0.014869965299364
3.48,-0.005275793307121,-0.008514967979785,-0.012151316462117,0.009284505758823,0.014872705921257
3.484,-0.005274422996174,-0.008486888625648,-0.012152782935236,0.009283159488419,0.014869532569591
3.488,-0.005270672671478,-0.008499630113399,-0.012154225367811,0.009282149785616,0.014867032353127
3.492,-0.005269061955102,-0.008511986952462,-0.012152710813607,0.009281789177472,0.014872802083429
3.496,-0.005270840955278,-0.008524488034783,-0.012149729786284,0.00928251039376,0.014875350380979
3.5,-0.005264181724888,-0.008534440819554,-0.012145715015616,0.009282029582901,0.014864411933948
3.504,-0.005260575643449,-0.008517612439507,-0.01214665259679,0.009283472015477,0.014866695785526
3.508,-0.005274182590745,-0.008497634748336,-0.01215372051641,0.00928563566434,0.014871239448139
3.512,-0.00527447107726,-0.00852331004818,-0.012156196692331,0.009280803515212,0.014868138218102
3.516,-0.005272307428397,-0.008523911061753,-0.012155235070614,0.009279986136753,0.014865902447609
3.52,-0.00527759634784,-0.008519006790996,-0.012151917475691,0.009281043920641,0.014867609326157
3.524,-0.005278197361413,-0.008520737710087,-0.012150955853974,0.00928604435357,0.014873427137545
3.528,-0.005267787806327,-0.00853703719819,-0.012150378880943,0.00928407302905,0.014874316637633
3.532,-0.005254108737402,-0.008536003454845,-0.012150883732345,0.009281789177472,0.01487626392161
3.536,-0.005248699615244,-0.008529368264997,-0.012153023340665,0.009280875636841,0.014865782244895
3.54,-0.005285842254064,-0.008534176373582,-0.012153263746094,0.009285755867055,0.014867008312584
3.544,-0.005285842254064,-0.008502226492035,-0.012152109800034,0.009282991204618,0.014868354582988
3.548,-0.005278557969557,-0.008499341626884,-0.012151003935059,0.0092815247315,0.014860926055224
3.552,-0.005274951888118,-0.008538695995652,-0.012152422327092,0.009285539502168,0.014868739231675
3.556,-0.005268460941529,-0.008539345090311,-0.012154369611069,0.009284601920994,0.014864411933948
3.56,-0.005264686576289,-0.008538407509137,-0.012155211030071,0.009286116475199,0.014867008312584
3.564,-0.005263484549143,-0.008534777387155,-0.012155427394958,0.009286957894201,0.014869292164162
3.568,-0.00526600880615,-0.008518309615252,-0.012157206395134,0.009289650435009,0.014872177029313
3.572,-0.005263003738285,-0.008519415480226,-0.012156990030248,0.009288616691663,0.014873907948404
3.576,-0.005251632561481,-0.008497466464535,-0.012155186989528,0.009287005975287,0.014876913016269
3.58,-0.005258844724358,-0.00851155422269,-0.012153888800211,0.009286765569858,0.01487429259709
3.584,-0.005275312496262,-0.008527589264821,-0.012151965556776,0.009288063759176,0.014878042921787
3.588,-0.005266874265696,-0.00855511568647,-0.012148744124024,0.009291766002786,0.014871864502255
3.592,-0.005256272386265,-0.008536652549504,-0.012147109367106,0.009275057825453,0.014864484055577
3.596,-0.005252113372339,-0.008521242561488,-0.012146941083305,0.009274240446994,0.014866623663897
3.6,-0.005261056454308,-0.008547278469477,-0.012148191191537,0.009286717488772,0.014870301866965
3.604,-0.005267619522526,-0.008550788388744,-0.012148022907737,0.009295059557167,0.014869244083076
3.608,-0.00526305181937,-0.008551076875259,-0.012146580475161,0.009298665638606,0.014872465515828
3.612,-0.005257017643096,-0.008551100915802,-0.012145546731815,0.009297295327659,0.014867344880185
3.616,-0.005249132345017,-0.008547783320878,-0.012144825515528,0.009294049854364,0.01486722467747
3.62,-0.005241872101053,-0.00853785457665,-0.012143984096525,0.009293809448935,0.014871383691396
3.624,-0.005251656602024,-0.008529897156942,-0.012140690542145,0.009293256516447,0.014871551975197
3.628,-0.005251271953337,-0.008520449223572,-0.012139728920428,0.009294482584137,0.014878259286673
3.632,-0.005247569709727,-0.0085203530614,-0.012142854191008,0.009295179759881,0.014873114610487
3.636,-0.005246031114979,-0.008529560589341,-0.012145402488558,0.009276380055314,0.014861647271512
3.64,-0.0052434106958,-0.008545307144957,-0.012144753393899,0.009271644068358,0.014866936190955
3.644,-0.005244684844576,-0.008558938132795,-0.01214328692078,0.009277245514859,0.014861503028254
3.648,-0.005239852695448,-0.008561582592517,-0.012142229136892,0.0092866213266,0.014865974569238
3.652,-0.005251897007453,-0.008553504970094,-0.012139849123142,0.009290419732382,0.014865541839466
3.656,-0.005261537265166,-0.008551798091546,-0.012138767298711,0.009292919948847,0.014865902447609
3.66,-0.005250598818135,-0.008540474995829,-0.012137276785049,0.009293761367849,0.014860445244365
3.664,-0.005241319168566,-0.008497370302364,-0.012131867662891,0.009291814083872,0.014866960231498
3.668,-0.005247281223211,-0.008513717871553,-0.012129583811313,0.00929270358396,0.014872633799629
3.672,-0.005257113805268,-0.00853472930607,-0.012134872730757,0.009289722556637,0.014877514029842
3.676,-0.005265047184433,-0.008534921630413,-0.012134968892928,0.00928777527266,0.01488160092214
3.68,-0.005261777670595,-0.008531676157118,-0.01212898279774,0.009282582515389,0.014864027285261
3.684,-0.005251512358766,-0.008515568993358,-0.012129511689684,0.009280587150326,0.014865325474579
3.688,-0.005249781439676,-0.008483210422581,-0.012136844055276,0.009282630596474,0.014867921853215
3.692,-0.005248074561128,-0.008490134098943,-0.012140642461059,0.009282798880275,0.014872898245601
3.696,-0.005240045019791,-0.00855372133498,-0.01213975296097,0.009281813218015,0.014870638434566
3.7,-0.005236775505953,-0.008568217782364,-0.012136723852562,0.009283880704707,0.014867368920728
3.704,-0.005241824019967,-0.008580959270115,-0.012134560203699,0.00928621263737,0.014865133150236
3.708,-0.005232207802797,-0.008564659782011,-0.012136892136362,0.009284938488595,0.01487075863728
3.712,-0.005228361315929,-0.00854886514531,-0.012136531528218,0.009283592218192,0.014866575582811
3.716,-0.005213360017144,-0.008539369130854,-0.012132997568408,0.009282630596474,0.01486821033973
3.72,-0.005200330042878,-0.008531676157118,-0.012135786271388,0.009281620893672,0.014876239881067
3.724,-0.005213961030717,-0.008516386371818,-0.012139728920428,0.009274673176766,0.014873234813202
3.728,-0.005248795777416,-0.008525738143015,-0.012140041447486,0.009270586284469,0.014861334744454
3.732,-0.005256031980836,-0.008550547983314,-0.012137228703963,0.00927741379866,0.014865638001637
3.736,-0.005246728290724,-0.008542013590576,-0.012133069690037,0.00928013038001,0.014865421636751
3.74,-0.005253459642743,-0.008525882386273,-0.012129030878826,0.009280394825982,0.014867609326157
3.744,-0.005253411561657,-0.008533695562724,-0.012122612053865,0.009277678244632,0.014865998609781
3.748,-0.005235453276092,-0.00853843154968,-0.012121169621289,0.009279024515036,0.01486845074516
3.752,-0.0052281209105,-0.008515184344671,-0.012122948621466,0.009279096636664,0.014872489556371
3.756,-0.005237520762784,-0.008532132927434,-0.012128670270682,0.009278832190692,0.014879749800334
3.76,-0.005236607222153,-0.008540763482344,-0.01213547374433,0.009277389758117,0.014882201935713
3.764,-0.005238987235902,-0.008545475428757,-0.012139440433912,0.009275706920112,0.014882682746571
3.768,-0.005235044586862,-0.008558793889538,-0.012138935582511,0.009269023649179,0.014877201502784
3.772,-0.005236414897809,-0.008545186942242,-0.012136916176905,0.009254262755823,0.014874028151118
3.776,-0.005245285858149,-0.008543407942066,-0.012137757595908,0.009260873905127,0.014871720258997
3.78,-0.005249949723476,-0.008522108021034,-0.01213900770414,0.009270778608812,0.014864628298834
3.784,-0.005243050087657,-0.008500447491858,-0.012138550933824,0.009273759636135,0.014870325907508
3.788,-0.005236799546496,-0.008508813600796,-0.012137252744506,0.009275730960655,0.014869893177735
3.792,-0.005228842126788,-0.008519030831539,-0.01213547374433,0.009270153554696,0.014868186299187
3.796,-0.005225452410235,-0.008534536981726,-0.012131603216919,0.009271884473787,0.014872032786055
3.8,-0.005242521195712,-0.008558625605737,-0.012130833919545,0.009276716622915,0.014857824825187
3.804,-0.005243458776886,-0.008559491065283,-0.012133598581982,0.009275057825453,0.014858497960389
3.808,-0.005236294695095,-0.008550307577885,-0.012134584244242,0.009275202068711,0.01487313865103
3.812,-0.005226822721182,-0.008538094982079,-0.012133358176552,0.0092714998251,0.01487313865103
3.816,-0.005218769139302,-0.008523622575238,-0.012129127040997,0.00926952850058,0.014859964433507
3.82,-0.005234708019262,-0.008522300345377,-0.012127203797563,0.009272052757587,0.01486664770444
3.824,-0.005250093966734,-0.008497706869965,-0.012130569473573,0.009269215973522,0.014874749367406
3.828,-0.005235717722064,-0.008520881953345,-0.012128261581452,0.009268614959949,0.014873739664603
3.832,-0.005222904112685,-0.008535378400729,-0.012119342540027,0.009266066662399,0.014876023516181
3.836,-0.00522475523449,-0.008530089481285,-0.012120905175317,0.009260393094269,0.014874821489035
3.84,-0.005231775073025,-0.008541821266232,-0.012131627257462,0.009262436540417,0.0148778265569
3.844,-0.005236078330208,-0.008530017359656,-0.012135786271388,0.009269240014065,0.014877634232557
3.848,-0.005227640099642,-0.008522204183205,-0.01213564202813,0.009269071730265,0.014876071597267
3.852,-0.005213335976601,-0.008526122791702,-0.01213761335265,0.009261282594357,0.014883836692632
3.856,-0.005228721924073,-0.008495350896758,-0.012139320231198,0.009253709823335,0.014890303598679
3.86,-0.005236054289665,-0.008484220125384,-0.012139320231198,0.009238420038035,0.01487354734026
3.864,-0.005246295560952,-0.008508573195367,-0.012136699812019,0.00923558325397,0.014876384124325
3.868,-0.005242064425397,-0.008515040101414,-0.012133045649494,0.00924890171475,0.014876648570297
3.872,-0.005240982600965,-0.008509679060341,-0.012129944419457,0.00925596963437,0.014872465515828
3.876,-0.005240670073907,-0.008511890790291,-0.012127107635392,0.009258421769749,0.014876119678353
3.88,-0.005239684411647,-0.008515304547386,-0.012126194094761,0.009260465215897,0.014871768340083
3.884,-0.005240189263048,-0.008508452992652,-0.012124342972955,0.009262003810645,0.014870157623707
3.888,-0.005234395492204,-0.008508452992652,-0.012121025378032,0.009265441608283,0.01487667261084
3.892,-0.005225452410235,-0.008505399843701,-0.01211797222908,0.009272749933332,0.014871455813025
3.896,-0.005230957694565,-0.008474339462241,-0.012115087363929,0.009273374987448,0.014873787745689
3.9,-0.005235453276092,-0.008481239098061,-0.012110471579687,0.009269504460037,0.014880951827481
3.904,-0.005228361315929,-0.008508813600796,-0.012100663038174,0.009267821622033,0.014870686515652
3.908,-0.005224082099289,-0.008520497304658,-0.012096119375561,0.009266667675972,0.014873018448315
3.912,-0.005222375220741,-0.00850210628932,-0.012102610322151,0.0092665715138,0.014872874205058
3.916,-0.005197853866957,-0.008503043870494,-0.012103307497896,0.009270754568269,0.014874749367406
3.92,-0.005208455746387,-0.008499317586341,-0.012100759200346,0.009272990338761,0.014879124746218
3.924,-0.00524538202032,-0.008506481668132,-0.012104918214272,0.009271980635959,0.014879461313819
3.928,-0.005237352478983,-0.008511193614546,-0.012109702282314,0.009270321838497,0.01487001338045
3.932,-0.005229635464704,-0.008504029532754,-0.01210777903888,0.009269889108724,0.014860132717307
3.936,-0.005217807517585,-0.008494533518298,-0.012099989902972,0.009267172527374,0.014863642636575
3.94,-0.005220211571878,-0.008460540190602,-0.012097682010851,0.009264479986566,0.014872104907684
3.944,-0.00521949035559,-0.008440129769659,-0.012098859997455,0.009267268689545,0.01487313865103
3.948,-0.005217735395956,-0.008484676895699,-0.012097056956735,0.009271259419671,0.014872177029313
3.952,-0.005224803315576,-0.008501505275747,-0.012093883605069,0.009269215973522,0.014868354582988
3.956,-0.005225380288607,-0.008494942207528,-0.012092200767064,0.009272148919759,0.014873451178088
3.96,-0.005212302233255,-0.008480421719601,-0.012090181361459,0.009272918217133,0.014874508961977
3.964,-0.005196579718182,-0.008499582032313,-0.012087296496308,0.009276187730971,0.014867945893758
3.968,-0.005230957694565,-0.008507635614193,-0.012086046388075,0.009278760069064,0.014872321272571
3.972,-0.005252161453425,-0.008486359733704,-0.012084964563644,0.009277437839203,0.014878547773188
3.976,-0.005225909180551,-0.008487826206822,-0.012083954860841,0.009277798447347,0.014878427570474
3.98,-0.005212855165742,-0.008499702235027,-0.012082440306637,0.009274721257852,0.014876239881067
3.984,-0.005220692382736,-0.008463833744983,-0.012077608157509,0.009276067528256,0.014869412366877
3.988,-0.005227567978013,-0.008454554095414,-0.012070203670288,0.009272918217133,0.014881480719425
3.992,-0.005231847194653,-0.008489172477226,-0.012073881873355,0.009266956162487,0.014882634665485
3.996,-0.005220692382736,-0.008508717438624,-0.012081791211978,0.009259479553637,0.014868522866788
4,-0.005216701652611,-0.008500760018916,-0.012082921117495,0.00926640323,0.014870301866965
4.004,-0.005209705854619,-0.008504462262527,-0.012080204536145,0.009271620027815,0.014873859867318
4.008,-0.005209249084304,-0.008495398977844,-0.012073737630098,0.009275274190339,0.014877033218984
4.012,-0.005211869503483,-0.008484220125384,-0.012077728360223,0.009277894609518,0.014878980502961
4.016,-0.005207758570642,-0.008515328587929,-0.012083377887811,0.009275129947082,0.014877850597443
4.02,-0.005207013313812,-0.008530305846171,-0.012084964563644,0.009271283460214,0.014879605557077
4.024,-0.005200570448308,-0.008527276737763,-0.012085445374502,0.009260849864584,0.014883067395258
4.028,-0.005198719326502,-0.008517564358421,-0.01208304132021,0.009255609026226,0.014880110408478
4.032,-0.00520083489428,-0.008509198249483,-0.012076069562761,0.009258397729206,0.014879966165221
4.036,-0.005196772042525,-0.008509366533283,-0.012073136616525,0.009269552541123,0.014885735895523
4.04,-0.005196772042525,-0.008515544952815,-0.012074530968014,0.009288472448405,0.014877754435272
4.044,-0.00520256581337,-0.008511217655089,-0.012075444508645,0.009324148614106,0.014872874205058
4.048,-0.005222639666713,-0.008510929168574,-0.012075011778873,0.00936518582088,0.014869532569591
4.052,-0.005220139450249,-0.008505784492388,-0.012073088535439,0.009382975822645,0.014876287962153
4.056,-0.005210258787107,-0.008476070381332,-0.012068929521513,0.009381317025183,0.014878764138075
4.06,-0.005220788544908,-0.008469507313113,-0.012069867102687,0.009374898200222,0.014874196434919
4.064,-0.005231366383795,-0.00850424589764,-0.012073208738153,0.009362324996272,0.014869652772306
4.068,-0.005228433437558,-0.008497827072679,-0.012071093170376,0.009340183656238,0.014872417434742
4.072,-0.005224226342546,-0.00846734366425,-0.012065299399531,0.009314171788792,0.014874797448492
4.076,-0.00521497073352,-0.008514030398611,-0.012069602656715,0.009298016543947,0.014873667542974
4.08,-0.005202998543143,-0.008552952037607,-0.012080685347003,0.009288544570034,0.014878403529931
4.084,-0.005201844597083,-0.008544706131384,-0.012085974266447,0.009270490122297,0.014872104907684
4.088,-0.005204633300062,-0.008537950738822,-0.012086334874591,0.009256402364143,0.014874677245777
4.092,-0.00521537942275,-0.008537061238733,-0.012087200334136,0.009268566878863,0.014869580650677
4.096,-0.005220139450249,-0.008515568993358,-0.012088378320739,0.009279337042094,0.0148676333667
4.1,-0.005214850530805,-0.008514895858156,-0.012087873469338,0.009278447542005,0.01487354734026
4.104,-0.005198262556187,-0.00851780476385,-0.012084243347356,0.009279361082637,0.014879677678706
4.108,-0.005196171028952,-0.008518574061224,-0.012084002941927,0.009276957028344,0.014875951394552
4.112,-0.005209273124847,-0.008516314250189,-0.012086911847621,0.009274577014595,0.014872826123972
4.116,-0.005206027651552,-0.008510784925316,-0.012087584982823,0.009276163690428,0.014878187165044
4.12,-0.005201652272739,-0.008519992453256,-0.012087344577393,0.009274697217309,0.014877321705499
4.124,-0.005196675880354,-0.008513237060694,-0.01208599830699,0.009268037986919,0.014883476084488
4.128,-0.005199945394192,-0.008508645316996,-0.012082921117495,0.009269264054608,0.014868979637104
4.132,-0.00519196393394,-0.00847186328632,-0.012088089834224,0.009271187298042,0.014861478987711
4.136,-0.00517963113542,-0.008480469800687,-0.012095975132304,0.009270850730441,0.014861214541739
4.14,-0.005210186665478,-0.008540450955286,-0.0120998937408,0.009271403662928,0.0148674650829
4.144,-0.005215788111979,-0.008549922929198,-0.012098787875826,0.009274144284822,0.01486647942064
4.148,-0.00519393525846,-0.008550860510372,-0.012097898375738,0.009271595987272,0.014871648137369
4.152,-0.005188790582274,-0.008548192010108,-0.012101264051747,0.009270730527726,0.014865902447609
4.156,-0.005210210706021,-0.008547206347848,-0.012105447106216,0.009275250149796,0.014877634232557
4.16,-0.005210090503306,-0.008541292374288,-0.012108307930824,0.009278928352864,0.01487116732651
4.164,-0.005201892678169,-0.008539609536283,-0.012109437836342,0.009278423501463,0.014867176596385
4.168,-0.005197925988586,-0.008541773185147,-0.012108019444309,0.00928037078544,0.0148778265569
4.172,-0.005198502961616,-0.008528478764909,-0.012105951957618,0.009274793379481,0.014872585718543
4.176,-0.005192180298827,-0.008501457194661,-0.012104076795269,0.009272341244102,0.014867368920728
4.18,-0.005204104408118,-0.00850095234326,-0.012102514159979,0.009284722123709,0.014864484055577
4.184,-0.00520535451635,-0.008502563059636,-0.012099509092114,0.009291381354099,0.014870470150765
4.188,-0.005201267624052,-0.008535210116928,-0.012096263618819,0.009289818718809,0.014879100705675
4.192,-0.005198983772475,-0.008565380998299,-0.012095422199816,0.009287126178002,0.014875422502608
4.196,-0.005199416502247,-0.008555332051356,-0.012095903010675,0.00928111604227,0.014867368920728
4.2,-0.005197421137184,-0.008535979414302,-0.012096864632392,0.009280394825982,0.014866359217925
4.204,-0.005194608393662,-0.008517876885479,-0.012096335740447,0.009285683745426,0.014863883042004
4.208,-0.005199152056275,-0.00855100475363,-0.012097441605422,0.009285034650767,0.014870109542621
4.212,-0.005200786813194,-0.008543960874553,-0.012101071727404,0.009282726758646,0.014874797448492
4.216,-0.005191170596024,-0.008546028361244,-0.012101841024777,0.009282269988331,0.014873667542974
4.22,-0.005174726864663,-0.008556389835245,-0.012096624226963,0.009268831324835,0.01487198470497
4.224,-0.005183597825002,-0.008544970577356,-0.012092032483264,0.00926640323,0.014874605124148
4.228,-0.005206484421867,-0.00854862473988,-0.012100494754373,0.009274721257852,0.014872297232028
4.232,-0.00521513901732,-0.00855018737517,-0.012111024512175,0.009280226542182,0.014869797015563
4.236,-0.005213528300944,-0.008545643712558,-0.0121148469585,0.00928267867756,0.014872850164515
4.24,-0.005192925555657,-0.008541364495917,-0.012117154850621,0.009284097069593,0.014877057259527
4.244,-0.005174750905206,-0.008524151467182,-0.012118645364282,0.009282967164075,0.01487551866478
4.248,-0.005198839529217,-0.008514823736527,-0.012120544567173,0.009282871001904,0.01487881221916
4.252,-0.00520946544919,-0.008547687158706,-0.012122876499837,0.009280346744897,0.014883043354715
4.256,-0.005201508029482,-0.008558000551621,-0.012125184391958,0.009286092434656,0.014886048422581
4.26,-0.005198022150758,-0.00855199041589,-0.01212782885168,0.009284938488595,0.014885255084664
4.264,-0.005199921353649,-0.008536556387332,-0.012127756730051,0.009277485920288,0.014878547773188
4.268,-0.005202133083598,-0.008513814033725,-0.012125496919016,0.009281596853129,0.014871600056283
4.272,-0.005194295866604,-0.008501024464888,-0.012121746594319,0.00928719829963,0.01487354734026
4.276,-0.005186170163095,-0.008530185643457,-0.012119823350885,0.009283231610048,0.01487626392161
4.28,-0.005179895581392,-0.008562375930434,-0.012120183959029,0.009287727191575,0.014873739664603
4.284,-0.005182684284371,-0.008556245591988,-0.012121722553777,0.009296958760058,0.014872321272571
4.288,-0.005184679649434,-0.008539056603796,-0.012123333270152,0.009296189462684,0.014875085935007
4.292,-0.00518119377071,-0.008558841970624,-0.01212330922961,0.00929229489473,0.014879437273276
4.296,-0.005176626067554,-0.008546196645045,-0.012117539499308,0.0092917179217,0.01487905262459
4.3,-0.005174270094347,-0.008537686292849,-0.012107899241594,0.009295732692369,0.014880927786938
4.304,-0.005180953365281,-0.008512035033548,-0.012108884903854,0.009298641598063,0.014882442341142
4.308,-0.005178982040761,-0.008517251831363,-0.012115520093702,0.009297343408745,0.014881240313996
4.312,-0.005181073567995,-0.008536099617016,-0.012117299093878,0.00929549228694,0.014880374854451
4.316,-0.005179270527276,-0.008563866444095,-0.012120015675229,0.009295059557167,0.014876600489211
4.32,-0.005199464583333,-0.008566078174044,-0.012125665202816,0.00929566057074,0.014876864935183
4.324,-0.005198214475101,-0.008557736105649,-0.012129078959912,0.009297944422318,0.014876961097355
4.328,-0.005179703257049,-0.008541749144604,-0.012130665635745,0.009300685044211,0.014874797448492
4.332,-0.005176914554069,-0.008535666887244,-0.01213169937909,0.009296574111371,0.014877153421699
4.336,-0.005193286163801,-0.008531796359833,-0.012131555135833,0.009282871001904,0.014880831624766
4.34,-0.00519492092072,-0.008538143063165,-0.012130689676288,0.009286068394113,0.014880951827481
4.344,-0.005191266758196,-0.008566775349789,-0.012128117338195,0.009292487219074,0.014877994840701
4.348,-0.005190208974307,-0.008566510903817,-0.012127107635392,0.00929582885454,0.01487527825935
4.352,-0.005182467919485,-0.008562159565547,-0.012129247243712,0.009296982800601,0.014872874205058
4.356,-0.005180881243652,-0.008566486863274,-0.012131074324974,0.00929450662468,0.014863017582458
4.36,-0.005187636636214,-0.008571198809687,-0.012131771500719,0.009296790476257,0.014874052191661
4.364,-0.005189199271504,-0.008568386066165,-0.012132733122436,0.009292487219074,0.014875398462065
4.368,-0.005171481391368,-0.008560380565371,-0.012133766865782,0.009294386421965,0.014872441475285
4.372,-0.005153619267975,-0.008547350591105,-0.012135569906501,0.009293448840791,0.014879148786761
4.376,-0.005152128754313,-0.008540234590399,-0.012136916176905,0.009291453475728,0.01488003828685
4.38,-0.005151263294768,-0.008534921630413,-0.012136603649847,0.009290251448582,0.014879509394905
4.384,-0.005149820862192,-0.008519896291085,-0.012132781203522,0.009292415097445,0.01487724958387
4.388,-0.00516878885056,-0.008545355226043,-0.012128069257109,0.009294338340879,0.014882826989829
4.392,-0.005165759742152,-0.008566871511961,-0.012127900973308,0.009293424800248,0.01487650432704
4.396,-0.005151046929882,-0.008563337552151,-0.012133742825239,0.009291766002786,0.014877850597443
4.4,-0.005161600728226,-0.008559803592341,-0.012138142244594,0.009286525164428,0.01487568694858
4.404,-0.005169798553363,-0.008547134226219,-0.012137998001337,0.009281548772043,0.014884413665662
4.408,-0.005161023755196,-0.008539152765968,-0.012135521825416,0.009285731826512,0.014886072463124
4.412,-0.005165976107038,-0.008554995483756,-0.012131987865606,0.009291501556814,0.014872898245601
4.416,-0.005166817526041,-0.008528791291967,-0.012132372514292,0.00929270358396,0.014872826123972
4.42,-0.0051574417143,-0.008500423451315,-0.012138310528395,0.009290852462155,0.014883283760144
4.424,-0.005141791320855,-0.008545715834186,-0.012141892569291,0.009286885772572,0.014871215407596
4.428,-0.005149147726991,-0.00857336245855,-0.01214057033943,0.009288736894378,0.014874821489035
4.432,-0.005175568283665,-0.008571439215116,-0.012137805676993,0.009290684178354,0.014873739664603
4.436,-0.005169846634449,-0.008572593161177,-0.012136795974191,0.009287919515918,0.014876480286497
4.44,-0.005169461985762,-0.008565933930787,-0.012138382650024,0.009287510826688,0.014880951827481
4.444,-0.005168139755901,-0.008552591429463,-0.012140041447486,0.009283688380363,0.014878283327216
4.448,-0.005163067201344,-0.008547975645221,-0.012143647528924,0.009273110541476,0.014877105340613
4.452,-0.005162874877001,-0.008566102214587,-0.012147013204934,0.009277918650061,0.014882490422228
4.456,-0.005164485593377,-0.008536772752218,-0.012146364110275,0.009289217705236,0.014883259719602
4.46,-0.005159437079363,-0.008544585928669,-0.012140954988117,0.009298184827747,0.014878042921787
4.464,-0.00513796887453,-0.008558409240851,-0.012136771933648,0.00929763189526,0.014878908381332
4.468,-0.005151599862369,-0.008555764781129,-0.012139849123142,0.009295179759881,0.014883452043945
4.472,-0.005170062999335,-0.008550692226572,-0.01214352732621,0.009298593516977,0.014883524165574
4.476,-0.005173572918603,-0.008546388969388,-0.012149705745742,0.009297944422318,0.014884966598149
4.48,-0.005173669080774,-0.008541196212116,-0.012156797705904,0.009297607854717,0.014870614394023
4.484,-0.005167586823414,-0.008547927564136,-0.012160163381914,0.009295756732912,0.014872273191485
4.488,-0.005162682552657,-0.008557159132619,-0.012162447233492,0.009296790476257,0.014879605557077
4.492,-0.005158162930587,-0.008546220685588,-0.012160956719831,0.009296622192457,0.014880110408478
4.496,-0.005153763511232,-0.008502635181264,-0.012157470841106,0.009297944422318,0.0148825865844
4.5,-0.005141935564113,-0.008521026196602,-0.012151845354062,0.009299242611636,0.014877393827128
4.504,-0.005152465321914,-0.00853727760362,-0.012148287353709,0.009297992503404,0.014866142853039
4.508,-0.005159605363163,-0.008563049065635,-0.012146941083305,0.009297704016889,0.014864123447433
4.512,-0.005172178567113,-0.008593099744292,-0.012144008137068,0.009297896341232,0.01486861902896
4.516,-0.00516525489075,-0.00859045528457,-0.012142277217978,0.009299290692722,0.014872633799629
4.52,-0.005161288201168,-0.008575357823613,-0.012139488514998,0.009304940220309,0.014877489989299
4.524,-0.005153955835576,-0.008573242255836,-0.012136675771476,0.009302199598416,0.014871047123795
4.528,-0.005151696024541,-0.008558457321937,-0.012141291555718,0.009301430301042,0.01486902771819
4.532,-0.005147200443014,-0.008556485997417,-0.012146147745389,0.009301959192986,0.014869340245248
4.536,-0.005148258226902,-0.008563962606267,-0.012147974826651,0.009300396557696,0.014870878839995
4.54,-0.005160278498365,-0.00856982849874,-0.01214879220511,0.009298930084578,0.014878115043416
4.544,-0.005158715863075,-0.008550644145486,-0.012149273015969,0.009294987435538,0.014875398462065
4.548,-0.005165639539437,-0.008545355226043,-0.012149537461941,0.009294458543594,0.014868594988417
4.552,-0.005162009417456,-0.008551365361774,-0.012146099664303,0.00929623754377,0.014874941691749
4.556,-0.005143979010262,-0.008551629807746,-0.012138310528395,0.009296622192457,0.014879701719249
4.56,-0.005152633605715,-0.008563890484638,-0.01213703637962,0.009295780773455,0.014880999908567
4.564,-0.005161192038996,-0.008563385633236,-0.012137421028307,0.009300324436067,0.014880855665309
4.568,-0.005169341783048,-0.00854648513156,-0.012137877798622,0.00930486809868,0.01487806696233
4.572,-0.005172947864487,-0.00852823835948,-0.012138238406766,0.009308305896319,0.014876624529754
4.576,-0.005165903985409,-0.008521290642574,-0.012132709081893,0.00930469981488,0.014870325907508
4.58,-0.005160855471395,-0.008566727268703,-0.012128742392311,0.009294554705765,0.014873499259174
4.584,-0.005161624768769,-0.00857985340514,-0.012125064189243,0.009284553839909,0.014870950961624
4.588,-0.005164173066319,-0.008565837768615,-0.012121770634862,0.009290612056726,0.014880374854451
4.592,-0.005164798120435,-0.008581896851289,-0.012124968027071,0.009298497354805,0.014873980070032
4.596,-0.005159437079363,-0.008573723066694,-0.012130689676288,0.009306767301571,0.014871720258997
4.6,-0.00514683983487,-0.008563049065635,-0.012135521825416,0.009306382652885,0.014875398462065
4.604,-0.005150037227079,-0.008567953336392,-0.012138286487852,0.009302127476787,0.014877802516357
4.608,-0.005147609132243,-0.008572665282806,-0.012137998001337,0.009301790909186,0.014876744732469
4.612,-0.005149484294591,-0.008573626904523,-0.012138046082423,0.009301983233529,0.014881624962683
4.616,-0.005151744105626,-0.008572665282806,-0.012138935582511,0.009305829720397,0.014869171961447
4.62,-0.005154701092406,-0.008567785052592,-0.012137276785049,0.009308257815233,0.014871624096826
4.624,-0.005151311375854,-0.008557880348907,-0.012135377582158,0.009307608720574,0.014878355448845
4.628,-0.005138642009732,-0.008544465725954,-0.012134800609128,0.009306190328541,0.014874869570121
4.632,-0.00513426663092,-0.008562808660206,-0.012134440000984,0.009303906476963,0.014888981368818
4.636,-0.005152152794856,-0.008582377662147,-0.012135978595731,0.009305252747367,0.014878716056989
4.64,-0.00516862056676,-0.008584060500152,-0.012134776568585,0.009310060855952,0.014875061894464
4.644,-0.005169534107391,-0.008573386499093,-0.01213136281149,0.009316095032226,0.014877297664956
4.648,-0.005166697323326,-0.008574708728954,-0.012134175555012,0.009312056221015,0.01487412431329
4.652,-0.005158211011673,-0.008572184471947,-0.012138478812195,0.009310060855952,0.0148727299618
4.656,-0.00514133455054,-0.008576127120987,-0.012139320231198,0.009315614221368,0.01487724958387
4.66,-0.005137536144758,-0.008582185337804,-0.012138358609481,0.009313474613048,0.014878667975903
4.664,-0.005160086174022,-0.008576535810217,-0.0121348967713,0.009312200464273,0.014873763705146
4.668,-0.005150926727167,-0.0085505960644,-0.012130112703257,0.009315037248338,0.014869965299364
4.672,-0.005139459388192,-0.008538455590223,-0.012130016541086,0.009312537031874,0.014876744732469
4.676,-0.005147801456587,-0.008548817064224,-0.0121350650551,0.009314917045623,0.014876792813555
4.68,-0.00516624055301,-0.008560813295143,-0.01213958467717,0.009315854626797,0.01487667261084
4.684,-0.005159821728049,-0.00857319417475,-0.012142349339606,0.009317297059373,0.014880903746395
4.688,-0.005150734402824,-0.008604711326525,-0.012143455204581,0.009314989167252,0.014881793246483
4.692,-0.005143858807547,-0.008609014583709,-0.012142974393722,0.009305589314968,0.014874508961977
4.696,-0.005144363658948,-0.008596585623016,-0.012142806109922,0.009298857962949,0.014882081732998
4.7,-0.005148113983645,-0.008587089608561,-0.012142084893634,0.009305324868996,0.01488883712556
4.704,-0.005146815794327,-0.008587209811275,-0.012140594379973,0.009306935585372,0.01488374053046
4.708,-0.005150301673051,-0.008577521472477,-0.012138286487852,0.009302031314615,0.014888981368818
4.712,-0.005150566119023,-0.008542710766321,-0.012137396987764,0.009296453908657,0.014884125179147
4.716,-0.005144820429264,-0.008565284836128,-0.012137685474279,0.009284433637194,0.01488061525988
4.72,-0.005141358591083,-0.008589421541225,-0.012137060420163,0.009288929218721,0.014886961963212
4.724,-0.005144363658948,-0.008608581853936,-0.01213917598794,0.009306166287998,0.014884605990005
4.728,-0.005152801889515,-0.00860343717775,-0.012140137609657,0.009335423628738,0.014872585718543
4.732,-0.005141815361398,-0.008563073106178,-0.012136795974191,0.009369657361864,0.014875975435095
4.736,-0.005147344686271,-0.008581055432287,-0.012136964257991,0.009399082986404,0.01487667261084
4.74,-0.00516722621527,-0.008590094676426,-0.012139873163685,0.009414613177134,0.014880567178794
4.744,-0.005160711228138,-0.008594830663383,-0.012146700677876,0.009417954812601,0.014880927786938
4.748,-0.005141166266739,-0.00860360546155,-0.0121503548404,0.009413026501301,0.014872345313113
4.752,-0.005144940631979,-0.008601033123457,-0.012148311394252,0.009401895729927,0.014873379056459
4.756,-0.005149147726991,-0.008591657311717,-0.012142637826121,0.009381893998213,0.01487510997555
4.76,-0.005150782483909,-0.008583579689294,-0.012141796407119,0.009355353238823,0.014872826123972
4.764,-0.005137295739328,-0.008578915823966,-0.012144729353356,0.009337322831629,0.014878283327216
4.768,-0.005134242590377,-0.008582041094546,-0.012147157448191,0.009324172654649,0.014885255084664
4.772,-0.005146479226726,-0.00859439793361,-0.012151508786461,0.009306070125827,0.014878355448845
4.776,-0.005138593928646,-0.008573314377465,-0.012154922543556,0.009303906476963,0.014878475651559
4.78,-0.005139243023305,-0.008553865578238,-0.012153504151524,0.009311743693957,0.014881168192367
4.784,-0.005142175969542,-0.008591152460315,-0.012154994665185,0.009310325301924,0.014882610624943
4.788,-0.005151431578568,-0.008607740434934,-0.012155042746271,0.009309315599122,0.014885423368465
4.792,-0.00514897944319,-0.008580454418713,-0.012155162948986,0.009310277220839,0.014885952260409
4.796,-0.005143041429087,-0.008585791419243,-0.012157542962735,0.009325038114195,0.014868883474932
4.8,-0.005139892117964,-0.008572160431404,-0.012158600746624,0.009334870696251,0.014869821056106
4.804,-0.00513640623924,-0.008580117851112,-0.012157567003278,0.009327850857717,0.014875951394552
4.808,-0.005138089077245,-0.008593869041666,-0.012154105165097,0.009312729356217,0.014881480719425
4.812,-0.005153571186889,-0.00861305339492,-0.012150715448544,0.009317056653943,0.014878692016446
4.816,-0.005151671983998,-0.00862464093661,-0.012150426962029,0.009322201330129,0.01486549375838
4.82,-0.005138882415161,-0.008618606760336,-0.012147542096878,0.009325086195281,0.014869051758733
4.824,-0.005132535711829,-0.008608028921449,-0.012145114002043,0.00932631226297,0.014878499692102
4.828,-0.005146238821297,-0.008597114514961,-0.012145690975073,0.009324677506051,0.014877754435272
4.832,-0.005145205077951,-0.008587882946477,-0.01214682088059,0.009326143979169,0.014878018881244
4.836,-0.00513977191525,-0.0085655492821,-0.012144296623583,0.009329677938979,0.014878331408302
4.84,-0.005133954103862,-0.008595672082385,-0.012141003069203,0.009330807844497,0.014873475218631
4.844,-0.005120948170139,-0.008620145355083,-0.012140642461059,0.009330807844497,0.014872225110399
4.848,-0.005126741940984,-0.008610336813569,-0.012141315596261,0.009327201763058,0.014877033218984
4.852,-0.005138473725932,-0.008603821826437,-0.012143887934354,0.009319653032579,0.014868258420816
4.856,-0.005135108049922,-0.008605095975212,-0.0121501865566,0.009320133843438,0.014877369786585
4.86,-0.005133617536261,-0.008565453119928,-0.012151508786461,0.009328019141517,0.014880350813908
4.864,-0.005153450984174,-0.008536340022446,-0.012148503718595,0.009331144412098,0.014871960664427
4.868,-0.00515095076771,-0.008555163767556,-0.012147157448191,0.009330278952552,0.014874677245777
4.872,-0.005145325280665,-0.00860442284001,-0.012147950786108,0.009323042749132,0.014879148786761
4.876,-0.005143810726461,-0.008633415734778,-0.012150090394428,0.009323259114018,0.014876480286497
4.88,-0.005142993348002,-0.0086363967621,-0.012150955853974,0.009326192060255,0.014876312002696
