time,channel1,channel2,channel3,channel4,channel5
0,0.005610077056497,-0.016171568374423,-0.011844583174934,0.001668654084443,-0.000648445564323
0.004,0.005611206962014,-0.016167385319954,-0.011844511053305,0.001671490868508,-0.000676164310316
0.008,0.005616832449059,-0.016168058455156,-0.011845184188507,0.001669856111589,-0.000638276414666
0.012,0.005623876328136,-0.016167890171356,-0.011845953485881,0.001668245395213,-0.000596710315948
0.016,0.005619765395295,-0.016168803711987,-0.011846698742711,0.00167019267919,-0.000601013573132
0.02,0.005611375245815,-0.016166327536066,-0.011847155513027,0.001671250463078,-0.000610052817271
0.024,0.005606278650714,-0.01616784209027,-0.011847107431941,0.001667836705983,-0.000636184887431
0.028,0.005607961488719,-0.016170246144563,-0.011847131472484,0.001669567625074,-0.000566347110233
0.032,0.005606495015601,-0.01616998169859,-0.011847395918456,0.001670841773849,-0.000578848192554
0.036,0.005604716015424,-0.016170582712164,-0.011846939148141,0.001677741409668,-0.000589257747641
0.04,0.005603754393707,-0.016171736658224,-0.011846001566967,0.001679207882787,-0.000606134208775
0.044,0.005612577272961,-0.016172073225825,-0.011845015904707,0.001677501004239,-0.000538075431753
0.048,0.005615918908427,-0.016172986766456,-0.011845088026335,0.001677092315009,-0.000524131916857
0.052,0.005615341935397,-0.016169597049904,-0.011845184188507,0.001678270301613,-0.000530310336388
0.056,0.005620222165611,-0.016169188360674,-0.011846217931853,0.001672091882081,-0.000545239513545
0.06,0.005623804206507,-0.016168947955245,-0.01184602560751,0.001671298544164,-0.000504346550029
0.064,0.005619933679096,-0.016166543900952,-0.011844559134391,0.001674015125515,-0.00047797407444
0.068,0.005620029841268,-0.016167337238869,-0.011843717715389,0.001677092315009,-0.000490282832418
0.072,0.005624717747138,-0.016167072792896,-0.011843573472131,0.001678222220527,-0.000477108614895
0.076,0.005624116733565,-0.016168923914702,-0.011843525391045,0.001677404842067,-0.000473815060514
0.08,0.005623323395648,-0.016171279887908,-0.011843717715389,0.001681491734365,-0.000422248095939
0.084,0.005621664598187,-0.016172217469082,-0.011843741755932,0.001684713167117,-0.000444750044117
0.088,0.005617120935574,-0.016170125941848,-0.011843525391045,0.00168038586939,-0.000455544247891
0.092,0.00561733730046,-0.016166784306381,-0.011844318728962,0.001675217152661,-0.000464631573117
0.096,0.005618419124892,-0.016170198063477,-0.011845088026335,0.001674976747232,-0.000403280107571
0.1,0.005621303990043,-0.016170510590535,-0.011846145810224,0.001680506072105,-0.000389096187245
0.104,0.005623227233477,-0.016168803711987,-0.011846674702169,0.001684641045488,-0.000411742378681
0.108,0.005627097760888,-0.016169933617505,-0.011847251675199,0.001685987315892,-0.000420469095763
0.112,0.005629718180067,-0.016168202698414,-0.011847131472484,0.001679856977446,-0.000359333995104
0.116,0.005622337733388,-0.016167192995611,-0.011847131472484,0.001677765450211,-0.000343515317859
0.12,0.005614596678567,-0.01616570248195,-0.011847419958999,0.001675938368949,-0.000368445360873
0.124,0.005614284151509,-0.01616587076575,-0.011847323796828,0.001673197747055,-0.00036604130658
0.128,0.005616616084172,-0.016164644698061,-0.011847299756285,0.001674640179631,-0.000332937478972
0.132,0.005621808841444,-0.016163009941142,-0.011847828648229,0.00167314966597,-0.00030103567851
0.136,0.005620077922354,-0.016163394589829,-0.011848357540173,0.001672957341626,-0.000351304453767
0.14,0.00561971731421,-0.016164163887202,-0.011848838351032,0.001672524611854,-0.000334187587204
0.144,0.005619741354753,-0.0161631541844,-0.011850232702521,0.001667908827612,-0.00031106058491
0.148,0.005612577272961,-0.016164019643945,-0.011851194324239,0.001663605570428,-0.000275384419209
0.152,0.005609524124009,-0.016168539266015,-0.011851242405324,0.001660768786363,-0.000300987597424
0.156,0.005607528758947,-0.01616923644176,-0.011851963621612,0.001669279138559,-0.00028887116379
0.16,0.005603802474793,-0.016168779671444,-0.011851891499983,0.001675601801348,-0.000285601649952
0.164,0.005606206529086,-0.016165606319778,-0.011851506851297,0.001670553287334,-0.000248771538191
0.168,0.005620366408869,-0.016166231373894,-0.011851963621612,0.001666274070693,-0.000246559808242
0.172,0.005635704275255,-0.016168034414613,-0.01185227614867,0.001669519543988,-0.000277067257214
0.176,0.00563854105932,-0.016167962292985,-0.011851843418897,0.001673870882257,-0.0002320874014
0.18,0.00563837277552,-0.016166952590182,-0.01185088179718,0.001679183842244,-0.000186722896901
0.184,0.005638204491719,-0.016165846725207,-0.011850184621436,0.001683390937256,-0.000203022385004
0.188,0.005636810140229,-0.016166880468553,-0.011849631688948,0.001682501437168,-0.00023881875342
0.192,0.005631521220786,-0.016168971995788,-0.011849054715918,0.001680457991019,-0.00018893462685
0.196,0.00562875655835,-0.016170270185106,-0.011848525823974,0.001679255963873,-0.000152296839432
0.2,0.005625919774284,-0.016165726522493,-0.011848309459087,0.001682597599339,-0.000134987648525
0.204,0.005625631287769,-0.016161831954539,-0.011847828648229,0.001684977613089,-0.00018910291065
0.208,0.005628444031291,-0.016161711751824,-0.011847804607686,0.001684472761687,-0.000150902487942
0.212,0.005625895733741,-0.016163634995258,-0.011846506418368,0.001686083478063,-0.00012508294484
0.216,0.00562851615292,-0.016163875400687,-0.011845881364252,0.001685193977975,-9.32532660070975E-05
0.22,0.005628564234006,-0.016163130143857,-0.011846434296739,0.001684160234629,-0.000143906689951
0.224,0.005625487044512,-0.016161904076168,-0.01184619389131,0.001682068707395,-0.000136718567616
0.228,0.005621568436015,-0.016162841657342,-0.011845256310136,0.001682501437168,-9.8133496220926E-05
0.232,0.005624020571393,-0.016163418630372,-0.011844583174934,0.00168293416694,-7.80356023354056E-05
0.236,0.00562555916614,-0.016163466711458,-0.011844559134391,0.001685867113177,-9.16185090881796E-05
0.24,0.005626064017542,-0.016164572576432,-0.011844030242447,0.001691156032621,0.000226149387298
0.244,0.005628155544776,-0.016165101468377,-0.011842804174758,0.00168803076204,0.000245766470325
0.248,0.005625463003969,-0.016166351576609,-0.011842948418015,0.001686035396978,0.000220523900253
0.252,0.005623539760535,-0.016162144481597,-0.011843549431588,0.001686396005121,0.000206171696127
0.256,0.005620558733212,-0.016162384887026,-0.011843260945073,0.001682381234453,0.000265022945208
0.26,0.005617649827518,-0.016166351576609,-0.011842876296386,0.001680650315362,0.000262907377431
0.264,0.005614500516395,-0.016167529563212,-0.011842034877384,0.001677597166411,0.000265623958781
0.268,0.005615918908427,-0.01616865946873,-0.011840977093495,0.00168178022088,0.000237256118129
0.272,0.005618178719462,-0.016166327536066,-0.011840255877208,0.001687069140323,0.000273124608174
0.276,0.005619164381722,-0.016162216603226,-0.01183953466092,0.001689112586472,0.000302093462399
0.28,0.005620534692669,-0.016163634995258,-0.011839342336576,0.001683943869743,0.000292958056087
0.284,0.005622481976646,-0.016165173590005,-0.011839270214948,0.001673534314656,0.000280264649423
0.288,0.005618010435662,-0.01616627945498,-0.011839198093319,0.001669543584531,0.00030497832755
0.292,0.005613322529792,-0.016163803279059,-0.011838909606804,0.001668870449329,0.000351232332138
0.296,0.005616063151685,-0.016162865697885,-0.011838332633773,0.001687117221409,0.000349140804904
0.3,0.005623058949676,-0.016163683076344,-0.011838837485175,0.001716639008121,0.000337889830815
0.304,0.005624044611936,-0.016163827319602,-0.011839294255491,0.001742049861993,0.000316469707068
0.308,0.00562382824705,-0.016165582279235,-0.011838332633773,0.001783063028224,0.000358588738273
0.312,0.005626400585143,-0.016163707116887,-0.011837130606627,0.001816142815289,0.0003780375375
0.316,0.00562555916614,-0.016163586914172,-0.011836120903824,0.001818907477725,0.000350871723994
0.32,0.005629357571923,-0.016168755630901,-0.011835303525365,0.001813738760997,0.000358228130129
0.324,0.005623708044335,-0.01616882775253,-0.011835087160479,0.001804579314142,0.000424291542088
0.328,0.005621015503528,-0.016167409360497,-0.011835087160479,0.001787462447579,0.000428787123615
0.332,0.005618587408692,-0.016169260482303,-0.011835087160479,0.001764191202028,0.000405636080778
0.336,0.005615221732683,-0.016167914211899,-0.011834870795592,0.001747170497636,0.000418449690157
0.34,0.005611567570158,-0.016167601684841,-0.011834654430706,0.001727697657867,0.000461073572764
0.344,0.005615077489425,-0.016167048752354,-0.01183460634962,0.001711350088678,0.00045972730236
0.348,0.005614476475852,-0.016166087130637,-0.011834125538762,0.001697238289981,0.000427945704613
0.352,0.005609932813239,-0.016166519860409,-0.011834053417133,0.001688703897242,0.000413280973428
0.356,0.005615702543541,-0.016165269752177,-0.011833692808989,0.001690434816333,0.000476146993178
0.36,0.005622554098275,-0.016168683509272,-0.011833139876502,0.001689232789187,0.000506702523236
0.364,0.005619933679096,-0.016167072792896,-0.011832947552158,0.001690555019047,0.000491268494678
0.368,0.005617096895031,-0.016163755197973,-0.011832562903471,0.00169057905959,0.000464607532574
0.372,0.005619284584437,-0.016163033981685,-0.011831841687184,0.001689521275702,0.000501870374108
0.376,0.005618058516748,-0.016163875400687,-0.011830639660037,0.001686997018695,0.000546657905578
0.38,0.005615894867885,-0.016163995603402,-0.011829389551805,0.00168351113997,0.000534277025971
0.384,0.005617697908604,-0.016165726522493,-0.011828812578775,0.001684785288745,0.000505548577175
0.388,0.005617577705889,-0.01616488510349,-0.011828716416603,0.001684424680602,0.000544999108116
0.392,0.005614476475852,-0.016167313198326,-0.011828572173346,0.00168351113997,0.000590291490987
0.396,0.005618539327606,-0.016167890171356,-0.011828091362487,0.001688800059414,0.000552668041309
0.4,0.005620270246697,-0.016166928549639,-0.01182869237606,0.001691588762393,0.000539085134556
0.404,0.005614524556938,-0.016165365914349,-0.011828884700404,0.00168959339733,0.000558413731068
0.408,0.005612577272961,-0.016167192995611,-0.011828836619318,0.001686636410551,0.000607648762979
0.412,0.005616471840915,-0.016168130576785,-0.011829221268005,0.001685963275349,0.000617240939606
0.416,0.005617024773402,-0.016167000671268,-0.011829846322121,0.00168235719391,0.000597335370064
0.42,0.005615678502998,-0.016165389954892,-0.011829653997777,0.001683703464314,0.000593585045368
0.424,0.005617433462632,-0.016165005306205,-0.011829894403207,0.001690963708277,0.000654287416254
0.428,0.005618851854664,-0.016166111171179,-0.011829966524835,0.00168983380276,0.000664745052426
0.432,0.005615678502998,-0.016165005306205,-0.011830134808636,0.001678967477357,0.000622866426651
0.436,0.005615534259741,-0.016161904076168,-0.011830447335694,0.001674568058002,0.000622457737421
0.44,0.005614548597481,-0.016161158819337,-0.011829653997777,0.001676010490578,0.000650705375358
0.444,0.005616519922001,-0.016164596616975,-0.011829702078863,0.001676154733835,0.000687102757347
0.448,0.005621712679272,-0.016164837022404,-0.011830014605921,0.001676058571664,0.000660850484473
0.452,0.005619621152038,-0.016164957225119,-0.011829653997777,0.001673726639,0.000653686402681
0.456,0.005619332665523,-0.016166567941495,-0.01182910106529,0.001678053936726,0.000702031934504
0.46,0.00562341955782,-0.016166327536066,-0.011829365511262,0.001684015991372,0.000721913463503
0.464,0.005621183787328,-0.016162601251912,-0.011828812578775,0.001683943869743,0.000702560826448
0.468,0.005616808408516,-0.016161110738251,-0.011828668335518,0.001682813964226,0.000700637583014
0.472,0.005618226800548,-0.016163106103314,-0.01182852409226,0.001674736341803,0.00072345205825
0.476,0.005614067786622,-0.016164115806117,-0.011827850957058,0.001670120557561,0.000767205846374
0.48,0.005609091394237,-0.016164524495346,-0.011827754794886,0.001668774287157,0.000784827564338
0.484,0.005612841718933,-0.016164476414261,-0.01182696145697,0.001668125192498,0.00074564147937
0.488,0.00561733730046,-0.016164043684488,-0.01182655276774,0.001673245828141,0.0007562433588
0.492,0.005618250841091,-0.016162312765397,-0.011827442267828,0.001673582395742,0.000805454350168
0.496,0.005621736719815,-0.016162865697885,-0.011828451970631,0.001671562990137,0.000822306770759
0.5,0.005625703409398,-0.016160533765221,-0.011828163484116,0.001671971679366,0.000798410471091
0.504,0.005619164381722,-0.016162625292455,-0.01182811540303,0.001669639746702,0.000813531972591
0.508,0.005614428394766,-0.016162312765397,-0.011827923078687,0.001670048435932,0.000840817988811
0.512,0.005614404354223,-0.016166519860409,-0.011827466308371,0.00166608174635,0.000844496191879
0.516,0.005613899502822,-0.016167048752354,-0.011826168119053,0.001661273637764,0.000821777878814
0.52,0.005610557867355,-0.016168875833616,-0.01182539882168,0.001661297678307,0.000834351082764
0.524,0.005609572205095,-0.016168010374071,-0.011823499618789,0.001662788191969,0.000896351642968
0.528,0.005615966989513,-0.016168106536242,-0.011821792740241,0.001661393840479,0.000884547736392
0.532,0.005617000732859,-0.016167481482126,-0.011820590713095,0.001658388772613,0.000831922987929
0.536,0.005612769597304,-0.016165197630548,-0.011819845456264,0.00165959079976,0.000855266355109
0.54,0.005617048813945,-0.016164211968288,-0.011818979996719,0.001653051772084,0.000916209131425
0.544,0.005617481543718,-0.016163082062771,-0.011817898172287,0.001649325487931,0.000926209997282
0.548,0.005611687772873,-0.016164909144033,-0.011816888469484,0.001654133596516,0.000894813048221
0.552,0.005612553232418,-0.016163514792544,-0.011815590280166,0.001656922299495,0.000895918913196
0.556,0.00561988559801,-0.016163923481773,-0.011814460374649,0.001659783124103,0.000946716580397
0.56,0.005624789868767,-0.016162216603226,-0.011813907442161,0.001663773854229,0.000944985661306
0.564,0.005622193490131,-0.016165149549462,-0.011813138144788,0.0016686300439,0.000922507753671
0.568,0.005621664598187,-0.016163394589829,-0.011813210266417,0.001672572692939,0.000923301091588
0.572,0.00561971731421,-0.016163827319602,-0.011813354509674,0.00167528927429,0.000966429825596
0.576,0.005625342801254,-0.01616291377897,-0.011814532496277,0.001678895355729,0.000967487609484
0.58,0.005627121801431,-0.016163394589829,-0.011814628658449,0.00168021758559,0.00097090136658
0.584,0.005622794503704,-0.016164764900776,-0.011814123807048,0.001682501437168,0.000965780730937
0.588,0.005619837516924,-0.016163659035801,-0.011813787239447,0.001683775585943,0.000991552192952
0.592,0.005619693273667,-0.01616216852214,-0.01181357087456,0.001680554153191,0.001024343493503
0.596,0.005616904570687,-0.016161543468024,-0.011813378550217,0.001679592531474,0.001012852113984
0.6,0.005612913840562,-0.016162721454627,-0.01181438825302,0.001691516640764,0.000965852852565
0.604,0.005613082124362,-0.016162985900599,-0.011815109469308,0.00168942511353,0.000990254003635
0.608,0.005612889800019,-0.016166039049551,-0.011815830685595,0.001687598032268,0.001057038631881
0.612,0.005615293854311,-0.016167481482126,-0.01181652786134,0.001686540248379,0.001063721902814
0.616,0.005613562935221,-0.016165798644121,-0.011816503820797,0.001686347924036,0.001039969846404
0.62,0.005612961921648,-0.016167072792896,-0.011816263415368,0.001689809762217,0.001038527413828
0.624,0.005616543962543,-0.016168106536242,-0.011816335536997,0.001688199045841,0.001077977944769
0.628,0.005621712679272,-0.016166327536066,-0.011816263415368,0.001687646113354,0.001079324215173
0.632,0.0056212799495,-0.016165798644121,-0.011814869063878,0.001690651181219,0.001046460792994
0.636,0.005617457503175,-0.016164476414261,-0.011813138144788,0.001692838870625,0.001055596199305
0.64,0.005619284584437,-0.016162889738427,-0.011811719752755,0.001696468992607,0.001106297704335
0.644,0.005623107030762,-0.016163707116887,-0.011810998536467,0.001698320114412,0.001116322610735
0.648,0.00562202520633,-0.016164476414261,-0.011811623590584,0.001698897087443,0.001097643108882
0.652,0.005620943381899,-0.016165101468377,-0.011813378550217,0.001695242924918,0.001090743473062
0.656,0.005613106164905,-0.016164043684488,-0.011814820982793,0.001692526343567,0.001135170396388
0.66,0.005613322529792,-0.016164933184576,-0.011816263415368,0.001688872181043,0.001166783710335
0.664,0.005617577705889,-0.016165510157606,-0.011816503820797,0.001692430181396,0.001122044259951
0.668,0.00561930862498,-0.016166760265838,-0.01181595088831,0.001694689992431,0.001108629636999
0.672,0.005617890232947,-0.016167794009184,-0.011815974928853,0.001692021492166,0.001165124912873
0.676,0.005619981760182,-0.016168491184929,-0.011816696145141,0.001685266099604,0.0011896703072
0.68,0.005618395084349,-0.016168202698414,-0.011817297158714,0.001678222220527,0.001176375886962
0.684,0.005617481543718,-0.016168202698414,-0.011817056753285,0.001676010490578,0.001145027018987
0.688,0.005617577705889,-0.016164957225119,-0.01181635957754,0.001672284206424,0.001163898845184
0.692,0.005616808408516,-0.01616587076575,-0.011815710482881,0.001669880152132,0.001201089565089
0.696,0.005618178719462,-0.016166471779323,-0.01181554219908,0.001674255530944,0.001177577914108
0.7,0.005617625786975,-0.016166712184753,-0.011815205631479,0.001677813531297,0.001152479587294
0.704,0.005617770030233,-0.016171159685194,-0.011815013307136,0.001679688693645,0.001217028445049
0.708,0.005616736286887,-0.016172962725913,-0.011814845023336,0.001684665086031,0.001236837852419
0.712,0.005615125570511,-0.016172385752883,-0.01181397956379,0.00169139643805,0.001221836553634
0.716,0.005613562935221,-0.016173058888085,-0.011813739158361,0.001688679856699,0.001221596148204
0.72,0.005612072421559,-0.016171400090623,-0.011811912077099,0.001686444086207,0.001244458704526
0.724,0.005609379880752,-0.016167361279412,-0.011811599550041,0.001690338654161,0.001289366438711
0.728,0.005610702110613,-0.016167241076697,-0.011811094698639,0.001692646546282,0.00127448534264
0.732,0.005605220866826,-0.016164788941319,-0.011810686009409,0.001692069573252,0.00123955443377
0.736,0.00560279277199,-0.016164957225119,-0.011811094698639,0.001694593830259,0.001240684339287
0.74,0.00560361015045,-0.016165846725207,-0.011811214901354,0.001695555451976,0.001305954413329
0.744,0.005601037812357,-0.016167048752354,-0.011811815914927,0.001696517073693,0.001317974684792
0.748,0.005600124271726,-0.016166471779323,-0.011812152482528,0.001696012222292,0.001291794533546
0.752,0.005609644326724,-0.016167048752354,-0.011813090063702,0.001695363127633,0.001283500546237
0.756,0.005615149611054,-0.016168635428187,-0.011813931482704,0.001694954438403,0.001321388441887
0.76,0.005614861124539,-0.016168563306558,-0.01181438825302,0.001696396870978,0.001353145999091
0.764,0.005614043746079,-0.016169717252618,-0.011814340171934,0.001694641911345,0.001317638117191
0.768,0.005619693273667,-0.016169909576962,-0.01181438825302,0.001685698829377,0.001302684899491
0.772,0.005620630854841,-0.01616668814421,-0.01181381127999,0.001688583694528,0.001355117323611
0.776,0.005619981760182,-0.016166159252265,-0.011812729455558,0.001698199911698,0.001382186974945
0.78,0.005618851854664,-0.016169933617505,-0.011811623590584,0.001700772249791,0.001387043164616
0.784,0.00561676032743,-0.016167361279412,-0.011811359144611,0.001701084776849,0.001387836502533
0.788,0.005619981760182,-0.016165269752177,-0.011811767833841,0.001704642777202,0.001404472558237
0.792,0.005621015503528,-0.016167217036154,-0.011811671671669,0.001704787020459,0.001426661979357
0.796,0.005613755259564,-0.016168803711987,-0.011811383185154,0.001701517506621,0.001410194207453
0.8,0.00561421202988,-0.016170053820219,-0.01181126298244,0.001698656682013,0.001359901391653
0.804,0.005617000732859,-0.016171327968994,-0.011811383185154,0.001699810628074,0.001404616801494
0.808,0.005619404787152,-0.016170366347277,-0.01181102257701,0.001697695060296,0.001460487023253
0.812,0.005620174084525,-0.016168803711987,-0.01181102257701,0.001701084776849,0.001452096873772
0.816,0.005617024773402,-0.016169164320131,-0.011810974495925,0.001703296506798,0.001432672115088
0.82,0.005618130638377,-0.016170077860762,-0.011811094698639,0.001701493466078,0.001430123817538
0.824,0.005620991462985,-0.016171592414966,-0.011810613887781,0.001697118087266,0.001481041687454
0.828,0.005623299355105,-0.016173876266544,-0.011810421563437,0.001689352991901,0.001488518296304
0.832,0.005620414489954,-0.01617531869912,-0.011810157117465,0.001675770085148,0.001431157560884
0.836,0.005617890232947,-0.016174765766633,-0.011810060955293,0.00167192359828,0.001443562481033
0.84,0.005612144543188,-0.016174260915231,-0.011801502522012,0.001702190641823,0.001526694678469
0.844,0.005614091827165,-0.01617433303686,-0.011801911211242,0.001699570222644,0.001505298595265
0.848,0.005616327597657,-0.016170654833792,-0.011802608386987,0.001696156465549,0.001471978402771
0.852,0.005613538894678,-0.01617178473931,-0.011803449805989,0.001698344154955,0.001467506861787
0.856,0.005612096462102,-0.016171736658224,-0.011802872832959,0.001698320114412,0.001516501488269
0.86,0.005610293421383,-0.01617137605008,-0.011801839089613,0.001699690425359,0.001537272517356
0.864,0.005608201894148,-0.016170630793249,-0.011802055454499,0.001699498101016,0.001515587947637
0.868,0.005601614785387,-0.016169861495876,-0.0118022237383,0.001699089411786,0.001512751163572
0.872,0.005603321663935,-0.01616923644176,-0.011801526562555,0.001694425546458,0.001542777801686
0.876,0.005610774232241,-0.016167072792896,-0.011802488184272,0.001693031194969,0.001568356939358
0.88,0.005624789868767,-0.016165486117063,-0.011802752630244,0.001690242491989,0.001550470775422
0.884,0.005634165680508,-0.016165966927922,-0.011802632427529,0.001687718234982,0.001527992867787
0.888,0.005640296018954,-0.016168034414613,-0.011802680508615,0.001688992383757,0.001546023274981
0.892,0.005637266910545,-0.016172049185282,-0.011802031413956,0.00169255038411,0.00156631349321
0.896,0.005630800004498,-0.016171568374423,-0.011800997670611,0.001693728370714,0.001558332032959
0.9,0.005625318760711,-0.016169524928275,-0.011800709184095,0.001692309978681,0.001538738990474
0.904,0.00562185692253,-0.016168755630901,-0.011800805346267,0.001688078843126,0.00156648177701
0.908,0.005623179152391,-0.016167361279412,-0.01180140635984,0.001687910559326,0.001612591538341
0.912,0.005621424192757,-0.016168611387644,-0.01180320940056,0.001685266099604,0.001613216592457
0.916,0.005620630854841,-0.016170895239222,-0.011803834454676,0.001681996585766,0.00157453535889
0.92,0.005623395517277,-0.016168851793073,-0.011803882535762,0.001678366463784,0.001601532888595
0.924,0.005621015503528,-0.016168971995788,-0.011803738292504,0.001678486666499,0.001646055974093
0.928,0.005620150043982,-0.016170198063477,-0.011803714251961,0.001680698396448,0.001648363866214
0.932,0.005621953084702,-0.01616940472556,-0.011803065157302,0.001683679423771,0.001616846714439
0.936,0.005621424192757,-0.016169476847189,-0.011802512224815,0.001674904625603,0.00162187118791
0.94,0.005617577705889,-0.016168611387644,-0.01180198333287,0.001674327652573,0.001688415410727
0.944,0.005613442732506,-0.016166327536066,-0.0118023920221,0.001681900423594,0.00168827116747
0.948,0.005613899502822,-0.016166159252265,-0.011802175657214,0.001677188477181,0.001650214988019
0.952,0.005614644759652,-0.016166423698237,-0.011802127576128,0.001672524611854,0.001647738812098
0.956,0.005616976692316,-0.016166567941495,-0.011802199697757,0.001667932868155,0.001698656682013
0.96,0.005617890232947,-0.016166567941495,-0.011803449805989,0.00166961570616,0.001704787020459
0.964,0.005618587408692,-0.016165630360321,-0.011804747995307,0.001671274503621,0.001675120990489
0.968,0.005619164381722,-0.016165534198149,-0.011805132643994,0.001675818166234,0.001680289707218
0.972,0.005618515287063,-0.016165269752177,-0.011805036481822,0.001678943436815,0.001735462753232
0.976,0.005617265178831,-0.016165630360321,-0.011805228806165,0.001682958207483,0.001765585553517
0.98,0.005615510219198,-0.016166712184753,-0.011805685576481,0.001685434383404,0.001722769346567
0.984,0.005616856489602,-0.016167721887555,-0.011806118306254,0.001683318815627,0.001723971373714
0.988,0.005619284584437,-0.016166231373894,-0.011806767400913,0.001685338221233,0.00176387867497
0.992,0.005618106597834,-0.016166712184753,-0.011807656901001,0.001688078843126,0.001780707055017
0.996,0.005618178719462,-0.016168731590358,-0.011808858928147,0.001688199045841,0.00177308620291
1,0.005613562935221,-0.01616784209027,-0.011808858928147,0.001686972978152,0.001753396998254
1.004,0.005608923110436,-0.016167890171356,-0.011808618522718,0.001686107518606,0.001772701554223
1.008,0.005610918475499,-0.016170438468906,-0.011808955090319,0.001687405707924,0.001821864464505
1.012,0.005610533826812,-0.016168851793073,-0.011809147414662,0.001687598032268,0.001819220004783
1.016,0.005609091394237,-0.016168947955245,-0.011808858928147,0.001689160667558,0.001790251150559
1.02,0.005610918475499,-0.016167072792896,-0.011808402157832,0.00169081946502,0.001815445639544
1.024,0.005613659097392,-0.016170342306734,-0.011808161752402,0.001688703897242,0.001836192628089
1.028,0.005620270246697,-0.016171736658224,-0.011808065590231,0.001689641478416,0.00184434237214
1.032,0.005615582340826,-0.016169164320131,-0.011807801144258,0.001692309978681,0.001800444340759
1.036,0.00561043766464,-0.01616743340104,-0.011807969428059,0.001688920262129,0.001824148316083
1.04,0.00561438031368,-0.016167313198326,-0.011806959725256,0.001693151397683,0.001869945550356
1.044,0.005616039111142,-0.016169044117416,-0.011806887603627,0.001691877248908,0.001877470240291
1.048,0.005611519489072,-0.01616940472556,-0.011807152049599,0.00168531418069,0.001856074157088
1.052,0.005611759894501,-0.016166664103667,-0.011806478914398,0.001685674788834,0.001848140777923
1.056,0.005609716448353,-0.016167577644298,-0.011806358711683,0.001683655383228,0.001884634322083
1.06,0.005602432163846,-0.016168755630901,-0.011806695279284,0.001685193977975,0.001913507014136
1.064,0.005601927312445,-0.016168611387644,-0.011806046184625,0.001691468559679,0.001908554662294
1.068,0.005605942083113,-0.016167721887555,-0.011805781738653,0.001695411208718,0.001883264011136
1.072,0.005606711380487,-0.016167721887555,-0.011806238508968,0.001700051033503,0.001932595205219
1.076,0.005609812610524,-0.01616940472556,-0.011806454873855,0.001700700128162,0.001934037637795
1.08,0.005610389583555,-0.016169428766103,-0.011805252846708,0.001697767181925,0.001929349731924
1.084,0.005608153813063,-0.016168130576785,-0.011805084562908,0.001699137492872,0.00191526197377
1.088,0.005611351205272,-0.016168395022757,-0.011804555670963,0.001696036262834,0.001938821705837
1.092,0.005611928178302,-0.016167986333528,-0.011804002738476,0.00169452170863,0.001973319884934
1.096,0.005612481110789,-0.016167649765927,-0.011803834454676,0.001694954438403,0.00196021778904
1.1,0.005614043746079,-0.016168034414613,-0.011803882535762,0.001692213816509,0.001941490206101
1.104,0.005608322096863,-0.01616784209027,-0.011804243143905,0.001690675221762,0.001962549721704
1.108,0.005608249975234,-0.016167721887555,-0.011804387387163,0.001693007154426,0.002016809227086
1.112,0.005611928178302,-0.016166904509096,-0.011804555670963,0.001695771816862,0.001999596198352
1.116,0.005614356273137,-0.016168202698414,-0.011805036481822,0.001696949803466,0.001954255734395
1.12,0.005615678502998,-0.016168274820043,-0.011804579711506,0.001694425546458,0.00199538910334
1.124,0.005604932380311,-0.016169092198502,-0.011802993035673,0.001697214249438,0.00204527322991
1.128,0.005600004069011,-0.016172554036683,-0.0118022237383,0.001700820330877,0.002044479891993
1.132,0.005602576407104,-0.016172145347454,-0.01180198333287,0.001699089411786,0.002015631240483
1.136,0.005608586542835,-0.01616998169859,-0.011801839089613,0.001699522141559,0.002003995617707
1.14,0.005609620286181,-0.016170847158136,-0.011800877467896,0.001699401938844,0.002045393432624
1.144,0.005609403921295,-0.016170246144563,-0.011799723521836,0.001693512005827,0.002048759108634
1.148,0.005613250408163,-0.01616899603633,-0.011799579278578,0.001690939667734,0.002018347821833
1.152,0.005614909205625,-0.016170174022934,-0.011799579278578,0.001694689992431,0.002028444849862
1.156,0.005613034043276,-0.01617079907705,-0.011799891805636,0.001701325182278,0.002098018181088
1.16,0.00561873165195,-0.016168154617328,-0.011800805346267,0.001701685790422,0.002090565612781
1.164,0.005615486178655,-0.016165990968465,-0.011800468778666,0.001698031627897,0.002080468584752
1.168,0.00561577466517,-0.016166015009008,-0.011799002305548,0.001697358492695,0.002059216744806
1.172,0.005615149611054,-0.016170125941848,-0.011797992602745,0.001693319681484,0.002114077263762
1.176,0.00561438031368,-0.016172457874512,-0.0117971271432,0.001691901289451,0.00212556864328
1.18,0.005617577705889,-0.016172049185282,-0.01179630976474,0.001695291006004,0.002086935490799
1.184,0.005616784367973,-0.016171928982567,-0.011795756832253,0.001700628006533,0.00208866640989
1.188,0.005615245773226,-0.016173972428716,-0.01179515581868,0.001699329817215,0.002144272185676
1.192,0.00561183201613,-0.016173996469259,-0.011794675007821,0.00169312735714,0.002174370945418
1.196,0.005614404354223,-0.016171688577138,-0.011794939453793,0.001699690425359,0.002144536631648
1.2,0.005612937881105,-0.016171279887908,-0.011794266318591,0.001707575723439,0.002144007739704
1.204,0.005619164381722,-0.016172409793426,-0.011793016210359,0.001709571088501,0.002148960091546
1.208,0.005612144543188,-0.016172049185282,-0.011791910345385,0.001705892885434,0.002176534594282
1.212,0.005607168150803,-0.016171327968994,-0.011791309331812,0.001703056101369,0.002159201362833
1.216,0.005611928178302,-0.016168370982214,-0.011790612156067,0.001699474060473,0.00214028145555
1.22,0.005615918908427,-0.016169092198502,-0.011790011142494,0.001698440317127,0.0021829293787
1.224,0.005613106164905,-0.016170029779676,-0.01178924184512,0.001702551249967,0.002218797868744
1.228,0.005615510219198,-0.016170606752706,-0.011787534966572,0.001704666817745,0.002214182084503
1.232,0.005619044179008,-0.01617120776628,-0.011786092533997,0.001691684924565,0.002175572972565
1.236,0.005617217097745,-0.016171327968994,-0.011784914547394,0.001687670153896,0.002161461173868
1.24,0.005615005367796,-0.016170630793249,-0.01178414525002,0.001689473194616,0.002218869990373
1.244,0.005611519489072,-0.016167794009184,-0.011783472114818,0.001688078843126,0.002250315020519
1.248,0.005610966556585,-0.016168058455156,-0.011782678776902,0.001687357626838,0.002198483609972
1.252,0.005611206962014,-0.016173659901658,-0.011782774939073,0.001689545316245,0.002194805406905
1.256,0.005611110799842,-0.016175222536948,-0.011783351912103,0.00169098774882,0.002260243764747
1.26,0.005613418691963,-0.016174645563918,-0.011783231709389,0.001689304910815,0.002249377439345
1.264,0.005617265178831,-0.016172962725913,-0.011782654736359,0.001685794991548,0.002235818573135
1.268,0.005616543962543,-0.016172409793426,-0.011782366249843,0.001686227721321,0.002241684465609
1.272,0.005615462138112,-0.016172890604284,-0.011782125844414,0.001685506505033,0.002293131227469
1.276,0.005619693273667,-0.0161735156584,-0.011781356547041,0.001685121856346,0.002323061703411
1.28,0.005617000732859,-0.01617375606383,-0.011781044019983,0.001687429748467,0.002297145998138
1.284,0.0056112550431,-0.016172794442113,-0.011780803614553,0.001691156032621,0.002265484603105
1.288,0.005610245340297,-0.016172722320484,-0.011780394925324,0.001694473627544,0.002311041431949
1.292,0.005614620719109,-0.016171135644651,-0.011779721790122,0.001696276668264,0.002315008121531
1.296,0.005618178719462,-0.016170414428363,-0.011779385222521,0.001699161533415,0.002288395240513
1.3,0.005618395084349,-0.016170654833792,-0.01177962562795,0.001699810628074,0.002287481699882
1.304,0.005612384948617,-0.016169837455333,-0.011779745830665,0.001699498101016,0.002332533677324
1.308,0.005612673435133,-0.016167361279412,-0.011779553506321,0.00169452170863,0.002363113247925
1.312,0.005615462138112,-0.016168226738957,-0.011780010276637,0.001699810628074,0.00234549152996
1.316,0.005613298489249,-0.016172049185282,-0.011780803614553,0.001703825398742,0.0023190228922
1.32,0.0056112550431,-0.016172914644827,-0.011781861398442,0.001700964574134,0.002345058800188
1.324,0.005609644326724,-0.016171400090623,-0.011782774939073,0.001705147628603,0.002382826493123
1.328,0.005618539327606,-0.01616940472556,-0.011783183628303,0.001707167034209,0.002352102679265
1.332,0.00561971731421,-0.016171231806823,-0.011783183628303,0.001703368628427,0.002348664881627
1.336,0.005612384948617,-0.016172001104196,-0.011782967263417,0.001705267831318,0.002389798250572
1.34,0.005613154245991,-0.016175799509978,-0.011783760601333,0.00170594096652,0.002389966534372
1.344,0.005614620719109,-0.016174621523375,-0.011784962628479,0.001704979344803,0.002400640535431
1.348,0.005617577705889,-0.016175535064006,-0.01178628485834,0.001704811061002,0.002378403033225
1.352,0.005618851854664,-0.016174308996317,-0.011787703250373,0.001708296939726,0.002394438075356
1.356,0.005620943381899,-0.016174020509802,-0.011788352345032,0.001708152696469,0.002441821985462
1.36,0.005626184220257,-0.01617647264518,-0.011788184061231,0.00170668622335,0.002433479917067
1.364,0.005624260976823,-0.016177241942554,-0.011788304263946,0.001705003385346,0.002395015048386
1.368,0.005619332665523,-0.016177314064183,-0.011788929318062,0.001706397736835,0.002412011712235
1.372,0.005617770030233,-0.016176448604637,-0.011789265885663,0.001709979777731,0.002477161583562
1.376,0.005616664165258,-0.016174982131519,-0.011788785074805,0.001712816561796,0.002478724218852
1.38,0.005616495881458,-0.016175438901834,-0.011788544669375,0.001711734737365,0.002447279188706
1.384,0.005618250841091,-0.016173395455686,-0.011788977399148,0.001710556750761,0.002422012578092
1.388,0.005619164381722,-0.016173659901658,-0.011789794777607,0.001702527209424,0.002485575773586
1.392,0.005620606814298,-0.016172049185282,-0.011790540034438,0.001685939234806,0.002499519288483
1.396,0.005622506017189,-0.016168899874159,-0.011791237210183,0.001682910126397,0.002446774337305
1.4,0.005624525422795,-0.016167096833439,-0.011791669939956,0.001683559221056,0.002444778972242
1.404,0.005623107030762,-0.016167048752354,-0.011790996804754,0.001699666384816,0.002494879463698
1.408,0.005621832881987,-0.016170149982391,-0.011789722655979,0.001729260293157,0.002503389815894
1.412,0.005618371043806,-0.016171448171709,-0.011788640831547,0.001752940227939,0.002488677003623
1.416,0.005618779733036,-0.016171015441936,-0.011788929318062,0.001791044488475,0.002464780703956
1.42,0.005623587841621,-0.016173804144916,-0.011789338007292,0.001827393789378,0.00250319749155
1.424,0.005622313692846,-0.016173683942201,-0.011788977399148,0.001835952222659,0.002552865253234
1.428,0.00561873165195,-0.016172097266368,-0.011788640831547,0.001831240276246,0.002533969386494
1.432,0.0056161833544,-0.016169284522846,-0.011788568709918,0.001820974964417,0.002515265844099
1.436,0.005614260110966,-0.016168491184929,-0.011788929318062,0.001802463746365,0.002547263806732
1.44,0.005618058516748,-0.016168082495699,-0.011789217804577,0.001782630298451,0.002561495808144
1.444,0.00561264939459,-0.016167986333528,-0.011789770737064,0.00176856658084,0.002564597038181
1.448,0.005613899502822,-0.016170005739133,-0.011789987101951,0.001751666079163,0.002536036873186
1.452,0.005617265178831,-0.016169741293161,-0.011790419831723,0.001733659712512,0.002547119563475
1.456,0.005614067786622,-0.016170775036507,-0.011790371750638,0.001721879846479,0.002615779354069
1.46,0.005614043746079,-0.016171135644651,-0.011790828520953,0.001710484629133,0.002621476962742
1.464,0.005613731219021,-0.016173395455686,-0.01179121316964,0.001708921993842,0.002573948809379
1.468,0.005616808408516,-0.016174212834145,-0.011791742061584,0.001710941399448,0.002577963580048
1.472,0.005612841718933,-0.016172818482656,-0.011791333372355,0.001708296939726,0.002621068273513
1.476,0.005609355840209,-0.016172578077226,-0.011790900642582,0.001710172102074,0.002620875949169
1.48,0.005611591610701,-0.01616981341479,-0.011791333372355,0.001706950669323,0.002579165607194
1.484,0.005616856489602,-0.016172842523199,-0.011790756399324,0.00170570056109,0.002589190513594
1.488,0.005616135273314,-0.016175126374776,-0.011790347710095,0.001702262763452,0.00263912272125
1.492,0.005620029841268,-0.016175294658577,-0.011790323669552,0.001699281736129,0.002661191939655
1.496,0.005622650260447,-0.016175246577491,-0.011789842858693,0.001699954871331,0.002619914327452
1.5,0.005620823179184,-0.016175366780206,-0.011788953358605,0.001705628439462,0.002606788191015
1.504,0.005624886030939,-0.016176568807352,-0.01178825618286,0.00170553227729,0.002663427710147
1.508,0.005625174517454,-0.016175294658577,-0.011787222439514,0.00170339266897,0.002689920388451
1.512,0.005619861557467,-0.016172265550168,-0.011786645466484,0.001703488831141,0.002669053197192
1.516,0.005625198557997,-0.01617022210402,-0.011786597385398,0.001704161966343,0.002647152262587
1.52,0.005632530923589,-0.016167337238869,-0.01178652526377,0.001706830466608,0.002674294035549
1.524,0.00562243389556,-0.016167890171356,-0.011786573344855,0.001709739372302,0.002711484755455
1.528,0.005614452435309,-0.01616940472556,-0.01178652526377,0.001707359358552,0.002707349782071
1.532,0.005618539327606,-0.01616899603633,-0.011787727290916,0.001703945601457,0.002665447115753
1.536,0.005620630854841,-0.016166904509096,-0.011789386088378,0.001701902155308,0.002695473753866
1.54,0.005621472273843,-0.016166712184753,-0.011790131345208,0.001702286803995,0.002758315733073
1.544,0.00562481390931,-0.016167818049727,-0.011789890939779,0.001704017723086,0.002737785109415
1.548,0.005623515719992,-0.016169068157959,-0.011791429534526,0.001709018156014,0.002691795550799
1.552,0.005619621152038,-0.016170630793249,-0.011792102669728,0.001701709830965,0.002708960498447
1.556,0.005618130638377,-0.016172001104196,-0.011792030548099,0.001699377898301,0.002768701247617
1.56,0.00561873165195,-0.016173179090799,-0.011792102669728,0.001700291438932,0.002763003638943
1.564,0.005619068219551,-0.016170558671621,-0.011792968129274,0.001698584560385,0.00271119626894
1.568,0.005625054314739,-0.016167241076697,-0.011793424899589,0.001700002952417,0.002754012475889
1.572,0.005625703409398,-0.01616587076575,-0.011793665305018,0.001695074641117,0.00280464185929
1.576,0.005624717747138,-0.016167313198326,-0.011793641264475,0.001692309978681,0.002813753225059
1.58,0.005623491679449,-0.016168395022757,-0.011793088331988,0.001688824099957,0.002779158883789
1.584,0.005616688205801,-0.016168635428187,-0.011793424899589,0.00168959339733,0.002774663302262
1.588,0.005610509786269,-0.016170702914878,-0.011792896007645,0.001692045532709,0.00282428298286
1.592,0.005615293854311,-0.016172073225825,-0.011792030548099,0.001693752411257,0.002818344968757
1.596,0.005612961921648,-0.016171880901482,-0.011791862264299,0.00168803076204,0.002798535561387
1.6,0.005604547731624,-0.016167769968641,-0.011791405493983,0.001689905924388,0.00279264562837
1.604,0.005597239406575,-0.01616546207652,-0.011790972764211,0.001689352991901,0.002844669363261
1.608,0.005598225068834,-0.016168611387644,-0.011791189129097,0.001688631775613,0.002830293118591
1.612,0.005606038245285,-0.016168923914702,-0.011790612156067,0.001690963708277,0.002806829548696
1.616,0.005624861990396,-0.016168803711987,-0.011789362047835,0.001685049734718,0.002801348304909
1.62,0.0056365697348,-0.016168563306558,-0.011788135980146,0.00167841454487,0.002838563065358
1.624,0.005642940478675,-0.016169476847189,-0.011787775372002,0.001684376599516,0.002865248068005
1.628,0.005645777262741,-0.016167601684841,-0.011786885871913,0.001688223086384,0.002845054011947
1.632,0.005640464302754,-0.016167168955068,-0.011785371317709,0.001687742275525,0.00281680637401
1.636,0.005636786099687,-0.016168515225472,-0.011784602020336,0.001685458423947,0.002851593039623
1.64,0.005630198990925,-0.016169548968818,-0.011783520195904,0.001683607302142,0.00291361764037
1.644,0.005626064017542,-0.016169693212075,-0.011783496155361,0.001679183842244,0.002890610840791
1.648,0.005622794503704,-0.01617137605008,-0.011783856763505,0.001679496369302,0.002880946542535
1.652,0.005623034909133,-0.016170510590535,-0.011783760601333,0.001684833369831,0.002878494407156
1.656,0.005624621584966,-0.016170654833792,-0.011783351912103,0.001690098248732,0.002898640382128
1.66,0.005627025639259,-0.01617120776628,-0.011782726857987,0.001689352991901,0.002923330019712
1.664,0.005627266044688,-0.016168923914702,-0.011782197966043,0.00168827116747,0.00287810975847
1.668,0.005624621584966,-0.016168346941671,-0.011781813317356,0.001693151397683,0.002876186515036
1.672,0.005625511085055,-0.016168226738957,-0.011781837357899,0.001692165735423,0.002934052101857
1.676,0.005619669233124,-0.01616529379272,-0.011781284425412,0.001692430181396,0.002934364628915
1.68,0.005624429260623,-0.016162817616799,-0.011781212303783,0.001693752411257,0.002902679193339
1.684,0.005628323828577,-0.016162024278882,-0.01178159695247,0.001695531411433,0.002914699464802
1.688,0.005625895733741,-0.016161735792367,-0.011781933520071,0.001696276668264,0.002961506401877
1.692,0.005620438530497,-0.016162072359968,-0.011781837357899,0.001697502735953,0.002982493795851
1.696,0.005616640124715,-0.016159355778617,-0.0117820056417,0.001703464790598,0.002940975778219
1.7,0.005614933246167,-0.016162072359968,-0.011782077763328,0.001701445384993,0.002921623141164
1.704,0.005620101962896,-0.016164356211546,-0.01178176523627,0.00170298397974,0.002967348253808
1.708,0.005621760760358,-0.01616274549517,-0.011781356547041,0.001708032493754,0.002987470188237
1.712,0.005619188422265,-0.016162985900599,-0.011781236344326,0.00169985870916,0.002965569253632
1.716,0.005619693273667,-0.016163683076344,-0.01178061129021,0.001697262330524,0.002959727401701
1.72,0.00562555916614,-0.016162793576256,-0.011778808249491,0.001701132857935,0.00299530740523
1.724,0.005626304422971,-0.016163947522316,-0.011777389857458,0.001699281736129,0.003043027882937
1.728,0.005622193490131,-0.016166880468553,-0.011777510060173,0.001697358492695,0.003025694651488
1.732,0.005624260976823,-0.016167962292985,-0.01177765430343,0.001700483763276,0.00299727872975
1.736,0.005624381179537,-0.016167577644298,-0.011777558141258,0.001703753277113,0.003009779812071
1.74,0.005625174517454,-0.016169548968818,-0.011777558141258,0.001700507803819,0.003048605288896
1.744,0.005621520354929,-0.016170366347277,-0.011778038952117,0.001703128222997,0.003033531868481
1.748,0.005618683570864,-0.016170510590535,-0.011778399560261,0.001708224818098,0.003021968367334
1.752,0.005616952651773,-0.016171135644651,-0.011778327438632,0.001709378764158,0.003022689583622
1.756,0.005617481543718,-0.016170486549992,-0.011777149452029,0.001709787453388,0.003072573710192
1.76,0.00562284258479,-0.016169573009361,-0.011776115708683,0.001707070872037,0.003072838156164
1.764,0.00562399653085,-0.016170246144563,-0.011775875303254,0.001702022358023,0.003028603557182
1.768,0.005624789868767,-0.01617137605008,-0.011775274289681,0.001700628006533,0.003043532734338
1.772,0.005623515719992,-0.016171448171709,-0.011775755100539,0.001703584993313,0.003088344306351
1.776,0.005615414057026,-0.016171928982567,-0.011776308033026,0.001710893318362,0.003100965591387
1.78,0.005616664165258,-0.016172409793426,-0.01177625995194,0.001711518372478,0.003070289858614
1.784,0.005624453301166,-0.016169645130989,-0.011775634897824,0.001707719966696,0.003092310995934
1.788,0.005622385814474,-0.01616784209027,-0.011775418532938,0.001703777317656,0.003097431631577
1.792,0.005621015503528,-0.016168683509272,-0.011776548438456,0.001707022790951,0.003112721416877
1.796,0.005619380746609,-0.016168635428187,-0.011777269654743,0.001705484196204,0.003101230037359
1.8,0.005618827814121,-0.016168875833616,-0.011777269654743,0.001709907656102,0.0031005809427
1.804,0.005617770030233,-0.016169332603931,-0.011777630262887,0.001711830899536,0.003136016702972
1.808,0.005616327597657,-0.016170823117593,-0.011778159154832,0.00170002699296,0.003153782664194
1.812,0.005615462138112,-0.016170486549992,-0.011777822587231,0.001688872181043,0.003119308525639
1.816,0.005614452435309,-0.016171616455509,-0.011777846627774,0.001702358925624,0.003117649728177
1.82,0.005616471840915,-0.016170149982391,-0.0117772456142,0.00171358585917,0.00314808505552
1.824,0.005615798705713,-0.016167601684841,-0.011776644600627,0.001716182237806,0.003169048408951
1.828,0.00561889993575,-0.016169957658047,-0.011776957127685,0.00170947492633,0.003163999894937
1.832,0.005622698341532,-0.016170895239222,-0.011777005208771,0.001708513304613,0.003124621485625
1.836,0.005616976692316,-0.016171015441936,-0.011778111073746,0.00171103756162,0.003139670865497
1.84,0.005619332665523,-0.016168755630901,-0.011778856330576,0.001716518805407,0.003202056074388
1.844,0.005625511085055,-0.016170318266191,-0.011779265019806,0.001718418008298,0.003186069113342
1.848,0.005624789868767,-0.016172986766456,-0.011779289060349,0.001721350954535,0.00314750808249
1.852,0.005617697908604,-0.016174573442289,-0.011778784208948,0.001720701859876,0.003166403949229
1.856,0.005615870827342,-0.016173780104373,-0.011778111073746,0.001709498966873,0.003235448388511
1.86,0.005615221732683,-0.016173563739486,-0.011777750465602,0.001712744440167,0.003211431886128
1.864,0.005612865759476,-0.016174092631431,-0.011777894708859,0.001714787886316,0.003173904598622
1.868,0.005616592043629,-0.016175270618034,-0.011777870668316,0.001717432346038,0.003195180479111
1.872,0.005618371043806,-0.016173299293514,-0.011777221573657,0.001717480427124,0.003256051133798
1.876,0.005615414057026,-0.016171135644651,-0.011777630262887,0.001718081440697,0.003230952806984
1.88,0.005615582340826,-0.016171520293338,-0.011778519762975,0.001717023656808,0.003194819870967
1.884,0.005617938314033,-0.016174765766633,-0.011778736127862,0.001715917791834,0.003211023196899
1.888,0.005619789435838,-0.016175174455862,-0.011779433303607,0.00171498021066,0.003245377132739
1.892,0.005623058949676,-0.016174260915231,-0.011780322803695,0.001717792954182,0.003246482997713
1.896,0.005622794503704,-0.016173203131342,-0.011781308465955,0.001714234953829,0.003220423049182
1.9,0.005620126003439,-0.016175174455862,-0.011781380587584,0.001708272899183,0.003203955277279
1.904,0.005621231868414,-0.016174693645004,-0.011780947857811,0.001707383399095,0.003268552216119
1.908,0.00561930862498,-0.016174645563918,-0.011781308465955,0.001712528075281,0.003283096744589
1.912,0.005618659530321,-0.016175174455862,-0.011781572911927,0.001722456819509,0.003249752511551
1.916,0.005624068652479,-0.016170943320307,-0.011781837357899,0.001726784117236,0.003235135861453
1.92,0.005621712679272,-0.016166928549639,-0.011782606655273,0.001725606130633,0.00328163027147
1.924,0.005622578138818,-0.016169116239045,-0.011782149884957,0.001724812792716,0.003287207677429
1.928,0.005620077922354,-0.01617236171234,-0.011781452709212,0.00171983640033,0.003268407972861
1.932,0.005624044611936,-0.016173419496229,-0.01178061129021,0.001716639008121,0.003267638675488
1.936,0.005629670098981,-0.016172914644827,-0.011780923817268,0.001719764278702,0.003302882111416
1.94,0.005629477774637,-0.016170895239222,-0.011780803614553,0.001718970940785,0.003334038655047
1.944,0.00561873165195,-0.016170077860762,-0.011780587249667,0.001717240021695,0.003321465451097
1.948,0.00561692861123,-0.016168803711987,-0.011780274722609,0.001709186439815,0.003295477624195
1.952,0.00561988559801,-0.016170318266191,-0.011780394925324,0.001706541980093,0.003315888045139
1.956,0.005620943381899,-0.016173275252971,-0.011781164222697,0.001705652480005,0.003365411563565
1.96,0.005622457936103,-0.016172986766456,-0.011781837357899,0.001710364426418,0.00335567514368
1.964,0.005623347436191,-0.016169885536419,-0.011782678776902,0.001711085642706,0.003332692384643
1.968,0.005622914706419,-0.016168202698414,-0.011783640398619,0.00171005189936,0.003302906151959
1.972,0.005619380746609,-0.016167649765927,-0.011783255749932,0.001710388466961,0.003365171158135
1.976,0.005621784800901,-0.01616668814421,-0.011783231709389,0.001715124453917,0.003357934954715
1.98,0.005621135706242,-0.01616923644176,-0.011783760601333,0.001713633940256,0.003333557844189
1.984,0.005620919341356,-0.016167962292985,-0.011784241412192,0.001711109683249,0.003347284994199
1.988,0.005625126436368,-0.01616865946873,-0.011784289493277,0.001717961237982,0.003397433566741
1.992,0.005622794503704,-0.016169741293161,-0.011784337574363,0.001719764278702,0.003405270783735
1.996,0.005623876328136,-0.016169837455333,-0.011784049087848,0.001715893751291,0.003377576078285
2,0.005625102395825,-0.01617293868537,-0.011782847060702,0.00171572546749,0.003362262252442
2.004,0.005623876328136,-0.016173323334057,-0.01178258261473,0.001720605697704,0.003404862094505
2.008,0.005626665031115,-0.01617096736085,-0.011783087466131,0.001724211779143,0.003431090326837
2.012,0.005623900368679,-0.016169524928275,-0.011783424033732,0.001722168332994,0.003380436902893
2.016,0.005618154678919,-0.016170198063477,-0.011783616358076,0.001720365292275,0.003374066159018
2.02,0.005619789435838,-0.016170919279764,-0.011783496155361,0.001724620468373,0.003421594312381
2.024,0.005623539760535,-0.016172145347454,-0.011783520195904,0.001725606130633,0.003443206760471
2.028,0.005628035342062,-0.016170294225648,-0.011783520195904,0.001721447116706,0.003413660933216
2.032,0.00562695351763,-0.016169573009361,-0.011783928885134,0.001719571954358,0.003385701781794
2.036,0.005617024773402,-0.016170125941848,-0.011784962628479,0.001720677819333,0.003438807341116
2.04,0.005618395084349,-0.016168707549815,-0.01178611657454,0.001727216847008,0.003485494075476
2.044,0.005626905436544,-0.016169308563389,-0.011787414763858,0.001731712428536,0.003434287719046
2.048,0.005628948882693,-0.016171640496052,-0.011787895574716,0.001726375428006,0.003413372446701
2.052,0.005623275314563,-0.016172289590711,-0.011787150317886,0.001729067968814,0.003454481775103
2.056,0.005621111665699,-0.016170005739133,-0.011787342642229,0.001732193239394,0.003495639184591
2.06,0.005625679368855,-0.016172481915055,-0.011786885871913,0.001731399901477,0.003462631519155
2.064,0.005626424625686,-0.016171640496052,-0.011786501223227,0.001725245522489,0.003443976057844
2.068,0.005627290085231,-0.0161733473746,-0.011786164655626,0.001731375860935,0.003465588505934
2.072,0.005623347436191,-0.016171087563565,-0.011786020412368,0.00173594356409,0.003508404712884
2.076,0.005621303990043,-0.016170125941848,-0.01178570788531,0.001736159928977,0.003504053374615
2.08,0.005627025639259,-0.016172409793426,-0.011785058790651,0.001735414672146,0.003461044843321
2.084,0.00562991050441,-0.016174020509802,-0.011784193331106,0.001729260293157,0.003477176047624
2.088,0.005630607680155,-0.016173323334057,-0.011783399993189,0.001725485927918,0.003540594999861
2.092,0.00562555916614,-0.016171616455509,-0.011783087466131,0.001722961670911,0.003534416580329
2.096,0.005625679368855,-0.016171472212252,-0.011783231709389,0.001720918224762,0.003508909564286
2.1,0.005623395517277,-0.016170943320307,-0.011783520195904,0.00171062887239,0.003505014996332
2.104,0.005622481976646,-0.016170174022934,-0.011783496155361,0.001705339952947,0.003543311581212
2.108,0.005623876328136,-0.016170077860762,-0.011783880804048,0.00170594096652,0.003569034962142
2.112,0.005622554098275,-0.016168322901129,-0.011783616358076,0.001725125319774,0.003542926932525
2.116,0.005626352504057,-0.016169500887732,-0.011783688479704,0.001752507498166,0.003524175309043
2.12,0.005630872126127,-0.016168491184929,-0.011783183628303,0.001782486055194,0.003568145462053
2.124,0.00562695351763,-0.016170125941848,-0.011782823020159,0.00182609560006,0.003612932993523
2.128,0.005621736719815,-0.016170366347277,-0.011781933520071,0.001857228103148,0.003581319679577
2.132,0.005622866625333,-0.016168875833616,-0.01178176523627,0.001861050549473,0.003553985582271
2.136,0.005624357138994,-0.016170510590535,-0.01178118826324,0.001856603049032,0.00356227956958
2.14,0.005625270679625,-0.016169957658047,-0.011780923817268,0.001848188859008,0.003566077975362
2.144,0.005616784367973,-0.01616899603633,-0.011781284425412,0.001832923114251,0.003576776016964
2.148,0.005614236070423,-0.016169020076873,-0.01178077957401,0.001810156720101,0.003531026863777
2.152,0.00562284258479,-0.016168899874159,-0.011779986236094,0.001789746299157,0.00357814632791
2.156,0.005625631287769,-0.016169332603931,-0.011779721790122,0.001771908216307,0.003618294034596
2.16,0.005626136139171,-0.016168899874159,-0.011779409263064,0.001754382660514,0.003601922424863
2.164,0.005622457936103,-0.016169044117416,-0.011778591884604,0.001739357321186,0.003575045097873
2.168,0.005621953084702,-0.016171039482479,-0.011778351479175,0.001728010184925,0.003596296937819
2.172,0.005625463003969,-0.016170895239222,-0.01177847168189,0.00172065377879,0.00364848895651
2.176,0.00562736220686,-0.016171231806823,-0.011778760168405,0.001725245522489,0.003633487657724
2.18,0.005621303990043,-0.016173106969171,-0.011777510060173,0.001729813225644,0.003596849870306
2.184,0.005621015503528,-0.016174813847718,-0.011776476316827,0.001731063333877,0.003610721263574
2.188,0.005626136139171,-0.016174597482832,-0.011775634897824,0.001731688387993,0.00366632703936
2.192,0.005630775963955,-0.016174092631431,-0.01177395205982,0.001732385563737,0.003625938927246
2.196,0.005629670098981,-0.016173203131342,-0.011772509627244,0.001730149793245,0.003585983544904
2.2,0.005626689071658,-0.016173251212428,-0.011771259519012,0.001725774414433,0.003605504465759
2.204,0.005626448666229,-0.016173131009714,-0.011770057491866,0.001726856238865,0.003656638700561
2.208,0.005622145409045,-0.016171015441936,-0.011768350613318,0.001729813225644,0.003673154553551
2.212,0.005616087192228,-0.016169452806646,-0.011766932221285,0.00173010171216,0.003632742400894
2.216,0.005613851421736,-0.016174693645004,-0.011765057058937,0.00172986130673,0.003634040590212
2.22,0.005616495881458,-0.016174164753059,-0.01176351846419,0.001730245955417,0.003679982067742
2.224,0.005617794070776,-0.016172890604284,-0.011762773207359,0.001729620901301,0.003691136879659
2.228,0.005621087625156,-0.016173010806999,-0.011761402896413,0.001726784117236,0.003667072296191
2.232,0.00562423693628,-0.016173659901658,-0.011761282693698,0.001725654211718,0.003674981634813
2.236,0.005627266044688,-0.016174765766633,-0.011761667342385,0.001724235819686,0.003702940786235
2.24,0.005623635922706,-0.016174549401746,-0.011762100072157,0.001722360657338,0.003711090530287
2.244,0.005624188855194,-0.016175030212605,-0.011762100072157,0.001719067102957,0.003695656501729
2.248,0.00562834786912,-0.016174789807175,-0.011762484720844,0.001717889116353,0.003672721823778
2.252,0.005631713545129,-0.016173251212428,-0.011763013612789,0.001723298238512,0.003696690245075
2.256,0.005631809707301,-0.016171472212252,-0.011763566545276,0.001724812792716,0.00374193454686
2.26,0.005634478207566,-0.016172049185282,-0.011763806950705,0.001722697224939,0.003746093560786
2.264,0.005632843450647,-0.016169621090447,-0.011764480085907,0.001723298238512,0.003717845922849
2.268,0.005634814775167,-0.016168755630901,-0.011765057058937,0.001722456819509,0.003728159315764
2.272,0.005633516585849,-0.016170125941848,-0.011765585950882,0.00172024508956,0.003758161913335
2.276,0.005633348302048,-0.016170366347277,-0.011766186964455,0.001713321413198,0.003772393914747
2.28,0.005635656194169,-0.016170101901305,-0.011766932221285,0.001711566453564,0.003741309492744
2.284,0.005635055180596,-0.016170438468906,-0.011766836059114,0.001714307075458,0.003734313694753
2.288,0.005632723247932,-0.016170198063477,-0.011766114842826,0.001719692157073,0.003779149307309
2.292,0.005629309490837,-0.016170558671621,-0.011765297464367,0.001724692590001,0.003780663861513
2.296,0.005628083423148,-0.016169621090447,-0.011764600288622,0.001717071737894,0.003747944682592
2.3,0.005626929477087,-0.016169957658047,-0.011764167558849,0.001711951102251,0.003745228101241
2.304,0.005631665464043,-0.016172265550168,-0.011764287761564,0.001708200777555,0.003797780728076
2.308,0.005631352936985,-0.016172866563741,-0.011764936856223,0.00171219150768,0.003807805634475
2.312,0.005624188855194,-0.016171303928451,-0.01176548978871,0.001714956170117,0.003779582037081
2.316,0.005626184220257,-0.016169693212075,-0.011765609991425,0.001716590927036,0.003759964954054
2.32,0.005630800004498,-0.016167409360497,-0.011766355248255,0.001719740238159,0.003818696000421
2.324,0.005631160612642,-0.016164524495346,-0.011766932221285,0.001716759210836,0.003854516409379
2.328,0.005633420423677,-0.01616767380647,-0.011767292829429,0.001710388466961,0.003803069647519
2.332,0.005632338599245,-0.016168130576785,-0.011767268788886,0.001712071304966,0.003796578700929
2.336,0.005630727882869,-0.016167168955068,-0.011767413032144,0.001711806858993,0.003825451392983
2.34,0.005632314558702,-0.0161682507795,-0.011767148586172,0.00171046058859,0.003834731042552
2.344,0.005630679801784,-0.016167721887555,-0.011767076464543,0.00170848926407,0.00383602923187
2.348,0.00562892484215,-0.016168370982214,-0.011767413032144,0.001704738939373,0.003821532784486
2.352,0.005624164814651,-0.016167914211899,-0.011767893843002,0.00170002699296,0.003857160869101
2.356,0.00561774598969,-0.016168274820043,-0.011768494856576,0.001702334885081,0.003889134791192
2.36,0.005613418691963,-0.016165822684664,-0.011768422734947,0.001704450452858,0.003864348991436
2.364,0.005615582340826,-0.016170029779676,-0.011768975667434,0.001705267831318,0.003827807366189
2.368,0.005626761193287,-0.016169597049904,-0.011768879505262,0.001705989047605,0.003863267167004
2.372,0.005645729181655,-0.016168731590358,-0.011768711221462,0.001709354723615,0.003873268032861
2.376,0.005656307020542,-0.016169212401217,-0.011768591018747,0.001716086075634,0.003874758546522
2.38,0.00565447993928,-0.016173203131342,-0.011767893843002,0.001717071737894,0.003858338855704
2.384,0.005651667195757,-0.016169693212075,-0.01176664373477,0.0017141628322,0.003879927263251
2.388,0.00564421462745,-0.016166616022581,-0.011765321504909,0.001718009319068,0.003918800821161
2.392,0.005650873857841,-0.016167745928098,-0.011764768572422,0.001715412940432,0.003916180401983
2.396,0.005649743952323,-0.016166399657695,-0.011763782910162,0.001712696359082,0.003881513939084
2.4,0.005641594208272,-0.016164019643945,-0.011762388558673,0.001718225683954,0.003910146225708
2.404,0.005635728315798,-0.016164788941319,-0.011761450977498,0.001720004684131,0.003939115079933
2.408,0.005633588707478,-0.016167241076697,-0.011761042288269,0.001717792954182,0.003933465552346
2.412,0.005635439829283,-0.01616471681969,-0.011759335409721,0.00172180772485,0.003912598361087
2.416,0.005638324694434,-0.016165173590005,-0.011757941058231,0.00172163944105,0.003909689455393
2.42,0.005634862856253,-0.016167313198326,-0.011756714990542,0.001724043495342,0.003944355918291
2.424,0.005627073720345,-0.016166207333351,-0.011756017814797,0.001727625536238,0.003962073798427
2.428,0.005629622017895,-0.016166471779323,-0.011756234179684,0.001730895050076,0.003946711891498
2.432,0.00563286749119,-0.016168274820043,-0.011755681247196,0.001731544144735,0.00394204802617
2.436,0.005630295153097,-0.016167048752354,-0.011754671544394,0.001727168765923,0.003996403693724
2.44,0.005631376977528,-0.016165894806293,-0.011753517598333,0.001722264495166,0.004005851627094
2.444,0.005635199423853,-0.016165630360321,-0.011752796382045,0.001723081873625,0.00397188233994
2.448,0.0056313048559,-0.016166543900952,-0.011751690517071,0.001728611198498,0.003951015148681
2.452,0.005627554531203,-0.016165654400864,-0.011750488489925,0.001729813225644,0.003989888706591
2.456,0.005628564234006,-0.016165317833263,-0.011749118178978,0.001728250590354,0.004015876533494
2.46,0.005628636355635,-0.016164764900776,-0.011748060395089,0.001721879846479,0.004000586748193
2.464,0.005629237369208,-0.0161633224682,-0.011747291097716,0.001723009751997,0.00395067858108
2.468,0.005629477774637,-0.016163995603402,-0.011746786246314,0.00172377904937,0.003988879003789
2.472,0.005630751923412,-0.016167553603755,-0.01174625735437,0.001722408738423,0.00403590230575
2.476,0.005630848085584,-0.016167313198326,-0.011744983205595,0.001726447549635,0.004024122439717
2.48,0.005634983058967,-0.01616512550892,-0.01174330036759,0.001732097077222,0.003981979367969
2.484,0.005632434761417,-0.016164644698061,-0.011742170462072,0.001734308807171,0.004013520560287
2.488,0.00563229051816,-0.016167866130813,-0.011741449245785,0.001730798887904,0.004051889266796
2.492,0.005630992328842,-0.016168731590358,-0.011741256921441,0.001727409171352,0.004063260443599
2.496,0.005632194355988,-0.016171159685194,-0.011741425205242,0.001729428576958,0.004026959223782
2.5,0.005628804639435,-0.01616940472556,-0.011740968434926,0.00172870736067,0.00402472345329
2.504,0.005624525422795,-0.016168034414613,-0.011740463583525,0.001731760509621,0.004078381945099
2.508,0.00562933353138,-0.016166135211722,-0.011739886610495,0.001731688387993,0.004054918375204
2.512,0.005638012167376,-0.016164837022404,-0.01173878074552,0.001732169198851,0.004033498251458
2.516,0.005638613180949,-0.016165558238692,-0.011737771042717,0.001727745738953,0.004044003968716
2.52,0.005637050545659,-0.016167096833439,-0.011738275894119,0.001726231184749,0.004101460866308
2.524,0.005632362639788,-0.016165197630548,-0.011739574083437,0.001727841901125,0.004100451163505
2.528,0.005630271112554,-0.016164548535889,-0.011740703988954,0.001726014819862,0.004062995997627
2.532,0.005632410720874,-0.016163370549286,-0.011741545407956,0.001727793820039,0.004059918808133
2.536,0.005634574369737,-0.016164524495346,-0.011742507029673,0.001730726766276,0.004089656959731
2.54,0.005631641423501,-0.016166039049551,-0.011742915718903,0.001730702725733,0.004094152541258
2.544,0.00563031919364,-0.016166231373894,-0.011743733097363,0.001730077671617,0.00407403060683
2.548,0.005628419990749,-0.016165918846836,-0.011744069664964,0.001725678252261,0.004082228431967
2.552,0.005626232301342,-0.016166567941495,-0.011744406232564,0.001720148927388,0.00409112343285
2.556,0.005624741787681,-0.016162120441054,-0.011744598556908,0.001725197441403,0.004108721110271
2.56,0.005622337733388,-0.016161639630195,-0.011744069664964,0.001734549212601,0.004102999461055
2.564,0.005624525422795,-0.016161543468024,-0.011743660975734,0.001737674483181,0.004068573403586
2.568,0.005627963220433,-0.016161663670738,-0.011743252286504,0.001738107212954,0.004098503879528
2.572,0.005627434328489,-0.016161591549109,-0.011743228245961,0.001738876510327,0.004122376138653
2.576,0.005628468071834,-0.016160125075991,-0.011742819556731,0.001744718362258,0.004117712273325
2.58,0.005629838382781,-0.016160678008478,-0.011741978137729,0.001745728065061,0.004100787731106
2.584,0.005631905869473,-0.016161423265309,-0.011741617529585,0.001739044794128,0.004121246233135
2.588,0.005632338599245,-0.016161904076168,-0.01174214642153,0.001739429442815,0.004167500237723
2.592,0.005627193923059,-0.016162312765397,-0.011742386826959,0.001739525604986,0.004184809428629
2.596,0.005623972490307,-0.016163827319602,-0.011742386826959,0.001735991645176,0.004114803367631
2.6,0.005625318760711,-0.016160918413908,-0.011742675313474,0.001734981942373,0.004136800464408
2.604,0.00562834786912,-0.016159860630019,-0.011742819556731,0.001734453050429,0.004197863443438
2.608,0.005630006666582,-0.016160293359792,-0.011742771475646,0.001735222347803,0.004195074740459
2.612,0.005626472706772,-0.016157865264956,-0.011742218543158,0.001734765577487,0.00415867735847
2.616,0.005628948882693,-0.016157095967582,-0.011741809853929,0.001735078104545,0.004158316750326
2.62,0.005632386680331,-0.016160942454451,-0.011740511664611,0.001738443780555,0.004199882849044
2.624,0.005633805072364,-0.016158850927216,-0.011740006813209,0.001737890848067,0.004215965972261
2.628,0.00563303577499,-0.016155653535007,-0.011740102975381,0.001737962969696,0.004186660550435
2.632,0.005625919774284,-0.016156927683782,-0.01173976640778,0.001734116482828,0.004176587562949
2.636,0.005626112098628,-0.016156975764868,-0.011738900948235,0.00173142394202,0.004221976107992
2.64,0.005629285450294,-0.01615666323781,-0.011738275894119,0.001725221481946,0.004216398702033
2.644,0.005631425058614,-0.01615863456233,-0.011737290231859,0.00171613415672,0.004192863010509
2.648,0.005634910937338,-0.016158730724501,-0.011736569015571,0.00172377904937,0.004195819997289
2.652,0.005636593775343,-0.016159572143504,-0.011736472853399,0.001736424374949,0.004226832297663
2.656,0.005633252139877,-0.016161952157253,-0.011735439110053,0.001744093308142,0.004253709624653
2.66,0.005632314558702,-0.01616175983291,-0.01173385243422,0.001744453916286,0.004220341351073
2.664,0.005630655761241,-0.016161663670738,-0.011733203339561,0.001745247254202,0.004195459389145
2.668,0.005631593342415,-0.016162793576256,-0.011732482123274,0.001740174699645,0.004229164230327
2.672,0.005633228099334,-0.016163947522316,-0.011732361920559,0.001737001347979,0.004249550610727
2.676,0.005632098193816,-0.016163514792544,-0.011731616663728,0.001735871442462,0.004235895582346
2.68,0.005629646058438,-0.016162360846483,-0.011730943528526,0.001731303739306,0.004223803189254
2.684,0.005632699207389,-0.016160101035448,-0.011730799285269,0.001726784117236,0.004245151191372
2.688,0.005642579870532,-0.016160822251736,-0.011730919487983,0.001723346319598,0.004266619396204
2.692,0.00564289239759,-0.01616077417065,-0.011730366555496,0.001726086941491,0.004280082100242
2.696,0.005633781031821,-0.016159355778617,-0.01172974150138,0.001725413806289,0.004251041124389
2.7,0.005628828679978,-0.016160702049021,-0.01172974150138,0.001726952401036,0.004284770006113
2.704,0.005630751923412,-0.016161783873453,-0.011729909785181,0.001728587157955,0.004304603454026
2.708,0.005633516585849,-0.016162937819513,-0.011729092406721,0.001726687955064,0.004287005776605
2.712,0.005635151342768,-0.016161158819337,-0.011728106744461,0.001723923292628,0.004283039087022
2.716,0.005629766261152,-0.016161591549109,-0.01172760189306,0.001723562684484,0.004290900344559
2.72,0.005626039976999,-0.016160125075991,-0.011727481690345,0.001724981076516,0.004312464711563
2.724,0.005625679368855,-0.016158586481244,-0.01172702492003,0.001729164130985,0.004328451672608
2.728,0.005629045044865,-0.016158033548757,-0.011726832595686,0.001731544144735,0.004312777238621
2.732,0.005627698774461,-0.016156903643239,-0.011726568149714,0.00173224132048,0.004275490356544
2.736,0.005630006666582,-0.01615764890007,-0.011725919055055,0.00173142394202,0.004325879334515
2.74,0.005629838382781,-0.016158273954186,-0.011725390163111,0.001736833064179,0.004350761296443
2.744,0.005632218396531,-0.016158730724501,-0.011724909352252,0.00174128056462,0.004323282955879
2.748,0.005631833747844,-0.016160509724678,-0.011725125717138,0.001742891280996,0.004306863265061
2.752,0.00563541578874,-0.016161110738251,-0.011725245919853,0.001734669415315,0.004345159849941
2.756,0.00563952672158,-0.016161831954539,-0.011725486325282,0.00172303379254,0.00437170060933
2.76,0.005639887329724,-0.016161375184223,-0.011725750771254,0.001725005117059,0.004355857891543
2.764,0.005640007532439,-0.016160509724678,-0.011725919055055,0.001737554280466,0.004339654565611
2.768,0.00563361274802,-0.016162120441054,-0.011726063298313,0.001749622633015,0.004374056582537
2.772,0.005631809707301,-0.016158826886673,-0.011725702690169,0.001754238417256,0.004390500313898
2.776,0.0056314731397,-0.016156735359439,-0.011724741068452,0.001752411335994,0.004358983162123
2.78,0.005634622450823,-0.01616019719762,-0.011723611162934,0.001746617565149,0.004314363914454
2.784,0.005636064883399,-0.016159668305675,-0.011723346716962,0.001745054929859,0.004351650796531
2.788,0.005636377410457,-0.016159572143504,-0.011723587122391,0.001745487659632,0.004397207625374
2.792,0.005640848951441,-0.016160149116534,-0.011722769743932,0.001748204240982,0.00438468250251
2.796,0.005634694572452,-0.016160437603049,-0.011722793784475,0.001751545876449,0.004365690473599
2.8,0.005632074153273,-0.016161206900423,-0.011722024487101,0.001747122416551,0.004373984460908
2.804,0.005630006666582,-0.016158466278529,-0.011720654176154,0.001746713727321,0.004401102193328
2.808,0.005628996963779,-0.016157264251383,-0.011718995378692,0.001745776146147,0.004397207625374
2.812,0.005628708477264,-0.016157721021699,-0.011717649108289,0.001744694321715,0.004371556366073
2.816,0.005634526288652,-0.01615880284613,-0.011715653743226,0.001745824227233,0.004399515517495
2.82,0.00564207501913,-0.016161206900423,-0.011715004648567,0.001742049861993,0.004438581399749
2.824,0.005643709776049,-0.016163683076344,-0.011713850702506,0.001739934294216,0.004427979520318
2.828,0.005639093991807,-0.016162144481597,-0.011714018986307,0.001738443780555,0.004393865989908
2.832,0.005638180451176,-0.016158754765044,-0.011714644040423,0.001730390198675,0.004383648759164
2.836,0.005637699640318,-0.01615666323781,-0.01171445171608,0.00172517340086,0.00444319718399
2.84,0.005636930342944,-0.01615625454858,-0.011714571918794,0.001726976441579,0.004440961413498
2.844,0.005640536424383,-0.016155220805234,-0.011714764243138,0.00173010171216,0.004403265842191
2.848,0.005638252572805,-0.016156759399982,-0.011715293135082,0.001746064632662,0.004391149408557
2.852,0.005637194788916,-0.016157576778441,-0.011714668080966,0.001774408432771,0.0044418028325
2.856,0.005635055180596,-0.016158778805587,-0.011713682418706,0.001801165557047,0.004454928968938
2.86,0.005631713545129,-0.016160846292279,-0.011713490094363,0.001844198128883,0.00443300399379
2.864,0.00562933353138,-0.016160750130107,-0.011713297770019,0.00188304764625,0.004422065546759
2.868,0.005627722815004,-0.016160389521963,-0.011713658378163,0.001885764227601,0.00442610435797
2.872,0.005630944247756,-0.016159091332645,-0.011713369891648,0.001880523389243,0.004476517376485
2.876,0.005633155977705,-0.016156615156724,-0.011713898783592,0.0018703061585,0.004453366333648
2.88,0.005635920640141,-0.016154427467318,-0.011713586256534,0.00184869371041,0.004429614277237
2.884,0.005635728315798,-0.016156230508037,-0.011712937161875,0.001824653167485,0.004451130563155
2.888,0.005641786532615,-0.016156110305323,-0.01171264867536,0.001804411030342,0.004493778486305
2.892,0.005639670964838,-0.016154836156547,-0.011712528472646,0.00178130806859,0.004490172404866
2.896,0.005632795369561,-0.016153610088858,-0.011712720796989,0.001765489391346,0.004451563292928
2.9,0.005632266477617,-0.016152768669856,-0.011713778580878,0.001757459850008,0.004463391240047
2.904,0.005636497613171,-0.016152912913113,-0.011714980608024,0.001752844065767,0.004518924894205
2.908,0.005639069951264,-0.016154643832204,-0.011715557581054,0.001750968903419,0.004533998314619
2.912,0.005641401883928,-0.016154138980803,-0.011716254756799,0.001751545876449,0.004465843375426
2.916,0.005640897032527,-0.016150725223707,-0.011716903851458,0.001749382227586,0.004495124756709
2.92,0.005640271978411,-0.016148489453215,-0.011716783648743,0.001748877376184,0.004545561815766
2.924,0.005633781031821,-0.016149571277647,-0.011716302837885,0.001745679983975,0.004533541544303
2.928,0.005631232734271,-0.016149523196561,-0.011715653743226,0.001740367023989,0.004501182973526
2.932,0.005627602612289,-0.01614976360199,-0.011714980608024,0.001737866807524,0.004499452054435
2.936,0.005622073287416,-0.016146902777382,-0.011713417972734,0.001744886646059,0.004547557180829
2.94,0.005625943814827,-0.016146758534125,-0.011712600594274,0.001742001780908,0.004545056964364
2.944,0.005637290951088,-0.016147167223354,-0.011712264026673,0.001735823361376,0.004511905055671
2.948,0.00562892484215,-0.016148369250501,-0.011710701391383,0.001737987010239,0.004514261028877
2.952,0.005620799138641,-0.016149378953303,-0.011709234918265,0.001747242619265,0.004568496493717
2.956,0.00561849124652,-0.016150220372306,-0.011709186837179,0.001751930525136,0.004552653775929
2.96,0.005620775098098,-0.016153850494288,-0.011708489661434,0.001749045659985,0.004524935029936
2.964,0.005619909638553,-0.016156879602696,-0.011707816526232,0.001745103010945,0.004512433947615
2.968,0.005619957719639,-0.016155461210664,-0.011708489661434,0.001750295768217,0.004549889113492
2.972,0.005629357571923,-0.016153345642886,-0.011708345418177,0.001751425673734,0.004586574981996
2.976,0.005624645625509,-0.016151951291396,-0.011708970472293,0.001748420605869,0.004570419737151
2.98,0.005619765395295,-0.016148465412672,-0.011709379161522,0.001745487659632,0.004549768910778
2.984,0.005617361341003,-0.016144426601461,-0.011709956134553,0.001743612497284,0.00457419410239
2.988,0.005618130638377,-0.016145051655577,-0.011710436945411,0.001739261159014,0.004620568309693
2.992,0.005618106597834,-0.016146854696296,-0.011710148458896,0.001737987010239,0.004595013212563
2.996,0.005621424192757,-0.016146133480009,-0.01171010037781,0.001737049429065,0.004591359050039
3,0.005626665031115,-0.01614680661521,-0.011710845634641,0.001735318509974,0.004609485619404
3.004,0.005627434328489,-0.01614721530444,-0.011711013918441,0.001733467388169,0.004636170622051
3.008,0.005629790301695,-0.016148008642357,-0.011711158161699,0.001732553847538,0.004626746729225
3.012,0.005628107463691,-0.016147696115299,-0.011711566850929,0.001728010184925,0.0046028744701
3.016,0.005625366841797,-0.016148249047786,-0.011711278364413,0.00172377904937,0.004633357878529
3.02,0.00562539088234,-0.016144691047433,-0.011712167864502,0.001722865508739,0.004670212030833
3.024,0.005629597977352,-0.016144210236575,-0.011712047661787,0.001725726333347,0.004651436366809
3.028,0.005631809707301,-0.016143320736486,-0.011711807256358,0.001729813225644,0.004604268821589
3.032,0.005630631720698,-0.016141830222825,-0.011711206242785,0.001734020320656,0.004613957160388
3.036,0.005635055180596,-0.016143440939201,-0.011710364823782,0.001730053631074,0.004670909206578
3.04,0.005631497180243,-0.016142671641827,-0.01170993209401,0.001723851170999,0.004680597545377
3.044,0.005626713112201,-0.016141758101196,-0.011709258958808,0.001726591792892,0.004649537163918
3.048,0.005625823612113,-0.01614622964218,-0.011708850269578,0.001725726333347,0.004615976565994
3.052,0.005621712679272,-0.016143873668974,-0.01170969168858,0.001726207144206,0.004681511086008
3.056,0.005618539327606,-0.01614171002011,-0.011710124418353,0.001728731401213,0.004702594642154
3.06,0.005622578138818,-0.016143489020287,-0.011710773513012,0.001725101279231,0.004656076191593
3.064,0.005622914706419,-0.016144594885261,-0.011711158161699,0.001721759643764,0.004641555703667
3.068,0.005624453301166,-0.016146830655753,-0.011711374526585,0.001719692157073,0.004701897466409
3.072,0.00562243389556,-0.016145219939377,-0.011712672715903,0.001717504467667,0.0047139898595
3.076,0.005624501382252,-0.016143176493229,-0.011713850702506,0.00172024508956,0.004670933247121
3.08,0.005628948882693,-0.016142936087799,-0.011713682418706,0.001723274197969,0.004638815081773
3.084,0.005633588707478,-0.016140267587535,-0.011713898783592,0.001725630171175,0.004692473573582
3.088,0.005627794936633,-0.016141517695767,-0.011714163229565,0.001723538643941,0.004745026200417
3.092,0.005620270246697,-0.016139834857762,-0.011713802621421,0.00172082206259,0.004710095291546
3.096,0.005619284584437,-0.016137695249442,-0.011713658378163,0.001719571954358,0.004721995360294
3.1,0.005617794070776,-0.016139762736133,-0.011713273729476,0.001720124886846,0.004749786227916
3.104,0.005619212462808,-0.016140532033507,-0.011712720796989,0.001722192373537,0.00478195247435
3.108,0.005612336867532,-0.01614171002011,-0.011712288067216,0.001724981076516,0.004775413446674
3.112,0.005606759461573,-0.016142046587711,-0.011712360188845,0.001729356455329,0.004734544523701
3.116,0.00561264939459,-0.016143753466259,-0.011713321810562,0.001736592658749,0.004750387241489
3.12,0.00562243389556,-0.01614351306083,-0.011713129486219,0.001736496496578,0.004810464558259
3.124,0.005635896599598,-0.01614425831766,-0.011713538175448,0.001734501131515,0.004810248193373
3.128,0.005643349167905,-0.016146325804352,-0.011714499797165,0.001740246821274,0.004784813298958
3.132,0.005646859087172,-0.01614368134463,-0.011715870108112,0.001738948631956,0.00482140300529
3.136,0.005648854452235,-0.016145171858292,-0.011716639405486,0.001734621334229,0.004832533776665
3.14,0.005645633019483,-0.016146421966524,-0.011716855770372,0.001735054064002,0.004832918425352
3.144,0.005640175816239,-0.016146494088152,-0.011716735567658,0.0017343809288,0.004796545083906
3.148,0.005634358004851,-0.016147431669327,-0.011716615364943,0.001735342550517,0.004785702799046
3.152,0.005627121801431,-0.016148537534301,-0.011716567283857,0.001741160361905,0.004841404737004
3.156,0.005627386247403,-0.01614721530444,-0.011716423040599,0.001740895915933,0.004842101912749
3.16,0.005629309490837,-0.016145099736663,-0.011716543243314,0.001738179334582,0.00480176188172
3.164,0.005630631720698,-0.016146854696296,-0.011717264459602,0.001738035091325,0.004791015759033
3.168,0.005631184653185,-0.01614721530444,-0.011717769311003,0.001741520970049,0.004840226750401
3.172,0.005629429693551,-0.016145941155665,-0.011718129919147,0.001741833497107,0.004866070334046
3.176,0.005626881396001,-0.016146085398923,-0.011718658811092,0.001738588023812,0.004844698291385
3.18,0.005628155544776,-0.016149210669503,-0.011719380027379,0.001735462753232,0.004801954206064
3.184,0.005623876328136,-0.016149571277647,-0.011719500230094,0.001729789185102,0.004846525372647
3.188,0.005621832881987,-0.016146926817925,-0.011718851135435,0.001731063333877,0.004880326376
3.192,0.005625318760711,-0.016146446007067,-0.011718129919147,0.001739645807701,0.004858978373883
3.196,0.00562834786912,-0.016146590250324,-0.011717697189375,0.001747266659808,0.004851213278518
3.2,0.005629814342238,-0.016146446007067,-0.011717504865031,0.0017493341465,0.004874797051127
3.204,0.005629285450294,-0.016146037317837,-0.011716879810915,0.001744598159543,0.00489347655298
3.208,0.005624934112024,-0.016145820952951,-0.011717072135258,0.001749141822156,0.004880446578715
3.212,0.005627794936633,-0.016144739128519,-0.011717528905574,0.001745872308319,0.004858088873794
3.216,0.00563048747744,-0.016147551872041,-0.011717817392089,0.001745655943432,0.004891793714976
3.22,0.005626929477087,-0.016148297128872,-0.011717865473175,0.001743949064884,0.00493711013839
3.224,0.005627674733918,-0.016148056723443,-0.011717601027203,0.001741040159191,0.00491294939275
3.228,0.005626520787857,-0.016149811683076,-0.011717312540688,0.001743203808054,0.004863497995953
3.232,0.005622866625333,-0.016148273088329,-0.011716615364943,0.001744165429771,0.004881744768033
3.236,0.005623347436191,-0.016146734493582,-0.01171618263517,0.001743155726968,0.004929777772797
3.24,0.0056265448284,-0.016148225007243,-0.011715894148655,0.001741737334935,0.00493456184084
3.244,0.005627987260976,-0.016148249047786,-0.011715100810739,0.001741833497107,0.004914872636184
3.248,0.005622890665876,-0.016146998939554,-0.011714018986307,0.001739333280643,0.004874099875383
3.252,0.00561438031368,-0.016145147817749,-0.01171363433762,0.001740823794304,0.004933455975865
3.256,0.005611928178302,-0.016146734493582,-0.011713345851105,0.001741593091678,0.004954227004952
3.26,0.005612937881105,-0.016147816318013,-0.011712961202418,0.001744886646059,0.004927373718505
3.264,0.005617409422089,-0.016147431669327,-0.011712312107759,0.001745415538003,0.004933792543466
3.268,0.005621977125245,-0.016145027615034,-0.01171091775627,0.001745655943432,0.004963674938322
3.272,0.005622457936103,-0.016145820952951,-0.011710244621068,0.001745006848773,0.004954900140154
3.276,0.005619380746609,-0.016145772871865,-0.011710412904868,0.00174481452443,0.004928094934793
3.28,0.005622001165788,-0.016146854696296,-0.011710797553555,0.001738155294039,0.004915690014643
3.284,0.005624501382252,-0.016145676709693,-0.011710941796813,0.001733034658396,0.004947952423249
3.288,0.005625246639082,-0.016147407628784,-0.011711470688757,0.00173774660481,0.004980310994026
3.292,0.005622385814474,-0.016148393291044,-0.011711759175272,0.001747266659808,0.004951678707402
3.296,0.005623708044335,-0.016146974899011,-0.011711951499615,0.001749646673558,0.004933311732608
3.3,0.005618827814121,-0.016148585615387,-0.011712047661787,0.00174892545727,0.004956366613273
3.304,0.005620943381899,-0.016148850061359,-0.011711566850929,0.001746521402977,0.004990095494997
3.308,0.005621880963073,-0.016146253682723,-0.011711566850929,0.001747314740894,0.004989566603053
3.312,0.005617481543718,-0.016146133480009,-0.011711134121156,0.001753180633368,0.004977906939734
3.316,0.005606999867002,-0.016148128845071,-0.01171067735084,0.001756522268834,0.004956703180874
3.32,0.005606687339944,-0.016148826020816,-0.011709571485866,0.001752219011651,0.004988917508394
3.324,0.005613611016307,-0.016147167223354,-0.011709403202065,0.001746665646235,0.004993797738607
3.328,0.005623034909133,-0.016146854696296,-0.011709643607495,0.001745030889316,0.004964035546466
3.332,0.005623034909133,-0.016146325804352,-0.011709258958808,0.001744045227056,0.004995288252269
3.336,0.005620582773755,-0.016147119142268,-0.011708994512836,0.001747843632838,0.005040724878398
3.34,0.005620174084525,-0.016147984601814,-0.011708633904692,0.001747747470667,0.005014833213667
3.344,0.005617697908604,-0.016147143182811,-0.011708080972204,0.00175031980876,0.005010794402456
3.348,0.005616616084172,-0.016147167223354,-0.011708417539805,0.001755656809289,0.004996442198329
3.352,0.005616423759829,-0.016148729858644,-0.01170812905329,0.001751521835906,0.005041542256857
3.356,0.005620342368326,-0.016146205601637,-0.011707768445146,0.001751089106133,0.005068900394706
3.36,0.00562029428724,-0.016145965196208,-0.011708345418177,0.001750464052017,0.00499915877968
3.364,0.005620991462985,-0.016146085398923,-0.011708561783063,0.001748685051841,0.004989350238166
3.368,0.005619260543894,-0.016146494088152,-0.011707984810033,0.001746401200263,0.005042407716402
3.372,0.00561716901666,-0.016148898142445,-0.011708225215462,0.001746353119177,0.005063996123949
3.376,0.005621736719815,-0.016149210669503,-0.011708201174919,0.001750199606045,0.005047937041275
3.38,0.005625078355282,-0.016145604588064,-0.011707984810033,0.00175303639011,0.005053971217549
3.384,0.005628275747491,-0.016144594885261,-0.01170755208026,0.00175286810631,0.005048658257563
3.388,0.005627626652832,-0.016146566209781,-0.011707071269402,0.001752892146853,0.005074261435778
3.392,0.005629766261152,-0.01614877793973,-0.011706951066687,0.001749526470843,0.005065486637611
3.396,0.00562185692253,-0.016149883804705,-0.011706350053114,0.001743275929683,0.005063322988747
3.4,0.005615582340826,-0.016149138547874,-0.011705965404427,0.00174399714597,0.005101258965483
3.404,0.005620150043982,-0.016152456142798,-0.011705893282798,0.001751738200792,0.005106403641669
3.408,0.005630054747667,-0.016150268453392,-0.01170517206651,0.001753949930741,0.005063972083406
3.412,0.005629646058438,-0.016149811683076,-0.011704667215109,0.00175106506559,0.005066279975527
3.416,0.005625919774284,-0.016148850061359,-0.011704811458367,0.001754983674087,0.005090392640081
3.42,0.005627794936633,-0.016147960561271,-0.011703945998821,0.001757411768923,0.005109865479851
3.424,0.005631641423501,-0.016148080763985,-0.011703104579819,0.001756786714807,0.005115298642552
3.428,0.005632506883046,-0.016145796912408,-0.011702912255475,0.001753661444226,0.005060293880339
3.432,0.00563048747744,-0.016146037317837,-0.011703200741991,0.001747819592295,0.005078708936219
3.436,0.005630992328842,-0.016146566209781,-0.011703344985248,0.001740679551047,0.005134002184948
3.44,0.005630535558526,-0.016144282358203,-0.011702479525703,0.001738780348156,0.005121212616111
3.444,0.005626424625686,-0.016145171858292,-0.011702191039188,0.001739213077928,0.005080680260739
3.448,0.005627314125774,-0.016148369250501,-0.011701926593216,0.001734236685543,0.005101739776342
3.452,0.005630247072011,-0.016151061791308,-0.011702311241902,0.001733731834141,0.005118832602362
3.456,0.005636088923942,-0.01615115795348,-0.011702022755387,0.001735534874861,0.005129482562878
3.46,0.005632963653361,-0.016149643399276,-0.011701830431044,0.001738612064355,0.005114553385721
3.464,0.005631785666758,-0.016144907412319,-0.011701565985072,0.001746016551576,0.005128472860075
3.468,0.005634622450823,-0.01614211870934,-0.011700700525526,0.001748132119353,0.00518530470355
3.472,0.005632242437074,-0.016142960128342,-0.011700989012041,0.001747699389581,0.005168524404588
3.476,0.005632362639788,-0.01614409003386,-0.011701686187786,0.001745679983975,0.005130708630567
3.48,0.005638060248462,-0.016142743763456,-0.01170245548516,0.001738203375125,0.005121813629684
3.484,0.005635487910369,-0.016144691047433,-0.011702840133847,0.001736520537121,0.005170519769651
3.488,0.005631232734271,-0.016145051655577,-0.011701710228329,0.001741328645706,0.005197805785871
3.492,0.005628852720521,-0.016142286993141,-0.011700027390324,0.001746305038091,0.005192180298827
3.496,0.005630607680155,-0.016142431236398,-0.011698657079378,0.001750127484416,0.005134651279607
3.5,0.005629718180067,-0.016145195898834,-0.011697863741461,0.001753901849656,0.005176505864839
3.504,0.005629718180067,-0.016142767803999,-0.011697983944176,0.001751329511563,0.005196026785695
3.508,0.00563541578874,-0.016144354479832,-0.011697743538747,0.00175007940333,0.005175592324208
3.512,0.005635896599598,-0.016145820952951,-0.011698032025262,0.001749286065414,0.005162730633743
3.516,0.005626015936456,-0.016144210236575,-0.011697983944176,0.001742987443167,0.005183020851972
3.52,0.00562325127402,-0.016141445574138,-0.011696974241373,0.001741761375478,0.00521867297713
3.524,0.005633877193993,-0.016144210236575,-0.011696493430514,0.001749814957358,0.005209922219506
3.528,0.005639093991807,-0.016146277723266,-0.011696805957572,0.00175558468766,0.00519549789375
3.532,0.005636137005028,-0.016146446007067,-0.011696878079201,0.001755656809289,0.005211532935882
3.536,0.005634093558879,-0.016145700750236,-0.011697262727888,0.001748300403154,0.00525894088653
3.54,0.00563854105932,-0.016147455709869,-0.011697503133317,0.001744021186513,0.00522343300463
3.544,0.005641425924471,-0.016146133480009,-0.011696565552143,0.001753060430653,0.005188742501188
3.548,0.005635656194169,-0.016145003574491,-0.011695195241196,0.001758902282584,0.005224346545261
3.552,0.005635343667111,-0.01614622964218,-0.011694522105995,0.001761763107192,0.005274038347487
3.556,0.005635560031997,-0.016146205601637,-0.011694449984366,0.001763782512798,0.005272980563599
3.56,0.005637242870002,-0.016145268020463,-0.011694786551967,0.001763109377596,0.005246439804209
3.564,0.005635968721227,-0.01614449872309,-0.011694257660022,0.001759046525842,0.0052131676928
3.568,0.005637098626745,-0.016144162155489,-0.011693897051879,0.001754142255085,0.005266177089951
3.572,0.005636016802313,-0.016144378520375,-0.011694065335679,0.001749670714101,0.005267331036011
3.576,0.005638565099863,-0.016144691047433,-0.011694065335679,0.001748973538356,0.005225885140008
3.58,0.005641810573158,-0.016142407195855,-0.01169324795722,0.001754743268658,0.005240333506306
3.584,0.005640007532439,-0.016142767803999,-0.011692646943646,0.001759383093442,0.005271441968851
3.588,0.005634141639965,-0.016142551439113,-0.011692142092245,0.001754983674087,0.005271994901339
3.592,0.00563344446422,-0.016143224574315,-0.011691733403015,0.001739693888787,0.005264470211403
3.596,0.005638252572805,-0.01614096476328,-0.011691733403015,0.001730462320303,0.00524381938503
3.6,0.005639695005381,-0.016144426601461,-0.011691565119215,0.001737698523724,0.005281803442852
3.604,0.005636209126656,-0.016146349844895,-0.011690603497498,0.001761378458505,0.005334692637288
3.608,0.005630391315268,-0.016145436304264,-0.011690651578584,0.001785611325774,0.005286900037952
3.612,0.005630848085584,-0.016144354479832,-0.01169029097044,0.001813233909595,0.005264013441087
3.616,0.00564092107307,-0.016146013277294,-0.011690339051526,0.00185181898099,0.005294088160287
3.62,0.005647796668346,-0.016147840358556,-0.01169103622727,0.001874801740027,0.005331086555849
3.624,0.005642219262388,-0.01614507569612,-0.011690483294783,0.001878672267438,0.005307454702153
3.628,0.005635247504939,-0.016143440939201,-0.011689449551437,0.001875787402287,0.005288270348899
3.632,0.005636473572629,-0.016144378520375,-0.011688055199948,0.001860329333186,0.005285169118862
3.636,0.005635487910369,-0.016141878303911,-0.011687478226917,0.00183768314175,0.005334740718374
3.64,0.005640055613524,-0.016142407195855,-0.011687189740402,0.001816238977461,0.005314859189374
3.644,0.005643541492249,-0.016144114074403,-0.011686588726829,0.00179897786764,0.005281490915794
3.648,0.005641257640671,-0.016144041952774,-0.01168593963217,0.001779985838729,0.005305723783063
3.652,0.005638252572805,-0.016145003574491,-0.011685170334797,0.00176149866122,0.005343707840885
3.656,0.005636689937515,-0.016144955493405,-0.011684809726653,0.001759839863758,0.005330725947705
3.66,0.005637026505116,-0.016148297128872,-0.011684136591451,0.00176346998574,0.005315267878604
3.664,0.005637819843032,-0.016149499156018,-0.011683872145479,0.00176387867497,0.005324811974145
3.668,0.005641401883928,-0.016146758534125,-0.011684280834708,0.001759383093442,0.00536068046419
3.672,0.005639863289181,-0.016145219939377,-0.011684713564481,0.001753228714454,0.005377172276637
3.676,0.005642964519218,-0.016144186196032,-0.011684641442852,0.001753421038797,0.00532945179893
3.68,0.005640728748726,-0.016141493655224,-0.011684401037423,0.001754502863229,0.005325821676948
3.684,0.005635151342768,-0.016142815885085,-0.011683367294077,0.001760753404389,0.005382893925853
3.688,0.005637940045747,-0.016143248614858,-0.011681924861502,0.001763037255967,0.005403568792769
3.692,0.005641786532615,-0.016143248614858,-0.011681444050643,0.001759190769099,0.005377556925323
3.696,0.005641642289357,-0.016147359547698,-0.011679424645038,0.001756498228291,0.005349453530644
3.7,0.005641690370443,-0.016148681777559,-0.011677597563775,0.001754502863229,0.005355487706918
3.704,0.005639622883752,-0.016148681777559,-0.0116761551312,0.001757700255438,0.005393399643111
3.708,0.005637819843032,-0.016148874101902,-0.01167492906351,0.001760585120589,0.005379239763328
3.712,0.005631665464043,-0.01614721530444,-0.011673823198536,0.001752194971108,0.005367195451323
3.716,0.005626665031115,-0.016145268020463,-0.011673678955278,0.001746040592119,0.005405708401089
3.72,0.005632002031644,-0.016146446007067,-0.011673534712021,0.00174753110578,0.005400034832959
3.724,0.005638396816063,-0.01614680661521,-0.011673751076907,0.001751569916992,0.00538738950738
3.728,0.005633756991278,-0.016148922182988,-0.011674712698624,0.00175402205237,0.005367988789239
3.732,0.005628011301519,-0.016148753899187,-0.011674784820253,0.001753565282055,0.005391644683478
3.736,0.005631521220786,-0.016148753899187,-0.011674472293195,0.00175130547102,0.005441697093848
3.74,0.005639598843209,-0.016146998939554,-0.01167418380668,0.001751185268305,0.005461746906648
3.744,0.005640945113613,-0.016146277723266,-0.011673847239079,0.001749382227586,0.00538582687209
3.748,0.005637218829459,-0.016146373885438,-0.011674736739167,0.001750055362787,0.005400924333047
3.752,0.005634213761594,-0.016147263385526,-0.011676131090657,0.001750391930388,0.005457059000777
3.756,0.005637699640318,-0.016148970264074,-0.011677862009747,0.001748661011298,0.00545609737906
3.76,0.005637747721404,-0.016150484818278,-0.011678943834179,0.001747050294922,0.00542765741678
3.764,0.005640704708183,-0.01615058098045,-0.011679568888295,0.001744453916286,0.005422681024394
3.768,0.005651042141641,-0.016150869466965,-0.011679761212638,0.001741328645706,0.00546415096094
3.772,0.005646690803372,-0.016150941588594,-0.011679641009924,0.001738155294039,0.005487398165949
3.776,0.005645777262741,-0.016148080763985,-0.011679616969381,0.001743852902713,0.005435061904001
3.78,0.005647123533144,-0.016151951291396,-0.01168043434784,0.00174325188914,0.005427489132979
3.784,0.005648878492778,-0.016151927250854,-0.011680193942411,0.001738251456211,0.005499514599583
3.788,0.005654407817651,-0.016151638764338,-0.011679400604495,0.001736111847891,0.005481171665331
3.792,0.00565070557404,-0.01615231189954,-0.011679520807209,0.001742001780908,0.005452491297621
3.796,0.005647027370973,-0.016152191696826,-0.011679328482866,0.001746305038091,0.005445279134744
3.8,0.005646258073599,-0.016151614723796,-0.011679376563952,0.001749814957358,0.005483142989851
3.804,0.005646258073599,-0.016151975331939,-0.011679304442323,0.001754502863229,0.005519011479896
3.808,0.005650465168611,-0.0161482009667,-0.011678342820606,0.001747314740894,0.005487350084863
3.812,0.005650320925353,-0.016151783007596,-0.011677260996174,0.001741016118648,0.005468935028982
3.816,0.005646714843915,-0.016155653535007,-0.011677501401603,0.001737289834494,0.005499081869811
3.82,0.005644983924824,-0.016155917980979,-0.011677958171919,0.001734645374772,0.005532017413618
3.824,0.005648590006263,-0.016154427467318,-0.011679136158522,0.001733515469255,0.005512520533306
3.828,0.005649215060379,-0.016154307264603,-0.011680145861325,0.001734885780202,0.005492446679963
3.832,0.00564265199216,-0.016153393723972,-0.01168084303707,0.001734308807171,0.005496749937147
3.836,0.005642267343474,-0.016154042818631,-0.011680698793813,0.001728947766099,0.005533940657052
3.84,0.005640608546012,-0.016154066859174,-0.011679881415353,0.001727192806466,0.005530863467558
3.844,0.005639334397237,-0.016152215737369,-0.011679665050467,0.001730462320303,0.005500452180757
3.848,0.005637795802489,-0.016150917548051,-0.011679520807209,0.001738155294039,0.005523579183051
3.852,0.005630607680155,-0.016150364615563,-0.011678799590921,0.001740078537474,0.005570506322842
3.856,0.005629309490837,-0.016149210669503,-0.011677765847576,0.001738299537297,0.005526776575261
3.86,0.005635079221139,-0.016150821385879,-0.011677477361061,0.001735703158661,0.005499057829268
3.864,0.005647147573687,-0.016153946656459,-0.01167730907726,0.001735318509974,0.0055206943179
3.868,0.005661091088584,-0.016151855129225,-0.011677429279975,0.001737770645353,0.005568799444294
3.872,0.005667533954088,-0.016147479750412,-0.011677429279975,0.001737890848067,0.005576949188346
3.876,0.005674193184478,-0.016147672074756,-0.011677573523232,0.001733347185454,0.005548268820636
3.88,0.005671813170729,-0.016152023413025,-0.011677405239432,0.001732193239394,0.005537811184463
3.884,0.005664456764594,-0.01615584585935,-0.011677285036717,0.001736833064179,0.005586781770402
3.888,0.005668423454176,-0.016156951724325,-0.01167673210423,0.001739838132044,0.005592623622333
3.892,0.00566606748097,-0.016152600386055,-0.011676107050114,0.001745848267776,0.005559255348753
3.896,0.005659937142524,-0.016152095534654,-0.011675481995998,0.001752699822509,0.005572982498763
3.9,0.005653999128421,-0.016151614723796,-0.011675554117627,0.001754070133456,0.005580771634671
3.904,0.005656186817827,-0.016150220372306,-0.011675433914912,0.001751137187219,0.005617938314033
3.908,0.005654984790681,-0.016152167656283,-0.011675506036541,0.001748805254555,0.005594258379252
3.912,0.005651402749785,-0.016152985034742,-0.011675313712197,0.001751281430477,0.005584810445882
3.916,0.005645849384369,-0.016153658169944,-0.011675241590569,0.001753324876625,0.005629525855723
3.92,0.00564971991178,-0.016149643399276,-0.011675313712197,0.001753565282055,0.005636281248285
3.924,0.005650849817298,-0.016148850061359,-0.011675794523056,0.001752627700881,0.005602600447647
3.928,0.005644695438309,-0.016149090466788,-0.01167574644197,0.001750968903419,0.005584762364796
3.932,0.005648253438662,-0.016150701183164,-0.011675361793283,0.001752435376537,0.005602143677331
3.936,0.005650200722639,-0.016149643399276,-0.011675409874369,0.001750055362787,0.00562498219311
3.94,0.005657533088231,-0.016151254115652,-0.011675602198712,0.001744357754114,0.005629766261152
3.944,0.005657148439544,-0.016150484818278,-0.011676227252828,0.001744574119001,0.005582911242991
3.948,0.005656138736741,-0.016150941588594,-0.011677741807033,0.001750944862876,0.005584834486425
3.952,0.005651162344356,-0.016150845426422,-0.011678583226035,0.001751738200792,0.005633708910192
3.956,0.005646762925001,-0.016148441372129,-0.011678511104406,0.001745944429947,0.005632795369561
3.96,0.005646618681743,-0.016146205601637,-0.011679112117979,0.00174892545727,0.005589955122068
3.964,0.005648277479205,-0.016146373885438,-0.011679400604495,0.001751257389934,0.005618347003263
3.968,0.005649864155038,-0.016148585615387,-0.011679328482866,0.001746088673205,0.005633564666935
3.972,0.005649215060379,-0.016148080763985,-0.011679015955808,0.001747050294922,0.005648061114319
3.976,0.005650032438838,-0.016146878736839,-0.011678078374634,0.001752579619795,0.00562678523383
3.98,0.005651354668699,-0.016145195898834,-0.011677477361061,0.001754695187572,0.005622530057732
3.984,0.005656547425971,-0.016146614290867,-0.011678102415177,0.001755969336347,0.005684530617936
3.988,0.005658086020718,-0.016148946223531,-0.011678823631464,0.001752627700881,0.005677510779402
3.992,0.005661187250756,-0.016150532899364,-0.011679352523409,0.001752531538709,0.005625246639082
3.996,0.005659071682978,-0.016151855129225,-0.011680217982954,0.001752844065767,0.005639382478322
4,0.005643733816592,-0.016150701183164,-0.01168026606404,0.001751281430477,0.005681116860841
4.004,0.0056416663299,-0.016149378953303,-0.011679665050467,0.001752339214365,0.005689122361635
4.008,0.005646690803372,-0.016148441372129,-0.011680242023497,0.001750440011474,0.005662918169846
4.012,0.005646113830342,-0.016146926817925,-0.011680722834355,0.001746689686778,0.00563443012648
4.016,0.005646474438485,-0.016148008642357,-0.011680482428926,0.001739381361729,0.005670995792269
4.02,0.005649287182008,-0.016148898142445,-0.011680722834355,0.001733852036856,0.005698281808489
4.024,0.005649359303636,-0.016148321169415,-0.01168026606404,0.001743756740541,0.00568529991531
4.028,0.005647964952147,-0.016148080763985,-0.011679496766666,0.001749237984328,0.005652148006616
4.032,0.005652724979646,-0.016146614290867,-0.011679256361237,0.001754719228115,0.005678472401119
4.036,0.005650681533497,-0.016146878736839,-0.01167928040178,0.001761883309907,0.005681958279843
4.04,0.005646714843915,-0.016147022980097,-0.011679472726123,0.001767797283466,0.00567724633343
4.044,0.005647099492602,-0.0161482009667,-0.011679184239608,0.001764191202028,0.005667461832459
4.048,0.005648421722462,-0.016147143182811,-0.011678511104406,0.001758733998784,0.005693545821533
4.052,0.005650657492954,-0.016143801547345,-0.011678030293548,0.001754671147029,0.005742588529101
4.056,0.005649191019836,-0.016145796912408,-0.011677621604318,0.001755055795716,0.005726289040997
4.06,0.005645825343826,-0.016147071061183,-0.011677092712374,0.001757435809466,0.005675034603481
4.064,0.00564758030346,-0.016144474682547,-0.011676419577172,0.001757700255438,0.005692656321445
4.068,0.005651715276843,-0.016142046587711,-0.011675818563599,0.001756762674264,0.005755498300652
4.072,0.005654143371679,-0.016143849628431,-0.011676034928485,0.001755151957888,0.005749199678405
4.076,0.005653205790505,-0.016144594885261,-0.011675962806856,0.001751521835906,0.005709172174435
4.08,0.005648902533321,-0.016141181128166,-0.011676419577172,0.001751113146676,0.005691935105157
4.084,0.005644310789622,-0.016140483952421,-0.011676467658258,0.00175229113328,0.005749031394605
4.088,0.005637747721404,-0.01614113304708,-0.011676203212286,0.001751377592648,0.005762686422986
4.092,0.005636930342944,-0.016142383155312,-0.011676515739344,0.001753541241512,0.005724437919192
4.096,0.005639166113436,-0.016142984168885,-0.011676635942058,0.001754550944315,0.005727587230315
4.1,0.005643277046276,-0.016142070628254,-0.011677164834003,0.001754262457799,0.005760066003807
4.104,0.005645633019483,-0.016142407195855,-0.011677212915088,0.001751089106133,0.005745569556423
4.108,0.005646234033056,-0.016143969831145,-0.011677381198889,0.001751834362964,0.005725038932765
4.112,0.005643902100392,-0.016143705385173,-0.011678102415177,0.001748781214012,0.005716552621113
4.116,0.005643108762476,-0.016141565776853,-0.011678102415177,0.001743203808054,0.005765883815195
4.12,0.005644094424736,-0.016140411830792,-0.011677188874545,0.001753685484769,0.005801271494381
4.124,0.005645488776226,-0.016138632830616,-0.011676756144773,0.001762724728909,0.005761268030954
4.128,0.005644671397766,-0.016134401695061,-0.011676179171743,0.001761041890904,0.005727683392487
4.132,0.005646113830342,-0.016134185330175,-0.011675674320341,0.001757676214895,0.005776533775711
4.136,0.005652724979646,-0.016136493222296,-0.011675313712197,0.001755921255261,0.005814277428104
4.14,0.005652388412045,-0.016138512627901,-0.011674664617538,0.001764407566914,0.005805166062335
4.144,0.005646714843915,-0.016136180695237,-0.011673702995821,0.001763686350626,0.005786270195596
4.148,0.005651931641729,-0.016135074830263,-0.011672909657905,0.001756906917521,0.005768888883061
4.152,0.005660826642612,-0.016135411397864,-0.011671948036188,0.001748901416727,0.00582237909107
4.156,0.005660201588496,-0.01613719039804,-0.011672356725417,0.001749526470843,0.005809757806034
4.16,0.005645633019483,-0.016135339276235,-0.011672957738991,0.001751978606222,0.005759945801093
4.164,0.005643926140935,-0.016133512194973,-0.011673174103877,0.001759503296157,0.005792280331327
4.168,0.005654792466338,-0.016134738262662,-0.011673823198536,0.001759407133985,0.00583750059257
4.172,0.005658326426148,-0.016136348979038,-0.011674159766137,0.001755969336347,0.005811705090011
4.176,0.005657557128774,-0.016137863533242,-0.011673294306592,0.001756305903948,0.005780861073438
4.18,0.005655609844797,-0.016138632830616,-0.011672837536276,0.0017595273367,0.005793842966617
4.184,0.005653422155391,-0.016137094235869,-0.011672765414647,0.001755801052547,0.005830985605437
4.188,0.005650657492954,-0.016136252816866,-0.011672573090304,0.001747050294922,0.005840072930663
4.192,0.005650897898384,-0.016137623127813,-0.011672573090304,0.001740847834847,0.005781414005925
4.196,0.005651811439015,-0.01613899343876,-0.011673174103877,0.001737145591237,0.005790429209522
4.2,0.005653710641906,-0.016136877870982,-0.01167278945519,0.001736592658749,0.005859209202831
4.204,0.005653157709419,-0.016135507560036,-0.011672933698448,0.001743396132397,0.005865916514307
4.208,0.005652989425618,-0.016136901911525,-0.011673847239079,0.001754142255085,0.005825360118392
4.212,0.005654600141994,-0.016137358681841,-0.011674111685051,0.001753180633368,0.005826970834768
4.216,0.005658254304519,-0.016138368384644,-0.01167377511745,0.00175205072785,0.005836058159994
4.22,0.005657292682802,-0.016135026749177,-0.011673342387677,0.001752771944138,0.005865002973676
4.224,0.005656739750315,-0.016133416032801,-0.011673005820076,0.001749742835729,0.005849208336974
4.228,0.005661499777814,-0.016132598654342,-0.011672452887589,0.001744790483887,0.005837716957456
4.232,0.005661451696728,-0.01613365643823,-0.011671515306415,0.001743444213483,0.005895534463191
4.236,0.005660682399354,-0.01613644514121,-0.011671731671301,0.001742049861993,0.00591188203238
4.24,0.005661043007498,-0.016138224141386,-0.011671539346958,0.00174596847049,0.005878225272285
4.244,0.005661764223786,-0.016139810817219,-0.011671563387501,0.001750464052017,0.005850145918148
4.248,0.005651354668699,-0.016137238479126,-0.011671250860443,0.001752555579252,0.005872359379811
4.252,0.005651450830871,-0.016136324938495,-0.0116712268199,0.001756065498519,0.005905944018278
4.256,0.005654359736565,-0.016138392425187,-0.011671899955102,0.001758878242041,0.005895414260477
4.26,0.005658566831577,-0.016139233844189,-0.011671779752387,0.001757820458152,0.005828100740286
4.264,0.005660297750667,-0.016139378087447,-0.011672500968675,0.001756738633721,0.005870772703978
4.268,0.005662245034644,-0.016137551006184,-0.011672549049761,0.001754623065943,0.005912603248668
4.272,0.005660850683155,-0.016137406762927,-0.011671707630758,0.001756738633721,0.005923493614613
4.276,0.00565580216914,-0.016138873236045,-0.011671948036188,0.001757315606751,0.005901015706978
4.28,0.005656956115201,-0.016137623127813,-0.011671972076731,0.00175205072785,0.00590777109954
4.284,0.005664817372737,-0.016137863533242,-0.011672500968675,0.001740270861817,0.005941836548865
4.288,0.005666981021601,-0.016138152019757,-0.011672428847046,0.00173265000971,0.005942197157009
4.292,0.005661259372384,-0.016139305965818,-0.011671250860443,0.001745679983975,0.00590128015295
4.296,0.005658783196463,-0.016139233844189,-0.011669375698095,0.001764551810171,0.005905126639818
4.3,0.005662269075187,-0.016138392425187,-0.011668005387148,0.001774624797657,0.005959915037145
4.304,0.00566525010251,-0.016135820087094,-0.011666683157287,0.001777750068237,0.005937653494396
4.308,0.005670034170552,-0.016134906546462,-0.011666202346429,0.001777125014121,0.005914213965044
4.312,0.005668735981234,-0.016136373019581,-0.01166653891403,0.001771211040562,0.00590481411276
4.316,0.005665778994454,-0.0161381760603,-0.011666899522173,0.001768109810524,0.005941932711037
4.32,0.005667702237888,-0.016137502925098,-0.011666154265343,0.001767076067179,0.005972103592408
4.324,0.005669433156979,-0.016138103938672,-0.01166514456254,0.001764864337229,0.005959314023572
4.328,0.005667173345944,-0.016139906979391,-0.011664543548967,0.001759214809642,0.005909790505146
4.332,0.005670971751726,-0.016138608790073,-0.01166456758951,0.001753949930741,0.005964939510616
4.336,0.005671236197698,-0.016137671208899,-0.011664495467881,0.001754911552458,0.005992946743124
4.34,0.005670226494896,-0.016137382722384,-0.011664976278739,0.001751281430477,0.005962631618496
4.344,0.005666019399884,-0.016136637465553,-0.01166653891403,0.001745319375831,0.005950755590291
4.348,0.005660994926412,-0.016137551006184,-0.011666851441088,0.001739549645529,0.005963905767271
4.352,0.005660345831753,-0.016138031817043,-0.011666466792401,0.001747242619265,0.005982921836725
4.356,0.005664408683508,-0.016137382722384,-0.0116661302248,0.001774288230056,0.005991985121407
4.36,0.005666596372914,-0.016136060492523,-0.011665457089598,0.00179823261081,0.005965492443104
4.364,0.005663038372561,-0.016134738262662,-0.011665240724712,0.001827778438065,0.005993451594526
4.368,0.005664360602422,-0.016136156654695,-0.011665336886883,0.001867733820407,0.006055139627672
4.372,0.005667413751373,-0.016138464546815,-0.011665264765255,0.001884850686969,0.005992297648465
4.376,0.00566763011626,-0.016139474249618,-0.011665168603083,0.001884562200454,0.005949481441515
4.38,0.005669288913722,-0.016138801114416,-0.011665000319282,0.001881797538018,0.00597121409232
4.384,0.005665947278255,-0.01613858474953,-0.011664495467881,0.001870762928815,0.006029031598055
4.388,0.005663182615819,-0.016135555641121,-0.01166375021105,0.001852540197278,0.006021867516263
4.392,0.005665610710654,-0.016136397060124,-0.011662836670419,0.001833427965652,0.005975373106246
4.396,0.005667029102687,-0.016137767371071,-0.011661971210874,0.001815397558458,0.005963713442927
4.4,0.005664865453823,-0.016135098870806,-0.011661947170331,0.001798040286466,0.006038094882738
4.404,0.005674024900678,-0.016136949992611,-0.011662235656846,0.001781596555105,0.00603088271986
4.408,0.005670394778696,-0.016137671208899,-0.011662235656846,0.001774817122001,0.005990061877973
4.412,0.005661259372384,-0.01613406512746,-0.011661971210874,0.001770201337759,0.005990133999602
4.416,0.005665538589025,-0.016134233411261,-0.011661562521644,0.001764984539944,0.006002779325181
4.42,0.005666788697257,-0.016132262086741,-0.011661995251417,0.001763542107369,0.00603343101741
4.424,0.005665322224139,-0.016130603289279,-0.01166317323802,0.001765777877861,0.006030065341401
4.428,0.005661283412927,-0.01613053116765,-0.011663654048879,0.001764119080399,0.006011193515205
4.432,0.005662797967132,-0.016130579248736,-0.011663413643449,0.001758661877155,0.006055884884503
4.436,0.005662028669758,-0.01613209380294,-0.011662692427162,0.001756498228291,0.006108846200567
4.44,0.005659889061438,-0.016136733627725,-0.011661730805445,0.001762965134338,0.006052759613922
4.444,0.005656475304342,-0.01613759908727,-0.011660576859384,0.00176346998574,0.006044177140098
4.448,0.005656835912486,-0.016136132614152,-0.01165980756201,0.001760849566561,0.00606449139887
4.452,0.005657557128774,-0.016136589384467,-0.011659446953867,0.00175895036367,0.006081247657289
4.456,0.005656234898913,-0.016138031817043,-0.011658581494321,0.001763277661396,0.006057447519793
4.46,0.005655994493484,-0.016137791411613,-0.011657018859031,0.001758517633897,0.006028382503396
4.464,0.005658446628862,-0.016138272222472,-0.011655263899398,0.001753541241512,0.006037109220478
4.468,0.00565974481818,-0.016138031817043,-0.011654422480395,0.001749983241159,0.006100383929457
4.472,0.00566229311573,-0.016135315235692,-0.011653797426279,0.001754911552458,0.006082089076291
4.476,0.005665177980881,-0.016135315235692,-0.011653436818135,0.001764407566914,0.006049249694655
4.48,0.005663062413104,-0.016136324938495,-0.011653508939764,0.001768686783555,0.006085046063071
4.484,0.005664769291652,-0.016136998073697,-0.011653460858678,0.001767508796951,0.00609966271317
4.488,0.0056668127378,-0.016139137682017,-0.011654061872251,0.001763181499225,0.006107812457221
4.492,0.00566229311573,-0.016139474249618,-0.011654566723653,0.001761306336877,0.006084493130584
4.496,0.005668038805489,-0.016140580114593,-0.011654326318224,0.001758036823039,0.006081800589776
4.5,0.00567034669761,-0.016138704952245,-0.011653749345193,0.00175697903915,0.006139930622569
4.504,0.005665586670111,-0.016138777073873,-0.011653941669537,0.001747747470667,0.006149426637025
4.508,0.005661619980528,-0.016139041519846,-0.011653749345193,0.001742530672852,0.006095239253271
4.512,0.005662966250932,-0.016136228776323,-0.011653508939764,0.001746136754291,0.006096513402046
4.516,0.005659961183067,-0.01613719039804,-0.011652691561305,0.001751257389934,0.006126876607761
4.52,0.005661788264329,-0.016138200100843,-0.011652354993704,0.001754671147029,0.006141228811887
4.524,0.005667870521689,-0.016138801114416,-0.011652595399133,0.001751281430477,0.006132934824578
4.528,0.005665298183596,-0.016140267587535,-0.011652643480219,0.001749165862699,0.006097090375077
4.532,0.005658638953206,-0.016143248614858,-0.011653004088363,0.001744622200086,0.006135362919414
4.536,0.005654912669052,-0.016142455276941,-0.011653581061393,0.001743396132397,0.006151758569689
4.54,0.005656715709772,-0.016138152019757,-0.011653076209991,0.00174301148371,0.006134737865298
4.544,0.005659215926236,-0.016134017046374,-0.011653172372163,0.00174144884842,0.006117212309505
4.548,0.00565777349366,-0.016136421100667,-0.011653196412706,0.001746184835377,0.00617856377505
4.552,0.005660538156097,-0.016138224141386,-0.011652306912618,0.001745583821803,0.006156230110673
4.556,0.005653398114848,-0.016137046154783,-0.011651946304474,0.001735078104545,0.006149618961368
4.56,0.005654383777108,-0.016137695249442,-0.01165199438556,0.001736159928977,0.006125193769756
4.564,0.005658446628862,-0.016138825154959,-0.011651946304474,0.001745655943432,0.006142382757948
4.568,0.005666500210742,-0.016137959695414,-0.01165216266936,0.001749045659985,0.006184237343181
4.572,0.005662413318445,-0.016134137249089,-0.011651657817959,0.001747579186866,0.006164740462868
4.576,0.005653398114848,-0.016136901911525,-0.011651032763843,0.001742314307966,0.006118702823166
4.58,0.005649671830695,-0.016136397060124,-0.01165060003407,0.001739669848244,0.006150436339828
4.584,0.005647460100745,-0.016136156654695,-0.011650912561128,0.001741376726791,0.00619409396578
4.588,0.005641570167729,-0.016136853830439,-0.011651032763843,0.00174029490236,0.006188107870592
4.592,0.005636858221315,-0.016135579681664,-0.011651705899045,0.001740150659102,0.006176159720758
4.596,0.005646811006086,-0.016134017046374,-0.011652835804562,0.00173849186164,0.006161807516631
4.6,0.00566253352116,-0.016134281492346,-0.011652859845105,0.001740583388875,0.006204719885753
4.604,0.005675900063026,-0.016134834424834,-0.011652691561305,0.001739285199557,0.006214023575865
4.608,0.00567979463098,-0.016133223708458,-0.011652859845105,0.001739573686072,0.006170798679685
4.612,0.00567897725252,-0.016131276424481,-0.011653052169448,0.001743492294569,0.006172553639319
4.616,0.005676981887458,-0.016133440073344,-0.011653917628994,0.001741977740365,0.006255036742096
4.62,0.005673904697963,-0.016135675843836,-0.011654662885824,0.001738996713042,0.006222101198288
4.624,0.005669409116436,-0.01613545947895,-0.011655432183198,0.001740126618559,0.006194310330666
4.628,0.005663663426677,-0.016135579681664,-0.011655864912971,0.001740006415845,0.006179333072424
4.632,0.005663350899619,-0.016137142316955,-0.011655961075142,0.001741040159191,0.006232053983059
4.636,0.005658158142347,-0.016136757668268,-0.01165668229143,0.001746906051664,0.006255108863724
4.64,0.005658783196463,-0.016136469181753,-0.011657283305003,0.001744574119001,0.006215922778756
4.644,0.005666788697257,-0.016131949559683,-0.011658004521291,0.001739237118471,0.006186785640731
4.648,0.005667966683861,-0.016131396627195,-0.011658004521291,0.001746256957005,0.00622688526633
4.652,0.005659191885693,-0.016133295830086,-0.011658196845634,0.001759262890728,0.006249723782109
4.656,0.005658350466691,-0.016131276424481,-0.011657716034776,0.001766451013063,0.006224409090409
4.66,0.005663543223962,-0.01613134854611,-0.011657187142832,0.001768061729439,0.006220009671053
4.664,0.005662052710301,-0.016130699451451,-0.011656802494145,0.001760705323303,0.006217341170789
4.668,0.005660057345238,-0.01613250249217,-0.011655504304827,0.001752098808936,0.006256984026073
4.672,0.005659768858723,-0.016132238046198,-0.011655239858855,0.001749935160073,0.006240347970368
4.676,0.005658350466691,-0.016129281059418,-0.011655384102112,0.001750464052017,0.00622688526633
4.68,0.005659720777637,-0.016131011978509,-0.011656033196771,0.001754863471373,0.006251502782286
4.684,0.005666043440427,-0.016130435005478,-0.01165651400763,0.001761234215248,0.006308863517705
4.688,0.005667846481146,-0.016129425302675,-0.011657379467175,0.001763590188454,0.006259075553307
4.692,0.005668110927118,-0.016131973600226,-0.011657740075319,0.001760633201675,0.006246454268271
4.696,0.005669481238065,-0.016133151586829,-0.01165848533215,0.001761426539591,0.006262321026602
4.7,0.005664625048394,-0.01613389684366,-0.01165906230518,0.001759911985387,0.006288981988706
4.704,0.005657677331489,-0.016130435005478,-0.011659687359296,0.001754767309201,0.006292443826887
4.708,0.005655008831224,-0.01613036288385,-0.011660480697212,0.001750800619618,0.006239386348651
4.712,0.005655850250226,-0.016132839059771,-0.011660721102642,0.001751161227762,0.006244579105923
4.716,0.005657244601716,-0.016133055424657,-0.011660769183727,0.001749262024871,0.006311964747743
4.72,0.005659696737094,-0.016130795613622,-0.01166062494047,0.001750055362787,0.006314681329093
4.724,0.005657629250403,-0.016130050356792,-0.011660889386442,0.001748300403154,0.006272394014088
4.728,0.005654912669052,-0.016128511762044,-0.011660937467528,0.001741761375478,0.006278091622761
4.732,0.005654720344709,-0.016128800248559,-0.011660192210697,0.001749574551929,0.006285784596497
4.736,0.005658662993749,-0.016130218640592,-0.011658293007806,0.001757940660867,0.006325932303182
4.74,0.005659143804607,-0.01613110814068,-0.011657283305003,0.001765248985916,0.006294246867607
4.744,0.005661644021071,-0.016130627329822,-0.01165749966989,0.001763109377596,0.006285856718126
4.748,0.005661860385958,-0.016131853397511,-0.011657595832061,0.001765128783202,0.006338385304417
4.752,0.005653975087878,-0.016130675410908,-0.011657956440205,0.001765152823745,0.006341029764139
4.756,0.005655249236653,-0.01612839155933,-0.011657619872604,0.00176503262103,0.006313719707376
4.76,0.005657388844974,-0.016130242681135,-0.01165668229143,0.001762676647823,0.006299463665421
4.764,0.005660922804784,-0.016129425302675,-0.011656754413059,0.001758998444756,0.006308214423046
4.768,0.005667341629745,-0.01613110814068,-0.011656009156228,0.001757267525665,0.006345621507838
4.772,0.005665322224139,-0.016131829356968,-0.011655071575054,0.00175402205237,0.006368243658731
4.776,0.005659937142524,-0.016131805316425,-0.011654494602024,0.001752170930565,0.006314921734522
4.78,0.005656018534027,-0.016131492789367,-0.011654470561481,0.001757940660867,0.006337111155642
4.784,0.005655778128598,-0.016133175627372,-0.011654614804739,0.001766955864464,0.00637439803772
4.788,0.005659865020895,-0.016133608357144,-0.011655095615597,0.001769167594413,0.006365551117923
4.792,0.005660105426324,-0.016132334208369,-0.011656033196771,0.001762580485652,0.006333096384974
4.796,0.00565505691231,-0.016132526532713,-0.011656393804915,0.001751642038621,0.006344804129379
4.8,0.005657364804431,-0.016131300465024,-0.011656634210344,0.00175385376857,0.006350381535337
4.804,0.005658086020718,-0.016133343911172,-0.011657283305003,0.001764191202028,0.006360670887709
4.808,0.005658927439721,-0.0161329111814,-0.011658124724006,0.001768398297039,0.006318215288903
4.812,0.005659961183067,-0.016134858465377,-0.011658341088892,0.001769528202557,0.006307949977074
4.816,0.005657316723345,-0.016133824722031,-0.011658268967263,0.001764888377772,0.006402092743169
4.82,0.005656883993572,-0.016133944924745,-0.011658028561834,0.001760488958417,0.006396491296668
4.824,0.005661283412927,-0.016132887140857,-0.011657836237491,0.00175854167444,0.006332855979545
4.828,0.005660225629039,-0.016132983303028,-0.011657764115862,0.001759479255614,0.00633939500722
4.832,0.005658494709948,-0.016134377654518,-0.011657764115862,0.001764407566914,0.006389928228449
4.836,0.005662269075187,-0.016136661506096,-0.011657571791518,0.001762364120765,0.006395217147893
4.84,0.005665851116083,-0.016137406762927,-0.011656706331973,0.00176248432348,0.006401756175568
4.844,0.005664649088937,-0.016137502925098,-0.011656033196771,0.001764070999313,0.006363363428517
4.848,0.005655874290769,-0.016135988370894,-0.011656538048173,0.001765393229174,0.006406540243611
4.852,0.005651234465985,-0.01613545947895,-0.011656562088716,0.00176520090483,0.006433874340917
4.856,0.005659047642435,-0.016135820087094,-0.011656177440029,0.00176010430973,0.006391899552969
4.86,0.005666860818886,-0.016134233411261,-0.011656586129259,0.001764431607457,0.006359997752507
4.864,0.005667485873002,-0.016130699451451,-0.011657163102289,0.001763998877684,0.006390601363651
4.868,0.005663543223962,-0.016129858032448,-0.011656177440029,0.001756257822862,0.006404905486692
4.872,0.005664769291652,-0.016130026316249,-0.011655792791342,0.001749935160073,0.006415315041778
4.876,0.005671524684214,-0.01613267077597,-0.011656465926544,0.001758397431183,0.006395529674951
4.88,0.005672630549188,-0.016132983303028,-0.011656826534688,0.001769696486357,0.00640990591962
4.884,0.005669096589378,-0.016135435438407,-0.01165709098066,0.001773062162367,0.006461545005824
4.888,0.005663735548306,-0.016135387357321,-0.011656562088716,0.001777221176293,0.00641877687996
4.892,0.005662437358988,-0.016134762303205,-0.011655504304827,0.001774504594942,0.006376056835181
4.896,0.005663086453647,-0.016136276857409,-0.011655143696683,0.001772797716395,0.006395457553322
4.9,0.005662028669758,-0.016133343911172,-0.011655744710256,0.00177053790536,0.006438610327873
4.904,0.005663543223962,-0.016134714222119,-0.011656441886001,0.001768085769981,0.006458107208185
4.908,0.005664985656538,-0.016135507560036,-0.011657451588804,0.00176520090483,0.00644918816676
4.912,0.005670058211095,-0.016133848762574,-0.01165807664292,0.001762219877508,0.006410026122335
4.916,0.005674842279137,-0.016134353613975,-0.011658509372693,0.001764551810171,0.006456712856696
4.92,0.005671091954441,-0.016133151586829,-0.011659014224094,0.001763013215424,0.006475632763978
4.924,0.005667582035174,-0.016135267154606,-0.011658845940293,0.001757363687837,0.006443370355372
4.928,0.005670587103039,-0.016136324938495,-0.011658605534864,0.001750800619618,0.006431422205538
