time,channel1,channel2,channel3,channel4,channel5
0,-0.008250666250865,-0.008359617991402,-0.01080009370646,0.012233390875664,0.018837832868636
0.004,-0.008249344021004,-0.008362214370038,-0.010797857935968,0.012231131064629,0.018834226787197
0.008,-0.008265066536077,-0.008360844059091,-0.010797930057597,0.012224543955868,0.018837736706464
0.012,-0.008289876376376,-0.008365411762247,-0.010800310071346,0.012208797400252,0.018839635909355
0.016,-0.008296607728395,-0.008365291559532,-0.010794684584302,0.012215745117157,0.018836847206376
0.02,-0.008286558781452,-0.008366733992108,-0.010790597692005,0.012223101523292,0.018816076177288
0.024,-0.008285525038106,-0.008370844924948,-0.010797256922395,0.012228606807622,0.018807301379121
0.028,-0.008286005848965,-0.008368008140883,-0.010799059963114,0.012229664591511,0.018804464595055
0.032,-0.008282688254041,-0.008367046519166,-0.010791943962408,0.012228053875135,0.018806532081747
0.036,-0.008279562983461,-0.008368585113913,-0.010790044759517,0.012233342794578,0.018793910796711
0.04,-0.008276485793966,-0.008368440870655,-0.01079088617852,0.012241396376458,0.018779486470956
0.044,-0.008275139523563,-0.008364378018901,-0.010790140921689,0.012245242863327,0.018772274308078
0.048,-0.008281101578208,-0.00836363276207,-0.01080050239569,0.012246348728301,0.018760494442045
0.052,-0.008286654943624,-0.008366157019078,-0.010811777410322,0.012241708903516,0.018746526886606
0.056,-0.008289780214204,-0.008368224505769,-0.010809998410145,0.012237670092305,0.018727799303667
0.06,-0.008294444079532,-0.008366036816363,-0.010804372923101,0.012233895727066,0.018720659262418
0.064,-0.008292881444241,-0.00836560408659,-0.010798218544112,0.012238054740992,0.018707220598923
0.068,-0.008287832930227,-0.008369907343774,-0.010798867638771,0.012239112524881,0.018700369044189
0.072,-0.00827766378057,-0.008370580478976,-0.010803795950071,0.012237453727419,0.018690993232448
0.076,-0.008266533009195,-0.008369354411287,-0.010800286030804,0.012239833741168,0.018685127339974
0.08,-0.008269754441947,-0.008371758465579,-0.01078711181328,0.012239136565423,0.018697388016866
0.084,-0.008269345752718,-0.008368056221969,-0.010780428542347,0.012237597970676,0.018695536895061
0.088,-0.00826057095455,-0.008366253181249,-0.010780524704519,0.012234064010866,0.018681304893649
0.092,-0.008258142859714,-0.008369522695087,-0.010782664312839,0.01223425633521,0.01867498223086
0.096,-0.008273168199043,-0.008372407560238,-0.010784154826501,0.012238054740992,0.018673443636113
0.1,-0.008293458417272,-0.008371614222322,-0.010784275029215,0.012238799997823,0.018668755730242
0.104,-0.008299420471917,-0.008369450573458,-0.010784611596816,0.012230578132142,0.018652432201596
0.108,-0.008287929092399,-0.008370316033004,-0.01078538089419,0.012227140334504,0.018639257984073
0.112,-0.00828062076735,-0.008367503289481,-0.010787039691652,0.012228246199478,0.018626155888179
0.116,-0.008283313308157,-0.008363608721528,-0.010788482124227,0.012228943375223,0.018624713455603
0.12,-0.008280740970064,-0.008364161654015,-0.010790958300149,0.012231203186258,0.018607211940354
0.124,-0.008275836699307,-0.00836445014053,-0.010795045192446,0.012235097754212,0.018587859303299
0.128,-0.008272855671985,-0.008365964694734,-0.010796030854706,0.012233318754036,0.018591176898222
0.132,-0.008271701725924,-0.008366205100163,-0.010791751638065,0.01222932802391,0.018588820925016
0.136,-0.008271677685381,-0.008367286924595,-0.010787953232283,0.01222735669939,0.018579276829474
0.14,-0.008271052631265,-0.008364882870303,-0.01078711181328,0.012225770023557,0.01856913172036
0.144,-0.008270211212263,-0.008366157019078,-0.010785332813104,0.012225770023557,0.018567256558012
0.148,-0.008269562117604,-0.00836560408659,-0.010783553812928,0.012212090954633,0.018571752139539
0.152,-0.00826961019869,-0.008365531964962,-0.010786582921336,0.0121957193449,0.018575718829122
0.156,-0.008268384131001,-0.008367431167853,-0.010790020718974,0.012207499210934,0.018569660612304
0.16,-0.008265018454991,-0.008369017843686,-0.010799468652344,0.012218077049821,0.018581344316166
0.164,-0.008262061468211,-0.008364209735101,-0.010803483423013,0.012220961914972,0.018597619763726
0.168,-0.00826682149571,-0.008360988302349,-0.010796463584478,0.012218341495793,0.018606923453839
0.172,-0.008269249590546,-0.008358968896743,-0.010785909786134,0.012221707171803,0.018598821790873
0.176,-0.008268961104031,-0.008359041018372,-0.010779923690946,0.012227380739933,0.018605529102349
0.18,-0.008263744306216,-0.008368200465226,-0.010778072569141,0.012229688632054,0.018620314036248
0.184,-0.008257541846141,-0.008368128343597,-0.010774394366073,0.012230025199655,0.018623271023028
0.188,-0.008258936197631,-0.008367431167853,-0.01077182202798,0.012229352064453,0.018607885075556
0.192,-0.008269321712175,-0.008367359046224,-0.010776678217651,0.012229760753683,0.018597066831239
0.196,-0.008278096510342,-0.008366373383964,-0.010779394799001,0.012224447793696,0.018603533737286
0.2,-0.008270403536606,-0.008364474181073,-0.010778986109772,0.012229424186082,0.018589686384561
0.204,-0.008266557049738,-0.008363272153927,-0.010784034623786,0.0122358189705,0.018571415571938
0.208,-0.008262061468211,-0.008361829721351,-0.010785332813104,0.012236492105702,0.018556991246183
0.212,-0.008257325481255,-0.008361108505063,-0.010778986109772,0.012238799997823,0.018547447150641
0.216,-0.008255979210851,-0.00836231053221,-0.010778986109772,0.012238583632936,0.018545067136892
0.22,-0.008258455386772,-0.008363127910669,-0.010786318475364,0.012237093119275,0.018529801392134
0.224,-0.008262157630383,-0.008362046086237,-0.010785525137447,0.012237189281447,0.018514078877061
0.228,-0.008261196008666,-0.008361445072664,-0.01077675033928,0.012235290078555,0.018507732173729
0.232,-0.00826097964378,-0.008363584680985,-0.010776630136565,0.012233246632407,0.018511795025483
0.236,-0.008258912157088,-0.00836207012678,-0.010779587123345,0.012235698767785,0.018502755781343
0.24,-0.008257253359626,-0.008362022045694,-0.010759513270002,0.012231852280917,0.018501385470397
0.244,-0.008259248724689,-0.008360243045518,-0.01076417713533,0.012233414916207,0.018509150565761
0.248,-0.008258743873288,-0.008359281423801,-0.010768408270885,0.01223894424108,0.018515208782579
0.252,-0.008257589927227,-0.008359545869773,-0.010770307473776,0.012241588700802,0.018519944769535
0.256,-0.0082631192521,-0.008362935586326,-0.010773456784899,0.012241107889943,0.018523310445544
0.26,-0.008262662481784,-0.008364185694558,-0.010778168731312,0.012239497173567,0.018529344621819
0.264,-0.008259152562517,-0.008365267518989,-0.010774995379646,0.012237742213934,0.018536196176552
0.268,-0.008259296805775,-0.008364810748674,-0.010768264027627,0.012233967848695,0.018552255259226
0.272,-0.008262686522327,-0.008364113572929,-0.0107636001623,0.012240699200714,0.018550500299593
0.276,-0.008258022657,-0.008361661437551,-0.010759561351088,0.012246637214816,0.018548985745389
0.28,-0.008261700860067,-0.008362502856553,-0.010756916891366,0.012246036201243,0.018556245989352
0.284,-0.008263816427845,-0.00836091618072,-0.010756267796707,0.012227164375047,0.018563963003631
0.288,-0.008261965306039,-0.00835853616697,-0.010760210445747,0.012217115428104,0.018559227016675
0.292,-0.008260378630206,-0.008362382653838,-0.010768047662741,0.01223048196997,0.018540643676994
0.296,-0.008262181670926,-0.008361998005152,-0.010765932094963,0.012238896159994,0.01853872043356
0.3,-0.008261845103325,-0.008360194964432,-0.010763119351441,0.012241204052115,0.018537374163156
0.304,-0.008257253359626,-0.00835779091014,-0.010772663446982,0.01224230991709,0.018520113053335
0.308,-0.008249608466976,-0.008362983667411,-0.010773192338927,0.012241107889943,0.018511218052453
0.312,-0.008245112885449,-0.008365652167676,-0.010766028257135,0.012238824038365,0.018521146796681
0.316,-0.008252974142985,-0.008368104303055,-0.010761172067464,0.012238439389679,0.018536172136009
0.32,-0.008260306508578,-0.008366349343421,-0.010754272431645,0.012240675160171,0.018538047298358
0.324,-0.008263047130471,-0.008363969329671,-0.010756484161594,0.012243415782064,0.018534152730404
0.328,-0.008266316644309,-0.008360795978005,-0.010758431445571,0.012238030700449,0.018535474960265
0.332,-0.008262662481784,-0.008360074761717,-0.010755354256076,0.012233967848695,0.018538552149759
0.336,-0.008255931129765,-0.008357478383082,-0.010757878513083,0.012234328456838,0.018527781986529
0.34,-0.008253527075473,-0.008356156153221,-0.010760715297149,0.012240458795284,0.018519295674876
0.344,-0.008252541413213,-0.008359041018372,-0.01076179712158,0.012241708903516,0.018518935066732
0.348,-0.008253022224071,-0.008360411329318,-0.010764561784017,0.01223738160579,0.018521122756138
0.352,-0.008268528374258,-0.008362671140353,-0.010760258526833,0.012239785660082,0.018519415877591
0.356,-0.008272615266555,-0.008364810748674,-0.010754224350559,0.012241131930486,0.018509318849562
0.36,-0.008267566752541,-0.008363127910669,-0.010753310809928,0.012241877187317,0.018509390971191
0.364,-0.008264561684675,-0.008359810315745,-0.010753719499157,0.012240675160171,0.018517059904384
0.368,-0.008254993548591,-0.008353704017842,-0.010755642742591,0.012240699200714,0.018511891187655
0.372,-0.008252805859185,-0.008352333706896,-0.010756676485937,0.012238751916737,0.01851201139037
0.376,-0.008255330116192,-0.008354593517931,-0.010757493864397,0.01221913483371,0.018512059471455
0.38,-0.008258263062429,-0.008362935586326,-0.010758960337515,0.012223726577408,0.018507972579158
0.384,-0.00825367131873,-0.008363777005328,-0.010760595094434,0.012233655321637,0.018511121890281
0.388,-0.008253334751129,-0.008365964694734,-0.010762013486467,0.012241540619716,0.018507852376444
0.392,-0.008252132723983,-0.008367070559709,-0.01076434541913,0.012240819403428,0.018506121457353
0.396,-0.008253575156559,-0.008366373383964,-0.010765379162476,0.012237670092305,0.018508765917075
0.4,-0.008251844237468,-0.008363440437727,-0.010762253891896,0.012239689497911,0.018508597633274
0.404,-0.008248310277658,-0.008361517194293,-0.010759729634889,0.012238824038365,0.018503645281432
0.408,-0.008242588628442,-0.008364474181073,-0.010761724999951,0.012242430119804,0.018497827470044
0.412,-0.008246074507166,-0.008365796410934,-0.010767855338397,0.012242574363062,0.018506626308754
0.416,-0.008253286670043,-0.008361060423977,-0.010775307906704,0.012239953943883,0.018502996186773
0.42,-0.008259873778805,-0.00836033920769,-0.010776125285164,0.012235025632583,0.018502178808313
0.424,-0.008264321279246,-0.008359690113031,-0.010770980608978,0.012238655754565,0.018489389239477
0.428,-0.008269465955432,-0.008358199599369,-0.010763744405557,0.012240939606143,0.018484533049806
0.432,-0.008275788618222,-0.008356901410051,-0.010762975108184,0.012246156403958,0.018494317550777
0.436,-0.008273649009901,-0.008356733126251,-0.010770475757576,0.012247454593276,0.018482874252344
0.44,-0.008267302306569,-0.008355627261276,-0.010777615798825,0.012247719039248,0.018471815602599
0.444,-0.008276894483196,-0.00835442523413,-0.010776630136565,0.012245363066041,0.018471551156626
0.448,-0.008279106213145,-0.008354857963903,-0.010768576554685,0.012239977984426,0.018479748981764
0.452,-0.008269850604119,-0.008353583815128,-0.010761917324295,0.012241204052115,0.018477777657244
0.456,-0.008263239454815,-0.00835639655865,-0.010762758743297,0.012242357998175,0.018470517413281
0.46,-0.008254969508048,-0.008359593950859,-0.010766244622021,0.012241180011572,0.01847470046775
0.464,-0.008249127656117,-0.008361469113207,-0.010764730067817,0.012235049673126,0.018485518712066
0.468,-0.008258094778629,-0.00835697353168,-0.010760498932262,0.012239280808681,0.018489701766535
0.472,-0.00828078905115,-0.008358992937286,-0.010754921526304,0.012241997390032,0.018480037468279
0.476,-0.008281822794496,-0.00835952182923,-0.010756219715622,0.012243127295549,0.018477633413986
0.48,-0.008253046264614,-0.008362142248409,-0.010757902553626,0.012245290944412,0.018483427184831
0.484,-0.008248358358744,-0.008364738627045,-0.010759128621315,0.012245074579526,0.018482441522572
0.488,-0.008243910858303,-0.008361421032121,-0.010760426810633,0.012242550322519,0.018466334358812
0.492,-0.008247084209969,-0.008359714153574,-0.010760378729548,0.012240627079085,0.01845407368192
0.496,-0.008248839169602,-0.008361060423977,-0.010763576121757,0.012241396376458,0.018458833709419
0.5,-0.00825761396777,-0.008363272153927,-0.010772591325354,0.012242670525234,0.018457896128245
0.504,-0.008261821062782,-0.008360723856376,-0.010778913988143,0.01223952121411,0.018443039072717
0.508,-0.008261388333009,-0.008361661437551,-0.010774298203901,0.012225241131613,0.018437653991102
0.512,-0.008253022224071,-0.008363921248586,-0.010762927027098,0.012213749752094,0.018441837045571
0.516,-0.008253190507872,-0.008361348910493,-0.010752950201784,0.012226130631701,0.018432918004145
0.52,-0.008259272765232,-0.008359449707601,-0.010751147161064,0.012236612308416,0.018423325827518
0.524,-0.008261869143868,-0.008360363248233,-0.010753767580243,0.012239184646509,0.018416041543012
0.528,-0.008260498832921,-0.008360964261806,-0.010756243756164,0.012239064443795,0.018415729015954
0.532,-0.00825621961628,-0.008364666505416,-0.010756436080508,0.012239809700625,0.018415873259211
0.536,-0.008252252926698,-0.008365916613648,-0.010756484161594,0.012243560025322,0.018409310190993
0.54,-0.008245064804363,-0.008367214802966,-0.010756604364308,0.012244161038895,0.018404718447294
0.544,-0.00825112302118,-0.008367887938168,-0.010756628404851,0.012241420417001,0.018411185353341
0.548,-0.008261941265497,-0.008371301695264,-0.010756363958879,0.012241107889943,0.018421811273314
0.552,-0.00826172490061,-0.008374907776702,-0.010757734269826,0.012242718606319,0.018425850084525
0.556,-0.008250497967064,-0.008372311398066,-0.010760114283575,0.012244569728125,0.018424936543894
0.56,-0.008245834101737,-0.008370484316804,-0.01076179712158,0.012246685295902,0.01842481634118
0.564,-0.008247036128883,-0.008370965127663,-0.010763119351441,0.012249305715081,0.018435201855723
0.568,-0.00825391172416,-0.008370219870832,-0.010760426810633,0.012252695431633,0.018438327126304
0.572,-0.008256700427139,-0.008370796843862,-0.010763504000128,0.012250219255712,0.018423638354576
0.576,-0.008256411940624,-0.008372407560238,-0.01077338466327,0.012247166106761,0.018426739584614
0.58,-0.008248694926345,-0.00837546070919,-0.010775788717563,0.012244810133554,0.018430465868767
0.584,-0.008244487831333,-0.008373609587384,-0.010765042594875,0.012245074579526,0.018421330462455
0.588,-0.008243670452873,-0.008370628560062,-0.010756748607566,0.012247430552733,0.018407867758417
0.592,-0.008247324615398,-0.008365868532562,-0.010761484594522,0.012245146701155,0.018407987961132
0.596,-0.008241771249982,-0.008365171356818,-0.010761724999951,0.012243487903693,0.018411017069541
0.6,-0.008238141128001,-0.008370820884405,-0.010755690823677,0.012239593335739,0.018410392015425
0.604,-0.008236217884567,-0.008369017843686,-0.010753286769385,0.012244305282152,0.01839555900044
0.608,-0.008235809195337,-0.008368128343597,-0.010752613634183,0.012246949741874,0.018389140175479
0.612,-0.008239030628089,-0.0083691380464,-0.010753382931556,0.012249714404311,0.018393058783975
0.616,-0.008243357925815,-0.008365556005504,-0.010755498499334,0.012249858647568,0.018395462838268
0.62,-0.008233597465388,-0.008367310965138,-0.010755282134447,0.012249690363768,0.018389933513395
0.624,-0.00823172230304,-0.008368128343597,-0.010752902120698,0.012248031566306,0.01838750541856
0.628,-0.008245160966535,-0.008368248546312,-0.010752878080155,0.012245988120157,0.018389765229595
0.632,-0.008256604264967,-0.008367887938168,-0.010757037094081,0.012246901660788,0.01839301070289
0.636,-0.008252060602354,-0.008365892573105,-0.010756315877793,0.012243752349665,0.01839120766217
0.64,-0.008253887683617,-0.008361469113207,-0.010755161931733,0.012242742646862,0.018381038512513
0.644,-0.008259633373376,-0.008356180193764,-0.010767687054597,0.012224447793696,0.018387361175302
0.648,-0.008261965306039,-0.008358584248056,-0.010771028690063,0.012222356266462,0.018392986662347
0.652,-0.00825761396777,-0.008364281856729,-0.010752469390925,0.012229279942824,0.018383394485719
0.656,-0.00825703699474,-0.008366758032651,-0.010741819430409,0.012225048807269,0.01837435524158
0.66,-0.008248598764173,-0.008363680843156,-0.010741603065523,0.012220433023028,0.018367335403045
0.664,-0.008248767047974,-0.008360579613119,-0.010743213781899,0.012224543955868,0.018382264580202
0.668,-0.008251171102266,-0.008362046086237,-0.010743382065699,0.012243223457721,0.018380100931339
0.672,-0.008241362560753,-0.008363801045871,-0.01074568995782,0.012271687460544,0.018366037213727
0.676,-0.00824232418247,-0.008364930951388,-0.010745281268591,0.012296040530528,0.018362623456632
0.68,-0.008247372696484,-0.008365916613648,-0.010748743106772,0.01231611438387,0.018365123673096
0.684,-0.008247877547885,-0.008364065491843,-0.010750954836721,0.012331019520484,0.01835702201013
0.688,-0.008247204412683,-0.008364113572929,-0.010751099079978,0.012331620534057,0.018350579144626
0.692,-0.008249776750776,-0.008364209735101,-0.010753647377529,0.012322340884488,0.018356060388413
0.696,-0.008247973710057,-0.008363728924242,-0.010754633039788,0.012312099613202,0.018358224037277
0.7,-0.008244511871876,-0.008361829721351,-0.010755113850647,0.012290559286741,0.018359353942794
0.704,-0.008237876682028,-0.008363680843156,-0.01075432051273,0.012268826635936,0.018354401590952
0.708,-0.008219509707233,-0.008365075194646,-0.010756412039965,0.01225916233768,0.018354497753123
0.712,-0.008212874517386,-0.008364810748674,-0.010758239121227,0.012253031999234,0.018364402456808
0.716,-0.008230255829921,-0.008366565708307,-0.010756267796707,0.012244377403781,0.018370027943853
0.72,-0.00823838153343,-0.00836798410034,-0.010756628404851,0.012238295146421,0.018365388119068
0.724,-0.008236939100854,-0.008369162086943,-0.010760162364661,0.012238751916737,0.018365676605584
0.728,-0.008239872047091,-0.008373224938698,-0.010770788284634,0.012242838809034,0.018372335835974
0.732,-0.008242997317671,-0.0083689697626,-0.010773240420013,0.012233006226978,0.018378249809533
0.736,-0.008239343155147,-0.008367599451653,-0.01076261450004,0.012213100657435,0.01837904314745
0.74,-0.008246290872052,-0.008370388154632,-0.010756099512907,0.012223798699037,0.018363464875634
0.744,-0.008247853507342,-0.00836815238414,-0.010755474458791,0.012229880956397,0.018365364078525
0.748,-0.008241747209439,-0.0083691380464,-0.010756075472364,0.012238198984249,0.018364474578437
0.752,-0.008236025560223,-0.008368416830113,-0.01075571486422,0.01224288689012,0.018354040982808
0.756,-0.008230977046209,-0.008364762667588,-0.010754224350559,0.012247358431104,0.018350218536483
0.76,-0.008230255829921,-0.008363031748497,-0.010753190607213,0.012249522079967,0.018345410427898
0.764,-0.008233333019416,-0.008366325302878,-0.010754584958703,0.01224937783671,0.018344929617039
0.768,-0.008229775019063,-0.008369690978888,-0.010757469823854,0.012249930769197,0.018343198697948
0.772,-0.008226241059253,-0.008368777438256,-0.01075809487797,0.012251733809916,0.018345025779211
0.776,-0.008224534180705,-0.008365892573105,-0.010758527607742,0.01224682953916,0.018345314265726
0.78,-0.008224486099619,-0.008365003073017,-0.010761484594522,0.012241444457544,0.018357118172302
0.784,-0.008224966910478,-0.008366854194822,-0.010768047662741,0.012244665890296,0.018354089063894
0.788,-0.008226938234997,-0.00836543580279,-0.010769778581831,0.0122458438769,0.018342164954603
0.792,-0.008219846274834,-0.008366301262335,-0.01076573977062,0.012248055606849,0.018342044751888
0.796,-0.008209917530606,-0.008365531964962,-0.010766821595052,0.012252863715434,0.018349425198566
0.8,-0.008208835706175,-0.008367623492196,-0.010767494730253,0.012252767553262,0.018345867198213
0.804,-0.008216793125883,-0.008366445505593,-0.010760162364661,0.012251180877429,0.018342693846547
0.808,-0.008235809195337,-0.008365796410934,-0.01075415222893,0.012249425917795,0.018333774805122
0.812,-0.008240881749894,-0.008369089965314,-0.010753238688299,0.012252166539689,0.018333149751006
0.816,-0.008228621073002,-0.008367767735454,-0.010756363958879,0.012248632579879,0.018340001305739
0.82,-0.008221649315554,-0.008365820451477,-0.010752709796354,0.012243704268579,0.018326851128759
0.824,-0.008227611370199,-0.008364882870303,-0.01074766128234,0.01223384764598,0.018322331506689
0.828,-0.008231193411095,-0.008363440437727,-0.01074650733628,0.012237020997646,0.018319783209139
0.832,-0.008222130126412,-0.008363752964785,-0.010749608566317,0.012245627512013,0.018313965397751
0.836,-0.008225039032106,-0.008364642464873,-0.010753190607213,0.012246925701331,0.018309253451338
0.84,-0.008228837437888,-0.008363344275555,-0.010754224350559,0.012247911363591,0.018304253018409
0.844,-0.008229726937977,-0.008362214370038,-0.010754777283046,0.012254522512896,0.018303964531894
0.848,-0.008226409343053,-0.008364570343245,-0.010754584958703,0.012252935837063,0.018312162357032
0.852,-0.008223596599531,-0.008364257816186,-0.010756315877793,0.012249401877253,0.018308291829621
0.856,-0.008226697829568,-0.008364017410757,-0.010763504000128,0.012248416214993,0.018300983504572
0.86,-0.008228452789202,-0.008362550937639,-0.010764369459673,0.012246300647215,0.018308748599936
0.864,-0.008220399207322,-0.008358920815657,-0.010757830431998,0.012241204052115,0.018317427235933
0.868,-0.008213379368788,-0.008360291126604,-0.01075177221518,0.012225914266815,0.018317427235933
0.872,-0.008220038599178,-0.008362935586326,-0.010748334417542,0.012221899496146,0.018317932087334
0.876,-0.008232419478784,-0.008361805680808,-0.010749776850118,0.012233006226978,0.018314518330239
0.88,-0.008226842072826,-0.008362599018725,-0.010757541945482,0.012238174943706,0.018327644466676
0.884,-0.00821833172063,-0.008368416830113,-0.010758575688828,0.012242454160347,0.018328509926221
0.888,-0.008228597032459,-0.008367046519166,-0.01074905563383,0.01224009818714,0.018327428101789
0.892,-0.008239992249806,-0.008365003073017,-0.010743430146785,0.012241853146774,0.018326923250388
0.896,-0.008237636276599,-0.008366685911022,-0.010745810160535,0.012247791160877,0.018334231575437
0.9,-0.008230448154264,-0.008367791775997,-0.010750185539347,0.012250916431457,0.018336130778328
0.904,-0.008225856410566,-0.008366541667764,-0.010752709796354,0.012250339458427,0.018315768438471
0.908,-0.008221000220895,-0.008365988735277,-0.010747829566141,0.012244185079438,0.018304661707639
0.912,-0.008216793125883,-0.008364930951388,-0.010746651579537,0.01224288689012,0.018306007978043
0.916,-0.008218043234115,-0.008359642031945,-0.010749704728489,0.012244978417354,0.018315287627612
0.92,-0.008222490734556,-0.008361180626692,-0.010752108782781,0.012246228525586,0.018293074165949
0.924,-0.00821931738289,-0.008366445505593,-0.010753791620786,0.012249762485396,0.018275428407442
0.928,-0.008225880451109,-0.00836543580279,-0.010754945566846,0.012254282107466,0.018279779745712
0.932,-0.008235063938506,-0.008366036816363,-0.010755786985849,0.012252527147833,0.018286823624789
0.936,-0.008226409343053,-0.008366758032651,-0.010757205377881,0.012252455026204,0.018274130218124
0.94,-0.008214244828333,-0.008365772370391,-0.010757926594169,0.012252743512719,0.018266557447103
0.944,-0.00821422078779,-0.008366084897449,-0.010760306607919,0.012252743512719,0.018274442745182
0.948,-0.008227659451285,-0.00836560408659,-0.010764249256959,0.012250315417884,0.018283049259549
0.952,-0.008235713033165,-0.00836560408659,-0.010764681986731,0.012251325120687,0.018276967002189
0.956,-0.008231505938153,-0.008365964694734,-0.010766821595052,0.012252719472176,0.018270500096142
0.96,-0.008227010356626,-0.008367839857082,-0.010767446649168,0.012249113390737,0.018285020584069
0.964,-0.008227250762055,-0.008368296627398,-0.010761532675608,0.012251445323401,0.01828494846244
0.968,-0.008226144897081,-0.008369907343774,-0.010753238688299,0.012259378702567,0.018279659542997
0.972,-0.008219509707233,-0.008368945722057,-0.010754056066758,0.012259450824195,0.018279635502454
0.976,-0.008220351126236,-0.008368585113913,-0.010761773081037,0.012256133229272,0.018288939192566
0.98,-0.008227322883684,-0.008369763100516,-0.010761123986378,0.012259931635054,0.018305455045556
0.984,-0.008232900289643,-0.008368729357171,-0.010751940498981,0.012261325986544,0.018308508194507
0.988,-0.008228572991916,-0.008364522262159,-0.010745713998363,0.012261854878488,0.018301897045203
0.992,-0.008217874950315,-0.008365459843333,-0.010744175403616,0.012260700932427,0.018296848531188
0.996,-0.008213451490416,-0.008367286924595,-0.010745810160535,0.012259114256594,0.018300094004483
1,-0.008217081612398,-0.008369065924772,-0.010748382498628,0.012255988986014,0.018297593788019
1.004,-0.008219076977461,-0.008371037249291,-0.010749873012289,0.012234352497381,0.018289444043967
1.008,-0.008223332153559,-0.008368921681514,-0.010751796255723,0.012233294713493,0.018278313272593
1.012,-0.008226048734909,-0.008365195397361,-0.010753791620786,0.012243896592923,0.018279178732138
1.016,-0.008225736207851,-0.008366685911022,-0.010755907188563,0.01225365705335,0.018281029853944
1.02,-0.00822441397799,-0.008368200465226,-0.010757565986025,0.012261398108172,0.018276390029159
1.024,-0.008225904491652,-0.008367719654368,-0.010756868810281,0.012259787391796,0.018271918488175
1.028,-0.008226072775452,-0.008372936452183,-0.010755234053362,0.012258970013337,0.018280020151141
1.032,-0.00822227436967,-0.008374763533445,-0.010754921526304,0.012260172040483,0.018277159326533
1.036,-0.008217971112486,-0.008373417263041,-0.010755402337162,0.01226154235143,0.018268624933794
1.04,-0.008211191679381,-0.008369811181602,-0.010757950634712,0.012260700932427,0.018261388730374
1.044,-0.008209364598119,-0.00836839278957,-0.010759176702401,0.012256565959044,0.018263624500866
1.048,-0.008212369665985,-0.008371061289834,-0.010757614067111,0.012250627944942,0.01826595643353
1.052,-0.008217562423257,-0.008369690978888,-0.010752709796354,0.012253368566835,0.018262254189919
1.056,-0.008210302179293,-0.008367335005681,-0.010747108349853,0.012254450391267,0.018252998580893
1.06,-0.008213667855303,-0.008369618857259,-0.010746916025509,0.012253176242492,0.018255667081158
1.064,-0.008220327085693,-0.008367719654368,-0.010749175836544,0.012254137864209,0.018264081271181
1.068,-0.008219004855832,-0.008369618857259,-0.010747300674196,0.01225308008032,0.018261869541232
1.072,-0.008215230490593,-0.008370027546489,-0.010742612768326,0.012254161904752,0.018255859405501
1.076,-0.008207417314142,-0.008366782073194,-0.010741098214122,0.012259018094423,0.018253359189037
1.08,-0.008210206017121,-0.008364353978358,-0.010742853173755,0.01226310498672,0.018257950932735
1.084,-0.008210254098207,-0.008366108937992,-0.010746747741709,0.012260460526998,0.018251772513204
1.088,-0.008204171840847,-0.008363704883699,-0.010751171201607,0.012259018094423,0.018235641308901
1.092,-0.008197584732086,-0.00836305578904,-0.010753791620786,0.01224798348522,0.018242036093319
1.096,-0.008201214854067,-0.008366277221792,-0.010754368593816,0.012240218389855,0.018252686053835
1.1,-0.008210903192866,-0.008366084897449,-0.010752613634183,0.012249233593452,0.018241002349973
1.104,-0.008216672923168,-0.008368200465226,-0.010758912256429,0.012252935837063,0.018231890984204
1.108,-0.008214485233762,-0.008366445505593,-0.010771870109066,0.012254931202125,0.018235088376413
1.112,-0.008218019193572,-0.008367286924595,-0.010771341217122,0.012255075445383,0.0182354730251
1.116,-0.008220279004607,-0.008368056221969,-0.010763720365014,0.012258849810622,0.018237540511792
1.12,-0.008219581828862,-0.008368368749027,-0.010758647810457,0.012263633878664,0.018232203511262
1.124,-0.008211985017298,-0.008370460276261,-0.010752541512554,0.012262984784005,0.018231722700404
1.128,-0.008211912895669,-0.008370508357347,-0.010754633039788,0.01226171063523,0.018232900687007
1.132,-0.008214581395934,-0.00836839278957,-0.010760282567376,0.012258657486279,0.018227972375708
1.136,-0.008216793125883,-0.008371253614178,-0.010758239121227,0.012252527147833,0.018219678388398
1.14,-0.008217802828686,-0.008372046952094,-0.010751171201607,0.012240386673656,0.018218019590937
1.144,-0.008217586463799,-0.008367094600252,-0.010746747741709,0.01225291179652,0.018216961807048
1.148,-0.008216456558282,-0.008362791343068,-0.010745040863161,0.012259378702567,0.018215807860987
1.152,-0.008221769518268,-0.008362334572752,-0.010744824498275,0.012262816500205,0.018207105184448
1.156,-0.008221529112839,-0.008364906910845,-0.010741939633124,0.012268345825078,0.018194916629185
1.16,-0.008206503773511,-0.00836543580279,-0.0107384537544,0.012265821568071,0.018198306345738
1.164,-0.008193906529018,-0.008361469113207,-0.010736338186622,0.012261975081202,0.018208162968337
1.168,-0.008201936070355,-0.008361709518636,-0.010739126889602,0.012270797960456,0.018203739508439
1.172,-0.008208258733144,-0.008359305464344,-0.010743574390043,0.012271398974029,0.018191574993719
1.176,-0.008203570827274,-0.008360795978005,-0.01074766128234,0.012269716136024,0.018194940669728
1.18,-0.008202969813701,-0.008363272153927,-0.010747396836368,0.012268417946706,0.018201720102833
1.184,-0.008210230057664,-0.00836288750524,-0.010747781485055,0.012264234892237,0.018208619738653
1.188,-0.008206648016768,-0.008365051154103,-0.010753406972099,0.012267456324989,0.018190012358429
1.192,-0.008199964745835,-0.008362791343068,-0.010756772648109,0.012268634311593,0.018179530681713
1.196,-0.008203811232703,-0.008362599018725,-0.010754344553273,0.01226918724408,0.018189555588113
1.2,-0.008204532448991,-0.008363031748497,-0.010755835066935,0.012270413311769,0.018187464060879
1.204,-0.008204219921933,-0.008361685478093,-0.010755089810104,0.012270196946883,0.018178977749226
1.208,-0.008203330421845,-0.008362406694381,-0.01075258959364,0.012269379568423,0.018183401209124
1.212,-0.008206287408625,-0.008363079829583,-0.010752325147668,0.012269307446795,0.018179386438456
1.216,-0.008209773287349,-0.008363512559356,-0.010748166133742,0.012267552487161,0.018182247263064
1.22,-0.008209821368435,-0.008361637397008,-0.010743814795472,0.012269908460368,0.018176285208418
1.224,-0.008212537949785,-0.008361805680808,-0.010743406106242,0.012270870082085,0.018174506208242
1.228,-0.00822013476135,-0.00836033920769,-0.010739559619374,0.012250724107113,0.018189892155714
1.232,-0.008217995153029,-0.008360675775291,-0.010737804659741,0.012243439822607,0.018188425682596
1.236,-0.008211648449697,-0.008364281856729,-0.010742131957467,0.012258945972794,0.018177487235565
1.24,-0.008211432084811,-0.008362262451124,-0.010743502268414,0.012269067041365,0.018171429018747
1.244,-0.008215422814936,-0.008363368316098,-0.010745137025333,0.012270918163171,0.018178593100539
1.248,-0.008219197180175,-0.008364233775644,-0.010742107916924,0.012269716136024,0.018178641181625
1.252,-0.008217947071943,-0.008364305897272,-0.010739295173402,0.012274211717551,0.018172799329694
1.256,-0.008213427449873,-0.008361589315922,-0.010744079241444,0.012276519609672,0.018163207153067
1.26,-0.008205854678852,-0.008359545869773,-0.010751555850294,0.012272673122804,0.018171140532232
1.264,-0.008201575462211,-0.008358992937286,-0.010755883148021,0.012269235325166,0.018178472897824
1.268,-0.008206888422198,-0.008359257383258,-0.010759921959232,0.012268562189964,0.018170178910515
1.272,-0.008211456125354,-0.008360243045518,-0.010762253891896,0.012262816500205,0.018159841477057
1.276,-0.008209508841377,-0.008359882437374,-0.010761773081037,0.012262936702919,0.018161716639406
1.28,-0.008201335056782,-0.00836346447827,-0.010761075905292,0.01226779289259,0.018161139666375
1.284,-0.008193618042503,-0.008364522262159,-0.010758118918513,0.012267360162818,0.01815616327399
1.288,-0.008192824704586,-0.00836207012678,-0.010755474458791,0.012264956108525,0.018152340827665
1.292,-0.008205854678852,-0.008361300829407,-0.010750113417719,0.012267167838474,0.0181498406112
1.296,-0.00821619211231,-0.008363368316098,-0.010748911390572,0.012268345825078,0.018155129530644
1.3,-0.008214749679734,-0.008364834789217,-0.010754248391102,0.012264859946354,0.01815772590928
1.304,-0.008205566192337,-0.008364185694558,-0.010751555850294,0.01226663894653,0.018152965881781
1.308,-0.008196671191454,-0.008362911545783,-0.010746483295737,0.012268345825078,0.018154240030556
1.312,-0.008199243529547,-0.008364714586502,-0.010746747741709,0.012265941770785,0.01815887985534
1.316,-0.008210133895493,-0.008365772370391,-0.010746988147138,0.012260773054056,0.018165683328988
1.32,-0.008212489868699,-0.008362719221439,-0.010744680255017,0.012258248797049,0.01816635646419
1.324,-0.008208979949432,-0.008360050721175,-0.010745497633477,0.012261806797402,0.018156451760505
1.328,-0.008205133462564,-0.008362406694381,-0.010747060268767,0.012266951473588,0.01816241381515
1.332,-0.008202200516327,-0.008363320235012,-0.010748214214827,0.012272096149774,0.018170900126803
1.336,-0.008201166772982,-0.008363320235012,-0.010747709363426,0.01227510121764,0.018165466964102
1.34,-0.00819556532648,-0.008362839424154,-0.010747949768855,0.012270918163171,0.018154167908927
1.344,-0.008192920866758,-0.008360459410404,-0.010751844336809,0.012267720770962,0.018155033368472
1.348,-0.008195252799422,-0.008360002640089,-0.010751820296266,0.012268586230507,0.018163086950352
1.352,-0.008197464529371,-0.008359401626516,-0.010746964106595,0.012269091081908,0.018153494773725
1.356,-0.008200325353979,-0.008360723856376,-0.010743045498098,0.012268562189964,0.018142051475293
1.36,-0.008200325353979,-0.008358391923713,-0.010743622471129,0.012268225622363,0.018139310853399
1.364,-0.008199532016063,-0.008359185261629,-0.010744656214474,0.012252695431633,0.018140512880545
1.368,-0.008201599502754,-0.008361781640265,-0.010747204512025,0.012255604337327,0.018134286379928
1.372,-0.008199171407919,-0.008361276788864,-0.010749416241974,0.012268057338563,0.018124838446558
1.376,-0.008195709569737,-0.00836231053221,-0.010748574822971,0.012278154366591,0.018121953581407
1.38,-0.00819828190783,-0.008365748329848,-0.010753887782958,0.012281904691288,0.018123131568011
1.384,-0.008198955043032,-0.008364954991931,-0.010754753242503,0.012279091947765,0.018125054811445
1.388,-0.008201094651353,-0.008362599018725,-0.010751483728665,0.012274956974382,0.018121376608377
1.392,-0.008195685529195,-0.00835935354543,-0.010747685322883,0.012275365663612,0.018125896230447
1.396,-0.008191839042327,-0.008359161221086,-0.01074568995782,0.012279692961338,0.01813356516364
1.4,-0.008196887556341,-0.008359593950859,-0.010743934998187,0.012279572758624,0.018134358501557
1.404,-0.00820559023288,-0.008361228707778,-0.010743983079273,0.012274716568953,0.018135320123274
1.408,-0.008200301313436,-0.008364209735101,-0.010745088944247,0.012269716136024,0.018141474502263
1.412,-0.008195757650823,-0.008363272153927,-0.010748262295913,0.012272889487691,0.018149528084142
1.416,-0.008195252799422,-0.008362671140353,-0.010747541079626,0.012277216785417,0.018144671894472
1.42,-0.008198402110545,-0.008358992937286,-0.010745353390219,0.012278034163877,0.018141234096833
1.424,-0.008195421083222,-0.00835911314,-0.01074593036325,0.012278250528763,0.018142580367237
1.428,-0.008189434988034,-0.00835755050471,-0.010749512404145,0.012271591298373,0.0181447440161
1.432,-0.008188064677087,-0.008358560207513,-0.01075554658042,0.012265509041013,0.018144263205242
1.436,-0.008197152002313,-0.008361517194293,-0.010754032026215,0.012258368999764,0.01813923873177
1.44,-0.008187223258085,-0.008358824653485,-0.010750233620433,0.012255580296784,0.018130127366002
1.444,-0.008186982852656,-0.008359882437374,-0.010751267363779,0.012262816500205,0.018131954447264
1.448,-0.00818652608234,-0.008360483450947,-0.010755835066935,0.012283034596805,0.018138565596569
1.452,-0.008189795596178,-0.008363728924242,-0.010754897485761,0.012293396070806,0.018127266541394
1.456,-0.008189675393463,-0.008361685478093,-0.010748406539171,0.012305416342268,0.018123059446382
1.46,-0.008188737812289,-0.008361973964609,-0.010745449552391,0.012342607062174,0.018119862054173
1.464,-0.008186333757997,-0.008361469113207,-0.010746411174108,0.012363570415605,0.018123227730182
1.468,-0.008182944041444,-0.008362142248409,-0.010751724134095,0.012361382726198,0.018116929107936
1.472,-0.008186237595825,-0.008362959626869,-0.010753046363955,0.012350059630481,0.018104668431044
1.476,-0.008187151136456,-0.008361012342892,-0.010748310376999,0.012334793885723,0.018115558796989
1.48,-0.008178159973402,-0.008360699815834,-0.010747468957997,0.012313950735007,0.018124213392442
1.484,-0.00817609248671,-0.008360074761717,-0.010754921526304,0.012297531044189,0.018126040473704
1.488,-0.008180323622265,-0.008358055356112,-0.010756219715622,0.012285582894355,0.018123299851811
1.492,-0.00818496344705,-0.008358440004799,-0.01074922391763,0.012275774352842,0.018118467702683
1.496,-0.008180299581722,-0.008359906477917,-0.010746891984967,0.012270557555027,0.018121737216521
1.5,-0.008174962581193,-0.008359305464344,-0.010748574822971,0.012269403608966,0.018124598041129
1.504,-0.008171717107898,-0.008360002640089,-0.010748935431115,0.012268706433222,0.018110293918088
1.508,-0.00817140458084,-0.008360243045518,-0.010748214214827,0.012269884419825,0.018105774296018
1.512,-0.008175467432594,-0.008357502423624,-0.010748142093199,0.012273394339092,0.018111159377634
1.516,-0.00817296721613,-0.008358464045342,-0.010749824931203,0.012275245460897,0.018113010499439
1.52,-0.00816787062103,-0.008365363681161,-0.010752421309839,0.012274908893296,0.018110125634288
1.524,-0.008170611242923,-0.008363440437727,-0.010749728769032,0.012273153933663,0.018105389647332
1.528,-0.008169986188807,-0.008358343842627,-0.010744752376646,0.012275485866326,0.018115630918618
1.532,-0.008158086120059,-0.008359714153574,-0.010748334417542,0.012274355960809,0.018112842215639
1.536,-0.008161283512268,-0.008362863464697,-0.010756339918336,0.012273634744521,0.018107385012394
1.54,-0.008178256135574,-0.008360315167147,-0.010762854905469,0.012268153500734,0.018103105795754
1.544,-0.008179169676205,-0.008352982801555,-0.010763792486643,0.012265629243727,0.018116448297077
1.548,-0.008181501608869,-0.008350194098575,-0.010765715730077,0.012268874717022,0.018114597175272
1.552,-0.008181982419727,-0.008350266220204,-0.010768264027627,0.012268586230507,0.018108010066511
1.556,-0.008173568229703,-0.008352958761012,-0.010760258526833,0.012266350460015,0.018108635120627
1.56,-0.008177775324715,-0.008357478383082,-0.010746940066052,0.012267239960103,0.018116520418706
1.564,-0.008177366635485,-0.008358920815657,-0.010741771349323,0.012267504406075,0.018116376175449
1.568,-0.008177366635485,-0.008357141815481,-0.010738597997657,0.012265749446442,0.018112722012924
1.572,-0.008178929270776,-0.008356180193764,-0.010739559619374,0.012269716136024,0.018109380377457
1.576,-0.008177871486887,-0.008357430301996,-0.010743742673843,0.012270822000999,0.018113539391383
1.58,-0.008176236729968,-0.008359762234659,-0.010746771782252,0.01226861027105,0.018119453364943
1.584,-0.008176885824627,-0.008359329504887,-0.010747685322883,0.012265869649156,0.018122891162581
1.588,-0.008175611675852,-0.008359449707601,-0.010748983512201,0.012260388405369,0.018118371540511
1.592,-0.008178015730144,-0.008358800612942,-0.010750305742062,0.012264932067982,0.018118179216168
1.596,-0.008182727676558,-0.008358992937286,-0.010752253026039,0.012269403608966,0.018115967486219
1.6,-0.008185588501166,-0.008358103437198,-0.010757205377881,0.012271230690229,0.018113972121156
1.604,-0.008185564460623,-0.008357742829054,-0.010756940931909,0.012271807663259,0.018106327228506
1.608,-0.008181285243982,-0.008354857963903,-0.010752228985496,0.012271687460544,0.018101374876663
1.612,-0.00818594910931,-0.008355098369332,-0.01075201262061,0.012269355527881,0.018103274079554
1.616,-0.008180203419551,-0.008354208869244,-0.010763383797413,0.0122662302573,0.018095004132788
1.62,-0.00816943325632,-0.008357045653309,-0.010769898784546,0.012261854878488,0.018089546929544
1.624,-0.008170683364552,-0.008358464045342,-0.010763023189269,0.012265148432869,0.018086998631994
1.628,-0.008174650054135,-0.008356636964079,-0.010755258093905,0.012267360162818,0.01808704671308
1.632,-0.008170563161838,-0.00835581958562,-0.01075456091816,0.012251252999058,0.018092624119038
1.636,-0.008167942742659,-0.00835755050471,-0.010759441148374,0.012243391741521,0.018088801672713
1.64,-0.008169721742835,-0.008357478383082,-0.010757590026568,0.01225759970239,0.018074209063158
1.644,-0.008176236729968,-0.008360964261806,-0.010755498499334,0.012265028230154,0.018088921875428
1.648,-0.008178328257203,-0.008358464045342,-0.010754272431645,0.012269067041365,0.018096614849164
1.652,-0.00817575591911,-0.008352718355582,-0.010746747741709,0.012269427649509,0.018092503916324
1.656,-0.008171717107898,-0.008351420166264,-0.010742083876381,0.01226959593331,0.018085171550732
1.66,-0.008173640351332,-0.008352069260923,-0.010743742673843,0.012266566824901,0.018090123902574
1.664,-0.008173640351332,-0.008354208869244,-0.010746795822795,0.01226680723033,0.018096614849164
1.668,-0.008169625580664,-0.008353752098928,-0.010746651579537,0.012267696730419,0.018094980092245
1.672,-0.008166211823568,-0.008354112707072,-0.010744367727959,0.012265436919384,0.018090075821488
1.676,-0.008164144336877,-0.008358560207513,-0.01074273297104,0.012262936702919,0.018097937079025
1.68,-0.008167726377772,-0.008357165856024,-0.010741242457379,0.012262455892061,0.018104019336385
1.684,-0.008175178946079,-0.008357117774938,-0.010738934565258,0.012263417513778,0.018098946781828
1.688,-0.008176525216483,-0.008355747463991,-0.010737684457026,0.012266590865444,0.018090196024203
1.692,-0.008175371270423,-0.008357310099281,-0.010741723268238,0.012270269068512,0.018089498848458
1.696,-0.008163711607104,-0.008354617558473,-0.010744824498275,0.012271519176744,0.018096783132964
1.7,-0.008153518416904,-0.008353920382729,-0.010749127755459,0.012268466027792,0.018093850186728
1.704,-0.008157557228115,-0.008351852896037,-0.010754392634359,0.012267720770962,0.018082839618068
1.708,-0.008172847013416,-0.008351396125721,-0.010753911823501,0.012268586230507,0.018077238171566
1.712,-0.008185660622795,-0.008353319369155,-0.010749103714916,0.012269956541454,0.018081902036894
1.716,-0.00817904947349,-0.008353631896214,-0.010747228552567,0.012271278771315,0.01808368103707
1.72,-0.008172726810701,-0.008355507058562,-0.010750305742062,0.012262984784005,0.018074521590216
1.724,-0.008172726810701,-0.008353511693499,-0.010749873012289,0.012249401877253,0.018081565469293
1.728,-0.008175443392051,-0.008354184828701,-0.010751075039436,0.012260845175685,0.018080675969205
1.732,-0.008177174311142,-0.008351949058209,-0.010749560485231,0.012273610703978,0.018077863225682
1.736,-0.008176356932683,-0.008350939355406,-0.010739968308604,0.012279741042424,0.018071780968322
1.74,-0.008175275108251,-0.008351540368979,-0.010731265632065,0.012280293974912,0.018066468008336
1.744,-0.008175852081281,-0.008350819152691,-0.010731818564552,0.012282481664318,0.018077959387854
1.748,-0.008172366202557,-0.008350338341833,-0.01073138583478,0.012283635610378,0.018078945050114
1.752,-0.008171669026812,-0.008350362382376,-0.01073294847007,0.012284669353724,0.018066732454308
1.756,-0.008170971851067,-0.008350218139118,-0.010738886484172,0.012283467326578,0.018063679305356
1.76,-0.008167918702116,-0.008350290260747,-0.010741026092493,0.012280967110113,0.018067934481454
1.764,-0.008166908999313,-0.00835146824735,-0.010739247092316,0.012277216785417,0.018076829482336
1.768,-0.008164384742306,-0.008352117342009,-0.010736963240738,0.012274163636466,0.018071276116921
1.772,-0.008170034269893,-0.008346539936051,-0.010738501835486,0.012277913961162,0.018067549832767
1.776,-0.008176693500284,-0.008346972665823,-0.010746315011936,0.01227707254216,0.018073800373928
1.78,-0.008175491473137,-0.008348367017313,-0.010750305742062,0.012279644880253,0.018080940415177
1.784,-0.008174842378478,-0.008345361949447,-0.010745978444335,0.012283106718434,0.018079834550202
1.788,-0.008176429054311,-0.008346035084649,-0.010744055200901,0.012286015624128,0.018068848022085
1.792,-0.00817140458084,-0.008346299530621,-0.010743934998187,0.012286833002587,0.018073007036011
1.796,-0.008161740282584,-0.008347140949624,-0.010742684889955,0.012285582894355,0.018081084658434
1.8,-0.008161571998784,-0.008349785409345,-0.010742204079096,0.012287097448559,0.018076276549849
1.804,-0.008167437891257,-0.008349208436315,-0.010746170768679,0.012289910192082,0.018067501751681
1.808,-0.008171043972696,-0.008345410030533,-0.010750858674549,0.012287698462133,0.018062333034953
1.812,-0.008171452661926,-0.008343919516872,-0.010745762079449,0.012268297743992,0.018070987630406
1.816,-0.008175154905536,-0.008346299530621,-0.010742204079096,0.012258849810622,0.018071756927779
1.82,-0.008174481770334,-0.008345506192705,-0.010742011754753,0.012269403608966,0.018055842088363
1.824,-0.008167942742659,-0.008344280125016,-0.010739006686887,0.012278418812563,0.018046634560422
1.828,-0.008161812404213,-0.008344881138589,-0.010734895754047,0.012285534813269,0.018048533763313
1.832,-0.008159336228292,-0.008345001341303,-0.010733260997128,0.012287193610731,0.018056202696507
1.836,-0.00816294230973,-0.008345073462932,-0.010736434348794,0.012286592597158,0.018064785170331
1.84,-0.008163807769276,-0.008343895476329,-0.010743213781899,0.012287409975617,0.018057645129082
1.844,-0.008162052809642,-0.008344280125016,-0.010744295606331,0.012287313813446,0.018058438466999
1.848,-0.008160249768923,-0.008344063760129,-0.010741122254664,0.01228471743481,0.018056683507365
1.852,-0.008156090754997,-0.008340553840862,-0.010742035795296,0.012280173772197,0.018034349842988
1.856,-0.008163471201675,-0.00833774109734,-0.010742131957467,0.012276495569129,0.018023988368987
1.86,-0.008168399512974,-0.008339447975888,-0.010740376997834,0.012278274569306,0.018030912045349
1.864,-0.008171092053782,-0.008340529800319,-0.010736314146079,0.012282577826489,0.018027786774769
1.868,-0.008172486405272,-0.008339568178602,-0.010737035362367,0.012287914827019,0.018026777071966
1.872,-0.00817477025685,-0.008338750800143,-0.010742660849412,0.012292170003117,0.018022425733697
1.876,-0.008168519715689,-0.008340986570635,-0.010749151796001,0.012288900489279,0.018021944922838
1.88,-0.008158134201145,-0.008343943557415,-0.010751700093552,0.012283827934722,0.01802927728843
1.884,-0.008158639052547,-0.008343799314157,-0.010752349188211,0.012286664718787,0.018024637463646
1.888,-0.008162148971814,-0.008341251016607,-0.010751820296266,0.012289789989367,0.018014756800503
1.892,-0.008163591404389,-0.008341611624751,-0.010750642309663,0.01228882836765,0.018018410963028
1.896,-0.008166957080399,-0.008340553840862,-0.010742492565611,0.012288275435163,0.018030238910147
1.9,-0.008169072648176,-0.008343606989814,-0.010733813929615,0.012284621272638,0.018033316099642
1.904,-0.008164769390993,-0.008345578314334,-0.010735184240562,0.012282289339974,0.018029421531688
1.908,-0.00815981703915,-0.008346179327907,-0.010735713132506,0.012291400705743,0.018021752598495
1.912,-0.008161403714983,-0.008344953260218,-0.010737444051597,0.01229219404366,0.018025719288077
1.916,-0.008158615012004,-0.00834793428754,-0.0107384537544,0.01229178535443,0.018028243545085
1.92,-0.008151090322068,-0.008344087800672,-0.010738309511142,0.012291112219228,0.018028556072143
1.924,-0.008152003862699,-0.008343054057326,-0.01073763637594,0.012289621705567,0.018022473814782
1.928,-0.008149599808407,-0.008342404962667,-0.010735472727077,0.012289717867738,0.018033748829414
1.932,-0.008144743618736,-0.008340169192175,-0.010736602632595,0.012290943935427,0.018035744194477
1.936,-0.008154287714277,-0.008341010611178,-0.010739487497746,0.01229351627352,0.018027450207168
1.94,-0.008162894228644,-0.008343751233071,-0.010743934998187,0.012294766381753,0.018022185328267
1.944,-0.008156884092913,-0.00834440032773,-0.010752397269296,0.012288756246021,0.018026632828709
1.948,-0.008152027903242,-0.008345097503475,-0.010758671851,0.012267023595217,0.018031849626523
1.952,-0.008158110160602,-0.008339568178602,-0.010756147593993,0.012271687460544,0.018025791409706
1.956,-0.008153278011474,-0.008338197867656,-0.01074922391763,0.012279909326225,0.018015766503306
1.96,-0.008154455998078,-0.008335745732277,-0.010744560052303,0.012283130758977,0.018014780841046
1.964,-0.00815784571463,-0.008339231611001,-0.010744560052303,0.012291040097599,0.018022425733697
1.968,-0.008159095822862,-0.008342404962667,-0.010740401038377,0.012295030827725,0.018011992138067
1.972,-0.008152292349214,-0.008343198300584,-0.010734414943188,0.01229827630102,0.018005092502247
1.976,-0.008152508714101,-0.008345097503475,-0.010741242457379,0.01230041590934,0.018010116975719
1.98,-0.008155249335994,-0.008342717489725,-0.010744007119815,0.012302603598746,0.01801809843597
1.984,-0.008153999227762,-0.008338967165029,-0.010737251727253,0.012301449652686,0.018011078597436
1.988,-0.008154407916992,-0.008336875637795,-0.010731674321295,0.012296569422472,0.018001630664066
1.992,-0.008148205456917,-0.008335986137706,-0.010730832902292,0.012291280503028,0.017997495690683
1.996,-0.008144863821451,-0.00833675543508,-0.010730953105007,0.012292819097776,0.018006679178081
2,-0.008150633551753,-0.008338366151456,-0.010732203213239,0.012294165368179,0.01799903428543
2.004,-0.008154287714277,-0.008338774840686,-0.010736049700107,0.012296545381929,0.017992687582098
2.008,-0.008148710308319,-0.00833634674585,-0.010737275767796,0.012299478328166,0.018001149853208
2.012,-0.008145080186337,-0.008335048556532,-0.010735737173049,0.012299213882194,0.018012112340782
2.016,-0.008138493077575,-0.008334086934815,-0.010735184240562,0.012297074273873,0.018014372151817
2.02,-0.008135944780025,-0.008333654205043,-0.010735472727077,0.012296280935957,0.018008410097171
2.024,-0.008143637753761,-0.008336298664764,-0.010737780619198,0.012297795490161,0.018011992138067
2.028,-0.008145224429594,-0.008336995840509,-0.010744007119815,0.012295824165641,0.018020526530805
2.032,-0.00814354159159,-0.008334495624045,-0.010741530943894,0.012292001719316,0.018019637030717
2.036,-0.008145344632309,-0.008336274624221,-0.010733717767443,0.012286905124216,0.018010141016262
2.04,-0.008148926673205,-0.008338342110913,-0.010734390902645,0.012282938434633,0.018005429069848
2.044,-0.008149575767864,-0.008338077664941,-0.010739968308604,0.012289285137966,0.018003626029129
2.048,-0.008146642821627,-0.008338197867656,-0.010733958172873,0.012295607800755,0.018010357381148
2.052,-0.008146065848597,-0.008343510827642,-0.010729390469717,0.01229729063876,0.018006270488851
2.056,-0.008143781997019,-0.008340097070547,-0.010729751077861,0.012296569422472,0.017997591852855
2.06,-0.008142507848244,-0.008333774407757,-0.010729751077861,0.012297074273873,0.018008145651199
2.064,-0.008144815740365,-0.008333077232012,-0.010726625807281,0.012299646611966,0.018010285259519
2.068,-0.008146017767511,-0.00833733240811,-0.010724870847647,0.012300127422825,0.018003481785871
2.072,-0.008144959983622,-0.008339015246115,-0.010725111253076,0.01230197854463,0.018000164190948
2.076,-0.008143902199734,-0.008334399461873,-0.010726193077508,0.012300632274226,0.017999346812488
2.08,-0.0081419789563,-0.008332716623869,-0.01072999148329,0.012287145529645,0.018005693515821
2.084,-0.008139238334406,-0.008332091569752,-0.010730712699578,0.012269788257653,0.018004419367046
2.088,-0.008144407051135,-0.008334519664588,-0.010731746442924,0.012280582461427,0.01798727845994
2.092,-0.008144238767334,-0.008336370786393,-0.010732227253782,0.012290751611084,0.017991052825179
2.096,-0.008145008064708,-0.008334303299702,-0.010730279969805,0.012294141327636,0.017996245582451
2.1,-0.008148493943432,-0.008333029150927,-0.010730039564376,0.0122912083814,0.017997111041996
2.104,-0.008152652957358,-0.008334231178073,-0.010729342388631,0.012287986948648,0.017990572014321
2.108,-0.008145296551223,-0.008333509961785,-0.010731409875323,0.012287626340504,0.017992831825356
2.112,-0.008136089023283,-0.008334159056444,-0.010733958172873,0.012290342921854,0.018001702785695
2.116,-0.008135776496225,-0.008333942691558,-0.010734775551332,0.01228743401616,0.018004707853561
2.12,-0.00814116157784,-0.00833305319147,-0.010736386267708,0.012288852408193,0.018008386056628
2.124,-0.008143878159191,-0.008332476218439,-0.010737251727253,0.012290439084026,0.018005188664419
2.128,-0.008141137537297,-0.00833338975907,-0.010732203213239,0.012285895421413,0.018018531165743
2.132,-0.008138372874861,-0.008331586718351,-0.010732395537583,0.012287986948648,0.018021103503836
2.136,-0.00813878156409,-0.008330408731748,-0.010735256362191,0.012288515840592,0.018005909880707
2.14,-0.008142002996842,-0.008331562677808,-0.010736001619021,0.012293468192435,0.018006534934823
2.144,-0.008140272077752,-0.008332259853553,-0.010738886484172,0.012297891652333,0.018010165056805
2.148,-0.008140248037209,-0.008334808151103,-0.010738309511142,0.012297074273873,0.018017160854796
2.152,-0.008138493077575,-0.008337043921595,-0.010735713132506,0.012293997084379,0.01800691958351
2.156,-0.00814354159159,-0.008335577448477,-0.010736794956938,0.012296280935957,0.018001702785695
2.16,-0.008143998361905,-0.008330721258806,-0.010737660416483,0.012300944801284,0.018004515529217
2.164,-0.008142339564443,-0.00833264450224,-0.010734703429703,0.012302483396032,0.018008722624229
2.168,-0.008139262374949,-0.008334062894272,-0.010730328050891,0.012299526409252,0.017994610825532
2.172,-0.008137531455858,-0.008336947759423,-0.010732515740297,0.012279717001881,0.017994081933588
2.176,-0.00813803630726,-0.00833536108359,-0.010736217983908,0.012279524677538,0.017988023716771
2.18,-0.008143493510504,-0.008333942691558,-0.010734414943188,0.012286736840416,0.01798218186484
2.184,-0.00815135476804,-0.008333437840156,-0.010732515740297,0.012291905557144,0.017978215175257
2.188,-0.008145320591766,-0.008333918651015,-0.010734246659388,0.012296088611613,0.017972084836811
2.192,-0.008147027470314,-0.008332259853553,-0.010736770916395,0.01229943024708,0.017968406633744
2.196,-0.00814921515972,-0.008334736029474,-0.010736698794766,0.012297362760388,0.017974585053275
2.2,-0.008147989092031,-0.008336803516166,-0.010731433915866,0.012297939733419,0.017981701053981
2.204,-0.008140536523724,-0.008335216840333,-0.010726313280222,0.012298204179391,0.017975162026306
2.208,-0.008139382577664,-0.008332620461697,-0.010727659550626,0.012300896720198,0.01798061922955
2.212,-0.008139142172234,-0.008334471583502,-0.010729270267002,0.012301762179744,0.017988817054687
2.216,-0.008138685401919,-0.008333269556356,-0.010727948037141,0.012297675287447,0.017989922919662
2.22,-0.008133492644647,-0.008332836826583,-0.010730520375234,0.012298468625363,0.017989922919662
2.224,-0.008134045577134,-0.008334760070017,-0.01073705940291,0.012298925395679,0.017984057027188
2.228,-0.008139070050606,-0.008333341677985,-0.010734366862102,0.012300103382282,0.017989802716947
2.232,-0.008138084388346,-0.008337067962138,-0.010729438550803,0.012303661382635,0.017997207204168
2.236,-0.008131857887728,-0.008340794246291,-0.010730111686005,0.012304863409781,0.017996654271681
2.24,-0.008128275846832,-0.008339447975888,-0.010730784821207,0.012304815328695,0.0179933607173
2.244,-0.008127674833259,-0.008336515029651,-0.010730279969805,0.012304190274579,0.018001053691036
2.248,-0.008130535657867,-0.008336803516166,-0.010735328483819,0.012303252693405,0.0180035539075
2.252,-0.008133180117589,-0.008338630597428,-0.010747180471482,0.012302218950059,0.017993817487616
2.256,-0.008131930009357,-0.00834012111109,-0.010746170768679,0.012302892085261,0.017988865135773
2.26,-0.008122169548929,-0.008338798881229,-0.010735112118933,0.012298636909164,0.017995957095936
2.264,-0.00812250611653,-0.008338366151456,-0.01072958279406,0.01229178535443,0.018000043988233
2.268,-0.00813055969841,-0.008338678678514,-0.010726625807281,0.012285510772726,0.017985114811077
2.272,-0.008129958684837,-0.008337019881052,-0.010731722402381,0.012283683691464,0.01797626789128
2.276,-0.008128059481946,-0.008337596854082,-0.010735833335221,0.012282289339974,0.017979898013262
2.28,-0.008125559265482,-0.008335313002504,-0.010730304010348,0.012303348855577,0.017992038487439
2.284,-0.008126833414257,-0.008331538637265,-0.010725231455791,0.012335875710155,0.017995163758019
2.288,-0.008121736819156,-0.00833108186695,-0.010725207415248,0.012367272659215,0.017989922919662
2.292,-0.008118347102604,-0.008331033785864,-0.010726217118051,0.012393957661862,0.017992735663184
2.296,-0.008121592575899,-0.008335553407934,-0.01072530357742,0.012408766636304,0.017993961730873
2.3,-0.008121424292098,-0.008336875637795,-0.010724269834074,0.012405256717037,0.017996702352767
2.304,-0.008116207494284,-0.008333437840156,-0.010725519942306,0.01238523094478,0.017994105974131
2.308,-0.008117673967402,-0.008331033785864,-0.010727779753341,0.012344746670494,0.018001270055922
2.312,-0.008122866724674,-0.008333341677985,-0.010729510672432,0.012328351020219,0.018003025015556
2.316,-0.008127362306201,-0.008331730961609,-0.010733236956585,0.012320249357253,0.017998144785342
2.32,-0.008128131603575,-0.008329471150574,-0.010733477362014,0.012313469924148,0.01799295202807
2.324,-0.0081319540499,-0.008332019448124,-0.010729751077861,0.012308685856106,0.017993793447073
2.328,-0.008137074685543,-0.008332115610295,-0.010731457956409,0.012308445450677,0.018001029650493
2.332,-0.008136425590884,-0.0083287018532,-0.010735280402734,0.012305464423354,0.018002111474925
2.336,-0.008135343766452,-0.008327331542253,-0.010738405673314,0.012302339152774,0.017997543771769
2.34,-0.008145440794481,-0.008325648704249,-0.0107384537544,0.012299093679479,0.017991052825179
2.344,-0.008155008930565,-0.008325143852847,-0.010736506470423,0.012300367828254,0.01799196636581
2.348,-0.008149599808407,-0.008326345879993,-0.010736314146079,0.012299574490338,0.017996774474395
2.352,-0.008132843549988,-0.008329062461344,-0.010741819430409,0.012294766381753,0.017990572014321
2.356,-0.008124309157249,-0.008329062461344,-0.010744223484702,0.012296641544101,0.017986749567995
2.36,-0.00811880387292,-0.008329302866773,-0.010733693726901,0.012298612868621,0.017990596054864
2.364,-0.008118467305319,-0.008326514163794,-0.010722082144668,0.012298684990249,0.017996269622994
2.368,-0.008119452967579,-0.00832615355565,-0.010712273603154,0.012299406206537,0.017990475852149
2.372,-0.008121640656985,-0.008327788312569,-0.010707465494569,0.012297122354959,0.017981628932352
2.376,-0.008125150576252,-0.008328413366685,-0.010711071576008,0.012296136692699,0.017983816621759
2.38,-0.008124910170823,-0.008323965866244,-0.010716721103595,0.012298396503734,0.017992735663184
2.384,-0.008123924508563,-0.008321826257923,-0.010718379901057,0.012299286003822,0.017994418501189
2.388,-0.008127073819686,-0.008323004244527,-0.010720807995893,0.012299959139024,0.017992134649611
2.392,-0.008121760859699,-0.008326273758365,-0.010724414077331,0.012296329017043,0.017999947826061
2.396,-0.008112409088501,-0.008331779042694,-0.010729101983202,0.012291352624657,0.018001943191124
2.4,-0.008115582440168,-0.008335313002504,-0.010731698361838,0.012294189408722,0.018002592285783
2.404,-0.008119428927036,-0.008331755002152,-0.010732996551156,0.012294790422295,0.017988167960028
2.408,-0.008118419224233,-0.008329663474917,-0.010735689091963,0.01229803589559,0.017985643703021
2.412,-0.008114813142794,-0.008331394394008,-0.010736554551509,0.01229729063876,0.017992615460469
2.416,-0.008114981426594,-0.008334711988931,-0.010733164834956,0.012296064571071,0.017997952460999
2.42,-0.008125727549282,-0.00833519279979,-0.010731530078037,0.012291184340857,0.017985018648905
2.424,-0.008126232400683,-0.008330913583149,-0.01073787678137,0.012289477462309,0.017985162892162
2.428,-0.008118371143147,-0.008328028717998,-0.010744007119815,0.012291280503028,0.017994779109333
2.432,-0.008126160279055,-0.008326442042165,-0.010748550782428,0.012292386368003,0.017990523933235
2.436,-0.008135127401566,-0.008325456379905,-0.010745233187505,0.012292145962574,0.017988768973601
2.44,-0.008132963752703,-0.00832829316397,-0.01073665071368,0.012290727570541,0.017989321906089
2.444,-0.00812308308956,-0.008325961231307,-0.010733886051244,0.012288612002764,0.018002279758725
2.448,-0.008117625886316,-0.008330913583149,-0.010733068672784,0.012287506137789,0.017998024582627
2.452,-0.008118299021518,-0.008332981069841,-0.010731650280752,0.01229096797597,0.017993601122729
2.456,-0.00812546310331,-0.00833026448849,-0.010730207848176,0.012295800125098,0.017996293663537
2.46,-0.008130824144382,-0.00832754790714,-0.010728669253429,0.01229572800347,0.018002592285783
2.464,-0.008127169981858,-0.008328677812657,-0.010728308645285,0.01229375667895,0.018004395326503
2.468,-0.008123636022048,-0.008330432772291,-0.010727226820854,0.012295920327813,0.017995356082363
2.472,-0.008123515819333,-0.008329927920889,-0.010726409442394,0.012299117720022,0.01799138939278
2.476,-0.008123563900419,-0.008331947326495,-0.010728909658858,0.012297242557674,0.017999491055746
2.48,-0.008121328129927,-0.008333678245586,-0.010733910091787,0.012295391435869,0.018004779975189
2.484,-0.008116616183513,-0.008338750800143,-0.010735689091963,0.012282698029204,0.018005477150934
2.488,-0.008112336966873,-0.008336995840509,-0.010732876348441,0.012262576094776,0.018000693082892
2.492,-0.008106567236571,-0.008331274191293,-0.010729101983202,0.012268105419648,0.017998264988057
2.496,-0.008111062818098,-0.008326706488137,-0.010727467226283,0.012273778987779,0.018004659772475
2.5,-0.008112168683072,-0.008327908515283,-0.010732443618668,0.012279644880253,0.018006462813194
2.504,-0.008117770129574,-0.008330240447947,-0.010737179605625,0.012285414610555,0.018010165056805
2.508,-0.008127001698057,-0.008328990339715,-0.010739343254488,0.012290150597511,0.018031705383266
2.512,-0.008129790401036,-0.008328629731571,-0.010736915159653,0.012287626340504,0.018045144046761
2.516,-0.008130463536238,-0.00832771619094,-0.010734967875676,0.012282962475176,0.018045841222506
2.52,-0.008122986927389,-0.008328894177543,-0.010735953537936,0.012284452988838,0.018042643830297
2.524,-0.008120222264952,-0.008331105907493,-0.010731746442924,0.012285318448383,0.018042042816724
2.528,-0.008123996630191,-0.008331178029121,-0.010723548617786,0.012279043866679,0.018045095965675
2.532,-0.008121400251555,-0.008330625096634,-0.0107233322529,0.012256806364474,0.018040960992292
2.536,-0.008116952751114,-0.008331226110207,-0.010726577726195,0.012267672689876,0.018029445572231
2.54,-0.008121760859699,-0.008335649570105,-0.010725327617963,0.012279741042424,0.018030142747976
2.544,-0.008132098293157,-0.008336370786393,-0.01072448619896,0.012286760880958,0.018038917546143
2.548,-0.008129910603751,-0.008337765137883,-0.01072703449651,0.012291857476059,0.018041970695095
2.552,-0.008124717846479,-0.008336394826936,-0.010727106618139,0.012293155665377,0.018034349842988
2.556,-0.008124261076164,-0.008333485921242,-0.01072530357742,0.012293612435692,0.01802632030165
2.56,-0.008129261509092,-0.008332548340068,-0.010726770050538,0.01229375667895,0.018029902342546
2.564,-0.008124164913992,-0.008330288529033,-0.010732852307898,0.012296497300843,0.018032114072495
2.568,-0.00811757780523,-0.008329831758718,-0.010739319213945,0.012297338719846,0.018027354044996
2.572,-0.008122794603045,-0.008330769339892,-0.010744415809045,0.012296785787358,0.018022545936411
2.576,-0.008126160279055,-0.00833305319147,-0.0107386220382,0.012293035462662,0.018023940287901
2.58,-0.00812152045427,-0.008331202069664,-0.010731025226636,0.012296040530528,0.018023699882472
2.584,-0.008123876427477,-0.008334543705131,-0.010731722402381,0.012300536112055,0.018007592718712
2.588,-0.008130992428183,-0.008335865934992,-0.010734222618845,0.012303252693405,0.018003265420985
2.592,-0.008125270778966,-0.008331971367038,-0.010734318781017,0.012305969274756,0.018004683813018
2.596,-0.008116471940256,-0.008330577015548,-0.010734607267532,0.012307459788417,0.018010285259519
2.6,-0.008122794603045,-0.008334327340245,-0.010730544415777,0.012304382598923,0.0180033856237
2.604,-0.008130800103839,-0.00833675543508,-0.010727779753341,0.012301738139201,0.01799550032562
2.608,-0.008120606913639,-0.008335938056621,-0.010728308645285,0.01230197854463,0.017993288595671
2.612,-0.008105942182455,-0.008334399461873,-0.010728549050715,0.012304647044895,0.017999322771945
2.616,-0.008109692507151,-0.00832927882623,-0.010729630875146,0.012302291071688,0.017992855865899
2.62,-0.008123251373361,-0.008327331542253,-0.010732467659211,0.012297122354959,0.017984754202933
2.624,-0.008129646157779,-0.008330913583149,-0.010731313713151,0.01229885327405,0.01798900937903
2.628,-0.008123131170646,-0.008331538637265,-0.010729486631889,0.012302627639289,0.017987470784283
2.632,-0.008118154778261,-0.008331538637265,-0.010736193943365,0.012300536112055,0.017982470351355
2.636,-0.008117193156544,-0.008336322705307,-0.010741939633124,0.012304767247609,0.017973767674816
2.64,-0.008115414156367,-0.00833658715128,-0.010737083443453,0.012307051099187,0.017971940593554
2.644,-0.008112745656102,-0.00833988070566,-0.010733765848529,0.012307988680361,0.017973695553187
2.648,-0.008109788669323,-0.008338822921772,-0.010729943402204,0.012305728869326,0.017967420971484
2.652,-0.008113130304789,-0.008337957462226,-0.010725351658505,0.012303661382635,0.017963646606244
2.656,-0.008115005467137,-0.008338077664941,-0.010729799158947,0.012302723801461,0.017960954065437
2.66,-0.008113130304789,-0.008336731394537,-0.010736097781193,0.012303445017749,0.017966964201168
2.664,-0.008114260210307,-0.008337092002681,-0.010734006253959,0.012294574057409,0.017970546242064
2.668,-0.00811502950768,-0.008338702719057,-0.010731794524009,0.012275317582526,0.017970570282607
2.672,-0.00811601516994,-0.008338486354171,-0.010732996551156,0.012286496434986,0.017959679916662
2.676,-0.008111062818098,-0.008339231611001,-0.010733693726901,0.012300680355312,0.017963742768416
2.68,-0.008105076722909,-0.008336058259335,-0.010734126456673,0.012309094545336,0.017968094106686
2.684,-0.008105196925624,-0.008335072597075,-0.010736266064994,0.01230945515348,0.017969704823061
2.688,-0.008110101196381,-0.008337260286481,-0.010734078375587,0.012305849072041,0.017960064565348
2.692,-0.008112986061532,-0.008339087367744,-0.010724702563847,0.012305873112584,0.017963261957558
2.696,-0.008113106264246,-0.008340818286834,-0.010720182941777,0.012306426045071,0.017970618363693
2.7,-0.008110870493754,-0.008340890408463,-0.010722586996069,0.012309815761624,0.017965978538908
2.704,-0.008105485412139,-0.008339928786746,-0.010724149631359,0.012308397369591,0.017951554213153
2.708,-0.008104283384993,-0.00833988070566,-0.010723524577243,0.012304502801637,0.017952419672698
2.712,-0.008101638925271,-0.008339616259688,-0.010726385401851,0.012299165801108,0.017966339147052
2.716,-0.00810385065522,-0.008337380489196,-0.010724702563847,0.012300223584997,0.017957540308341
2.72,-0.008109379980093,-0.008339207570458,-0.010726120955879,0.012303324815034,0.01794405356376
2.724,-0.008106206628427,-0.008337428570282,-0.010729678956232,0.012304863409781,0.017949366523747
2.728,-0.008096398086913,-0.008335962097163,-0.010731049267179,0.012309551315652,0.017958742335488
2.732,-0.008097071222115,-0.008337668975711,-0.010731794524009,0.012310873545512,0.017957131619112
2.736,-0.008107817344803,-0.008335793813363,-0.010731121388808,0.012310897586055,0.017949582888633
2.74,-0.008111976358729,-0.008338943124486,-0.010728260564199,0.012308421410134,0.017945592158507
2.744,-0.008111615750585,-0.008339423935345,-0.010728260564199,0.012305224017925,0.017955713227079
2.748,-0.00811305818316,-0.008338750800143,-0.010730664618492,0.012309575356195,0.017952371591612
2.752,-0.008110702209954,-0.008338702719057,-0.010731986848353,0.012309094545336,0.017947202874883
2.756,-0.008111663831671,-0.008339087367744,-0.010731674321295,0.012303180571776,0.017943043860957
2.76,-0.008112144642529,-0.008340193232718,-0.010732227253782,0.012306377963985,0.017952780280842
2.764,-0.008103970857935,-0.008341010611178,-0.010731289672608,0.012305392301726,0.017948284699315
2.768,-0.008102768830788,-0.008339039286658,-0.01072645752348,0.012305728869326,0.017944438212447
2.772,-0.008098441533062,-0.00833774109734,-0.010726169036965,0.012308421410134,0.017940447482321
2.776,-0.00809776839786,-0.008333870569929,-0.010725015090905,0.012309815761624,0.017945976807194
2.78,-0.008103201560561,-0.00833084146152,-0.01072176961761,0.012310200410311,0.017948116415515
2.784,-0.008104211263364,-0.008329663474917,-0.010722707198784,0.0123115947618,0.017943404469101
2.788,-0.008101662965814,-0.00833165883998,-0.010725616104478,0.012308349288505,0.017935855738623
2.792,-0.008100581141382,-0.008333774407757,-0.010728140361485,0.01230690685593,0.017932057332841
2.796,-0.008100533060296,-0.008336635232365,-0.010728525010172,0.012310248491396,0.017939221414632
2.8,-0.008100172452152,-0.008338005543312,-0.010728380766914,0.01230592119367,0.017937610698256
2.804,-0.008095845154426,-0.008337524732454,-0.010739487497746,0.012307772315475,0.017931336116553
2.808,-0.008094715248908,-0.008335841894449,-0.010743526308957,0.012309407072394,0.017926936697197
2.812,-0.008100124371067,-0.00833790938114,-0.010740545281634,0.012308421410134,0.017934148860075
2.816,-0.008102816911874,-0.00833814978657,-0.010739174970688,0.012306377963985,0.017931288035467
2.82,-0.008106110466255,-0.008336034218792,-0.010736217983908,0.012306666450501,0.017922368994042
2.824,-0.008106999966343,-0.008335024515989,-0.01073665071368,0.012308782018278,0.017917272398941
2.828,-0.008106302790598,-0.008336154421507,-0.010737035362367,0.012308709896649,0.017926119318738
2.832,-0.008098946384463,-0.008331947326495,-0.010736242024451,0.012308613734477,0.017937153927941
2.836,-0.00809029178901,-0.008332884907669,-0.010735520808163,0.012311378396914,0.017925902953852
2.84,-0.008093128573075,-0.008333702286128,-0.010737444051597,0.012310056167053,0.017929436913662
2.844,-0.008097672235688,-0.008332716623869,-0.010743646511672,0.012303084409605,0.017939726266034
2.848,-0.008094282519136,-0.008332019448124,-0.010740617403263,0.012303733504264,0.017948549145287
2.852,-0.008091229370184,-0.008331226110207,-0.010730929064464,0.012311065869856,0.017939389698433
2.856,-0.00808930612675,-0.008334303299702,-0.010723957307016,0.01231397477555,0.017927297305341
2.86,-0.008093513221762,-0.008334880272732,-0.010722851442041,0.012311402437457,0.017934365224961
2.864,-0.008096758695057,-0.008333942691558,-0.010723837104301,0.012309431112937,0.017938812725403
2.868,-0.00809423443805,-0.0083336301645,-0.010724341955703,0.012307868477647,0.017925157697021
2.872,-0.008095700911168,-0.00833322147527,-0.010727563388455,0.012313349721434,0.017919532209976
2.876,-0.008093272816333,-0.008332836826583,-0.010732010888896,0.012318013586761,0.017921912223726
2.88,-0.008089209964579,-0.008331899245409,-0.01073138583478,0.012319287735536,0.017922368994042
2.884,-0.008088200261776,-0.008332356015725,-0.010732443618668,0.012314888316181,0.017916839669169
2.888,-0.008093537262305,-0.008334760070017,-0.010735953537936,0.012303925828607,0.017914555817591
2.892,-0.008093513221762,-0.008338438273085,-0.010738958605801,0.012273057771491,0.017922609399471
2.896,-0.008091253410727,-0.008336394826936,-0.010743454187328,0.012276567690758,0.017926047197109
2.9,-0.008087647329288,-0.008334471583502,-0.010747108349853,0.012295054868268,0.017920854439837
2.904,-0.008080867896183,-0.008332259853553,-0.010741771349323,0.012302002585173,0.017920181304635
2.908,-0.008076516557914,-0.00833026448849,-0.010741963673667,0.012309022423707,0.017925686588965
2.912,-0.008081757396272,-0.008334014813187,-0.010742059835839,0.012315657613555,0.017933259359987
2.916,-0.008087022275172,-0.00833716412431,-0.01073648242988,0.01231750873536,0.017934196941161
2.92,-0.008085579842597,-0.008335529367391,-0.01073080886175,0.012317340451559,0.01792638376471
2.924,-0.008086541464314,-0.008336827556709,-0.010727755712798,0.012312796788946,0.017928715697374
2.928,-0.008089498451094,-0.008336154421507,-0.010727996118227,0.012310873545512,0.017930302373207
2.932,-0.008088416626662,-0.008332620461697,-0.010731578159123,0.012311907288858,0.017931263994924
2.936,-0.008089065721321,-0.008333509961785,-0.010736530510966,0.012311378396914,0.017924965372678
2.94,-0.008090940883669,-0.008334952394361,-0.010740857808692,0.012317220248845,0.017927273264798
2.944,-0.008086421261599,-0.008337404529739,-0.010736169902822,0.012314575789123,0.017926552048511
2.948,-0.008071708449329,-0.008338366151456,-0.010728549050715,0.012313469924148,0.017920349588436
2.952,-0.008075795341626,-0.008338438273085,-0.010729654915689,0.012318686721963,0.017908473560231
2.956,-0.008092792005474,-0.008338197867656,-0.010733068672784,0.012318542478706,0.017901141194639
2.96,-0.008092190991901,-0.008337116043224,-0.010736193943365,0.012316090343327,0.017904314546305
2.964,-0.008090964924212,-0.008340481719233,-0.010740569322177,0.012316859640701,0.017909074573804
2.968,-0.008088344505033,-0.008341876070723,-0.010738814362544,0.012315008518896,0.01790616566811
2.972,-0.008087599248203,-0.008342477084296,-0.010734366862102,0.012308181004705,0.01790025169455
2.976,-0.008079954355552,-0.00834045767869,-0.01073549676762,0.01230238723386,0.017904530911191
2.98,-0.008082358409845,-0.008340962530092,-0.010730472294149,0.012298709030792,0.017910997817238
2.984,-0.008098633857405,-0.008342477084296,-0.010727202780311,0.012303805625892,0.017910565087465
2.988,-0.008101614884728,-0.008340313435433,-0.010725183374705,0.012306209680185,0.017900684424323
2.992,-0.008097503951888,-0.00833988070566,-0.01071996657689,0.012310320613025,0.017907415776342
2.996,-0.00808872915372,-0.008342092435609,-0.010720567590463,0.012315393167582,0.017915685723108
3,-0.008080435166411,-0.008342044354524,-0.010725159334162,0.012317821262418,0.017917056034055
3.004,-0.008077189693116,-0.008341803949094,-0.010726433482937,0.012311979410487,0.017907079208741
3.008,-0.008073968260364,-0.008342140516695,-0.010723548617786,0.012314263262065,0.01790871396566
3.012,-0.008073992300907,-0.008342765570811,-0.010720711833721,0.012315849937898,0.017912296006556
3.016,-0.008078728287863,-0.008343174260041,-0.010719846374176,0.012312748707861,0.017909915992806
3.02,-0.008075723219997,-0.008341635665294,-0.010725616104478,0.012312075572659,0.017896333086054
3.024,-0.008070987233041,-0.008341347178779,-0.0107285971318,0.012310585058997,0.017898280370031
3.028,-0.008066467610971,-0.008338702719057,-0.010729101983202,0.01231217173483,0.017903641411103
3.032,-0.008065193462196,-0.008337092002681,-0.010730520375234,0.012317388532645,0.017891981747784
3.036,-0.008072501787245,-0.008339640300231,-0.010730664618492,0.012320441681597,0.017883303111788
3.04,-0.008070794908698,-0.00834266940864,-0.01073196280781,0.012323542911634,0.017885635044452
3.044,-0.0080714680439,-0.008344376287187,-0.01073451110536,0.012323350587291,0.017891669220726
3.048,-0.008073223003533,-0.008341924151809,-0.010731842605095,0.012323206344033,0.017895034896736
3.052,-0.008074064422536,-0.00834283769244,-0.010727731672255,0.012319359857165,0.017887221720285
3.056,-0.008073078760276,-0.008344256084473,-0.010727972077684,0.012314695991838,0.017891188409868
3.06,-0.008076925247144,-0.008339472016431,-0.010726770050538,0.012318398235448,0.017898592897089
3.064,-0.008076252111942,-0.008337212205396,-0.01072604883425,0.012322821695346,0.017904266465219
3.068,-0.008073631692763,-0.008343126178955,-0.0107235005367,0.012321235019513,0.017896044599538
3.072,-0.008076035747056,-0.008343895476329,-0.010722058104125,0.012317628938074,0.017904915559878
3.076,-0.008072910476475,-0.008344015679043,-0.010724678523304,0.012323566952177,0.017910300641493
3.08,-0.008068198530062,-0.008343967597958,-0.010723548617786,0.012325418073982,0.017909915992806
3.084,-0.008069929449152,-0.008342645368097,-0.010720928198607,0.012325706560497,0.017910517006379
3.088,-0.008081444869214,-0.00834283769244,-0.010725255496334,0.012329889614966,0.017908040830458
3.092,-0.008086204896713,-0.008347285192881,-0.010727347023568,0.01232950496628,0.017912945101215
3.096,-0.008081444869214,-0.008346347611707,-0.010721096482408,0.012323542911634,0.01791578188528
3.1,-0.008076276152485,-0.008346900544194,-0.010713499670843,0.012322917857518,0.017907872546658
3.104,-0.008073583611677,-0.008345578314334,-0.010712129359897,0.012324119884664,0.017899891086407
3.108,-0.008083584477534,-0.008343462746556,-0.01071470169799,0.01232868758782,0.017898064005144
3.112,-0.008089426329465,-0.00834423204393,-0.010714773819618,0.012322220681773,0.017898857343061
3.116,-0.008092190991901,-0.008349593085002,-0.010714845941247,0.012296353057586,0.017898640978174
3.12,-0.008093609383934,-0.008349136314687,-0.01071585564405,0.012298709030792,0.017887630409515
3.124,-0.008089786937609,-0.008348463179485,-0.010716721103595,0.012312965072747,0.017881067341296
3.128,-0.008084065288393,-0.008346299530621,-0.010717514441512,0.01232359099272,0.017881668354869
3.132,-0.00806990540861,-0.008349665206631,-0.010719942536347,0.012327870209361,0.01788299058473
3.136,-0.008054880069281,-0.008351203801378,-0.010721625374352,0.012319768546395,0.017875970746196
3.14,-0.008059159285922,-0.008349424801202,-0.010722442752812,0.012315248924325,0.017869383637434
3.144,-0.008063510624191,-0.008349424801202,-0.010721649414895,0.012312628505146,0.017875658219138
3.148,-0.008066299327171,-0.008350867233777,-0.010719173238974,0.012313758410664,0.01788455322002
3.152,-0.0080663714488,-0.008350194098575,-0.010721024360779,0.012335058331695,0.017882101084642
3.156,-0.008068054286804,-0.008348823787628,-0.010724606401675,0.012362632834431,0.017881139462925
3.16,-0.008069015908521,-0.00835031430129,-0.010724558320589,0.012376504227698,0.017893376099274
3.164,-0.008065241543282,-0.008350602787805,-0.010725736307192,0.012402011243742,0.017905396370736
3.168,-0.008066852259658,-0.008348246814598,-0.010723861144844,0.012431364746654,0.017894241558819
3.172,-0.008071395922271,-0.008346419733336,-0.010720182941777,0.012433336071174,0.017888784355575
3.176,-0.008076179990313,-0.00834480901696,-0.010725592063935,0.012424032381062,0.017890563355752
3.18,-0.008072285422359,-0.008349953693146,-0.010728260564199,0.012403213270888,0.017891981747784
3.184,-0.008069063989607,-0.00835327128807,-0.010727707631712,0.012374484822093,0.017884433017306
3.188,-0.008070818949241,-0.00835442523413,-0.010720110820148,0.012352607928031,0.01787649963814
3.192,-0.008067573475946,-0.008350506625633,-0.010710326319177,0.012337582588702,0.017876379435426
3.196,-0.008058389988548,-0.008347309233424,-0.010708282873029,0.012326908587644,0.017876090948911
3.2,-0.008058726556149,-0.008345337908904,-0.010711143697637,0.012320345519425,0.017872556989101
3.204,-0.00805495219091,-0.008346083165735,-0.010713595833015,0.012316186505499,0.017872100218785
3.208,-0.008052427933903,-0.008346996706366,-0.010713932400616,0.012316066302784,0.017872292543128
3.212,-0.008058149583119,-0.008345169625104,-0.010715470995363,0.012321018654627,0.017877028530085
3.216,-0.008068535097663,-0.00834283769244,-0.010716913427939,0.01232515362801,0.017874696597421
3.22,-0.008078632125691,-0.008344472449359,-0.010719004955173,0.012327822128275,0.01786630644794
3.224,-0.008075266449682,-0.008347044787452,-0.010720567590463,0.012325466155068,0.017875802462395
3.228,-0.008068270651691,-0.008346972665823,-0.010723212050185,0.012323639073806,0.017882389571157
3.232,-0.008063101934962,-0.008345722557591,-0.010727875915513,0.012325682519954,0.017879937435779
3.236,-0.008058005339862,-0.008346227408993,-0.010727875915513,0.012323494830548,0.017873855178418
3.24,-0.008055889772084,-0.008348102571341,-0.010724942969276,0.012323134222404,0.017878567124832
3.244,-0.00806613104337,-0.008349785409345,-0.010724438117874,0.012324768979323,0.017886620706712
3.248,-0.008068414894948,-0.008346299530621,-0.010718692428115,0.012312844870032,0.017890034463807
3.252,-0.008067092665087,-0.008346539936051,-0.010715350792649,0.012296449219757,0.017884865747078
3.256,-0.008063486583649,-0.00834851126057,-0.010725015090905,0.012307555950589,0.01787904793569
3.26,-0.008063101934962,-0.008350338341833,-0.010727755712798,0.012313205478176,0.01787633135434
3.264,-0.008062260515959,-0.008349304598487,-0.010719702130918,0.012317941465132,0.017883495436131
3.268,-0.008063318299848,-0.008344905179132,-0.010715663319707,0.012319431978794,0.017874576394706
3.272,-0.008065049218939,-0.008340650003034,-0.010713283305957,0.012319119451736,0.017871114556525
3.276,-0.008060361313068,-0.008343895476329,-0.010713427549215,0.012319912789652,0.01786926343472
3.28,-0.008060553637412,-0.008345361949447,-0.010718211617257,0.01231849439762,0.017871883853899
3.284,-0.008063726989078,-0.008344135881758,-0.010723188009642,0.01232277361426,0.017868902826576
3.288,-0.008064135678308,-0.00834341466547,-0.010721913860867,0.012324841100952,0.017863469663875
3.292,-0.008054880069281,-0.008344833057503,-0.010720086779605,0.012319672384223,0.017867772921058
3.296,-0.008053581879963,-0.008342813651897,-0.01072037526612,0.012315922059527,0.017879504706006
3.3,-0.008061563340214,-0.008339568178602,-0.010721865779781,0.012318157830019,0.01787181173227
3.304,-0.008072117138559,-0.008341996273438,-0.010725231455791,0.012319840668024,0.017862628244872
3.308,-0.008073150881904,-0.008342573246468,-0.010727948037141,0.012320682087026,0.01787024909698
3.312,-0.008071588246614,-0.00834168374638,-0.010731241591522,0.012318278032733,0.017879168138405
3.316,-0.008076516557914,-0.008343054057326,-0.010733717767443,0.012316306708214,0.01787296567833
3.32,-0.008070554503269,-0.008342789611354,-0.010729702996775,0.012312941032204,0.01786984040775
3.324,-0.008060529596869,-0.008347020746909,-0.010727755712798,0.012313229518719,0.017869888488836
3.328,-0.008062981732247,-0.008346251449535,-0.010724365996246,0.012313109316005,0.017872076178242
3.332,-0.008066659935315,-0.008343342543842,-0.010729270267002,0.012313782451206,0.017875898624567
3.336,-0.008064736691881,-0.008345361949447,-0.010737251727253,0.012310056167053,0.017871523245755
3.34,-0.008066299327171,-0.008346443773879,-0.010735977578478,0.012303805625892,0.017871907894442
3.344,-0.008068390854405,-0.008344520530445,-0.010727899956056,0.012306113518013,0.017878543084289
3.348,-0.008065049218939,-0.008346588017136,-0.010717466360426,0.012307604031675,0.017869672123949
3.352,-0.008061202732071,-0.008342693449183,-0.010715975846765,0.012307267464074,0.017859983785151
3.356,-0.008063462543106,-0.008340265354347,-0.0107134756303,0.012307099180273,0.017858853879633
3.36,-0.008069232273408,-0.008342332841039,-0.010710037832662,0.012304286436751,0.017872292543128
3.364,-0.008066395489342,-0.008343030016783,-0.010709124292031,0.012302242990602,0.017867917164316
3.368,-0.008057572610089,-0.008340674043577,-0.010709244494746,0.012304070071865,0.017858541352575
3.372,-0.008048773771378,-0.008335433205219,-0.010710230157006,0.012305825031498,0.017850415649066
3.376,-0.008052932785304,-0.008335745732277,-0.010714437252017,0.012305632707155,0.017857627811944
3.38,-0.008059279488637,-0.008339832624574,-0.010716961509025,0.01230510381521,0.01785356496019
3.384,-0.00806185182673,-0.008343174260041,-0.01071446129256,0.012286568556615,0.017848203919117
3.388,-0.008065890637941,-0.008343005976241,-0.010714797860161,0.012278899623422,0.017846761486542
3.392,-0.00807122763847,-0.008338630597428,-0.010720014657976,0.012292891219404,0.017846280675683
3.396,-0.008065890637941,-0.00834028939489,-0.010722130225754,0.012301858341915,0.017857315284886
3.4,-0.008061563340214,-0.008341803949094,-0.010720206982319,0.012308132923619,0.017857147001085
3.404,-0.008066683975858,-0.008340577881405,-0.010719702130918,0.012311137991485,0.017851473432955
3.408,-0.008066996502916,-0.00834045767869,-0.010717490400969,0.01231084950497,0.017853108189874
3.412,-0.008067910043547,-0.008339952827289,-0.01072176961761,0.012312508302431,0.017863469663875
3.416,-0.008068535097663,-0.008339111408287,-0.010724414077331,0.012315873978441,0.017856570028055
3.42,-0.00806514538111,-0.008337837259512,-0.010719413644403,0.012318157830019,0.017850848378839
3.424,-0.008056009974799,-0.008334231178073,-0.010717778887484,0.012319047330107,0.017853060108788
3.428,-0.008047235176631,-0.008331418434551,-0.010718572225401,0.012311859207772,0.017861738744784
3.432,-0.00806341446202,-0.008332981069841,-0.010719678090375,0.012316186505499,0.01786532078568
3.436,-0.008071155516842,-0.008333582083414,-0.010718740509201,0.012315369127039,0.017857291244343
3.44,-0.008063101934962,-0.008331995407581,-0.010714725738533,0.012317701059703,0.017852002324899
3.444,-0.00805709179923,-0.00833420713753,-0.010712682292384,0.012323615033263,0.017858998122891
3.448,-0.008055673407198,-0.008332524299525,-0.010713547751929,0.012324889182038,0.017862219555643
3.452,-0.008061298894242,-0.008328846096458,-0.010715398873734,0.01232457665498,0.017854430419735
3.456,-0.008065313664911,-0.008332259853553,-0.01071700959011,0.012320946532998,0.017848564527261
3.46,-0.008062092232159,-0.008333750367214,-0.010718524144315,0.012321499465485,0.017850728176124
3.464,-0.008060241110354,-0.008332259853553,-0.010724414077331,0.01232399968195,0.017850872419382
3.468,-0.008055793609912,-0.008329134582973,-0.01073114542935,0.012325249790182,0.017842626513159
3.472,-0.008056370582943,-0.008332764704954,-0.010733381199843,0.012325369992896,0.017842313986101
3.476,-0.008060649799583,-0.008335505326848,-0.010730520375234,0.012326187371356,0.01785488719005
3.48,-0.00806358274582,-0.008338197867656,-0.010718884752459,0.012332149426001,0.017850896459925
3.484,-0.008061923948358,-0.008338919083943,-0.010711720670667,0.012329144358136,0.017842313986101
3.488,-0.00805831786692,-0.008338798881229,-0.010715326752106,0.012327725966103,0.017841304283298
3.492,-0.008055312799054,-0.008342861732983,-0.010717514441512,0.012328543344563,0.017859671258093
3.496,-0.008053269352905,-0.008341058692264,-0.01071643261708,0.012328976074335,0.017865705434367
3.5,-0.00805495219091,-0.008336274624221,-0.010715519076449,0.012329649209537,0.017858300947146
3.504,-0.008066347408257,-0.00833716412431,-0.010714894022333,0.012324071803578,0.01785159363567
3.508,-0.008064664570252,-0.008336779475623,-0.010717802928027,0.012323086141319,0.01784805967586
3.512,-0.008059279488637,-0.008335793813363,-0.010722250428468,0.012325922925384,0.017855656487424
3.516,-0.008054831988195,-0.008338245948741,-0.010718884752459,0.01232613929027,0.017859382771577
3.52,-0.008056827353258,-0.008338053624398,-0.010712345724783,0.012309383031851,0.017857651852487
3.524,-0.008057284123574,-0.008336563110737,-0.010711360062523,0.012311137991485,0.017862796528673
3.528,-0.008060409394154,-0.008336875637795,-0.010710807130036,0.012318830965221,0.017866787258798
3.532,-0.008060842123927,-0.008337885340597,-0.010710686927321,0.01232712495253,0.017864022596362
3.536,-0.008065794475769,-0.008338798881229,-0.010714437252017,0.012333303372062,0.01785332455476
3.54,-0.008071924814215,-0.008337260286481,-0.010720735874264,0.012337029656215,0.017853012027702
3.544,-0.008063895272878,-0.008338606556885,-0.010721913860867,0.012331452250256,0.017865368866766
3.548,-0.008063486583649,-0.008337380489196,-0.010717923130742,0.012331836898943,0.017866426650655
3.552,-0.008059135245379,-0.008333077232012,-0.010717201914454,0.012332534074688,0.017852699500644
3.556,-0.008060553637412,-0.008330024083061,-0.010719702130918,0.012334072669435,0.017847554824458
3.56,-0.008058510191263,-0.008329326907316,-0.010721264766208,0.012333832264006,0.017851136865354
3.564,-0.008052524096075,-0.008332981069841,-0.010719605968746,0.012324624736066,0.017858493271489
3.568,-0.008053197231277,-0.008334351380787,-0.010718836671373,0.012327461520131,0.017857892257916
3.572,-0.008060385353611,-0.008331682880523,-0.010725015090905,0.012330105979853,0.017850559892324
3.576,-0.008060217069811,-0.008327283461167,-0.010733285037671,0.012332269628716,0.017860873285239
3.58,-0.008057885137147,-0.008329350947859,-0.010733285037671,0.012334890047895,0.017871643448469
3.584,-0.008057212001945,-0.008333341677985,-0.010725159334162,0.012333591858577,0.017870609705124
3.588,-0.008053077028562,-0.008337116043224,-0.010719774252547,0.012329168398679,0.017871330921411
3.592,-0.00805257217716,-0.008337284327024,-0.010717153833368,0.012330634871797,0.017905059803135
3.596,-0.008053485717792,-0.008332428137353,-0.010712706332927,0.01233008193931,0.017957948997571
3.6,-0.008051394190557,-0.008329543272202,-0.010710398440806,0.012328254858047,0.017972806053099
3.604,-0.0080565148262,-0.008328413366685,-0.010710590765149,0.012327774047189,0.017965882376736
3.608,-0.008052235609559,-0.008327403663882,-0.01071248996804,0.012314239221522,0.017968719160802
3.612,-0.008051899041959,-0.008327067096281,-0.010714653616904,0.012304142193493,0.017978912351002
3.616,-0.008056610988372,-0.008325480420448,-0.010712081278811,0.012315393167582,0.017967445012027
3.62,-0.008059928583296,-0.008326105474564,-0.010711119657094,0.012323470790005,0.017950424307635
3.624,-0.008058365948005,-0.008328629731571,-0.010712273603154,0.012330610831254,0.017953357253872
3.628,-0.008058365948005,-0.008328942258629,-0.010714725738533,0.012334986210067,0.017957780713771
3.632,-0.008058005339862,-0.00832730750171,-0.010717057671196,0.01233419287215,0.017955881510879
3.636,-0.008055889772084,-0.008324542839274,-0.010718355860514,0.012329769412252,0.017943909320503
3.64,-0.008055312799054,-0.008325720825877,-0.010718692428115,0.012323326546748,0.017937105846855
3.644,-0.008056442704571,-0.00832499960959,-0.010721192644579,0.012328807790535,0.017942947698786
3.648,-0.008062741326818,-0.008323917785158,-0.010723813063758,0.012328591425648,0.017943789117788
3.652,-0.008062693245732,-0.008325913150221,-0.010729462591346,0.012325778682126,0.017934100778989
3.656,-0.008058438069634,-0.008327523866597,-0.01073097714555,0.012323566952177,0.01794684226674
3.66,-0.008057284123574,-0.008325720825877,-0.010728332685828,0.012327413439045,0.017972685850384
3.664,-0.008055649366655,-0.008327932555826,-0.010727539347912,0.012333327412605,0.01797922487806
3.668,-0.008054086731365,-0.00833067317772,-0.01073311675387,0.012332197507087,0.017974008080245
3.672,-0.008060120907639,-0.008333774407757,-0.010728380766914,0.012329601128451,0.017964752471219
3.676,-0.008060938286098,-0.00833536108359,-0.010716624941424,0.012330370425825,0.017967493093112
3.68,-0.008054038650279,-0.00833338975907,-0.010713379468129,0.012330226182567,0.017961915687154
3.684,-0.008052379852817,-0.008329423069488,-0.010714797860161,0.012329577087908,0.01795193886184
3.688,-0.008056009974799,-0.008329663474917,-0.01071922132006,0.012331860939486,0.017937754941514
3.692,-0.008054038650279,-0.008330240447947,-0.010722058104125,0.012332341750345,0.017935663414279
3.696,-0.008052451974446,-0.008327595988225,-0.010721817698695,0.012322893816975,0.01793426906279
3.7,-0.008049014176808,-0.008331033785864,-0.010720615671549,0.012318205911105,0.017924869210506
3.704,-0.00804040766244,-0.008336202502593,-0.010720807995893,0.012321932195258,0.017914603898677
3.708,-0.008041777973387,-0.008336803516166,-0.010721745577067,0.012323855438692,0.017909266898147
3.712,-0.008041729892301,-0.008333149353641,-0.010723644779958,0.012321571587114,0.017916695425911
3.716,-0.008041826054473,-0.008333485921242,-0.010724918928733,0.01232359099272,0.017908834168375
3.72,-0.008046465879257,-0.008328798015372,-0.010725952672079,0.012326908587644,0.017894962775107
3.724,-0.008055288758511,-0.008329615393831,-0.010724606401675,0.012332125385458,0.017897150464513
3.728,-0.00806045747524,-0.008328918218086,-0.010731818564552,0.012336476723728,0.017903136559701
3.732,-0.008050552771555,-0.008326225677279,-0.010738165267885,0.012336188237213,0.017894650248049
3.736,-0.008049807514724,-0.008324302433845,-0.010730880983378,0.012334817926266,0.017884505138934
3.74,-0.008053293393448,-0.008325985271849,-0.010721216685122,0.012330634871797,0.017889144963719
3.744,-0.008055697447741,-0.008327427704425,-0.010719341522774,0.012311089910399,0.017891717301812
3.748,-0.008054086731365,-0.00832730750171,-0.0107233322529,0.012314936397267,0.017889505571863
3.752,-0.008051370150014,-0.008326466082708,-0.010727683591169,0.01232630757407,0.017875225489365
3.756,-0.008050745095898,-0.008328653772114,-0.010731506037494,0.012329312641936,0.017875201448822
3.76,-0.008047908311833,-0.008326490123251,-0.010726217118051,0.012330130020396,0.017880562489895
3.764,-0.008051225906757,-0.008325768906963,-0.010719533847118,0.01233263023686,0.017882942503644
3.768,-0.008050672974269,-0.008327283461167,-0.01071684130631,0.012334914088438,0.017866667056084
3.772,-0.008045576379169,-0.008326418001622,-0.010713860278987,0.01233633248047,0.01785709892
3.776,-0.008043701216821,-0.008321008879464,-0.010713619873558,0.012336861372415,0.017864503407221
3.78,-0.008047235176631,-0.00832064827132,-0.010712177440982,0.012335707426354,0.017865537150566
3.784,-0.008055144515253,-0.008322811920183,-0.010716865346853,0.01233731814273,0.017851810000556
3.788,-0.008057308164117,-0.008324254352759,-0.010723139928556,0.012334096709978,0.017840438823752
3.792,-0.008047018811745,-0.008328677812657,-0.010720495468835,0.012331764777315,0.017850463730152
3.796,-0.008041201000357,-0.008330432772291,-0.010720062739062,0.012334553480294,0.017835847080054
3.8,-0.008048389122691,-0.00833108186695,-0.010719870414719,0.012334673683008,0.017826879957543
3.804,-0.008057644731718,-0.008330817420977,-0.010722250428468,0.012335779547983,0.0178219276057
3.808,-0.008055048353082,-0.008332356015725,-0.010724750644932,0.012339890480823,0.017833130498703
3.812,-0.00806004878601,-0.00832985579926,-0.010723236090728,0.012343472521719,0.01784017437778
3.816,-0.008063823151249,-0.008328413366685,-0.010717322117168,0.012345876576012,0.017836760620685
3.82,-0.008057019677602,-0.008326033352935,-0.01071544695482,0.012343256156833,0.017832433322958
3.824,-0.008057981299319,-0.008322090703896,-0.010716408576537,0.012342775345974,0.017832769890559
3.828,-0.008056490785657,-0.008316801784452,-0.010715759481878,0.012342366656745,0.01783745779643
3.832,-0.008051730758158,-0.008313363986814,-0.010717322117168,0.012335779547983,0.017834452728564
3.836,-0.008046225473828,-0.008314830459932,-0.010727996118227,0.01233517853441,0.017828827241519
3.84,-0.008036657337744,-0.008313965000387,-0.010730304010348,0.01233534681821,0.017823995092391
3.844,-0.008037234310774,-0.008312666811069,-0.010722154266296,0.012336813291329,0.017824283578907
3.848,-0.008052307731188,-0.008312234081296,-0.010720086779605,0.012339073102364,0.017821759321899
3.852,-0.008054904109824,-0.008312714892155,-0.010719605968746,0.012338472088791,0.017805580036511
3.856,-0.008049903676896,-0.008313628432786,-0.010720687793178,0.012334866007352,0.017802767292988
3.86,-0.008042811716733,-0.008312065797496,-0.010723452455614,0.012331043561027,0.017816614645713
3.864,-0.008040888473299,-0.008307858702484,-0.010725592063935,0.01233419287215,0.017818850416205
3.868,-0.008042427068046,-0.008308555878229,-0.010726914293796,0.012332077304373,0.017811950780386
3.872,-0.008042715554561,-0.008308459716057,-0.010730039564376,0.012326523938957,0.017809402482836
3.876,-0.008038893108236,-0.00831004639189,-0.010731073307722,0.012320898451912,0.017816037672683
3.88,-0.008039806648867,-0.008311296500122,-0.010730328050891,0.012320994614084,0.017815677064539
3.884,-0.00804591294677,-0.008313844797672,-0.010730712699578,0.012334264993779,0.017815677064539
3.888,-0.008047355379346,-0.008313868838215,-0.010733285037671,0.012339073102364,0.017804185685021
3.892,-0.008047018811745,-0.008314710257218,-0.010730159767091,0.012338399967162,0.017806926306915
3.896,-0.008050648933726,-0.008315239149162,-0.010722490833897,0.012338952899649,0.017820413051496
3.9,-0.008050192163411,-0.008314998743733,-0.010719101117345,0.012341525237742,0.017820340929867
3.904,-0.008050961460784,-0.008311128216322,-0.010719245360602,0.012342150291858,0.017815100091509
3.908,-0.008044590716909,-0.008309998310804,-0.010719726171461,0.01233912118345,0.017814715442822
3.912,-0.008031416499386,-0.008309277094516,-0.010722274469011,0.012339025021278,0.017828442592833
3.916,-0.008034758134853,-0.00830790678357,-0.01072530357742,0.012339626034851,0.017825822173654
3.92,-0.008042138581531,-0.008309253053973,-0.010730856942835,0.012338159561733,0.017812263307444
3.924,-0.008048341041606,-0.008307618297055,-0.010733236956585,0.012332149426001,0.017813393212961
3.928,-0.008051682677072,-0.008307738499769,-0.01072645752348,0.012338063399561,0.017826567430484
3.932,-0.008047956392919,-0.008306464350994,-0.010717971211827,0.012341501197199,0.017814787564451
3.936,-0.008051634595986,-0.008306031621222,-0.010715927765679,0.01233888077802,0.017803945279592
3.94,-0.008056707150544,-0.008305142121133,-0.010715831603507,0.012335467020925,0.017802430725388
3.944,-0.00805831786692,-0.008306824959138,-0.010716865346853,0.012337919156303,0.017807719644831
3.948,-0.008054591582766,-0.008309156891802,-0.010722250428468,0.012340635737654,0.017804378009364
3.952,-0.008055192596339,-0.008309397297231,-0.010724582361132,0.012342751305431,0.017794881994909
3.956,-0.008057957258776,-0.008310022351347,-0.010720711833721,0.012342991710861,0.017792646224417
3.96,-0.00807007369241,-0.008306416269908,-0.010722370631183,0.012342366656745,0.017801372941499
3.964,-0.008069184192322,-0.00830552676982,-0.010724365996246,0.012345131319181,0.017804305887736
3.968,-0.008051682677072,-0.008306752837509,-0.010723188009642,0.012340707859283,0.017794906035452
3.972,-0.008040768270584,-0.00830766637814,-0.010720182941777,0.012339577953765,0.017796516751828
3.976,-0.008030190431697,-0.008307209607825,-0.010720134860691,0.012340804021454,0.017800651725211
3.98,-0.008025791012342,-0.008302377458697,-0.010723188009642,0.012343472521719,0.017802118198329
3.984,-0.008042475149132,-0.008304613229189,-0.010724269834074,0.012344530305608,0.017797045643772
3.988,-0.008052355812274,-0.008305911418507,-0.010722803360955,0.012346693954471,0.017790194089039
3.992,-0.008044710919624,-0.008306055661764,-0.010723716901587,0.012346165062527,0.01779793514386
3.996,-0.008038965229865,-0.00831120033795,-0.010726673888366,0.012346044859812,0.017798488076348
4,-0.008033892675308,-0.008309517499946,-0.010727779753341,0.012345011116466,0.017793800170477
4.004,-0.00803711410806,-0.00830593545905,-0.010728549050715,0.012340563616025,0.017788703575377
4.008,-0.008043965662793,-0.008305286364391,-0.010727731672255,0.012339674115937,0.017795963819341
4.012,-0.008052956825847,-0.008307474053797,-0.010722659117698,0.012328038493161,0.017804810739137
4.016,-0.008055312799054,-0.008311392662294,-0.010725616104478,0.012315801856812,0.017800435360325
4.02,-0.008051514393272,-0.008309902148632,-0.010731674321295,0.012314816194552,0.017792021170301
4.024,-0.008049158420065,-0.00830692112131,-0.010731674321295,0.012319119451736,0.017787934278004
4.028,-0.00804846124432,-0.008308051026827,-0.010730279969805,0.012329985777138,0.017792477940616
4.032,-0.008041104838185,-0.008308339513342,-0.010728332685828,0.012350828927854,0.017785890831855
4.036,-0.008038412297377,-0.008304901715704,-0.010727635510083,0.012375181997838,0.017775938047084
4.04,-0.008041465446329,-0.008305743134706,-0.010727635510083,0.012399126378591,0.017779808574495
4.044,-0.008035960161999,-0.008306223945565,-0.010729438550803,0.012420618623966,0.017791660562157
4.048,-0.008033483986078,-0.008305959499593,-0.010730760780664,0.012431052219596,0.017785530223711
4.052,-0.008031945391331,-0.008306199905022,-0.010728549050715,0.012425306529837,0.017779880696124
4.056,-0.008038532500092,-0.008301776445124,-0.010726986415424,0.012408862798476,0.017791179751298
4.06,-0.008044951325053,-0.008305671013078,-0.010729654915689,0.012392515229287,0.017804089522849
4.064,-0.008041128878728,-0.008307209607825,-0.010733477362014,0.012378283227875,0.017809787131523
4.068,-0.008039902811039,-0.00830692112131,-0.010733645645815,0.012364267591349,0.017802478806473
4.072,-0.008049879636353,-0.008306800918595,-0.010733621605272,0.012351910752286,0.017804161644478
4.076,-0.008052115406845,-0.008303747769644,-0.010736290105536,0.012346453549042,0.017814619280651
4.08,-0.008040215338097,-0.008302016850553,-0.010738117186799,0.012347078603158,0.017819355267607
4.084,-0.008033844594222,-0.008303603526386,-0.010737347889425,0.01234380908932,0.017820845781268
4.088,-0.008047403460432,-0.008304613229189,-0.010739559619374,0.012339626034851,0.017814739483365
4.092,-0.008057043718145,-0.00830535848602,-0.010742684889955,0.012338616332048,0.017818826375663
4.096,-0.008050793176984,-0.008305094040047,-0.010741963673667,0.012336789250786,0.017825701970939
4.1,-0.008048220838891,-0.0083033871615,-0.010739174970688,0.012335491061468,0.017817432024173
4.104,-0.008047139014459,-0.008303867972358,-0.010739896186975,0.012308229085791,0.017815917469969
4.108,-0.008039373919094,-0.00830240149924,-0.010750930796178,0.012296208814328,0.017823105592303
4.112,-0.008043220405963,-0.008303459283129,-0.010761003783664,0.012310801423884,0.017822408416558
4.116,-0.008057212001945,-0.008301848566753,-0.010750257660976,0.012323278465662,0.017818441726976
4.12,-0.00805495219091,-0.008302858269555,-0.01073467938916,0.012329577087908,0.017807743685374
4.124,-0.008050793176984,-0.008302257255982,-0.010732924429527,0.012333543777491,0.017804281847193
4.128,-0.008048196798348,-0.008301536039694,-0.010735953537936,0.01233986644028,0.017816542524085
4.132,-0.008047066892831,-0.008302209174896,-0.0107384537544,0.01234126079177,0.017814763523908
4.136,-0.008046778406315,-0.00830413241833,-0.010737516173226,0.012339265426707,0.017804450130993
4.14,-0.008049567109295,-0.008302882310098,-0.010739319213945,0.012341957967515,0.017808248536775
4.144,-0.00804574466297,-0.008303098674985,-0.010739848105889,0.012343592724434,0.017807022469086
4.148,-0.008041297162529,-0.008305406567105,-0.010742107916924,0.012338087440104,0.01780918611795
4.152,-0.008046778406315,-0.008307017283481,-0.010742684889955,0.012338159561733,0.017805507914882
4.156,-0.008042475149132,-0.008306392229365,-0.010738814362544,0.012335995912869,0.017804041441764
4.16,-0.008039902811039,-0.008302786147927,-0.010735761213592,0.012337462385988,0.017814499077936
4.164,-0.008037618959461,-0.008300670580149,-0.010734847672961,0.012339049061821,0.01781659060517
4.168,-0.008034950459196,-0.008300045526033,-0.010735689091963,0.012338255723904,0.017808657226005
4.172,-0.008036489053943,-0.008302016850553,-0.010736145862279,0.012336789250786,0.017806541658228
4.176,-0.008040167257011,-0.008302209174896,-0.01073648242988,0.012334577520837,0.017811782496585
4.18,-0.008045792744056,-0.008304901715704,-0.010738117186799,0.012334866007352,0.017811758456043
4.184,-0.008053341474534,-0.008302305337068,-0.010743069538641,0.012334625601923,0.017813489375133
4.188,-0.008054230974622,-0.008297160660882,-0.010749704728489,0.012335875710155,0.017800795968469
4.192,-0.008050216203954,-0.008296511566223,-0.010756003350735,0.012332510034145,0.017803127901132
4.196,-0.008045215771025,-0.008301055228836,-0.010755522539877,0.012333543777491,0.017800675765754
4.2,-0.008044783041253,-0.008303747769644,-0.010751002917807,0.012340010683538,0.017788703575377
4.204,-0.008044254149308,-0.00830256978304,-0.01074568995782,0.01233789511576,0.017786780331943
4.208,-0.008047860230747,-0.008303170796613,-0.0107384537544,0.0123367411697,0.017799497779151
4.212,-0.008055433001769,-0.008304733431904,-0.010734078375587,0.012340034724081,0.017795194521967
4.216,-0.008055625326112,-0.008305743134706,-0.010734967875676,0.012340635737654,0.017796035940969
4.22,-0.008053918447564,-0.008304757472446,-0.010737492132683,0.012336236318299,0.017785169615567
4.224,-0.008048485284863,-0.008304853634618,-0.010735448686534,0.012338760575306,0.017787453467145
4.228,-0.008040335540811,-0.008304709391361,-0.010733669686358,0.012340755940369,0.017793199156904
4.232,-0.008039590283981,-0.008302016850553,-0.010735160200019,0.012342078170229,0.017788006399632
4.236,-0.008039037351494,-0.008301728364038,-0.01074141074118,0.012334577520837,0.017771442465557
4.24,-0.008038580581178,-0.008305911418507,-0.01074568995782,0.012315825897355,0.017771226100671
4.244,-0.008033580148249,-0.008307065364567,-0.010745064903704,0.012323062100776,0.017790578737725
4.248,-0.008030310634412,-0.008307377891625,-0.010743333984614,0.012331668615143,0.017783438696477
4.252,-0.008032113675131,-0.008304709391361,-0.010741362660094,0.012336645007528,0.01778855933212
4.256,-0.008038965229865,-0.008304973837333,-0.010739415376117,0.012340082805167,0.017783462737019
4.26,-0.008042066459902,-0.008302016850553,-0.010737708497569,0.012339457751051,0.017784448399279
4.264,-0.008039878770496,-0.008301127350465,-0.010738766281458,0.012335154493867,0.017779447966351
4.268,-0.008041657770672,-0.008304156458873,-0.010744103281987,0.01233361589912,0.017774784101023
4.272,-0.008048148717262,-0.008303603526386,-0.010743766714386,0.012337654710331,0.017778077655404
4.276,-0.008047667906404,-0.008302545742497,-0.010740569322177,0.01234421777855,0.017780313425896
4.28,-0.008038532500092,-0.008302233215439,-0.010740040430233,0.012340731899826,0.017770432762754
4.284,-0.008038772905521,-0.008305262323848,-0.010737251727253,0.0123365728859,0.017755046815282
4.288,-0.008041729892301,-0.008305574850906,-0.010732708064641,0.012342462818916,0.017759013504864
4.292,-0.008033556107707,-0.008300526336892,-0.010730760780664,0.01234717476533,0.01776555253254
4.296,-0.008023939890536,-0.008300237850377,-0.010731097348265,0.012348521035733,0.017777164114773
4.3,-0.008024901512253,-0.008300622499063,-0.010733188875499,0.012348545076276,0.01775889330215
4.304,-0.008030959729071,-0.008302353418154,-0.010734246659388,0.012349170130392,0.017747065355031
4.308,-0.008039373919094,-0.008298771377258,-0.01073467938916,0.012346020819269,0.017756369045143
4.312,-0.008047259217174,-0.008297016417625,-0.010736602632595,0.012343688886605,0.017754325598994
4.316,-0.008043629095192,-0.008296559647309,-0.010737564254312,0.01234380908932,0.017764542829737
4.32,-0.008039446040723,-0.008298603093458,-0.010734487064817,0.012349098008764,0.017765023640596
4.324,-0.008039518162352,-0.008296824093281,-0.010733862010701,0.012350420238625,0.017752883166419
4.328,-0.008040287459726,-0.008295573985049,-0.010733597564729,0.012328495263477,0.017765191924396
4.332,-0.008036176526885,-0.008293410336186,-0.01073080886175,0.012323807357606,0.017761345437528
4.336,-0.008030358715498,-0.008294732566047,-0.010730520375234,0.012334385196493,0.017754445801709
4.34,-0.00802824314772,-0.008295718228307,-0.010731001186093,0.012340996345798,0.017757258545231
4.344,-0.008034397526709,-0.008294323876817,-0.010728068239856,0.012343328278462,0.017770552965469
4.348,-0.008042234743703,-0.008294876809304,-0.010725616104478,0.012345083238095,0.017767235370545
4.352,-0.008042643432932,-0.008295646106678,-0.010726962374881,0.012345491927325,0.017754974693653
4.356,-0.008040624027327,-0.0082933622551,-0.010732010888896,0.012349242252021,0.017760239572554
4.36,-0.008039902811039,-0.008292040025239,-0.010733982213416,0.01234972306288,0.017766297789371
4.364,-0.008040936554385,-0.008291078403522,-0.010728476929086,0.012348689319534,0.017768701843663
4.368,-0.008043893541164,-0.008293722863244,-0.010723067806928,0.012344434143436,0.017756369045143
4.372,-0.008047499622603,-0.008296415404051,-0.010723212050185,0.012348016184332,0.017740550367898
4.376,-0.008047980433462,-0.008295886512107,-0.010725928631536,0.012351237617084,0.017751320531128
4.38,-0.008041826054473,-0.00829805016097,-0.010725039131447,0.012351550144142,0.017750767598641
4.384,-0.008034854297025,-0.008296583687852,-0.010722058104125,0.012352319441516,0.01773078990747
4.388,-0.008037835324347,-0.008294444079532,-0.010723091847471,0.01235087700894,0.017732857394162
4.392,-0.008043100203248,-0.008290789917007,-0.010724870847647,0.012346165062527,0.017746272017114
4.396,-0.00803391671585,-0.008293314174014,-0.010725664185564,0.012345876576012,0.017749108801179
4.4,-0.008034589851052,-0.008295838431021,-0.010728116320942,0.012345996778726,0.017728746461322
4.404,-0.008039181594751,-0.008297352985225,-0.010728260564199,0.012345828494926,0.017721822784959
4.408,-0.008039998973211,-0.008294972971476,-0.010726096915336,0.012351213576541,0.017731006272357
4.412,-0.008043004041076,-0.008298170363685,-0.010730592496863,0.012352920455089,0.017735982664742
4.416,-0.008041345243614,-0.008295525903963,-0.010736193943365,0.012346405467956,0.017741031178756
4.42,-0.008027113242203,-0.008293001646956,-0.010734631308075,0.012350083671024,0.01773768954329
4.424,-0.008023218674249,-0.008295549944506,-0.010730472294149,0.01235145398197,0.017729515758695
4.428,-0.008023218674249,-0.008294804687675,-0.010726169036965,0.012354459049836,0.017732544867104
4.432,-0.008024396660852,-0.008294083471388,-0.010721985982496,0.012355468752639,0.017732040015702
4.436,-0.008025502525827,-0.008296800052738,-0.010720062739062,0.012353569549748,0.01772059671727
4.44,-0.008025670809627,-0.008297617431198,-0.01071881263083,0.012357175631187,0.017727352109832
4.444,-0.008028483553149,-0.00829805016097,-0.010720134860691,0.01235991625308,0.017745430598112
4.448,-0.008030911647985,-0.008300814823407,-0.010724269834074,0.012358786347563,0.017761754126758
4.452,-0.008030719323641,-0.008300093607119,-0.010721721536524,0.01235835361779,0.017764518789194
4.456,-0.008033820553679,-0.008295958633736,-0.010719365563317,0.012359627766565,0.017771514587186
4.46,-0.008042282824788,-0.008297136620339,-0.010722130225754,0.01235383399572,0.017777693006717
4.464,-0.008040696148955,-0.008296607728395,-0.010722322550097,0.012355540874268,0.017771562668271
4.468,-0.008030070228982,-0.00829788187717,-0.010719990617433,0.012358089171818,0.017761537761872
4.472,-0.008030839526356,-0.008297016417625,-0.01071898091463,0.012359627766565,0.017758556734549
4.476,-0.008031320337215,-0.008296824093281,-0.010719774252547,0.012361647172171,0.017765937181227
4.48,-0.008024492823024,-0.008296054795908,-0.010722226387925,0.01235893059082,0.01777007215461
4.484,-0.008024036052708,-0.008296559647309,-0.010724269834074,0.012355468752639,0.017759590477895
4.488,-0.008026584350258,-0.008301536039694,-0.010722635077155,0.012360949996426,0.01775396499085
4.492,-0.008023771606736,-0.008301079269379,-0.010720928198607,0.012364916686008,0.017753748625964
4.496,-0.008019059660323,-0.008299083904316,-0.010721553252723,0.012363882942663,0.017753916909764
4.5,-0.008029685580296,-0.008300141688205,-0.010721697495981,0.012364291631892,0.01774771444969
4.504,-0.008030839526356,-0.008300141688205,-0.010723596698872,0.012354266725493,0.017727472312547
4.508,-0.008027185363831,-0.008302113012725,-0.010726337320765,0.012342919589232,0.017729732123582
4.512,-0.008025622728541,-0.008303699688558,-0.010724702563847,0.012353906117349,0.017728482015349
4.516,-0.008030118310068,-0.008300117647662,-0.010721625374352,0.012358906550277,0.017728193528834
4.52,-0.008034974499739,-0.008298074201513,-0.010718884752459,0.012358233415075,0.017737593381118
4.524,-0.008028627796407,-0.008298939661059,-0.010718836671373,0.012360421104481,0.017747738490233
4.528,-0.008021271390272,-0.008296800052738,-0.010719197279517,0.012365157091438,0.017734492151081
4.532,-0.008014636200424,-0.00829196790361,-0.010722659117698,0.012370373889253,0.017727712717976
4.536,-0.008020213606383,-0.008291679417095,-0.010725255496334,0.012373306835489,0.017722856528305
4.54,-0.008029156688351,-0.008292713160441,-0.010721553252723,0.012371455713684,0.01772528462314
4.544,-0.008029974066811,-0.008294684484961,-0.010718908793002,0.012370421970338,0.01773333820502
4.548,-0.00803160882373,-0.008294083471388,-0.010718139495628,0.012369893078394,0.017741896638302
4.552,-0.008029421134323,-0.00829196790361,-0.010714966143962,0.012368354483647,0.017735573975512
4.556,-0.008029781742467,-0.008291919822524,-0.010710254197548,0.012370542173053,0.017736896205373
4.56,-0.008033003175219,-0.008292424673926,-0.010710831170579,0.01237289814626,0.017735429732255
4.564,-0.008027906580119,-0.00829805016097,-0.010710831170579,0.012371239348798,0.017728770501865
4.568,-0.008016631565487,-0.008295237417448,-0.010710590765149,0.012371359551512,0.017719659136096
4.572,-0.008016968133088,-0.008293145890214,-0.010711095616551,0.012354026320063,0.017719827419896
4.576,-0.008022064728188,-0.008296559647309,-0.010710470562435,0.012342318575659,0.017726799177345
4.58,-0.008024372620309,-0.008297328944683,-0.010711768751753,0.0123569592663,0.017722928649934
4.584,-0.008021487755158,-0.008295814390478,-0.010711648549038,0.01236796983496,0.017719418730667
4.588,-0.008019251984666,-0.008296439444594,-0.010714966143962,0.012373306835489,0.01772453936631
4.592,-0.008014035186851,-0.008296559647309,-0.010716937468482,0.012372729862459,0.017723385420249
4.596,-0.008018650971093,-0.0082984588502,-0.010717346157711,0.012371359551512,0.017723818150022
4.6,-0.00802273786339,-0.008296415404051,-0.010720399306663,0.012370253686538,0.017721630460616
4.604,-0.008021439674072,-0.00829533357962,-0.010719293441688,0.012368763172877,0.01771723104126
4.608,-0.008022617660676,-0.008292232349582,-0.010714196846588,0.012368402564733,0.017726654934087
4.612,-0.008023963931079,-0.008289756173661,-0.010714052603331,0.012361791415428,0.017737256813517
4.616,-0.008025262120397,-0.008294420038989,-0.010713283305957,0.012361502928913,0.01772511633934
4.62,-0.00802668051243,-0.008297040458167,-0.01071035035972,0.01236796983496,0.017724972096082
4.624,-0.00802865183695,-0.008295766309392,-0.010712345724783,0.012372369254315,0.017730405258783
4.628,-0.008026656471887,-0.008293482457815,-0.010716600900881,0.012372369254315,0.017728722420779
4.632,-0.008030863566899,-0.008293049728042,-0.010714413211474,0.012369219943192,0.017724924014996
4.636,-0.008032618526532,-0.008294155593016,-0.010710278238091,0.012371191267712,0.017720837122699
4.64,-0.008027810417947,-0.008295357620163,-0.010709244494746,0.012372393294858,0.017719226406323
4.644,-0.008018939457608,-0.008297328944683,-0.010711023494922,0.012375470484353,0.017726390488115
4.648,-0.008015910349199,-0.008296295201337,-0.010711384103066,0.012379220809049,0.017721029447043
4.652,-0.00801665560603,-0.008294900849847,-0.010710470562435,0.012377057160186,0.017716149216829
4.656,-0.008017112376346,-0.008294997012019,-0.010710518643521,0.012374100173406,0.01772413067708
4.66,-0.008024252417594,-0.008293001646956,-0.010710518643521,0.01236912378102,0.017722495920161
4.664,-0.008027305566546,-0.008295549944506,-0.010710783089493,0.012364003145377,0.017716557906058
4.668,-0.008032690648161,-0.008295670147221,-0.010717057671196,0.012369724794594,0.017707494621376
4.672,-0.008034613891595,-0.008296679850024,-0.010721625374352,0.012374484822093,0.017694224241681
4.676,-0.008030911647985,-0.008298699255629,-0.010721048401322,0.012374388659921,0.017714418297738
4.68,-0.008025766971799,-0.008298603093458,-0.010721024360779,0.012373018348974,0.017715259716741
4.684,-0.008025238079854,-0.008300285931462,-0.010723933266473,0.012358810388105,0.017698599620493
4.688,-0.008031248215586,-0.008298627134001,-0.010733862010701,0.012347102643701,0.017692565444219
4.692,-0.008032522364361,-0.008297857836627,-0.010737660416483,0.012359387361136,0.017705210769798
4.696,-0.008033700350964,-0.008298891579973,-0.01072727490194,0.012367489024101,0.017702277823561
4.7,-0.008031632864273,-0.008297016417625,-0.010716216252194,0.012372032686714,0.017708792810694
4.704,-0.00802668051243,-0.008295598025592,-0.010712297643697,0.01237010944328,0.017704369350795
4.708,-0.008019348146838,-0.008295549944506,-0.01071248996804,0.012367489024101,0.017698311133978
4.712,-0.008025069796054,-0.00829591055265,-0.010713283305957,0.012367416902473,0.017714899108597
4.716,-0.00802824314772,-0.00829492489039,-0.010713115022157,0.01236583022664,0.017711293027158
4.72,-0.008022136849817,-0.008295045093105,-0.010709605102889,0.012364580118408,0.017701388323473
4.724,-0.008016583484401,-0.008295213376905,-0.010705999021451,0.012369171862106,0.017706196432058
4.728,-0.008012376389389,-0.008295525903963,-0.010702056372411,0.012367296699758,0.017712903743534
4.732,-0.00802018956584,-0.008296150958079,-0.010701503439924,0.012365806186097,0.017707566743004
4.736,-0.008027113242203,-0.008295141255276,-0.010702945872499,0.012371479754227,0.017688887241151
4.74,-0.008023867768908,-0.008296391363508,-0.010705710534936,0.012373619362547,0.017691964430646
4.744,-0.008015742065399,-0.008295838431021,-0.010710735008407,0.012372369254315,0.017698888107008
4.748,-0.008012400429932,-0.008298002079884,-0.010711239859808,0.012371720159656,0.017711100702814
4.752,-0.008015814187028,-0.008292352552297,-0.010710999454379,0.012371167227169,0.017691459579244
4.756,-0.008017016214174,-0.008292040025239,-0.010707850143256,0.012373571281462,0.01768797370052
4.76,-0.008019949160411,-0.008296848133824,-0.010707032764796,0.012378860200905,0.017702085499217
4.764,-0.008016944092545,-0.008298410769114,-0.010708907927145,0.012377321606158,0.017707999472777
4.768,-0.008018650971093,-0.008296751971652,-0.010710614805692,0.012373763605805,0.017711485351501
4.772,-0.008023435039135,-0.008295646106678,-0.010711576427409,0.012369844997308,0.017715331838369
4.776,-0.00801978087661,-0.008292665079355,-0.010710590765149,0.012371311470427,0.017722592082333
4.78,-0.008013049524591,-0.008291991944153,-0.010712009157182,0.012377249484529,0.017723746028393
4.784,-0.008007856767319,-0.008291751538724,-0.010719654049832,0.012382658606687,0.017711797878559
4.788,-0.008008481821436,-0.008294371957903,-0.01072489488819,0.012384221241977,0.017706749364545
4.792,-0.008019636633353,-0.008294323876817,-0.01072176961761,0.012385567512381,0.017722856528305
4.796,-0.008023747566193,-0.008296463485137,-0.010713860278987,0.012375518565439,0.017720067825326
4.8,-0.008016463281687,-0.008296126917536,-0.010708523278458,0.012374076132863,0.017713504757107
4.804,-0.008010645470299,-0.008295477822877,-0.01070763377837,0.01238013434968,0.017704513594053
4.808,-0.008012376389389,-0.008296174998622,-0.010708715602801,0.012380182430766,0.017706124310429
4.812,-0.008015044889654,-0.008292208309039,-0.010710398440806,0.012382153755286,0.017716966595288
4.816,-0.008014804484225,-0.008289395565517,-0.010711119657094,0.012380831525425,0.017715812649228
4.82,-0.008020742498327,-0.008290525471035,-0.010709436819089,0.012362200104658,0.017703888539937
4.824,-0.008034493688881,-0.008292160227954,-0.0107082107514,0.012362680915516,0.017701965296503
4.828,-0.008038700783893,-0.008291751538724,-0.010705518210592,0.012376936957471,0.017705162688712
4.832,-0.00803317145902,-0.008291823660353,-0.010703066075214,0.012388067728845,0.017712230608332
4.836,-0.008022401295789,-0.008292616998269,-0.010704388305075,0.012389389958706,0.017698671742122
4.84,-0.008015718024856,-0.008291607295466,-0.010707249129683,0.012388284093732,0.017686050457086
4.844,-0.00800703938886,-0.00829591055265,-0.010708643481172,0.012385519431295,0.017691098971101
4.848,-0.008002591888419,-0.008294179633559,-0.010706575994481,0.012389029350563,0.017696243647287
4.852,-0.008005404631941,-0.008293386295643,-0.010707753981084,0.012389341877621,0.01768641106523
4.856,-0.00800744807809,-0.008294083471388,-0.010711792792296,0.012385880039439,0.017688262187035
4.86,-0.008002880374934,-0.008297377025768,-0.01071724999554,0.012383740431119,0.017698743863751
4.864,-0.007997639536576,-0.008300261890919,-0.010716576860338,0.012375350281638,0.017698912147551
4.868,-0.008004250685881,-0.008301223512636,-0.010715350792649,0.012377153322357,0.017691796146845
4.872,-0.008009659808039,-0.008300622499063,-0.010721264766208,0.012377610092673,0.017707013810517
4.876,-0.008003986239908,-0.008299420471917,-0.010720735874264,0.012370494091967,0.017720139946954
