time,channel1,channel2,channel3,channel4,channel5
0,-0.00166312475957,-0.007785746191233,-0.008104571871508,0.011981950837209,0.016196426295808
0.004,-0.00167447189583,-0.007780529393418,-0.008097792438403,0.011963511740785,0.016213831648886
0.008,-0.001669495503445,-0.007781226569163,-0.008101085992784,0.011963896389472,0.016212918108255
0.012,-0.001667115489695,-0.007779615852787,-0.008129718279408,0.011967935200684,0.01619512810649
0.016,-0.001668245395213,-0.007776995433608,-0.00815118648424,0.011961203848665,0.016195681038978
0.02,-0.001676202814921,-0.007781154447534,-0.008117938413374,0.011963607902957,0.016220995730678
0.024,-0.001691372397507,-0.007775048149631,-0.008098730019577,0.011978945769343,0.016225875960892
0.028,-0.001706301574664,-0.007774519257687,-0.008091565937785,0.011984595296931,0.016210610216134
0.032,-0.001705412074575,-0.007773605717056,-0.008070338138382,0.011977335052967,0.016206475242751
0.036,-0.00169057905959,-0.007777476244467,-0.008059784340038,0.011974498268902,0.016227943447583
0.04,-0.001687021059237,-0.007780649596133,-0.00805906312375,0.011966492768108,0.016236814407923
0.044,-0.001685963275349,-0.007778630190527,-0.00806399143505,0.011971204714521,0.016223279582256
0.048,-0.001684304477887,-0.007777283920123,-0.008070602584354,0.011981157499292,0.016215634689605
0.052,-0.00167997718016,-0.00777610593352,-0.008075723219997,0.011986302175478,0.016222173717281
0.056,-0.001672572692939,-0.007777019474151,-0.008079136977093,0.011983393269785,0.016229914772103
0.06,-0.001672308246967,-0.007778918677042,-0.008086998234629,0.011969569957603,0.016218615716928
0.064,-0.00168276588314,-0.007779495650072,-0.008092719883846,0.011961155767579,0.016211115067536
0.068,-0.001690314613618,-0.007781563136764,-0.008094859492166,0.011963535781328,0.016215490446348
0.072,-0.001681491734365,-0.007781178488077,-0.008098080924918,0.011976758079937,0.016232751556168
0.076,-0.00167528927429,-0.007783534461284,-0.008099186789893,0.011976349390707,0.016218856122357
0.08,-0.001674760382346,-0.007785337502003,-0.008102768830788,0.011972623106554,0.016202628755883
0.084,-0.00165721078601,-0.007786828015665,-0.008094018073164,0.011976469593422,0.016209961121475
0.088,-0.001654446123574,-0.007781058285363,-0.008090820680955,0.011964160835444,0.016223616149857
0.092,-0.001683463058885,-0.007779519690615,-0.008109548263893,0.01195894403763,0.016212196891967
0.096,-0.001691829167823,-0.007780649596133,-0.008118875994548,0.011969377633259,0.016192868295455
0.1,-0.001685001653632,-0.007782476677395,-0.008090027343038,0.011963896389472,0.016201162282764
0.104,-0.001680770518077,-0.007785024974945,-0.00808757520766,0.01195795837537,0.016212894067712
0.108,-0.001688247126927,-0.007781539096221,-0.008088608951005,0.011958343024056,0.016217990662812
0.112,-0.001687093180866,-0.007780505352875,-0.008082430531474,0.011957405442882,0.016194647295632
0.116,-0.001687477829553,-0.00778514517766,-0.00807500200371,0.011956275537365,0.016197700444583
0.12,-0.001671659152308,-0.007782957488254,-0.008063462543106,0.011957838172655,0.016210586175591
0.124,-0.00166509608409,-0.007780577474504,-0.008064760732424,0.01195771796994,0.016207725350983
0.128,-0.001670336922447,-0.007779928379845,-0.008068318732776,0.011949568225889,0.016192243241339
0.132,-0.001675072909404,-0.007778894636499,-0.008073920179278,0.011941274238579,0.016187170686782
0.136,-0.00167668362578,-0.007780938082648,-0.008078848490578,0.011943077279299,0.016199743890732
0.14,-0.001686131559149,-0.007782909407168,-0.00808108426107,0.01195500138859,0.01620654736438
0.144,-0.001695411208718,-0.007782620920653,-0.008079209098722,0.011945914063364,0.016188204430128
0.148,-0.001697430614324,-0.007786828015665,-0.008079329301436,0.011926705669567,0.01617474172609
0.152,-0.001696108384463,-0.007784544164087,-0.008082719017989,0.011933340859414,0.016186473511037
0.156,-0.001693584127456,-0.007781635258393,-0.008103874695763,0.011961227889207,0.016194406890202
0.16,-0.001687189343038,-0.007780457271789,-0.008107408655573,0.011961612537894,0.016189214132931
0.164,-0.001676130693292,-0.007777043514694,-0.008093897870449,0.01194793346897,0.016180751861821
0.168,-0.001673654517371,-0.007774927946917,-0.008090892802583,0.011946034266079,0.016199094796073
0.172,-0.001681251328935,-0.00777314894674,-0.008098561735776,0.011967238024939,0.016204696242574
0.176,-0.001681419612736,-0.007778389785098,-0.008106422993313,0.011974161701301,0.016193036579256
0.18,-0.001674760382346,-0.007780505352875,-0.00809012350521,0.011976734039394,0.016187603416555
0.184,-0.001656441488637,-0.007778606149984,-0.008085002869567,0.011979065972058,0.016208302324013
0.188,-0.001653003690998,-0.007782548799024,-0.008092816046017,0.011970651782034,0.016226597177179
0.192,-0.001653797028915,-0.007780817879933,-0.008092070789187,0.011966877416795,0.016227029906952
0.196,-0.001672188044253,-0.007779399487901,-0.008084930747938,0.011965915795078,0.016218014703355
0.2,-0.001685554586119,-0.007779135041929,-0.008085651964226,0.011963655984043,0.016218086824984
0.204,-0.001676323017636,-0.007783774866713,-0.008074785638823,0.011963920430015,0.016226861623152
0.208,-0.001680169504504,-0.007783774866713,-0.008059255448094,0.011971252795607,0.016212389216311
0.212,-0.001687525910639,-0.007783510420741,-0.008062693245732,0.011974450187816,0.01619438284966
0.216,-0.001694401505916,-0.007779615852787,-0.008068559138206,0.011971589363208,0.016182867429598
0.22,-0.001692189775966,-0.007775865528091,-0.008072982598104,0.011968343889913,0.016197291755354
0.224,-0.001686227721321,-0.007778173420211,-0.008061803745644,0.011963367497528,0.016191954754824
0.228,-0.001682333153367,-0.007777884933696,-0.008067357111059,0.011959905659347,0.016176737091152
0.232,-0.001668678124985,-0.007776250176777,-0.008093897870449,0.011961203848665,0.016168178657871
0.236,-0.001659614840303,-0.007782789204453,-0.008099066587178,0.011968536214257,0.016189262214016
0.24,-0.001660191813333,-0.007793222800083,-0.008072790273761,0.011959881618804,0.016193252944142
0.244,-0.001670697530591,-0.007792309259452,-0.008074136544164,0.01195418401013,0.016177145780382
0.248,-0.001666274070693,-0.007792044813479,-0.008075050084796,0.011945673657935,0.016173275252971
0.252,-0.001661177475593,-0.007798487678983,-0.008077357976916,0.011942380103554,0.016193733755001
0.256,-0.001663028597398,-0.007796059584148,-0.008086108734541,0.011952429050497,0.016208831215958
0.26,-0.001673221787598,-0.007788775299642,-0.008073775936021,0.011969257430544,0.016206210796779
0.264,-0.001672476530768,-0.007793150678454,-0.008060289191439,0.011980556485719,0.016200392985391
0.268,-0.001644805865861,-0.007793270881169,-0.008057380285746,0.01198113345875,0.01620671564818
0.272,-0.001640863216821,-0.007791443799906,-0.008057356245203,0.011974137660758,0.016233352569741
0.276,-0.001677308679896,-0.007788582975298,-0.008060024745467,0.011975267566276,0.016222558365968
0.28,-0.001689665518959,-0.007789159948328,-0.008063198097133,0.011976253228536,0.016211692040566
0.284,-0.001685578626662,-0.007791347637735,-0.008065866597398,0.011970219052261,0.016212485378482
0.288,-0.001683294775084,-0.007790361975475,-0.008069015908521,0.011963607902957,0.016233785299514
0.292,-0.001696757479122,-0.007788967623985,-0.008082767099075,0.011949808631318,0.016219336933216
0.296,-0.001696685357493,-0.007791275516106,-0.00809365746502,0.011955386037277,0.016201955620681
0.3,-0.001685266099604,-0.007792237137823,-0.008087142477887,0.011983249026527,0.016193998200973
0.304,-0.001693031194969,-0.007792669867595,-0.008071395922271,0.011991086243521,0.016212966189341
0.308,-0.001686540248379,-0.007788751259099,-0.008056009974799,0.011981494066893,0.016205922310264
0.312,-0.00167766928804,-0.007786395285892,-0.008088921478063,0.011973753012072,0.016188324632842
0.316,-0.001666778922094,-0.007791708245878,-0.00810147064147,0.01196913722783,0.016188108267956
0.32,-0.001673774720086,-0.007792717948681,-0.008052932785304,0.011973272201213,0.016198638025757
0.324,-0.001669543584531,-0.007793847854199,-0.008029156688351,0.011968079443941,0.016203157647827
0.328,-0.001656393407551,-0.007796083624691,-0.008036561175572,0.01195812665917,0.016178876699473
0.332,-0.001647282041782,-0.007793318962254,-0.008061082529356,0.011955842807592,0.016173852226001
0.336,-0.001641368068222,-0.007793246840626,-0.008064904975681,0.011952020361267,0.016186713916466
0.34,-0.001661898691881,-0.007789352272672,-0.008047908311833,0.011946587198566,0.016199022674444
0.344,-0.001663004556855,-0.007785938515576,-0.008037811283804,0.011955506239991,0.016186209065065
0.348,-0.001659061907815,-0.007787140542723,-0.008039037351494,0.011984523175302,0.016185127240633
0.352,-0.001656369367008,-0.007788751259099,-0.008044542635823,0.011998106082055,0.01619570507952
0.356,-0.001658124326641,-0.007791708245878,-0.008047235176631,0.011987143594481,0.016210297689076
0.36,-0.001675120990489,-0.007787597313038,-0.008050504690469,0.01198286437784,0.016195584876806
0.364,-0.001680001220703,-0.007791011070134,-0.008054206934079,0.01198286437784,0.016195656998435
0.368,-0.001671827436109,-0.007791443799906,-0.008056851393801,0.011988682189228,0.016209167783559
0.372,-0.001673245828141,-0.007791107232305,-0.008059135245379,0.011982431648068,0.016229770528846
0.376,-0.00167783757184,-0.007788727218556,-0.008064544367537,0.011975892620392,0.016228808907129
0.38,-0.001664927800289,-0.007789640759187,-0.008075554936197,0.011974137660758,0.016217702176297
0.384,-0.001657258867096,-0.007790554299818,-0.008079834152838,0.011974498268902,0.01624147827325
0.388,-0.001672260165881,-0.007795410489489,-0.008078151314833,0.011975267566276,0.016267297816352
0.392,-0.00167471230126,-0.007791852489136,-0.008079954355552,0.011973921295872,0.016265927505405
0.396,-0.001652739245026,-0.007789640759187,-0.008098153046547,0.011964088713816,0.016257489274838
0.4,-0.001641440189851,-0.007790938948505,-0.008098465573605,0.011957453523968,0.016265086086403
0.404,-0.001650166906933,-0.007787308826523,-0.008069328435579,0.011967238024939,0.016268908532728
0.408,-0.001647137798524,-0.007781875663822,-0.008049759433638,0.011973536647185,0.016251983990508
0.412,-0.001653244096427,-0.007786106799377,-0.008059231407551,0.011972166336238,0.016224048879629
0.416,-0.001661033232335,-0.007789881164616,-0.008037210270231,0.011970146930633,0.016209864959303
0.42,-0.001653123893713,-0.007785698110147,-0.008025959296142,0.011959713335003,0.016211427594594
0.424,-0.001656249164293,-0.00778514517766,-0.008022016647102,0.011957693929397,0.016208662932157
0.428,-0.001654398042488,-0.007792405421623,-0.00803235408056,0.011961564456808,0.016182218334939
0.432,-0.001655768353435,-0.007787909840096,-0.008035479351141,0.011968199646656,0.016180102767162
0.436,-0.001652763285569,-0.007794448867772,-0.008043100203248,0.011969690160317,0.016184574308146
0.44,-0.001647642649926,-0.007789135907785,-0.008042018378816,0.011966420646479,0.01618082398345
0.444,-0.001653845110001,-0.007786659731864,-0.008038965229865,0.01197324816067,0.016170775036507
0.448,-0.001658941705101,-0.007792333299994,-0.008041104838185,0.011975532012248,0.016161158819337
0.452,-0.001653003690998,-0.007792910273025,-0.008044157987137,0.011968800660229,0.016168058455156
0.456,-0.001658052205013,-0.007788030042811,-0.008046153352199,0.01196618024105,0.016175775469435
0.46,-0.001682549518253,-0.007788582975298,-0.00804903821735,0.011967238024939,0.016158249913643
0.464,-0.001680506072105,-0.007786731853493,-0.00805964009678,0.011970026727918,0.016149691480361
0.468,-0.001667620341097,-0.00778358254237,-0.008074665436109,0.011970627741491,0.016166736225296
0.472,-0.001663918097486,-0.007785024974945,-0.008077309895831,0.011958799794372,0.016176929415496
0.476,-0.001664062340744,-0.007785914475033,-0.00806694842183,0.011949928834033,0.016166784306381
0.48,-0.001656345326465,-0.007786106799377,-0.008057981299319,0.01194949610426,0.016160125075991
0.484,-0.001661177475593,-0.007786178921006,-0.00805552916394,0.011959016159258,0.016167241076697
0.488,-0.00166740397621,-0.007785024974945,-0.008065121340567,0.011966492768108,0.016176713050609
0.492,-0.001649589933903,-0.007784183555943,-0.008061202732071,0.011966733173537,0.016152672507684
0.496,-0.001644132730659,-0.007786082758834,-0.008039013310951,0.011961324051379,0.016134281492346
0.5,-0.001644661622603,-0.007791491880992,-0.008028747999122,0.01195262137484,0.016135002708634
0.504,-0.001639565027503,-0.007785794272319,-0.008023290795877,0.011946995887796,0.016147936520728
0.508,-0.001653724907286,-0.007790746624161,-0.008030310634412,0.011967189943853,0.016139858898305
0.512,-0.001668894489872,-0.007795001800259,-0.008050624893184,0.01197423382293,0.016121443842424
0.516,-0.001666370232865,-0.007795602813832,-0.008080651531297,0.01195418401013,0.016121107274823
0.52,-0.001661586164823,-0.007794905638087,-0.008075603017283,0.011951299144979,0.016132117843483
0.524,-0.001663220921741,-0.007789881164616,-0.008036849662087,0.011977383134053,0.016128896410731
0.528,-0.001667476097839,-0.007794569070487,-0.00801821824132,0.011989571689316,0.016114808652577
0.532,-0.001650864082678,-0.00779829535464,-0.008012881240791,0.011985917526792,0.016115866436466
0.536,-0.00164718587961,-0.0077992810169,-0.008012568713733,0.011984643378017,0.01613110814068
0.54,-0.001650671758334,-0.007799737787215,-0.00802199260656,0.011976950404281,0.016124809518434
0.544,-0.001646248298436,-0.007801060017076,-0.008039542202895,0.01196815156557,0.016115169260721
0.548,-0.001646705068752,-0.007802286084766,-0.008033844594222,0.011971084511807,0.016111274692767
0.552,-0.001677765450211,-0.007794857557002,-0.008023170593163,0.011967887119598,0.016125146086035
0.556,-0.001695483330347,-0.007793294921711,-0.00802552656637,0.011963848308386,0.016129064694532
0.56,-0.001675481598633,-0.007793030475739,-0.008032618526532,0.011961612537894,0.016114880774206
0.564,-0.001659807164646,-0.007797381814009,-0.00803884502715,0.01194735649594,0.016108317705987
0.568,-0.001668966611501,-0.007792549664881,-0.008042931919447,0.011960554754006,0.016108798516846
0.572,-0.001667139530238,-0.007793126637911,-0.00805379824485,0.011961756781152,0.016115289463435
0.576,-0.001661898691881,-0.00779517008406,-0.008054639663852,0.01196108364595,0.016098533205017
0.58,-0.001659278272702,-0.007794737354287,-0.008055865731541,0.011973584728271,0.016091489325939
0.584,-0.001659134029444,-0.007796131705777,-0.008057668772261,0.011972863511983,0.016092042258427
0.588,-0.001652931569369,-0.007798535760069,-0.008056490785657,0.011958992118715,0.016094566515434
0.592,-0.001637209054296,-0.007797502016723,-0.00805988050221,0.011952981982984,0.016074420540462
0.596,-0.001637473500268,-0.007798247273554,-0.008046393757629,0.011953486834386,0.016058794187561
0.6,-0.001638218757099,-0.007799930111559,-0.008035791878199,0.011942812833327,0.016062905120401
0.604,-0.001653965312715,-0.007800459003503,-0.008031320337215,0.011924205453103,0.01607694479747
0.608,-0.001676948071752,-0.007802622652366,-0.008032233877846,0.011922258169126,0.016072280932142
0.612,-0.001671034098192,-0.007797694341067,-0.008027017080031,0.011948438320371,0.016058890349733
0.616,-0.001661922732423,-0.007798054949211,-0.008016222876257,0.011964761849017,0.01606413118809
0.62,-0.001648844677072,-0.007802863057796,-0.008029925985725,0.011980460323548,0.016092210542227
0.624,-0.001631607607795,-0.007801925476622,-0.008039878770496,0.011991759378723,0.016108990841189
0.628,-0.001640767054649,-0.007796444232835,-0.008029084566722,0.011979378499116,0.016099615029448
0.632,-0.001677741409668,-0.007796107665234,-0.008019251984666,0.011962141429839,0.016111587219825
0.636,-0.001681467693822,-0.007797165449122,-0.008018699052179,0.011948702766343,0.016136348979038
0.64,-0.001669856111589,-0.007794256543428,-0.008020694417242,0.011943125360385,0.016145556506978
0.644,-0.001653965312715,-0.007793847854199,-0.008028026782834,0.011956347658994,0.016135243114063
0.648,-0.001635406013577,-0.00779615574632,-0.008032834891419,0.011961107686493,0.016138344344101
0.652,-0.001638723608501,-0.007794809475916,-0.008031031850699,0.011960867281064,0.01615666323781
0.656,-0.001644709703689,-0.007794088259628,-0.008038027648691,0.011958174740256,0.016168899874159
0.66,-0.00162499645849,-0.007794208462343,-0.008064688610795,0.011960410510748,0.016150076129048
0.664,-0.001649133163587,-0.007794665232658,-0.008048004474005,0.011959953740432,0.016131228343395
0.668,-0.001681611937079,-0.007795554732746,-0.008022834025562,0.011965819632906,0.016121612126225
0.672,-0.00166074474582,-0.007798631922241,-0.008024468782481,0.011958318983513,0.016089950731192
0.676,-0.001642618176454,-0.007796011503062,-0.008013866903051,0.011957838172655,0.016050043429936
0.68,-0.001652498839597,-0.007794496948858,-0.008024877471711,0.011949616306975,0.016034200712149
0.684,-0.001660215853876,-0.007794376746143,-0.008054615623309,0.011938245130171,0.016042110050771
0.688,-0.001658725340214,-0.007798920408756,-0.008041297162529,0.011950193280005,0.016051822430113
0.692,-0.001646849312009,-0.007797093327494,-0.008016270957343,0.011959953740432,0.016043937132033
0.696,-0.001656249164293,-0.007795410489489,-0.008009467483695,0.011958559388943,0.01603609991504
0.7,-0.001654518245203,-0.007795795138176,-0.008009491524238,0.011968992984572,0.016050932930025
0.704,-0.001649950542047,-0.007794208462343,-0.008005140185969,0.011978032228712,0.016077569851586
0.708,-0.001661970813509,-0.007792237137823,-0.008006582618544,0.01197110855235,0.016079853703164
0.712,-0.001666153867978,-0.007796612516635,-0.008012761038076,0.011953414712757,0.016077954500273
0.716,-0.001671611071222,-0.007793583408227,-0.008018578849464,0.011951178942265,0.016091224879967
0.72,-0.00167060136842,-0.007798824246584,-0.008027906580119,0.011960122024233,0.016109880341277
0.724,-0.001658725340214,-0.007799377179072,-0.008054567542223,0.01195714099691,0.01611540966615
0.728,-0.001632112459196,-0.007790001367331,-0.008062452840303,0.011936610373252,0.016098821691532
0.732,-0.001622904931256,-0.007790097529502,-0.008034084999651,0.011941226157494,0.016097307137327
0.736,-0.001626871620838,-0.007792285218909,-0.008011246483872,0.011947981550056,0.016110072665621
0.74,-0.001629948810333,-0.007792309259452,-0.008015117011283,0.011953294510042,0.016113318138916
0.744,-0.001622640485284,-0.007795434530032,-0.008037811283804,0.011959593132289,0.016096658042668
0.748,-0.001612399213997,-0.007796612516635,-0.008038244013577,0.011952068442353,0.01608656101464
0.752,-0.001625501309892,-0.007796540395006,-0.008020742498327,0.011952140563982,0.016105072232692
0.756,-0.001639324622074,-0.007793439164969,-0.00800646241583,0.011957621807769,0.016111827625254
0.76,-0.001643098987313,-0.007794160381257,-0.008004467050767,0.011958895956544,0.016106154057124
0.764,-0.001655792393978,-0.00779492967863,-0.008011078200071,0.011971445119951,0.016115265422893
0.768,-0.001653123893713,-0.007796708678807,-0.008009251118809,0.011967622673626,0.016127333775441
0.772,-0.001637545621897,-0.007799761827758,-0.008021656038959,0.011943654252329,0.016134281492346
0.776,-0.001647378203954,-0.007795386448946,-0.008035527432226,0.011936442089451,0.016129401262133
0.78,-0.001660888989078,-0.007793631489312,-0.008027401728718,0.011951106820636,0.016130459046021
0.784,-0.001650431352905,-0.007791515921535,-0.008011246483872,0.011970844106378,0.01614565266915
0.788,-0.001661201516136,-0.007796203827405,-0.008001630266702,0.011974137660758,0.016161447305852
0.792,-0.001663725773143,-0.007795602813832,-0.007995980739114,0.011972983714698,0.01616036548142
0.796,-0.001642305649396,-0.007796997165322,-0.007994610428168,0.01197579645822,0.016159524062418
0.8,-0.001648435987842,-0.00780026667916,-0.007997375090604,0.011971974011895,0.01617120776628
0.804,-0.001655936637235,-0.007801661030649,-0.008005669077913,0.011967814997969,0.016196161849836
0.808,-0.001646584866037,-0.007801276381963,-0.008025935255599,0.011957597767226,0.016187290889497
0.812,-0.001634324189145,-0.007799761827758,-0.008028146985548,0.011945096684905,0.016171568374423
0.816,-0.001627929404727,-0.007798103030297,-0.008000836928785,0.011945914063364,0.016169332603931
0.82,-0.001625549390978,-0.007795410489489,-0.008000043590869,0.011958919997087,0.016190800808764
0.824,-0.0016336270134,-0.007797021205865,-0.008029829823553,0.011964809930103,0.016193204863056
0.828,-0.001640767054649,-0.007797838584324,-0.008047139014459,0.011963704065129,0.016179501753589
0.832,-0.001637617743526,-0.007798848287127,-0.008041777973387,0.011950145198919,0.016183901172944
0.836,-0.001634805000004,-0.007792693908138,-0.00801961259281,0.011939158670802,0.016189743024875
0.84,-0.001638338959814,-0.007794953719173,-0.00799545184717,0.011974378066188,0.016174693645004
0.844,-0.001640863216821,-0.007793631489312,-0.007985691386742,0.011974930998675,0.016146181561094
0.848,-0.001638579365243,-0.007791828448593,-0.007983022886478,0.011967454389825,0.016150629061536
0.852,-0.001641247865508,-0.007790987029591,-0.007982421872905,0.01196420891653,0.016165678441407
0.856,-0.00162523686392,-0.007792333299994,-0.007998024185263,0.011963367497528,0.016153393723972
0.86,-0.001611365470652,-0.00778810216444,-0.008002591888419,0.011960242226948,0.016140099303734
0.864,-0.001628193850699,-0.007782669001739,-0.008000235915212,0.011955241794019,0.016134113208546
0.868,-0.001654902893889,-0.007786275083177,-0.007986196238144,0.011950265401634,0.016135243114063
0.872,-0.001662403543282,-0.007792766029767,-0.007974151926138,0.011950169239462,0.016131156221766
0.876,-0.001644132730659,-0.007794232502886,-0.007974608696454,0.011926176777622,0.016087955366129
0.88,-0.001638939973387,-0.00779336704334,-0.007978310940064,0.01191711349294,0.016072761743001
0.884,-0.001647330122868,-0.007784664366801,-0.007982830562134,0.01193634592728,0.016073074270059
0.888,-0.001655095218233,-0.007788030042811,-0.007986460684116,0.011946515076937,0.016076680351497
0.892,-0.001654374001945,-0.007791828448593,-0.007989177265467,0.011967454389825,0.016071006783367
0.896,-0.001642978784598,-0.007794977759716,-0.007991581319759,0.011961684659523,0.016062063701399
0.9,-0.001643291311656,-0.007791347637735,-0.007994995076854,0.01196618024105,0.016071559715854
0.904,-0.001649205285216,-0.007791756326964,-0.008011126281157,0.011981349823636,0.016088003447215
0.908,-0.001645911730835,-0.007792189056737,-0.008039638365067,0.011978777485543,0.016088436176988
0.912,-0.001642017162881,-0.007792741989224,-0.008021343511901,0.01198031608029,0.016080310473479
0.916,-0.001634300148602,-0.007794232502886,-0.00800391411828,0.011966709132994,0.016103389394687
0.92,-0.001632833675484,-0.007793030475739,-0.008018867335979,0.011963511740785,0.016116515531125
0.924,-0.001630477702277,-0.007793246840626,-0.008014347713909,0.011960747078349,0.016121131315366
0.928,-0.001627472634412,-0.007790914907962,-0.008023050390448,0.011949784590775,0.016097811988729
0.932,-0.001615428322406,-0.007788895502356,-0.007998288631235,0.011947572860826,0.016114712490405
0.936,-0.001623890593516,-0.007787092461637,-0.007962564384448,0.011950577928692,0.016130050356792
0.94,-0.001633001959284,-0.0077890878267,-0.007949534410183,0.011959400807945,0.016144330439289
0.944,-0.001630044972505,-0.007795049881345,-0.007942971341964,0.01198836966217,0.016121347680253
0.948,-0.001628650621015,-0.007794737354287,-0.007944822463769,0.012014165164729,0.016132189965112
0.952,-0.0016185055119,-0.007793078556825,-0.007951097045473,0.012041114613348,0.016138248181929
0.956,-0.001620741282393,-0.007792020772936,-0.00795419827551,0.012056813087878,0.016150508858821
0.96,-0.001637858148955,-0.007789496515929,-0.00795402999171,0.012057606425795,0.016137478884555
0.964,-0.001629660323818,-0.007790602380904,-0.007960833465358,0.012038926923942,0.016133512194973
0.968,-0.001634083783716,-0.007790890867419,-0.007967853303892,0.012001736204037,0.016151951291396
0.972,-0.00165326813697,-0.00779163612425,-0.007973695155823,0.011987023391766,0.016158850927216
0.976,-0.001658581096957,-0.007797958787039,-0.007977830129206,0.011967839038512,0.016140291628078
0.98,-0.001648051339156,-0.007799569503415,-0.007986725130088,0.011944904360561,0.016134185330175
0.984,-0.001636127229865,-0.007798439597897,-0.007996052860743,0.011952020361267,0.016152864832028
0.988,-0.001634492472946,-0.007793006435196,-0.007987951197777,0.011961949105495,0.016153826453745
0.992,-0.001641608473652,-0.00779887232767,-0.007979537007754,0.011947885387884,0.01615173492651
0.996,-0.001645334757805,-0.007798559800612,-0.007982133386389,0.011959184443059,0.016127694383585
1,-0.001641800797995,-0.007795723016547,-0.007989730197954,0.0119636319435,0.01614647004761
1.004,-0.001648460028385,-0.007792429462166,-0.007986725130088,0.011951419347694,0.016177121739839
1.008,-0.00165096024485,-0.007792501583795,-0.007979585088839,0.011942163738668,0.016197051349924
1.012,-0.001646248298436,-0.007795097962431,-0.007991533238673,0.011933845710816,0.016204792404746
1.016,-0.001648652352729,-0.007798030908668,-0.007990619698042,0.01193889422483,0.01625364278797
1.02,-0.001647402244497,-0.007801204260334,-0.007989922522297,0.011948967212316,0.016302757617167
1.024,-0.001653003690998,-0.00780396892277,-0.008003385226335,0.011963343456985,0.016372042461877
1.028,-0.001661538083737,-0.00780240628748,-0.007976171331744,0.011960242226948,0.016472363647504
1.032,-0.001650190947476,-0.007798175151925,-0.007978575386036,0.011958343024056,0.016644445853763
1.036,-0.001652210353082,-0.007801492746849,-0.007990691819671,0.011962213551467,0.01690189602795
1.04,-0.001671779355023,-0.00780750288258,-0.007982085305304,0.011958150699713,0.017183603109948
1.044,-0.001666802962637,-0.007805387314803,-0.007989682116868,0.011956588064423,0.017289621904249
1.048,-0.001666153867978,-0.007803728517341,-0.007974368291025,0.011955698564335,0.017321860272311
1.052,-0.001657306948182,-0.007804666098515,-0.007945880247658,0.011950049036747,0.017318254190873
1.056,-0.001634564594575,-0.007797381814009,-0.007939413341611,0.011943077279299,0.017277457389529
1.06,-0.001635646419006,-0.007797381814009,-0.007939124855096,0.011940937670979,0.017205768490525
1.064,-0.00162992476979,-0.007799569503415,-0.007944726301598,0.011939807765461,0.017137156781017
1.068,-0.001619467133617,-0.007801324463049,-0.007939629706498,0.011944086982102,0.017092200965746
1.072,-0.001631246999651,-0.007801564868478,-0.007944245490739,0.011944159103731,0.01703584993313
1.076,-0.001643844244144,-0.007802502449652,-0.007954558883654,0.011940024130347,0.01695646806039
1.08,-0.001658172407727,-0.007795410489489,-0.007958573654323,0.011944928401104,0.016895284878646
1.084,-0.001656778056237,-0.007799785868301,-0.007961073870787,0.011955145631847,0.01685948851023
1.088,-0.001651801663852,-0.00780791157181,-0.007963838533223,0.011944159103731,0.016814652897674
1.092,-0.001664062340744,-0.007805651760775,-0.007968213912036,0.011936634413795,0.016759744297633
1.096,-0.001650791961049,-0.007808777031355,-0.007976339615544,0.011943221522556,0.016707648441114
1.1,-0.00162557343152,-0.007805627720232,-0.0079807390349,0.011935744913707,0.01667605916771
1.104,-0.001620597039135,-0.00780396892277,-0.007973863439623,0.011929350129289,0.016641344623726
1.108,-0.001648267704042,-0.007807695206924,-0.007969968871669,0.011940000089804,0.01660045166021
1.112,-0.001658436853699,-0.007802382246937,-0.007986604927374,0.011945697698478,0.016547730749575
1.116,-0.001659735043017,-0.007797622219438,-0.00798624431923,0.011941274238579,0.016528330031434
1.12,-0.001657090583296,-0.00779985798993,-0.007972901817906,0.011932908129641,0.016511477610844
1.124,-0.001652474799054,-0.007801228300877,-0.007967709060634,0.011929133764402,0.01646418986291
1.128,-0.001642834541341,-0.007800915773819,-0.007967492695748,0.011932523480955,0.01641570008783
1.132,-0.001646007893007,-0.007803247706483,-0.007954486762025,0.011936153602936,0.016391755707076
1.136,-0.001651296812451,-0.007804377612,-0.007954150194424,0.011941490603466,0.0163801200843
1.14,-0.001644397176631,-0.007801204260334,-0.007948091977607,0.011941322319665,0.016350790621931
1.144,-0.001658436853699,-0.007803896801142,-0.007944509936711,0.011932475399869,0.01632867332244
1.148,-0.001672692895654,-0.007803247706483,-0.007946457220688,0.011929542453632,0.016305642482318
1.152,-0.001671731273937,-0.007800242638617,-0.00795912658681,0.011933629345929,0.016304969347116
1.156,-0.00166526436789,-0.007801204260334,-0.007968790885066,0.0119284606292,0.01628388579097
1.16,-0.001664903759746,-0.007801733152278,-0.007979416805039,0.011920575331121,0.016258643220899
1.164,-0.001660528380934,-0.007803584274083,-0.007971892115103,0.011924974750476,0.016258547058727
1.168,-0.001654902893889,-0.00780478630123,-0.007960136289613,0.011926946074996,0.016264220626857
1.172,-0.001630621945535,-0.007804329530914,-0.007958958303009,0.01191432478996,0.016269293181415
1.176,-0.001630645986078,-0.007806252774348,-0.007963477925079,0.011916368236109,0.016245372841204
1.18,-0.001656898258952,-0.007805339233717,-0.007968286033664,0.011939278873517,0.016231044677621
1.184,-0.001645839609206,-0.007801709111735,-0.007977229115633,0.011943173441471,0.016239050178415
1.188,-0.001636055108236,-0.007805243071545,-0.007997182766261,0.011929830940147,0.016223760393114
1.192,-0.001637281175925,-0.0078042093282,-0.007995596090428,0.011928148102142,0.016216379946436
1.196,-0.001621967350082,-0.007800362841332,-0.007969776547326,0.011941634846723,0.016212990229884
1.2,-0.001637257135382,-0.007803992963313,-0.007950471991357,0.011934302481131,0.016214817311146
1.204,-0.001665144165175,-0.007806901869007,-0.007957203343376,0.011926200818165,0.016206643526551
1.208,-0.001664831638117,-0.007805219031002,-0.007964776114397,0.011943149400928,0.016195584876806
1.212,-0.001662066975681,-0.007802526490195,-0.007963718330509,0.011955025429133,0.016169621090447
1.216,-0.001656441488637,-0.0077992810169,-0.00795518393777,0.011951275104436,0.016173539698943
1.22,-0.0016536768262,-0.007798920408756,-0.00797621941283,0.011950337523262,0.016183203997199
1.224,-0.001654422083031,-0.007799208895271,-0.007984585521768,0.011952116523439,0.016175390820749
1.228,-0.001654277839773,-0.007802021638793,-0.00795124128873,0.011947380536482,0.016157288291926
1.232,-0.001657715637412,-0.007798343435726,-0.007954751207998,0.01194144252238,0.016152239777912
1.236,-0.001658340691528,-0.007799040611471,-0.007975113547855,0.011918291479543,0.016162961860056
1.24,-0.001662667989254,-0.007802646692909,-0.007952178869905,0.011914805600819,0.01615625454858
1.244,-0.001666418313951,-0.007799377179072,-0.00793241754362,0.011932908129641,0.016140580114593
1.248,-0.001659831205189,-0.007795290286774,-0.007934148462711,0.011942572427897,0.016151278156195
1.252,-0.001644926068575,-0.007793823813656,-0.00794285113925,0.011943798495587,0.016168947955245
1.256,-0.001643675960343,-0.007798631922241,-0.007942634774363,0.011941514644009,0.016176761131695
1.26,-0.001667500138382,-0.007800771530561,-0.007931311678645,0.011935023697419,0.016153946656459
1.264,-0.001666875084266,-0.007800771530561,-0.007930229854214,0.011930768521321,0.01616627945498
1.268,-0.00164759456884,-0.00780553155806,-0.007940807693101,0.011938870184287,0.016194286687488
1.272,-0.001648363866214,-0.007804377612,-0.007952347153705,0.011937764319312,0.016203542296514
1.276,-0.001644108690116,-0.007802045679336,-0.007955905154058,0.011915598938735,0.016202652796426
1.28,-0.001637185013753,-0.007803728517341,-0.007955544545914,0.011926849912824,0.01619594548495
1.284,-0.001658869583472,-0.007801564868478,-0.007956794654146,0.011951299144979,0.016211139108078
1.288,-0.001672308246967,-0.0077992810169,-0.007960184370699,0.011957213118539,0.01622085148742
1.292,-0.001662427583825,-0.007798680003327,-0.007978551345494,0.011951659753123,0.016208085959127
1.296,-0.001650166906933,-0.007801925476622,-0.008003240983078,0.01194810175277,0.016212365175768
1.3,-0.00165112852865,-0.007802790936167,-0.007993504563193,0.011954376334474,0.016233112164312
1.304,-0.001646945474181,-0.007802478409109,-0.007971579588045,0.011965915795078,0.016238545327013
1.308,-0.001649253366302,-0.007799833949387,-0.007972541209762,0.011962886686669,0.01622618848795
1.312,-0.00164915720413,-0.007799256976357,-0.007968286033664,0.011951251063893,0.016209768797132
1.316,-0.001647762852641,-0.007802189922594,-0.007941937598618,0.011943101319842,0.016222269879453
1.32,-0.00164644062278,-0.007803680436255,-0.007934364827597,0.011945096684905,0.01623753562421
1.324,-0.001647306082325,-0.007801901436079,-0.007954558883654,0.011932643683669,0.016222269879453
1.328,-0.001639492905874,-0.007802550530738,-0.007959102546267,0.011913988222359,0.016199767931275
1.332,-0.00163740137864,-0.007805146909374,-0.00794597640983,0.011925647885678,0.016209384148445
1.336,-0.001637329257011,-0.007806084490548,-0.007914795825656,0.011933100453985,0.01622635677175
1.34,-0.001642017162881,-0.007803127503768,-0.0079052998112,0.011937115224653,0.016218062784441
1.344,-0.001640454527591,-0.007804329530914,-0.007910156000871,0.011938749981572,0.016191449903423
1.348,-0.001619515214703,-0.007805315193174,-0.007916935433976,0.011933268737785,0.016190223835733
1.352,-0.001612952146485,-0.007805988328376,-0.00792378698871,0.011935744913707,0.01620770131044
1.356,-0.001627809202013,-0.00780733459878,-0.007930013489327,0.011940913630436,0.016199743890732
1.36,-0.001641656554737,-0.00781538818066,-0.007932609867963,0.011925143034277,0.016175030212605
1.364,-0.001651849744938,-0.007812455234423,-0.007933186840994,0.011914757519733,0.016176232239751
1.368,-0.001664206584001,-0.00780536327426,-0.007939918193013,0.011935720873164,0.01618632926778
1.372,-0.001652426717968,-0.007807959652896,-0.007947466923491,0.01193437460276,0.016185463808234
1.376,-0.001639108257187,-0.007803944882227,-0.007955833032429,0.01193790856257,0.016159572143504
1.38,-0.001629900729247,-0.007804690139058,-0.007960737303186,0.011954087847959,0.016155028480891
1.384,-0.001619395011989,-0.007807262477151,-0.007962756708792,0.011953775320901,0.016173539698943
1.388,-0.001635814702807,-0.007804906503944,-0.007963766411595,0.011943894657758,0.016189166051845
1.392,-0.001638290878728,-0.007806469139235,-0.007990812022385,0.011944303346988,0.016170174022934
1.396,-0.001637882189498,-0.007809618450358,-0.008022064728188,0.011947596901369,0.016162673373541
1.4,-0.001641776757452,-0.007811181085648,-0.007974296169396,0.011943750414501,0.016178083361556
1.404,-0.001641199784422,-0.007806493179777,-0.007940855774187,0.011939831806004,0.016191377781794
1.408,-0.001635814702807,-0.007805435395889,-0.007917608569178,0.011934687129818,0.016186954321896
1.412,-0.001628314053414,-0.00780651722032,-0.007907968311465,0.011936418048909,0.016173371415143
1.416,-0.001620500876963,-0.007805194990459,-0.007916767150176,0.01193182630521,0.016182362578197
1.42,-0.001618217025385,-0.007806421058149,-0.00793003752987,0.011936706535424,0.016195368511919
1.424,-0.001643940406315,-0.007807791369095,-0.007925493867258,0.011939591400575,0.01619118545745
1.428,-0.00167471230126,-0.0078042093282,-0.007921767583104,0.011939711603289,0.016185367646063
1.432,-0.001669014692586,-0.00780577196349,-0.007922873448079,0.011941250198037,0.016198613985214
1.436,-0.001638867851758,-0.007807406720409,-0.007922729204821,0.011942163738668,0.016216524189694
1.44,-0.00162523686392,-0.007805411355346,-0.007923306177851,0.011938437454514,0.016214985594947
1.444,-0.001624347363831,-0.007803848720056,-0.007934629273569,0.01193182630521,0.01618608886235
1.448,-0.00161874591733,-0.007805555598603,-0.007949197842582,0.011926609507395,0.016176015874865
1.452,-0.001608696970387,-0.007805339233717,-0.007965930060458,0.011936153602936,0.016191882633195
1.456,-0.001602350267055,-0.007801973557708,-0.00795362130248,0.011947861347341,0.016182915510684
1.46,-0.001607206456726,-0.007813657261569,-0.007934076341082,0.011928893358973,0.016163971562859
1.464,-0.001623049174513,-0.00781695081595,-0.007928162367522,0.01190256896447,0.016167289157783
1.468,-0.001624058877316,-0.007807791369095,-0.007926936299833,0.011899587937147,0.016195344471377
1.472,-0.001630838310421,-0.007806252774348,-0.007928739340552,0.011910502343635,0.016207148377953
1.476,-0.001641560392566,-0.007808079855611,-0.007941841436447,0.011921440790666,0.01619003151139
1.48,-0.001639084216644,-0.007808368342126,-0.007956698491975,0.011936129562393,0.016187939984156
1.484,-0.001637737946241,-0.007808440463754,-0.0079455677206,0.011943510009072,0.016195488714634
1.488,-0.001638098554385,-0.007805411355346,-0.007929244191954,0.011945457293048,0.016210994864821
1.492,-0.001638290878728,-0.007806012368919,-0.007934340787054,0.011950457725977,0.016195152147033
1.496,-0.001631439323994,-0.007807190355522,-0.007949221883125,0.011950145198919,0.016189718984332
1.5,-0.001616462065752,-0.007809137639499,-0.007953404937594,0.011943125360385,0.016197051349924
1.504,-0.001623554025915,-0.007813032207453,-0.007980883278157,0.011935600670449,0.016208566769985
1.508,-0.001636463797466,-0.007813513018312,-0.007984825927197,0.011930864683493,0.016196378214722
1.512,-0.001621630782481,-0.007811782099221,-0.007940374963328,0.011931778224124,0.016195104065947
1.516,-0.001618048741585,-0.007810483909903,-0.007911646514533,0.011934590967646,0.016196450336351
1.52,-0.001621510579766,-0.00781226291008,-0.00790570850043,0.011933629345929,0.016192796173826
1.524,-0.001627713039841,-0.007812527356052,-0.007908425081781,0.011930528115892,0.016166736225296
1.528,-0.001616534187381,-0.007810267545017,-0.007910468527929,0.011926922034453,0.01612995419462
1.532,-0.00161619761978,-0.007808224098868,-0.007913329352537,0.011930455994263,0.016124184464318
1.536,-0.001639276540988,-0.007810219463931,-0.007913040866022,0.011931225291637,0.016115746233751
1.54,-0.001639997757276,-0.007810147342302,-0.007914315014797,0.011921128263608,0.016094085704575
1.544,-0.001630069013048,-0.007812527356052,-0.007920301109986,0.011917954911942,0.016064035025919
1.548,-0.001625453228806,-0.007813801504827,-0.007926046799745,0.011929398210374,0.016056582457612
1.552,-0.001627160107354,-0.00781358513994,-0.007927537313406,0.011929927102319,0.01606905949939
1.556,-0.001628073647985,-0.007814450599486,-0.007925325583457,0.011945409211963,0.016072881945715
1.56,-0.001619226728188,-0.007813440896683,-0.007927080543091,0.011961949105495,0.016053216781602
1.564,-0.001621318255423,-0.007817816275495,-0.007934004219453,0.011957020794196,0.016043047631945
1.568,-0.001620332593163,-0.007817191221379,-0.007941817395904,0.011947404577025,0.016064083107005
1.572,-0.00160066742905,-0.007812166747908,-0.007960424776128,0.011944351428074,0.01605475537635
1.576,-0.00161086061925,-0.007814883329258,-0.007981243886301,0.011940360697948,0.016040162766794
1.58,-0.001614683065575,-0.007810628153161,-0.007963718330509,0.011938269170714,0.016029633008993
1.584,-0.001625645553149,-0.007809546328729,-0.007951698059046,0.011945216887619,0.016036172036668
1.588,-0.001636487838009,-0.007812551396595,-0.007936432314289,0.011946082347165,0.016054130322234
1.592,-0.001623121296142,-0.007813296653425,-0.007915180474343,0.011939759684375,0.01603783083413
1.596,-0.001606485240438,-0.007812551396595,-0.007914843906742,0.011934879454161,0.016024704697693
1.6,-0.001601268442623,-0.00781711909975,-0.007922897488622,0.011941731008895,0.016046341186326
1.604,-0.001612279011283,-0.007817431626808,-0.007926022759202,0.011940432819577,0.016063602296146
1.608,-0.001628554458843,-0.007814474640029,-0.007929797124441,0.011935672792078,0.016055572754809
1.612,-0.001640646851935,-0.007812695639852,-0.007926623772775,0.011929927102319,0.016065140890893
1.616,-0.001631415283451,-0.007808055815068,-0.007924267799568,0.01192040704732,0.016079781581535
1.62,-0.001619563295789,-0.007804642057972,-0.007921743542561,0.011915286411677,0.0160928115558
1.624,-0.001617303484754,-0.007806469139235,-0.007920493434329,0.011932691764755,0.016080550878908
1.628,-0.00161891420113,-0.00780634893652,-0.007925734272687,0.011946875685081,0.016063265728545
1.632,-0.00163033345902,-0.007804978625573,-0.007930398138014,0.011938028765285,0.016074660945892
1.636,-0.001637737946241,-0.007808512585383,-0.007933379165337,0.011936057440765,0.016092619231457
1.64,-0.001635165608148,-0.007804377612,-0.007937129490033,0.011921560993381,0.016100384326822
1.644,-0.001629011229159,-0.007805796004033,-0.007951962505018,0.011930407913177,0.016090599825851
1.648,-0.001631126796936,-0.007808272179954,-0.007964992479284,0.011936297846194,0.01609009497445
1.652,-0.001630934472593,-0.007811157045105,-0.007959943965269,0.011950409644891,0.016114592287691
1.656,-0.001619467133617,-0.007808416423211,-0.007953380897051,0.01198425872933,0.016111394895482
1.66,-0.001609634551561,-0.007809233801671,-0.007964655911683,0.012018276097569,0.016089854569021
1.664,-0.001607038172925,-0.007810099261216,-0.007962011451961,0.012045970803019,0.016090695988023
1.668,-0.001622183714968,-0.007809161680042,-0.007927296907977,0.012053591655126,0.016112837328057
1.672,-0.001622520282569,-0.007805387314803,-0.007917223920491,0.012044576451529,0.016113366220001
1.676,-0.001605403416006,-0.007804545895801,-0.007918570190895,0.012029743436544,0.016095720461494
1.68,-0.001615308119691,-0.007803488111912,-0.007918377866552,0.012002793987925,0.016080046027507
1.684,-0.001632088418653,-0.007800627287304,-0.007918738474696,0.011960122024233,0.016086921622784
1.688,-0.00162071724185,-0.007800819611647,-0.007909723271099,0.011924854547762,0.016105432840836
1.692,-0.001608047875728,-0.007800170516988,-0.007903256365052,0.011924445858532,0.016096826326469
1.696,-0.001605980389036,-0.007802766895624,-0.007898568459181,0.0119284606292,0.016076632270412
1.7,-0.001614274376346,-0.007800699408932,-0.00789921755384,0.011923844844959,0.01608458969012
1.704,-0.001618385309186,-0.007804858422859,-0.007906549919432,0.011922763020527,0.016111923787426
1.708,-0.001614995592633,-0.007801973557708,-0.007914002487739,0.011924806466676,0.016112476719913
1.712,-0.001611221227394,-0.00780380063897,-0.007918738474696,0.011917137533483,0.01611089004408
1.716,-0.001609971119162,-0.007803175584854,-0.007921503137132,0.011931153170008,0.016116659774382
1.72,-0.001614923471005,-0.007804137206571,-0.007924099515768,0.011941586765638,0.016116996341983
1.724,-0.00162170290411,-0.007803464071369,-0.007929268232497,0.01193199458901,0.016087594757986
1.728,-0.001617375606383,-0.00780182931445,-0.007943932963681,0.011902785329356,0.016058145092902
1.732,-0.001599705807333,-0.007805026706659,-0.007953957870081,0.011885187651935,0.016065477458494
1.736,-0.001595955482637,-0.007805747922947,-0.007946745707203,0.011924301615274,0.016074180135033
1.74,-0.001606365037723,-0.00780832026104,-0.007951217248188,0.011952981982984,0.016074901351321
1.744,-0.001603528253658,-0.007813633221026,-0.007959559316583,0.01194259646844,0.01608319533863
1.748,-0.001608336362243,-0.007813320693968,-0.007938884449667,0.01192632102088,0.016114183598461
1.752,-0.001613577200601,-0.007807671166381,-0.00792099828573,0.011950385604348,0.016143849628431
1.756,-0.001609418186675,-0.007804329530914,-0.007924219718482,0.011955265834562,0.016171255847365
1.76,-0.001595426590692,-0.007800819611647,-0.007920132826185,0.011934350562217,0.016166015009008
1.764,-0.001599008631588,-0.00780396892277,-0.007922152231791,0.011932379237697,0.016182001970053
1.768,-0.001617327525297,-0.007811517653249,-0.007913329352537,0.011934663089275,0.016210898702649
1.772,-0.001615812971093,-0.007806060450005,-0.007910444487386,0.011926369101966,0.016206523323837
1.776,-0.001616558227924,-0.007805435395889,-0.007945134990827,0.011921897560982,0.016185848456921
1.78,-0.001619587336332,-0.007809137639499,-0.007948308342494,0.011923123628671,0.016171928982567
1.784,-0.001621678863567,-0.007802766895624,-0.00789864058081,0.01192023876352,0.016182242375482
1.788,-0.001624491607089,-0.00779747797618,-0.007873614375625,0.011918604006601,0.016191618187223
1.792,-0.001623361701571,-0.007800987895448,-0.007871643051105,0.011920935939265,0.016187290889497
1.796,-0.001617135200954,-0.007800362841332,-0.007877581065207,0.011908314654229,0.016171015441936
1.8,-0.001611702038253,-0.007800483044046,-0.007885153836229,0.011914348830503,0.016163394589829
1.804,-0.001611894362596,-0.007806541260863,-0.007891284174675,0.011918483803886,0.016163466711458
1.808,-0.001595474671778,-0.007799809908844,-0.007896861580634,0.011914396911589,0.0161281511539
1.812,-0.001596219928609,-0.007798968489842,-0.007901813932476,0.011913122762814,0.016105456881379
1.816,-0.001596748820553,-0.007798439597897,-0.007905444054458,0.011910358100378,0.016095744502037
1.82,-0.001603239767143,-0.007801132138705,-0.007903064040708,0.011885115530306,0.01609403762349
1.824,-0.001607206456726,-0.007801540827935,-0.007902679392021,0.01188687048994,0.016077858338101
1.828,-0.001600330861449,-0.007800218598074,-0.00791277642005,0.011911488005895,0.016060621268823
1.832,-0.001585377643749,-0.007799954152102,-0.007916094014974,0.011926705669567,0.016060164498508
1.836,-0.001584824711262,-0.007804593976886,-0.007923594664366,0.01193199458901,0.016065092809807
1.84,-0.001592325360655,-0.007807286517694,-0.007936552517003,0.011927234561511,0.016063458052889
1.844,-0.001597349834126,-0.007808007733982,-0.007931744408418,0.011922618777269,0.016033912225633
1.848,-0.001594513050061,-0.007808151977239,-0.007928402772951,0.011920262804063,0.016032349590343
1.852,-0.001595498712321,-0.007813224531797,-0.007941360625588,0.011912665992498,0.016047206645871
1.856,-0.001606196753923,-0.007809281882757,-0.007967781182263,0.011910382140921,0.016030161900937
1.86,-0.001598744185616,-0.007806397017606,-0.007945687923315,0.011913507411501,0.016008285006875
1.864,-0.001604417753746,-0.007805627720232,-0.007904506473284,0.011914925803533,0.01600585691204
1.868,-0.001626871620838,-0.007805170949917,-0.007890106188072,0.011911752451867,0.016016530913098
1.872,-0.001621246133794,-0.007809041477328,-0.007888182944637,0.011914781560276,0.016019247494449
1.876,-0.001604177348317,-0.007812743720938,-0.007888711836582,0.011916320155023,0.016008861979905
1.88,-0.001609634551561,-0.007807983693439,-0.007888519512238,0.011910334059835,0.016022108319057
1.884,-0.001617591971269,-0.007805868125661,-0.00789412095874,0.011903458464558,0.016061895417598
1.888,-0.001613336795172,-0.007808993396242,-0.007903136162337,0.011904179680846,0.016069732634592
1.892,-0.001609105659617,-0.007809185720585,-0.007905756581516,0.011904179680846,0.016077185202899
1.896,-0.001612447295083,-0.007810940680219,-0.007905395973372,0.011906343329709,0.016097355218413
1.9,-0.001615332160234,-0.007812166747908,-0.00790611718966,0.011909300316489,0.016114231679547
1.904,-0.001606292916094,-0.007811349369448,-0.007908136595265,0.011914541154847,0.01614211870934
1.908,-0.001591892630882,-0.007812118666822,-0.007909266500783,0.011910093654405,0.016143416898658
1.912,-0.001579848318877,-0.007808752990812,-0.007909987717071,0.011901246734609,0.016155605453921
1.916,-0.001582733184028,-0.007812046545193,-0.007920926164102,0.011900453396692,0.016187218767868
1.92,-0.001587252806098,-0.007815508383374,-0.007935254327685,0.011914204587246,0.016208662932157
1.924,-0.001605836145779,-0.007812190788451,-0.007942129922962,0.01192985498069,0.016209360107902
1.928,-0.001613769524944,-0.007806300855434,-0.007940230720071,0.011939326954603,0.016208711013243
1.932,-0.001617712173984,-0.007807550963666,-0.007940254760614,0.011933605305386,0.016222702609226
1.936,-0.001610908700336,-0.007815676667175,-0.007912560055164,0.011928388507572,0.016243185151798
1.94,-0.001590209792877,-0.007811349369448,-0.007891476499018,0.01192237837184,0.01623695865118
1.944,-0.001592878293142,-0.007814210194056,-0.007895491269687,0.01191728177674,0.016214937513861
1.948,-0.001601028037194,-0.007812359072251,-0.007907367297892,0.011916031668508,0.016221164014478
1.952,-0.001593527387801,-0.007810027139587,-0.007917776852979,0.011908915667802,0.016221452500993
1.956,-0.001597566199013,-0.007810147342302,-0.007898376134838,0.011890188084863,0.016215923176121
1.96,-0.001601556929138,-0.007805146909374,-0.007879552389727,0.011902496842841,0.016197435998611
1.964,-0.001603864821259,-0.007799184854728,-0.007879432187013,0.011908386775858,0.016190536362792
1.968,-0.001607975754099,-0.007800410922417,-0.007894337323626,0.011912401546526,0.016199383282588
1.972,-0.001615837011636,-0.007804089125485,-0.007908473162866,0.011908675262373,0.016192892335998
1.976,-0.001615548525121,-0.007804089125485,-0.007899650283613,0.011907785762285,0.016159932751648
1.98,-0.001600018334391,-0.007808103896153,-0.007890394674587,0.011924686263961,0.016149883804705
1.984,-0.001583646724659,-0.007808103896153,-0.007889481133955,0.01193281196747,0.016148994304617
1.988,-0.001584127535517,-0.007801180219791,-0.007896044202174,0.011924854547762,0.016139474249618
1.992,-0.001600499145249,-0.007808464504297,-0.007896212485975,0.011903867153788,0.016113822990317
1.996,-0.001621101890536,-0.007806613382492,-0.007894096918197,0.011899467734432,0.016095480056065
2,-0.001610139402962,-0.007803007301053,-0.007901693729761,0.011923460196272,0.016101658475597
2.004,-0.001605571699807,-0.007807767328552,-0.007917031596148,0.011923219790843,0.016095624299323
2.008,-0.001607494943241,-0.007806012368919,-0.007926864178204,0.011908218492057,0.016075382162179
2.012,-0.001594104360831,-0.00780553155806,-0.007911598433447,0.011921128263608,0.016063674417775
2.016,-0.001586315224924,-0.00780750288258,-0.007898328053752,0.011927186480425,0.016082137554742
2.02,-0.001589608779304,-0.007810580072075,-0.007898183810494,0.011918027033571,0.016093532772088
2.024,-0.00159458517169,-0.007809161680042,-0.007945062869199,0.01191728177674,0.016071655878026
2.028,-0.001593094658028,-0.007803055382139,-0.007966242587516,0.011923219790843,0.016069299904819
2.032,-0.001591387779481,-0.007803295787568,-0.007918594231438,0.011926465264138,0.016086032122695
2.036,-0.001592974455314,-0.007802935179425,-0.007903376567766,0.011918652087687,0.016109062962818
2.04,-0.001592060914683,-0.007801925476622,-0.007889481133955,0.011915743181993,0.016108702354674
2.044,-0.001599321158646,-0.007806901869007,-0.007879095619412,0.01189862631543,0.016110120746707
2.048,-0.001623794431344,-0.007799401219615,-0.007881451592618,0.011887832111657,0.016134041086917
2.052,-0.001611966484225,-0.007801685071192,-0.007875585700145,0.011903650788901,0.016156158386408
2.056,-0.001580521454079,-0.007806469139235,-0.00787685984892,0.011915911465793,0.016159235575903
2.06,-0.001590113630706,-0.007800651327847,-0.007880802497959,0.011921272506866,0.01616668814421
2.064,-0.00160025873982,-0.007799569503415,-0.007876234794804,0.011920431087863,0.016187459173297
2.068,-0.001596532455667,-0.00780396892277,-0.007882557457593,0.011924325655817,0.016195368511919
2.072,-0.001582372575884,-0.007797766462696,-0.007894842175028,0.011922498574555,0.016193421227943
2.076,-0.001575545061693,-0.00780142062522,-0.007902823635279,0.011920767655464,0.016189093930216
2.08,-0.001591099292966,-0.00781103684239,-0.007911141663131,0.011921609074467,0.016192050916996
2.084,-0.001597974888242,-0.00780553155806,-0.007904674757084,0.011917474101083,0.016208879297043
2.088,-0.001597902766614,-0.007806613382492,-0.007886283741746,0.01191612783068,0.016200296823219
2.092,-0.00159713346924,-0.007804666098515,-0.007882797863022,0.011917594303798,0.016178371848071
2.096,-0.001603480172572,-0.00781103684239,-0.007883879687454,0.011909468600289,0.016164572576432
2.1,-0.001599994293848,-0.007805627720232,-0.00788902436364,0.011896534788196,0.016166928549639
2.104,-0.001596580536753,-0.007799208895271,-0.007894721972313,0.011896270342223,0.016158466278529
2.108,-0.001595306387978,-0.007800939814362,-0.007899025229497,0.011901823707639,0.016150869466965
2.112,-0.001593431225629,-0.007804377612,-0.007896525013033,0.011923724642244,0.016132935221943
2.116,-0.001591676265996,-0.007804666098515,-0.007897318350949,0.011926056574908,0.016137647168356
2.12,-0.001595402550149,-0.007802478409109,-0.007901573527047,0.011916680763167,0.016135940289808
2.124,-0.0016030474428,-0.007801925476622,-0.007912968744393,0.011916151871223,0.016117885842071
2.128,-0.00160461007809,-0.007799617584501,-0.007943620436623,0.011937812400398,0.016103533637945
2.132,-0.001599657726247,-0.007798175151925,-0.00796150660056,0.01194596214445,0.016105240516493
2.136,-0.001601484807509,-0.007805170949917,-0.007958958303009,0.011931898426839,0.016111010246795
2.14,-0.001588839481931,-0.007808608747555,-0.007932754111221,0.011929903061776,0.016104543340748
2.144,-0.001584656427462,-0.007807454801494,-0.007878061876066,0.011928220223771,0.016095047326292
2.148,-0.001569991696277,-0.007806324895977,-0.007856954279378,0.011926922034453,0.016103461516316
2.152,-0.001568909871846,-0.007806132571634,-0.007868854348126,0.011921104223065,0.01612502588332
2.156,-0.001593142739114,-0.00780240628748,-0.00790554021663,0.011918916533659,0.016104687584005
2.16,-0.001602566631941,-0.007799761827758,-0.007887077079663,0.011921488871752,0.016083916554918
2.164,-0.00159655649621,-0.007799425260157,-0.007865680996459,0.011920166641891,0.01609026325825
2.168,-0.001595859320465,-0.007804449733629,-0.007861089252761,0.011917594303798,0.016109062962818
2.172,-0.001602662794113,-0.007806228733805,-0.007855944576575,0.011914829641362,0.016113702787602
2.176,-0.001602782996827,-0.00779985798993,-0.007864935739629,0.011913795898016,0.01609478288032
2.18,-0.001600138537106,-0.007796852922064,-0.007879071578869,0.011896414585481,0.016069588391335
2.184,-0.001600955915565,-0.007798800206041,-0.007893423782995,0.011890620814636,0.016092715393629
2.188,-0.001593815874316,-0.00780281497671,-0.00789354398571,0.011897832977514,0.016096682083211
2.192,-0.001591099292966,-0.007801661030649,-0.007889120525812,0.011905213424192,0.016074228216119
2.196,-0.00159220515794,-0.007801300422506,-0.007890875485445,0.011909468600289,0.016075935094667
2.2,-0.001588983725188,-0.007806493179777,-0.007892942972137,0.01192492666939,0.016097932191443
2.204,-0.001587661495327,-0.007801853354993,-0.007893592066796,0.01192221008804,0.016103173029801
2.208,-0.001581483075796,-0.007797838584324,-0.007894721972313,0.01192064745275,0.016090936393452
2.212,-0.001568236736644,-0.00779829535464,-0.007898135729409,0.011920671493293,0.016093364488288
2.216,-0.001551288153881,-0.007801204260334,-0.007915204514885,0.011915863384707,0.016105601124637
2.22,-0.001578526089016,-0.007802550530738,-0.007915493001401,0.011911848614039,0.016121876572197
2.224,-0.001607687267584,-0.007804642057972,-0.007907150933006,0.011899804302033,0.016117308869041
2.228,-0.001608288281157,-0.007803752557884,-0.007910973379331,0.011895957815165,0.016109639935848
2.232,-0.001601677131853,-0.007796925043693,-0.007905948905859,0.011903266140215,0.016127934789014
2.236,-0.00160576402415,-0.007795434530032,-0.00791236773082,0.011914228627789,0.016150028047962
2.24,-0.001612591538341,-0.007792910273025,-0.007893423782995,0.011917810668684,0.016138079898129
2.244,-0.001614202254717,-0.007796083624691,-0.007874215389198,0.011913555492587,0.016126684680782
2.248,-0.001604441794289,-0.007801612949564,-0.007865680996459,0.011907737681199,0.016109880341277
2.252,-0.001592589806627,-0.007798415557355,-0.007878374403124,0.011908386775858,0.016113630665974
2.256,-0.001589007765731,-0.007795482611118,-0.007880946741217,0.011915911465793,0.01610382212446
2.26,-0.001585810373522,-0.007794713313744,-0.007868036969666,0.011905429789078,0.016091561447568
2.264,-0.001586483508724,-0.007796925043693,-0.007869287077898,0.011900862085922,0.016095239650636
2.268,-0.001586098860037,-0.007801853354993,-0.007864839577457,0.011906535654052,0.016106827192326
2.272,-0.001588935644102,-0.007804161247114,-0.007857867820009,0.011911680330238,0.016100432407908
2.276,-0.001590522319935,-0.00779690100315,-0.007857555292951,0.011908723343459,0.01608672929844
2.28,-0.001590257873963,-0.007793487246055,-0.00785919004987,0.011911848614039,0.016092523069285
2.284,-0.001588550995416,-0.007793246840626,-0.007871450726762,0.011914973884619,0.016106538705811
2.288,-0.00158472854909,-0.007789857124073,-0.007872412348479,0.011929662656347,0.016107620530242
2.292,-0.001588815441388,-0.007791828448593,-0.00787152284839,0.011930648318607,0.016091297001596
2.296,-0.001610211524591,-0.007794088259628,-0.00787801379498,0.011923075547585,0.016097980272529
2.3,-0.001614250335803,-0.007798175151925,-0.007878783092354,0.011922065844782,0.01611622704461
2.304,-0.001595907401551,-0.007796636557178,-0.007881788160219,0.011917930871399,0.016120890909937
2.308,-0.001570400385507,-0.007790145610588,-0.007902270702792,0.011912786195213,0.016109784179106
2.312,-0.001564486411947,-0.007790626421447,-0.007905780622059,0.011909083951603,0.01610127382691
2.316,-0.001581915805568,-0.007792766029767,-0.007884961511886,0.011890837179522,0.016107836895129
2.32,-0.001575472940064,-0.007793246840626,-0.007860416117559,0.011902544923927,0.016110240949421
2.324,-0.001561337100824,-0.007796203827405,-0.007856257103633,0.011912641951955,0.016089926690649
2.328,-0.00158044933245,-0.007796852922064,-0.00785327607631,0.011920599371664,0.016076512067697
2.332,-0.00160280703737,-0.007794617151572,-0.007851352832876,0.011917161574025,0.016090936393452
2.336,-0.001602590672484,-0.00779788666541,-0.007855800333317,0.011918002993028,0.016096081069638
2.34,-0.001598431658558,-0.007798511719526,-0.007870416983416,0.011924061209845,0.016084926257721
2.344,-0.001597926807156,-0.007796011503062,-0.007866594537091,0.011922137966411,0.016074660945892
2.348,-0.001605211091663,-0.007797526057266,-0.007855439725173,0.011912906397928,0.01608458969012
2.352,-0.00161578893055,-0.007801300422506,-0.007844597440314,0.011905501910707,0.016100023718678
2.356,-0.001613192551914,-0.007798752124956,-0.007844116629455,0.011912882357385,0.016097235015699
2.36,-0.001595763158293,-0.007794809475916,-0.007852025968078,0.011916656722624,0.016082834730486
2.364,-0.001579655994533,-0.007798776165498,-0.007856521549605,0.011918820371487,0.016088484258074
2.368,-0.001586170981666,-0.007804329530914,-0.007860079549958,0.011906030802651,0.016101802718854
2.372,-0.001600475104707,-0.007794593111029,-0.007861762387963,0.011886846449397,0.0160977398671
2.376,-0.001603960983431,-0.007790482178189,-0.007869527483327,0.011887351300798,0.016089229514904
2.38,-0.001617519849641,-0.007795530692204,-0.007881667957505,0.011901823707639,0.016086392730839
2.384,-0.001604393713203,-0.007797333732923,-0.007882244930535,0.011925936372193,0.016091393163768
2.388,-0.001558884965446,-0.007796299989577,-0.007871282442961,0.011951034699007,0.016092354785485
2.392,-0.001538570706674,-0.00779632403012,-0.007868926469754,0.01197678212048,0.016075983175753
2.396,-0.00156705875004,-0.007797045246408,-0.007856954279378,0.011994620203331,0.016073891648518
2.4,-0.001592253239026,-0.007799569503415,-0.007859262171498,0.012018588624627,0.016086008082152
2.404,-0.001576146075266,-0.007799088692556,-0.007881788160219,0.012010366758947,0.016076295702811
2.408,-0.001588911603559,-0.007795723016547,-0.007897847242893,0.012003226717698,0.016056582457612
2.412,-0.001604802402433,-0.007792717948681,-0.007857699536208,0.012006928961308,0.016048865443333
2.416,-0.001604057145602,-0.007791107232305,-0.007823201357111,0.011992432513924,0.016057856606387
2.42,-0.00159145990111,-0.007797453935638,-0.007822408019194,0.011969425714345,0.016066366958583
2.424,-0.001591676265996,-0.007794881597545,-0.007821542559649,0.01195615533465,0.016059900052536
2.428,-0.001590161711792,-0.007786659731864,-0.007822287816479,0.011949279739374,0.016055524673723
2.432,-0.00159162818491,-0.007791155313391,-0.00782738441158,0.011932427318783,0.01607908440579
2.436,-0.001588070184557,-0.007793343002797,-0.007831735749849,0.01191983007429,0.016092162461141
2.44,-0.001590594441564,-0.007786515488607,-0.007834716777172,0.011904275843017,0.016088916987846
2.444,-0.001582132170455,-0.007787477110324,-0.007834260006856,0.011893145071643,0.016079781581535
2.448,-0.001571193723424,-0.007789063786157,-0.007833322425682,0.011894875990734,0.016092042258427
2.452,-0.001564822979548,-0.007788895502356,-0.007846448562119,0.011906944343282,0.016109111043904
2.456,-0.0015629478172,-0.007788390650955,-0.007855848414403,0.011914372871046,0.016097090772441
2.46,-0.001558957087075,-0.007795434530032,-0.007852218292421,0.011913098722271,0.016078627635474
2.464,-0.001555591411065,-0.007793727651484,-0.007842962683395,0.011909156073231,0.016089037190561
2.468,-0.001578453967387,-0.007794641192115,-0.007845390778231,0.011899010964117,0.016101225745824
2.472,-0.00159121949568,-0.007791900570222,-0.007868758185954,0.011903218059129,0.016091753771912
2.476,-0.001576266277981,-0.007790938948505,-0.007881619876419,0.01189139011201,0.016078170865159
2.48,-0.001559606181734,-0.007790746624161,-0.007872700834994,0.011886317557452,0.01607908440579
2.484,-0.001576362440152,-0.007792573705424,-0.007864478969313,0.011905309586363,0.016097980272529
2.488,-0.001587397049355,-0.00779591534089,-0.007842361669822,0.011908338694772,0.016101826759397
2.492,-0.001589632819847,-0.007796516354463,-0.007831904033649,0.011913723776387,0.016086272528125
2.496,-0.00159261384717,-0.007796997165322,-0.007846184116147,0.011911704370781,0.016083579987317
2.5,-0.001597061347611,-0.007795698976004,-0.007873782659425,0.011911151438294,0.016096201272353
2.504,-0.001592301320112,-0.007797381814009,-0.007860464198645,0.011907304951426,0.016096682083211
2.508,-0.001598071050414,-0.007800507084589,-0.007861642185248,0.011900982288637,0.016083411703517
2.512,-0.001598311455843,-0.007798896368213,-0.007859718941814,0.011900092788548,0.01608516666315
2.516,-0.001599321158646,-0.007795674935461,-0.007845078251173,0.011896823274711,0.016087378393099
2.52,-0.001604273510489,-0.007790386016018,-0.007839212358699,0.011896991558511,0.016088267893187
2.524,-0.001588743319759,-0.00779081874579,-0.007821710843449,0.011890236165949,0.016073482959288
2.528,-0.00157239575057,-0.007799305057443,-0.007805579639146,0.011884274111304,0.016063313809631
2.532,-0.001572996764143,-0.007799882030473,-0.007810772396418,0.011886582003424,0.016073723364718
2.536,-0.00157141008831,-0.007796828881521,-0.007816662329435,0.011874369407618,0.016080695122166
2.54,-0.001564197925432,-0.007796564435549,-0.007822672465166,0.011856122635538,0.016070646175223
2.544,-0.001570496547679,-0.007791131272848,-0.007829019168498,0.011863358838959,0.016063434012346
2.548,-0.001586771995239,-0.0077943527056,-0.00783774588558,0.01186583501488,0.016071463553683
2.552,-0.001577708710556,-0.007791419759363,-0.007845438859316,0.011878937110774,0.016088315974273
2.556,-0.001573309291201,-0.007792934313568,-0.007849453629985,0.011893962450103,0.016084902217178
2.56,-0.00158694027904,-0.007796804840979,-0.007848900697498,0.011880860354208,0.016072112648342
2.564,-0.001588166346729,-0.007797646259981,-0.007853083751967,0.011856002432824,0.016081175933024
2.568,-0.001584079454431,-0.007795194124603,-0.007861353698733,0.011860498014351,0.016092643272
2.572,-0.001575232534635,-0.007796997165322,-0.007872436389021,0.011890140003777,0.01609305196123
2.576,-0.001584295819318,-0.0077943527056,-0.007883278673881,0.011900814004836,0.016082498162885
2.58,-0.001605643821435,-0.007794088259628,-0.007884072011797,0.011889466868576,0.016099807353792
2.584,-0.001581987927197,-0.007791443799906,-0.007867195550664,0.011885668462793,0.016120073531478
2.588,-0.001564822979548,-0.007792910273025,-0.007852458697851,0.011890043841606,0.016127790545757
2.592,-0.001577468305127,-0.00779319875954,-0.007827913303524,0.011890620814636,0.016114688449862
2.596,-0.00158653158981,-0.0077941844218,-0.00783659193952,0.011885355935735,0.016110986206252
2.6,-0.001577324061869,-0.007791996732394,-0.007845006129544,0.011879273678375,0.016124184464318
2.604,-0.001578838616074,-0.007793799773113,-0.007832456966137,0.01187956216489,0.016118318571844
2.608,-0.001592133036311,-0.007797646259981,-0.00780594024729,0.011875018502277,0.016091272961053
2.612,-0.00157847800793,-0.007798006868125,-0.007793847854199,0.011868022704286,0.016076848635298
2.616,-0.001556192424638,-0.007788558934755,-0.007799425260157,0.011877711043085,0.016082017352027
2.62,-0.00156705875004,-0.007790674502533,-0.007806565301406,0.011880091056835,0.016074420540462
2.624,-0.00159475345549,-0.007789809042987,-0.007810507950446,0.01185441575699,0.016054274565491
2.628,-0.001595955482637,-0.007790722583618,-0.007816926775407,0.011849872094378,0.016048697159532
2.632,-0.00159145990111,-0.007791515921535,-0.007832336763422,0.011874730015762,0.016062784917687
2.636,-0.001592325360655,-0.00778670781295,-0.007841736615706,0.011893145071643,0.016071078904996
2.64,-0.001588623117044,-0.007784472042458,-0.007837962250467,0.011894154774446,0.016065621701752
2.644,-0.001584920873434,-0.007786635691321,-0.007850920103103,0.011886269476366,0.01606059722828
2.648,-0.001583117832714,-0.007787140542723,-0.00785015080573,0.011881990259726,0.016080791284338
2.652,-0.001586988360125,-0.007784712447887,-0.007851232630161,0.011886533922339,0.016087666879614
2.656,-0.001602206023797,-0.007786779934579,-0.007888351228438,0.011878071651229,0.016075622567609
2.66,-0.001580882062222,-0.007783606582913,-0.007866979185777,0.01187052292075,0.01607103082391
2.664,-0.001575160413006,-0.007784760528973,-0.007815340099574,0.011873455866987,0.016087282230928
2.668,-0.001586291184381,-0.007790145610588,-0.007807863490724,0.01187997085412,0.016103269191973
2.672,-0.001575472940064,-0.007791732286421,-0.00780577196349,0.011883360570673,0.016089157393276
2.676,-0.001572347669484,-0.007789568637558,-0.007825749654661,0.0118779995296,0.016073867607975
2.68,-0.001591339698395,-0.007788198326611,-0.007830052911844,0.011890765057893,0.016077185202899
2.684,-0.001595546793407,-0.007785818312862,-0.007812863923653,0.01189845803163,0.016087955366129
2.688,-0.001568573304245,-0.007785842353405,-0.007808151977239,0.011900910167008,0.016084613730663
2.692,-0.001559606181734,-0.007786395285892,-0.007811613815421,0.011897256004483,0.016065717863924
2.696,-0.001585594008636,-0.007783366177483,-0.007816397883463,0.011888553327944,0.016054731335807
2.7,-0.001597181550326,-0.007785217299289,-0.007822215694851,0.011877085988969,0.016063842701575
2.704,-0.001598263374757,-0.007783630623456,-0.007827408452122,0.011888841814459,0.016069780715678
2.708,-0.001591387779481,-0.00778201990708,-0.007826903600721,0.011897400247741,0.016062231985199
2.712,-0.00158119458928,-0.00778531346146,-0.007827889262981,0.01191711349294,0.016072353053771
2.716,-0.001574703642691,-0.00778810216444,-0.0078295240199,0.011911463965352,0.016095648339865
2.72,-0.001578213561958,-0.007784015272142,-0.007827865222438,0.01189723196394,0.016112476719913
2.724,-0.00158340631923,-0.007787981961725,-0.007839693169557,0.011891726679611,0.016113798949774
2.728,-0.001585449765378,-0.007786106799377,-0.00786700322632,0.011892327693184,0.016117861801528
2.732,-0.001598383577472,-0.007782981528797,-0.007863373104339,0.011877542759285,0.016137551006184
2.736,-0.001614298416889,-0.007784183555943,-0.007849525751614,0.011858406487116,0.016169092198502
2.74,-0.001599176915389,-0.007788222367154,-0.007857026401006,0.01184619389131,0.016163466711458
2.744,-0.001572275547855,-0.007789111867242,-0.007835990925947,0.011870186353149,0.016151374318366
2.748,-0.001544100031547,-0.007789135907785,-0.007794088259628,0.01192180139881,0.01616019719762
2.752,-0.001542176788113,-0.007785674069604,-0.007780385150161,0.011932619643126,0.016170005739133
2.756,-0.001573621818259,-0.007786082758834,-0.007794160381257,0.011923700601701,0.016166616022581
2.76,-0.001587445130441,-0.007789905205159,-0.007818056680925,0.011894034571731,0.016152432102255
2.764,-0.001603191686057,-0.007786419326435,-0.007834644655543,0.011883865422074,0.016156783440524
2.768,-0.001602085821083,-0.007782909407168,-0.007822768627338,0.011902280477955,0.016164788941319
2.772,-0.001577804872728,-0.007783053650425,-0.007837241034179,0.011920022398634,0.016155413129578
2.776,-0.001565928844523,-0.007785529826347,-0.007835510115088,0.011923748682787,0.016127550140327
2.78,-0.001568405020444,-0.007783654663998,-0.007804834382316,0.011916512479366,0.016124881640063
2.784,-0.001587853819671,-0.007783510420741,-0.007784423961372,0.011904876856591,0.016126107707752
2.788,-0.001585521887007,-0.007786419326435,-0.007782308393595,0.011901246734609,0.016110264989964
2.792,-0.001581579237967,-0.007786635691321,-0.007787717515753,0.011904347964646,0.01608499837935
2.796,-0.001576867291554,-0.007782933447711,-0.007805868125661,0.011902496842841,0.016082834730486
2.8,-0.001578622251187,-0.00778120252862,-0.007812070585736,0.011902857450985,0.016095215610093
2.804,-0.001581242670366,-0.007782933447711,-0.007799160814185,0.011894130733903,0.016102740300028
2.808,-0.00157864629173,-0.007787909840096,-0.007785169218203,0.011871941312783,0.016090960433995
2.812,-0.001574006466946,-0.007792357340537,-0.007783991231599,0.011862036609098,0.016094181866747
2.816,-0.001587493211527,-0.007788799340184,-0.007788414691498,0.011872277880384,0.016115433706693
2.82,-0.001591099292966,-0.007790794705247,-0.007793078556825,0.011894851950191,0.016122213139798
2.824,-0.001581410954167,-0.007791059151219,-0.007796780800436,0.011905333626906,0.016119857166591
2.828,-0.001556793438211,-0.007786996299465,-0.007796372111206,0.011908963748888,0.016121131315366
2.832,-0.001550422694336,-0.007786900137293,-0.007798175151925,0.011906703937853,0.016134209370718
2.836,-0.001556649194954,-0.007788919542899,-0.007804089125485,0.011892832544585,0.016140387790249
2.84,-0.001572852520885,-0.007792886232482,-0.007808464504297,0.011891077584952,0.016120890909937
2.844,-0.001582733184028,-0.00778966479973,-0.007821494478563,0.011902064113068,0.016105601124637
2.848,-0.001584055413889,-0.00778358254237,-0.007837144872007,0.01190076592375,0.016107644570785
2.852,-0.001583839049002,-0.007790001367331,-0.007817960518753,0.011891678598525,0.016118583017816
2.856,-0.001582516819141,-0.007791756326964,-0.007825845816832,0.01189624630168,0.016116876139269
2.86,-0.001576362440152,-0.007790001367331,-0.007819402951328,0.011893673963587,0.01610596173278
2.864,-0.001584367940947,-0.007789448434843,-0.007803704476798,0.011885596341165,0.016105913651695
2.868,-0.001588550995416,-0.007789183988871,-0.007819138505356,0.011891077584952,0.016116443409496
2.872,-0.001578766494445,-0.007787933880639,-0.007819619316215,0.011892399814812,0.016113414301087
2.876,-0.001591027171337,-0.007784496083001,-0.007796396151749,0.011891486274181,0.016097451380585
2.88,-0.001604561997004,-0.007782308393595,-0.007786443366978,0.011902256437412,0.016098845732075
2.884,-0.001586339265466,-0.007785024974945,-0.0077992810169,0.011898554193801,0.016107740732957
2.888,-0.001539508287848,-0.007788174286068,-0.007804906503944,0.011908266573143,0.016096297434524
2.892,-0.001517222704556,-0.007784183555943,-0.007791876529679,0.011913795898016,0.016083123217001
2.896,-0.001547032977784,-0.007788751259099,-0.007798054949211,0.011904420086275,0.016081199973567
2.9,-0.001575400818435,-0.007795218165146,-0.007777115636323,0.01188901009826,0.016094350150548
2.904,-0.001579103062046,-0.007786275083177,-0.007775240473975,0.01189155839581,0.016093917420775
2.908,-0.001581819643397,-0.007782308393595,-0.007790217732217,0.011893361436529,0.016075045594579
2.912,-0.001576771129382,-0.00778572215069,-0.00777298066294,0.011893625882502,0.016067208377585
2.916,-0.001559702343905,-0.007780673636676,-0.007770792973533,0.011894250936618,0.016086585055183
2.92,-0.001558115668072,-0.007782332434138,-0.007768605284127,0.011894996193448,0.016082594325057
2.924,-0.001583694805745,-0.007782741123367,-0.007763556770113,0.011901967950897,0.016064780282749
2.928,-0.001589344333332,-0.007782140109794,-0.007765528094633,0.011902424721212,0.016057087309013
2.932,-0.001588647157587,-0.007781899704365,-0.007771057419506,0.011893770125759,0.016059539444392
2.936,-0.001580737818965,-0.00778120252862,-0.007773269149455,0.011887591706227,0.016058698025389
2.94,-0.001579271345846,-0.007782813244996,-0.007786106799377,0.011875980123994,0.016042590861629
2.944,-0.001582276413712,-0.007783895069428,-0.007801228300877,0.011868287150258,0.016032662117401
2.948,-0.001576482642867,-0.007782620920653,-0.007819451032414,0.011876581137568,0.016039201145077
2.952,-0.001565712479637,-0.007782861326082,-0.007812960085824,0.01189352972033,0.016044802591579
2.956,-0.001567852087957,-0.007781587177307,-0.007786058718291,0.011892351733727,0.016038047199017
2.96,-0.001572179385683,-0.007781899704365,-0.007769783270731,0.011874537691419,0.016039754077564
2.964,-0.001571193723424,-0.00778177950165,-0.00777060064919,0.011849824013292,0.016049947267765
2.968,-0.001567779966328,-0.007782741123367,-0.007783895069428,0.011851194324239,0.016056269930554
2.972,-0.001565832682351,-0.007784952853316,-0.007804738220144,0.011901967950897,0.016060452985023
2.976,-0.00156097649268,-0.007786635691321,-0.007818994262099,0.011922546655641,0.016055789119695
2.98,-0.001561529425168,-0.007790361975475,-0.007809378044928,0.011914348830503,0.016064804323292
2.984,-0.001580521454079,-0.007790674502533,-0.007776322298406,0.011905429789078,0.016087907285044
2.988,-0.001566385614838,-0.007793871894742,-0.007776658866007,0.011892447895898,0.016098485123931
2.992,-0.001565568236379,-0.00778983308353,-0.007776899271436,0.011886101192566,0.016092931758515
2.996,-0.001573189088486,-0.007792405421623,-0.007772788338596,0.011882903800357,0.016103774043374
3,-0.00157157837211,-0.007785914475033,-0.007792140975651,0.011885235733021,0.016123487288573
3.004,-0.001567683804156,-0.007786034677748,-0.007788030042811,0.01188646180071,0.016124929721148
3.008,-0.00157354969663,-0.007782957488254,-0.007768316797612,0.011882783597642,0.016121227477538
3.012,-0.001561192857567,-0.007779303325729,-0.007758940985871,0.011874778096848,0.016115650071579
3.016,-0.001556793438211,-0.007780890001562,-0.007759181391301,0.011872614447985,0.016129809951362
3.02,-0.001547297423756,-0.007780337069075,-0.007762354742967,0.011890885260608,0.016135531600579
3.024,-0.00155547120835,-0.007781971825994,-0.007761441202336,0.011889154341517,0.016119135950303
3.028,-0.001566337533753,-0.00778317385314,-0.007763869297171,0.011873263542644,0.016109567814219
3.032,-0.001580136805392,-0.007782140109794,-0.00777274025751,0.011883961584246,0.016117525233927
3.036,-0.001587469170984,-0.007779928379845,-0.007777933014782,0.011891342030924,0.01611639532841
3.04,-0.001569510885419,-0.007781491015135,-0.007781082325905,0.01188941878749,0.016088195771559
3.044,-0.001562923776657,-0.007779928379845,-0.007794953719173,0.011896775193625,0.016081296135739
3.048,-0.001572059182969,-0.007779567771701,-0.007824812073487,0.011905453829621,0.016077714094843
3.052,-0.001570953317994,-0.007777933014782,-0.007811902301936,0.011897039639597,0.016077497729957
3.056,-0.001566674101354,-0.007781659298936,-0.007789736921359,0.011881990259726,0.016047086443156
3.06,-0.001566722182439,-0.007785073056031,-0.007812791802024,0.011881293083981,0.016026363495155
3.064,-0.001567587641985,-0.007784207596486,-0.007786082758834,0.011895693369193,0.016032445752515
3.068,-0.001564053682175,-0.007779928379845,-0.007749853660646,0.011905357667449,0.016034753644636
3.072,-0.001564149844346,-0.007783005569339,-0.007747161119838,0.011903843113245,0.016025353792352
3.076,-0.001569967655734,-0.007781659298936,-0.007750767201277,0.011889250503689,0.016020858210825
3.08,-0.0015779010349,-0.007784664366801,-0.007748892038929,0.011878263975572,0.016024800859865
3.084,-0.001576987494269,-0.007781827582736,-0.007751175890506,0.011876965786254,0.016034633441921
3.088,-0.001564774898462,-0.007776610784921,-0.007763556770113,0.011878360137744,0.016027926130445
3.092,-0.001562130438741,-0.007779014839214,-0.007770480446475,0.01188506744922,0.016020040832366
3.096,-0.001571289885595,-0.00778317385314,-0.007774230771172,0.011900621680493,0.016034585360835
3.1,-0.001567828047414,-0.00778201990708,-0.007776154014606,0.011906343329709,0.016042614902172
3.104,-0.001571337966681,-0.00778161121785,-0.007778894636499,0.011886990692654,0.016043840969862
3.108,-0.001577925075443,-0.007780745758304,-0.007789472475386,0.011862228933441,0.016038840536933
3.112,-0.001590498279393,-0.007779135041929,-0.007802165882051,0.011864056014704,0.016048961605505
3.116,-0.001578766494445,-0.007780457271789,-0.007808127936696,0.011873600110245,0.016064443715149
3.12,-0.001558356073501,-0.007780890001562,-0.007815123734688,0.011882206624612,0.016074108013404
3.124,-0.001559269614133,-0.007780769798847,-0.007810556031532,0.01189016404432,0.016077161162356
3.128,-0.001571650493739,-0.007783943150514,-0.007764326067487,0.011890933341694,0.016073122351145
3.132,-0.001572780399257,-0.007781370812421,-0.00774487726826,0.011913098722271,0.016079469054477
3.136,-0.001565616317465,-0.007781298690792,-0.007760671904962,0.011923267871928,0.01608951800142
3.14,-0.001565616317465,-0.007776755028179,-0.007789520556472,0.011943221522556,0.016084541609034
3.144,-0.001562058317112,-0.007777981095868,-0.007784399920829,0.011982335485896,0.016073747405261
3.148,-0.001565808641808,-0.007780144744731,-0.007786611650778,0.012004260461044,0.016076992878555
3.152,-0.001562731452314,-0.007783967191056,-0.007783798907256,0.011995677987219,0.016080190270765
3.156,-0.001566770263525,-0.00778555386689,-0.007758532296642,0.011974474228359,0.016064323512434
3.16,-0.001568212696101,-0.007788582975298,-0.007752377917653,0.011949784590775,0.016051606065226
3.164,-0.001577324061869,-0.007785433664175,-0.007738819051443,0.011925551723506,0.016057015187385
3.168,-0.001569126236732,-0.007783606582913,-0.007738626727099,0.011886293516909,0.016072136688885
3.172,-0.001553499883831,-0.007782140109794,-0.007746656268436,0.011874201123818,0.016073771445804
3.176,-0.001536286855096,-0.007776947352522,-0.007753628025885,0.011875210826621,0.016063337850174
3.18,-0.001512727123029,-0.007774278852258,-0.007753844390771,0.011871412420839,0.016078603594931
3.184,-0.001554389383919,-0.007784952853316,-0.00775745047221,0.011865185920221,0.016095720461494
3.188,-0.001584199657146,-0.007782572839567,-0.007762066256452,0.011857925676258,0.016083916554918
3.192,-0.001566698141897,-0.007783270015312,-0.007765263648661,0.011867133204198,0.016061630971626
3.196,-0.00156434216869,-0.007788799340184,-0.007767403256981,0.011889514949661,0.016066535242383
3.2,-0.001574871926491,-0.007788991664528,-0.007769663068016,0.011878889029688,0.016079853703164
3.204,-0.001574775764319,-0.007783462339655,-0.007771393987107,0.01187684558354,0.016073218513316
3.208,-0.001567106831126,-0.007778173420211,-0.007770744892448,0.01188547613845,0.016052663849115
3.212,-0.001571770696454,-0.007775937649719,-0.007769086094986,0.011874489610333,0.016041989848056
3.216,-0.001577444264584,-0.007780409190704,-0.007778365744555,0.011872398083099,0.016049033727133
3.22,-0.001564847020091,-0.007777740690439,-0.007812142707365,0.011872061515498,0.016056582457612
3.224,-0.001559365776304,-0.00777528855506,-0.007814450599486,0.011852179986498,0.016042494699458
3.228,-0.001572059182969,-0.007778702312156,-0.007784664366801,0.011846001566967,0.016037181739471
3.232,-0.001586771995239,-0.007782116069251,-0.007795650894918,0.01186484935262,0.016052760011287
3.236,-0.00158160327851,-0.007784375880286,-0.007781803542193,0.011887086854826,0.016047591294558
3.24,-0.001558668600559,-0.007784448001915,-0.007753844390771,0.011887231098083,0.01602607500864
3.244,-0.001546480045296,-0.00778021686636,-0.007749228606529,0.011885259773564,0.01601975234585
3.248,-0.001549749559134,-0.007776418460578,-0.00773780934864,0.011881437327238,0.016029104117048
3.252,-0.001538763031017,-0.007777884933696,-0.007745309998033,0.011877662961999,0.016033070806631
3.256,-0.001533546233203,-0.00777750028501,-0.007764061621514,0.011858959419603,0.016019367697164
3.26,-0.001539291922962,-0.007777019474151,-0.007762907675454,0.011837875863458,0.016014054737177
3.264,-0.001547633991357,-0.007775913609177,-0.007748291025355,0.011847131472484,0.016030426346909
3.268,-0.001567130871669,-0.007777620487724,-0.007740165321847,0.011859440230462,0.016049610700164
3.272,-0.001560760127794,-0.007773317230541,-0.007743699281657,0.011867710177228,0.01605376971409
3.276,-0.001564462371404,-0.007773100865654,-0.007750695079648,0.011874970421192,0.016055837200781
3.28,-0.001582324494798,-0.00777117762222,-0.00775136821485,0.011868767961117,0.016061102079682
3.284,-0.001573068885772,-0.00777043236539,-0.007757714918182,0.011867373609627,0.016069323945362
3.288,-0.001564702776834,-0.007773269149455,-0.007769855392359,0.011883120165243,0.016061438647283
3.292,-0.001561938114397,-0.007775625122661,-0.007776226136235,0.011878095691772,0.016039513672135
3.296,-0.001556504951696,-0.00777274025751,-0.007769759230188,0.011869393015233,0.016032061103828
3.3,-0.001548739856331,-0.007773172987283,-0.007767956189468,0.011858454568202,0.016028815630533
3.304,-0.001540662233908,-0.007774038446828,-0.007751296093221,0.011854103229932,0.016020377399966
3.308,-0.001550590978137,-0.007766826283951,-0.00774134330845,0.011863118433529,0.016006986817557
3.312,-0.001572419791113,-0.007767691743496,-0.007749276687615,0.011874633853591,0.01600388558752
3.316,-0.001568020371757,-0.007771369946564,-0.007776586744378,0.011875691637479,0.016016723237442
3.32,-0.001571866858625,-0.007771153581677,-0.007754974296289,0.011869753623377,0.016024079643577
3.324,-0.001570208061164,-0.007771970960137,-0.007737737227011,0.011860113365664,0.016015280804866
3.328,-0.001571025439623,-0.00777355763597,-0.007739468146102,0.011836048782196,0.016010064007052
3.332,-0.001579199224218,-0.007774038446828,-0.007749541133588,0.01182515841625,0.016026724103299
3.336,-0.001569102196189,-0.007775048149631,-0.007762066256452,0.011844511053305,0.016032710198487
3.34,-0.001566505817553,-0.007772644095339,-0.007758820783157,0.011876124367252,0.016013189277632
3.344,-0.001563813276745,-0.007771129541134,-0.007761489283421,0.011883048043614,0.016008068641989
3.348,-0.001557971424815,-0.007775024109088,-0.007756200363978,0.011880643989322,0.016024776819322
3.352,-0.001526694678469,-0.007777644528267,-0.007751921147337,0.011875523353679,0.016035306577123
3.356,-0.001500177959622,-0.007774687541487,-0.007755935918006,0.011869248771975,0.016028142495331
3.36,-0.001527680340729,-0.007774086527914,-0.007767667702953,0.011869513217948,0.016025570157238
3.364,-0.001572203426226,-0.007774038446828,-0.007778029176954,0.01186172408204,0.016045115118637
3.368,-0.0015780693187,-0.007776346338949,-0.007766561837979,0.011858406487116,0.016054370727663
3.372,-0.001568236736644,-0.007774855825288,-0.007734034983401,0.011861483676611,0.016042807226516
3.376,-0.001570135939535,-0.007775649163204,-0.007717230643896,0.011858550730374,0.016032830401202
3.38,-0.001569462804333,-0.007772235406109,-0.007724322604059,0.011858118000601,0.016045259361894
3.384,-0.001564534493033,-0.007774495217144,-0.007730380820876,0.011855978392281,0.016056510335983
3.388,-0.001550446734879,-0.007775360676689,-0.007733145483312,0.011852179986498,0.016047206645871
3.392,-0.001560303357478,-0.007779014839214,-0.007736390956607,0.011852179986498,0.01603429687432
3.396,-0.001562683371228,-0.007783221934226,-0.007739997038046,0.011862421257785,0.016036460523183
3.4,-0.00156121689811,-0.007782212231423,-0.007743194430255,0.011855209094907,0.016034921928436
3.404,-0.001567563601442,-0.007779159082471,-0.007743939687086,0.011859656595348,0.016025281670723
3.408,-0.001558644560017,-0.007776202095692,-0.007744420497944,0.011872398083099,0.016000832438568
3.412,-0.001551528559311,-0.00777495198746,-0.007748603552413,0.011886509881796,0.016009823601622
3.416,-0.001551504518768,-0.007777332001209,-0.007757354310038,0.011889394746947,0.016014054737177
3.42,-0.001548427329273,-0.00778334213694,-0.007768316797612,0.011876364772681,0.016011891088314
3.424,-0.001545133774893,-0.007773317230541,-0.007780120704188,0.011871196055952,0.015991384505199
3.428,-0.001535637760437,-0.007768557203041,-0.007761417161793,0.011869969988263,0.015989725707737
3.432,-0.001526862962269,-0.00777528855506,-0.007779423528444,0.011868551596231,0.015999702533051
3.436,-0.001542898004401,-0.007779736055502,-0.007788438732041,0.011860473973808,0.016000688195311
3.44,-0.001580809940594,-0.007777524325553,-0.007743795443828,0.011859295987204,0.015984388707207
3.444,-0.001579535791819,-0.007777332001209,-0.007727568077354,0.011869489177405,0.015979532517536
3.448,-0.001567106831126,-0.007779159082471,-0.007717855698012,0.011877807205257,0.015997923532874
3.452,-0.001563717114574,-0.007777692609353,-0.007716870035752,0.011879153475661,0.016006337722898
3.456,-0.001567948250129,-0.007776755028179,-0.007720067427961,0.011872806772328,0.016005352060638
3.46,-0.001572900601971,-0.007783630623456,-0.007726173725864,0.011864969555335,0.015998716870791
3.464,-0.001578261643044,-0.00777709159578,-0.007730476983048,0.011865065717506,0.01601095350714
3.468,-0.00157157837211,-0.007776899271436,-0.007740862497591,0.011874273245447,0.01601975234585
3.472,-0.001550326532164,-0.007776442501121,-0.007741078862478,0.0118729029345,0.016019944670194
3.476,-0.001531839354655,-0.007778461906727,-0.007741439470622,0.011862902068643,0.016022420846115
3.48,-0.001548475410359,-0.007778894636499,-0.007742064524738,0.011845713080452,0.016032710198487
3.484,-0.001551336234967,-0.00777668290655,-0.007737953591898,0.011828283686831,0.016052615768029
3.488,-0.001540566071737,-0.007775408757775,-0.007737448740496,0.011840472242094,0.016057688322587
3.492,-0.001541960423226,-0.007777139676866,-0.007739227740673,0.011866147541938,0.016057784484758
3.496,-0.001536599382154,-0.007780288987989,-0.007741319267907,0.011876701340282,0.016073242553859
3.5,-0.001521838488798,-0.007783221934226,-0.007741800078766,0.011871075853238,0.016090455582594
3.504,-0.001531526827597,-0.007783029609882,-0.007742857862654,0.01186879200166,0.016090768109652
3.508,-0.001543811545032,-0.007780914042105,-0.007750454674219,0.011872806772328,0.016079541176106
3.512,-0.001554437465005,-0.007777283920123,-0.007763436567398,0.011883192286872,0.016086392730839
3.516,-0.001556769397668,-0.007771273784392,-0.007777836852611,0.01188037954335,0.016097114812984
3.52,-0.001552826748629,-0.007767835986754,-0.007774278852258,0.011888312922515,0.016097451380585
3.524,-0.001562106398198,-0.007775841487548,-0.007752978931226,0.011882975921986,0.016081103811396
3.528,-0.001576218196895,-0.007777933014782,-0.007760936350934,0.011854103229932,0.016076656310955
3.532,-0.001558572438388,-0.00777257197371,-0.007774110568457,0.011852035743241,0.016085431109122
3.536,-0.0015476580319,-0.007771129541134,-0.0077488199173,0.011862902068643,0.016093845299146
3.54,-0.001544628923491,-0.007764878999974,-0.007738578646014,0.011866315825738,0.016081392297911
3.544,-0.001531911476284,-0.007767259013723,-0.007713312035399,0.011868840082746,0.016078026621901
3.548,-0.001530324800451,-0.00777002367616,-0.00769458445246,0.011868455434059,0.016092186501684
3.552,-0.001531430665425,-0.00776822063544,-0.007692516965769,0.011867878461029,0.016085671514552
3.556,-0.001521189394139,-0.007766032946034,-0.007700209939505,0.011861387514439,0.016074540743177
3.56,-0.001527271651499,-0.007762931715997,-0.007708576048443,0.011839558701463,0.016073050229516
3.564,-0.00154922066719,-0.007767835986754,-0.007715066995033,0.011821480213183,0.016077786216472
3.568,-0.001552946951343,-0.007763773134999,-0.007720596319905,0.011840352039379,0.016078122784073
3.572,-0.001541864261055,-0.007760359377904,-0.007725476550119,0.011837274849885,0.016069323945362
3.576,-0.001543426896345,-0.007761345040164,-0.007728649901785,0.011849054715918,0.016060501066109
3.58,-0.00155448554609,-0.007766225270378,-0.007730981834449,0.011885764624965,0.016062015620313
3.584,-0.001549100464475,-0.007766201229835,-0.007734083064487,0.011894972152905,0.016061126120225
3.588,-0.001558933046532,-0.007767619621867,-0.007746367781921,0.01187347990753,0.016052447484229
3.592,-0.001554533627176,-0.007765023243231,-0.007773677838684,0.011890140003777,0.016041821564256
3.596,-0.001559774465534,-0.00777569724429,-0.007767427297524,0.011911463965352,0.016037229820557
3.6,-0.001547970558958,-0.007778365744555,-0.00777627421732,0.011906439491881,0.016049346254191
3.604,-0.001541094963681,-0.007768388919241,-0.007795723016547,0.011891197787666,0.016042855307602
3.608,-0.001531911476284,-0.007761849891565,-0.007775456838861,0.011882783597642,0.016031604333513
3.612,-0.00153097389511,-0.007770768932991,-0.007747233241467,0.011879946813577,0.016038792455847
3.616,-0.001528305394845,-0.007768004270554,-0.007730885672277,0.011857805473543,0.016051702227398
3.62,-0.001538811112103,-0.007767763865125,-0.007733482050913,0.011840832850238,0.01605689498467
3.624,-0.001539844855449,-0.007766225270378,-0.007714129413859,0.011855305257079,0.01604768745673
3.628,-0.00153936404459,-0.007764854959431,-0.007680785180821,0.011863238636244,0.016054707295264
3.632,-0.001535637760437,-0.007764470310744,-0.007671385328537,0.011867469771799,0.016065645742295
3.636,-0.001528906408418,-0.007763628891742,-0.007676313639837,0.011867782298857,0.016075261959465
3.64,-0.001532392287142,-0.007765143445946,-0.007684343181174,0.011868671798945,0.016056991146842
3.644,-0.001523641529517,-0.007763508689027,-0.007693117979342,0.011866387947367,0.016053745673547
3.648,-0.001532584611486,-0.007764229905315,-0.007701123480136,0.011864152176875,0.016069852837307
3.652,-0.001541311328567,-0.007765311729746,-0.007708023115956,0.011858310324944,0.016074180135033
3.656,-0.001547153180498,-0.007764566472916,-0.007713360116485,0.011854896567849,0.016056510335983
3.66,-0.001553307559487,-0.007763845256628,-0.007718144184527,0.011844150445161,0.016049226051477
3.664,-0.00154626368041,-0.007759902607588,-0.00772227915791,0.011839077890604,0.016065717863924
3.668,-0.001540686274451,-0.007762450905138,-0.007722759968769,0.011832731187272,0.016068602729075
3.672,-0.001535854125323,-0.00776370101337,-0.007722567644425,0.011823403456617,0.016051606065226
3.676,-0.00152703124607,-0.007765744459519,-0.007724611090574,0.011846121769681,0.016038479928789
3.68,-0.001547057018327,-0.007767835986754,-0.007730284658704,0.011886966652111,0.016044826632121
3.684,-0.00155669727604,-0.00776706668938,-0.007740982700306,0.011906655856767,0.016044514105063
3.688,-0.00155119199171,-0.007765552135176,-0.007751560539193,0.01189607801788,0.016026387535698
3.692,-0.00153549351718,-0.007769398622044,-0.007750695079648,0.011880139137921,0.01601054481791
3.696,-0.001519338272334,-0.007773918244114,-0.007739612389359,0.011876677299739,0.016011578561256
3.7,-0.001510731757966,-0.007768749527385,-0.007763652932285,0.011872181718212,0.016023262265118
3.704,-0.001529555503077,-0.007767042648837,-0.007789905205159,0.01186230105507,0.016017901224045
3.708,-0.001538666868846,-0.007768028311097,-0.007742521295053,0.011852901202786,0.01600249123603
3.712,-0.001529723786877,-0.007763556770113,-0.007701604290995,0.011854776365134,0.016007227222986
3.716,-0.001522776069972,-0.007761417161793,-0.00767871769413,0.011853742621789,0.016023935400319
3.72,-0.001530469043708,-0.007764878999974,-0.007670231382477,0.011854487878619,0.016022589129916
3.724,-0.001527776502901,-0.007776658866007,-0.007675880910064,0.011859584473719,0.016016747277985
3.728,-0.001519795042649,-0.007770504487018,-0.00768636258678,0.011853910905589,0.016017949305131
3.732,-0.001517727555958,-0.007767523459696,-0.007694392128117,0.011842756093672,0.016024945103122
3.736,-0.001517847758672,-0.00777298066294,-0.007701243682851,0.011834870795592,0.016026531778955
3.74,-0.001499889473107,-0.007770696811362,-0.007706484521208,0.011847323796828,0.016011987250486
3.744,-0.001494528432035,-0.00777199500068,-0.007709970399933,0.011876869624083,0.016007563790587
3.748,-0.001513111771716,-0.007773052784568,-0.007713768805715,0.011869753623377,0.016021579427113
3.752,-0.00153056520588,-0.007770672770819,-0.00771602861675,0.011841025174581,0.016018550318704
3.756,-0.001535998368581,-0.007769086094986,-0.007717110441181,0.011845977526424,0.016009583196193
3.76,-0.001546984896698,-0.007766321432549,-0.007727255550296,0.011863503082216,0.016007467628416
3.764,-0.001548667734703,-0.007767259013723,-0.007752401958196,0.011867013001483,0.016026627941127
3.768,-0.001544773166749,-0.007766706081236,-0.00777175459525,0.01186090670358,0.016039201145077
3.772,-0.001534868463063,-0.007765720418976,-0.007754661769231,0.011866556231168,0.016027108751986
3.776,-0.001521598083369,-0.007762787472739,-0.0077085520079,0.011870811407266,0.016019800426936
3.78,-0.00152210293477,-0.007766105067663,-0.007694464249746,0.011868239069173,0.016019247494449
3.784,-0.001528161151587,-0.007767283054266,-0.00770444107506,0.011866676433882,0.01601843011599
3.788,-0.001540806477166,-0.007768701446299,-0.007704897845375,0.011867493812342,0.016006986817557
3.792,-0.001548619653617,-0.007767499419153,-0.00770501804809,0.011863791568731,0.01599895727622
3.796,-0.001519602718306,-0.007765600216262,-0.007689367654646,0.011848020972572,0.016007659952759
3.8,-0.001509673974078,-0.007766537797436,-0.007693310303685,0.011835351606451,0.016014824034551
3.804,-0.001510082663308,-0.007765383851375,-0.007696435574266,0.011846145810224,0.016009270669135
3.808,-0.001509673974078,-0.007766994567751,-0.007698839628558,0.011855136973278,0.016000832438568
3.812,-0.001513616623118,-0.007764253945858,-0.007702854399227,0.011874730015762,0.016009294709678
3.816,-0.001508688311818,-0.007766970527208,-0.007705210372433,0.011892880625671,0.016028406941304
3.82,-0.001504192730291,-0.007763436567398,-0.007708359683557,0.011886269476366,0.016018141629474
3.824,-0.001504865865493,-0.007756801377551,-0.00771561992752,0.01187997085412,0.016005808830954
3.828,-0.001514337839405,-0.007760792107677,-0.007734131145572,0.011868527555688,0.016004101952406
3.832,-0.001514217636691,-0.007764157783686,-0.007747714052325,0.011871580704639,0.016018886886305
3.836,-0.001515059055693,-0.007762018175366,-0.007731438604765,0.011871676866811,0.0160221323596
3.84,-0.001525348408065,-0.007758820783157,-0.007742064524738,0.011861363473896,0.016010064007052
3.844,-0.001523857894404,-0.007761104634735,-0.007746656268436,0.011845520756108,0.016013045034374
3.848,-0.001519434434505,-0.007767715784039,-0.007708576048443,0.011851627054011,0.016024440251721
3.852,-0.001513400258231,-0.007771225703306,-0.00769811841227,0.01186468106882,0.016035234455494
3.856,-0.001512871366287,-0.007764133743143,-0.007693310303685,0.011879490043262,0.016027277035786
3.86,-0.001508640230732,-0.007761825851022,-0.007706099872522,0.011903338261843,0.016031363928083
3.864,-0.00149621127004,-0.007765528094633,-0.007708648170072,0.011924878588304,0.016042735104887
3.868,-0.001496668040355,-0.007766008905491,-0.007696531736437,0.011948318117657,0.016056293971097
3.872,-0.001509048919962,-0.007767835986754,-0.007695762439064,0.011946491036394,0.016061078039139
3.876,-0.00150698143327,-0.007767523459696,-0.007703022683027,0.011932042670096,0.01605927499842
3.88,-0.001496812283613,-0.007771826716879,-0.007706484521208,0.011958919997087,0.016065020688179
3.884,-0.001499144216277,-0.007767259013723,-0.007696219209379,0.011950217320548,0.016074588824263
3.888,-0.001494744796921,-0.007764253945858,-0.007691819790024,0.011905405748535,0.016065477458494
3.892,-0.001522343340199,-0.0077641097026,-0.007689127249216,0.01189098142278,0.016054442849292
3.896,-0.001526574475754,-0.007768941851728,-0.007695161425491,0.011888216760343,0.016055188106122
3.9,-0.001503303230203,-0.007769807311274,-0.007708696251157,0.011874080921103,0.016044634307778
3.904,-0.001492605188601,-0.007765071324317,-0.007745886971063,0.011863815609274,0.016034825766265
3.908,-0.001492076296656,-0.007765696378433,-0.007758820783157,0.011860353771093,0.016011314115284
3.912,-0.00150599577101,-0.00776862932467,-0.007735164888918,0.011859824879149,0.016004510641636
3.916,-0.00150582748721,-0.007762186459166,-0.007708912616044,0.011859512352091,0.016012419980258
3.92,-0.001509601852449,-0.007759662202159,-0.007700474385477,0.011855377378708,0.016007082979729
3.924,-0.001506765068384,-0.007765480013547,-0.007699584885389,0.011855257175993,0.015991264302484
3.928,-0.001504505257349,-0.007766153148749,-0.007682443978283,0.011857156378884,0.015986985085843
3.932,-0.001507245879242,-0.007766730121779,-0.007680039923991,0.011852660797357,0.015994245329807
3.936,-0.001522848191601,-0.007766441635264,-0.007683694086515,0.011844583174934,0.015991769153885
3.94,-0.001528281354302,-0.007767355175895,-0.00768751653284,0.011838765363546,0.015970637516654
3.944,-0.001522752029429,-0.00776608102712,-0.007694103641602,0.011839751025806,0.015968353665076
3.948,-0.001516669772069,-0.007763220202512,-0.007702854399227,0.011833139876502,0.015989677626651
3.952,-0.001500754932653,-0.007762835553825,-0.007709297264731,0.011839029809518,0.016000736276397
3.956,-0.001501428067854,-0.007764398189115,-0.007714345778745,0.011852011702698,0.015992658653974
3.96,-0.001508327703674,-0.007772884500768,-0.007717951860184,0.011837707579657,0.01599756292473
3.964,-0.001497894108044,-0.007778293622926,-0.007721798347052,0.011831168551982,0.016014511507493
3.968,-0.001501836757084,-0.007763556770113,-0.007723024414741,0.011857012135626,0.016027685725016
3.972,-0.001499937554193,-0.007760022810303,-0.007733674375257,0.011886509881796,0.016021363062226
3.976,-0.001490657904624,-0.007759638161616,-0.007748026579383,0.011859031541232,0.016031387968626
3.98,-0.001479599254878,-0.007767667702953,-0.007762258580795,0.011852997364958,0.016051557984141
3.984,-0.001468444442961,-0.007792405421623,-0.007758508256099,0.011861339433353,0.016067160296499
3.988,-0.001488061525988,-0.007805098828288,-0.00771405729223,0.011857853554629,0.016064708161121
3.992,-0.001510130744393,-0.007768340838155,-0.007706821088809,0.011853742621789,0.016067761310072
3.996,-0.001507702649558,-0.007737617024297,-0.007730380820876,0.011846674702169,0.016098461083388
4,-0.001508688311818,-0.007747113038752,-0.007735188929461,0.011845833283166,0.016113798949774
4.004,-0.001512991569001,-0.007765431932461,-0.007694560411917,0.011852083824327,0.016114736530948
4.008,-0.001514434001577,-0.007769086094986,-0.007674462518032,0.011858262243859,0.016108678314131
4.012,-0.001512222271628,-0.007766225270378,-0.007674534639661,0.011850376945779,0.016118438774559
4.016,-0.001519915245364,-0.007770312162675,-0.007681794883624,0.011851098162067,0.016132574613799
4.02,-0.001519001704733,-0.007777884933696,-0.007689223411388,0.011841770431412,0.016121972734369
4.024,-0.001508880636161,-0.007769302459872,-0.007696724060781,0.011837034444456,0.01610694739504
4.028,-0.001486811417756,-0.007763749094456,-0.0077034554128,0.011834582309077,0.016104495259662
4.032,-0.001468300199703,-0.007763148080883,-0.00770797503487,0.011830519457323,0.016114856733663
4.036,-0.001491331039826,-0.007760816148219,-0.007710715656763,0.011825759429824,0.016107476286985
4.04,-0.001508207500959,-0.007765480013547,-0.007711653237937,0.011846530458911,0.016094542474891
4.044,-0.001496042986239,-0.007769278419329,-0.007708624129529,0.011862036609098,0.016089974771735
4.048,-0.001483013011974,-0.007770817014076,-0.007708071197041,0.01185441575699,0.016101466151253
4.052,-0.001488566377389,-0.007769230338243,-0.007711653237937,0.011847684404971,0.016090551744765
4.056,-0.001508688311818,-0.007769062054443,-0.007720884806421,0.011837683539115,0.016070093242736
4.06,-0.001506524662955,-0.007769398622044,-0.007736583280951,0.011829653997777,0.016058962471362
4.064,-0.00149991351365,-0.007770672770819,-0.007757186026238,0.01183362068736,0.016056269930554
4.068,-0.001496932486327,-0.007772932581854,-0.007762811513282,0.01184011163395,0.016055452552094
4.072,-0.001514578244835,-0.007778269582383,-0.007725692915006,0.011841409823268,0.016039032861276
4.076,-0.001520323934594,-0.007772788338596,-0.00770501804809,0.011835375646994,0.016030065738765
4.08,-0.001515203298951,-0.00777199500068,-0.007693166060428,0.011832971592701,0.016036556685355
4.084,-0.001504962027664,-0.007769711149102,-0.007686146221894,0.011839077890604,0.016046220983611
4.088,-0.001490633864081,-0.007770312162675,-0.007690497560163,0.011836938282284,0.016029993617137
4.092,-0.001471978402771,-0.007767787905668,-0.007697685682498,0.011815085428765,0.016020136994537
4.096,-0.001478781876419,-0.007765552135176,-0.007699055993444,0.01180477203585,0.016023021859688
4.1,-0.001483469782289,-0.007767763865125,-0.007699152155616,0.011815686442338,0.016027493400672
4.104,-0.001483109174145,-0.007766153148749,-0.007701195601765,0.011844751458735,0.016024656616607
4.108,-0.001489287593677,-0.007764638594545,-0.007704561277774,0.011853141608215,0.016013237358718
4.112,-0.001494456310406,-0.007763580810656,-0.007708263521385,0.011827081659684,0.01600741954733
4.116,-0.001497437337729,-0.007764181824229,-0.007712182129882,0.011800132211065,0.016018622440333
4.12,-0.001503231108574,-0.007769999635617,-0.007720187630676,0.011802536265358,0.016021290940598
4.124,-0.001503062824773,-0.00777043236539,-0.00774643990355,0.011824268916162,0.016007107020272
4.128,-0.001504601419521,-0.007768557203041,-0.007768965892271,0.011864152176875,0.016015304845409
4.132,-0.001503808081604,-0.007766537797436,-0.007736943889095,0.011876653259196,0.016026627941127
4.136,-0.001502173324685,-0.007765696378433,-0.007707854832155,0.011872614447985,0.016027012589814
4.14,-0.001491403161455,-0.007766922446122,-0.00768792522207,0.011867037042026,0.016017059805043
4.144,-0.001492172458828,-0.007767379216438,-0.007683694086515,0.011853622419074,0.016021771751456
4.148,-0.001502678176087,-0.00776665800015,-0.007698046290642,0.011850593310665,0.016038479928789
4.152,-0.001507894973901,-0.007766922446122,-0.007728529699071,0.011850449067408,0.016035619104181
4.156,-0.001510178825479,-0.007767162851552,-0.007718240346699,0.011849054715918,0.016027373197958
4.16,-0.001504192730291,-0.007769158216615,-0.007693694952372,0.011851554932382,0.01602525763018
4.164,-0.0015022935274,-0.007774783703659,-0.007684631667689,0.011849078756461,0.016040114685708
4.168,-0.001487027782642,-0.007777644528267,-0.007679102342816,0.011842804174758,0.016047158564785
4.172,-0.001467362618529,-0.007770672770819,-0.007680881342993,0.011838116268887,0.016043215915745
4.176,-0.001463275726232,-0.007773437433255,-0.007686747235467,0.011841554066525,0.016035210414951
4.18,-0.001478469349361,-0.007773341271084,-0.007691242816994,0.011839582742006,0.016049105848762
4.184,-0.001494624594207,-0.007770768932991,-0.007693983438887,0.011828980862576,0.016059130755162
4.188,-0.001501187662425,-0.00776213837808,-0.007697276993268,0.011848670067231,0.016052928295087
4.192,-0.001490008809965,-0.007761585445593,-0.00770049842602,0.011861195190095,0.016045042997008
4.196,-0.001493975499548,-0.007760263215732,-0.007701147520679,0.011857060216712,0.016056870944127
4.2,-0.001504505257349,-0.007764157783686,-0.007711797481195,0.011845424593936,0.016058145092902
4.204,-0.001507606487386,-0.007767908108382,-0.007735381253805,0.011848213296916,0.016046269064697
4.208,-0.001501187662425,-0.007765119405403,-0.007722952293112,0.011852925243329,0.016030570590167
4.212,-0.001496235310583,-0.007764350108029,-0.007708936656587,0.011846722783254,0.016031628374056
4.216,-0.00149597086461,-0.007765528094633,-0.007713456278657,0.011845689039909,0.016041124388511
4.22,-0.0014971969323,-0.007768364878698,-0.007708095237584,0.011844150445161,0.016038431847703
4.224,-0.001496571878184,-0.0077692062977,-0.007681458316023,0.011845280350679,0.016025017224751
4.228,-0.001488806782819,-0.007770167919417,-0.007668644706644,0.01184857390506,0.016032301509257
4.232,-0.001489600120735,-0.007767956189468,-0.007684078735202,0.011832370579128,0.016045619970038
4.236,-0.001486330606897,-0.007770792973533,-0.0076935987902,0.011789506291092,0.016047903821616
4.24,-0.001482604322744,-0.007771249743849,-0.00768225165394,0.011799050386634,0.016044273699634
4.244,-0.001486042120382,-0.007768076392183,-0.00768044861322,0.011847732486057,0.016043288037374
4.248,-0.001480320471166,-0.00776254706731,-0.007682131451225,0.011859127703404,0.016058818228104
4.252,-0.001466785645499,-0.007764806878345,-0.007686338546237,0.011858021838429,0.016062424309543
4.256,-0.001482195633514,-0.007771634392536,-0.007690185033105,0.011847996932029,0.016052615768029
4.26,-0.001489696282907,-0.007771201662763,-0.007692156357625,0.011846434296739,0.016053000416716
4.264,-0.001476906714071,-0.007768677405756,-0.007702325507282,0.011843140742359,0.016077401567785
4.268,-0.001491547404712,-0.007770696811362,-0.007749180525444,0.011843789837018,0.016070694256309
4.272,-0.00151840069116,-0.00776706668938,-0.007770047716703,0.011848886432118,0.01606059722828
4.276,-0.001503711919432,-0.007766922446122,-0.007700690750363,0.011857444865399,0.016059563484935
4.28,-0.001477387524929,-0.007766585878522,-0.007658138989386,0.011852059783784,0.016068915256133
4.284,-0.001475103673351,-0.007768028311097,-0.007659100611103,0.011852636756814,0.016079973905878
4.288,-0.001482676444373,-0.00777372591977,-0.007680761140278,0.011849174918633,0.016066126553153
4.292,-0.00147772409253,-0.007772091162851,-0.007678813856301,0.011849054715918,0.016054130322234
4.296,-0.001478902079133,-0.007772259446652,-0.007682564180998,0.011833572606274,0.016059803890364
4.3,-0.00148536898518,-0.007770889135705,-0.007695882641778,0.011819364645405,0.016070934661738
4.304,-0.001489912647793,-0.007766585878522,-0.007700955196336,0.011850280783607,0.016058193173988
4.308,-0.001482171592971,-0.007763652932285,-0.007692661209026,0.011861844284754,0.016048552916275
4.312,-0.00147854147099,-0.007765600216262,-0.007688454114014,0.011848549864517,0.016047374929672
4.316,-0.001463660374919,-0.007767523459696,-0.007690401397991,0.011845472675022,0.016051365659797
4.32,-0.001454476887521,-0.007769999635617,-0.007692541006312,0.01183871728246,0.01604292742923
4.324,-0.001463323807318,-0.007772451770995,-0.007696724060781,0.011816167253196,0.016021026494625
4.328,-0.001478228943932,-0.007770119838332,-0.007723913914829,0.011811238941897,0.016025161468009
4.332,-0.001486955661013,-0.007769230338243,-0.007768725486842,0.011816263415368,0.01603609991504
4.336,-0.00148363806609,-0.007770648730276,-0.00772720746921,0.011839991431235,0.016028983914334
4.34,-0.001481474417226,-0.007779471609529,-0.007679679315847,0.011871965353326,0.016016410710384
4.344,-0.001490080931594,-0.007778461906727,-0.007673500896315,0.011873720312959,0.016008429250133
4.348,-0.001496860364699,-0.007780409190704,-0.007666793584839,0.011861026906295,0.016023839238148
4.352,-0.001491042553311,-0.007780505352875,-0.007684054694659,0.011856579405854,0.016027950170988
4.356,-0.001492292661543,-0.007780144744731,-0.007696700020238,0.011853454135273,0.016009318750221
4.36,-0.001476834592442,-0.007781539096221,-0.007698719425843,0.011841914674669,0.015994389573064
4.364,-0.001466569280613,-0.007784015272142,-0.007707325940211,0.011831865727727,0.016006409844527
4.368,-0.001480705119853,-0.007788030042811,-0.007701940858595,0.011838669201374,0.016008212885246
4.372,-0.001479094403477,-0.007780721717762,-0.007687228046325,0.011852636756814,0.015998813032963
4.376,-0.001482387957858,-0.007775745325376,-0.007677347383183,0.011846241972396,0.015993908762206
4.38,-0.001466449077898,-0.007774879865831,-0.007674510599118,0.011838693241917,0.01599854858699
4.384,-0.001454260522635,-0.007777283920123,-0.007676433842552,0.011842395485528,0.016006385803984
4.388,-0.001461160158455,-0.007782140109794,-0.007678645572501,0.011846121769681,0.015997755249074
4.392,-0.001475993173439,-0.007779423528444,-0.007689848465504,0.01185071351338,0.015991600870085
4.396,-0.001472098605486,-0.007780505352875,-0.007713360116485,0.011858478608745,0.016010737142253
4.4,-0.001472459213629,-0.007783053650425,-0.007711725359566,0.011842683972043,0.016013934534463
4.404,-0.001472387092001,-0.007785794272319,-0.007698887709644,0.011832923511615,0.016001649817028
4.408,-0.001468492524047,-0.007783702745084,-0.007695017182233,0.011829245308548,0.015993548154062
4.412,-0.001473805484033,-0.007784784569516,-0.007682155491768,0.011822706280872,0.016007034898643
4.416,-0.001478589552075,-0.007784712447887,-0.007693550709115,0.011825062254079,0.01601564141301
4.42,-0.001473180429917,-0.007786948218379,-0.007713336075942,0.011835039079393,0.016014872115637
4.424,-0.001476065295068,-0.007784952853316,-0.007699152155616,0.011844390850591,0.016010737142253
4.428,-0.00147616145724,-0.007784135474857,-0.007674799085633,0.011838933647347,0.016018406075447
4.432,-0.001471858200056,-0.007785024974945,-0.007673765342287,0.011828427930088,0.016036917293499
4.436,-0.00146769918613,-0.007789905205159,-0.007675880910064,0.011814171888134,0.016042542780544
4.44,-0.001458131050046,-0.007789688840273,-0.007681482356566,0.011813522793475,0.016042638942715
4.444,-0.001468372321332,-0.007790073488959,-0.007690810087221,0.011810229239094,0.016047639375644
4.448,-0.001470632132367,-0.007789520556472,-0.007698503060957,0.011840159715036,0.016061366525654
4.452,-0.001456760739099,-0.007797502016723,-0.007699801250275,0.011858093960058,0.016064275431348
4.456,-0.001466761604956,-0.007799401219615,-0.007696123047208,0.011850641391751,0.016061510768912
4.46,-0.001469141618706,-0.007794256543428,-0.007696796182409,0.011833909173875,0.016063482093431
4.464,-0.001476041254525,-0.007792597745967,-0.00771307162997,0.011836818079569,0.016083916554918
4.468,-0.001472531335258,-0.00779615574632,-0.007734804280774,0.01183559201188,0.016077089040727
4.472,-0.001475344078781,-0.00779492967863,-0.007742713619397,0.011841794471955,0.016059803890364
4.476,-0.001472266889286,-0.007794520989401,-0.007763436567398,0.011852155945956,0.016058000849645
4.48,-0.001469886875536,-0.007793751692027,-0.007724394725688,0.011846987229227,0.016070598094137
4.484,-0.001477627930358,-0.007796876962607,-0.007677756072413,0.011840568404266,0.016068939296676
4.488,-0.001478445308818,-0.007797742422153,-0.00766787540927,0.01184225124227,0.016053505268118
4.492,-0.001476401862669,-0.007804834382316,-0.007671721896138,0.011844318728962,0.016038840536933
4.496,-0.001474574781407,-0.007802670733452,-0.007662730733084,0.011846842985969,0.016048889483876
4.5,-0.001480945525282,-0.00780182931445,-0.00767494332889,0.011847516121171,0.016048961605505
4.504,-0.001490898310053,-0.007805651760775,-0.00768792522207,0.011841457904354,0.016033431414775
4.508,-0.001484719890521,-0.007805796004033,-0.007679799518561,0.011840015471778,0.01602780592773
4.512,-0.001479190565649,-0.007807935612353,-0.00767749162644,0.011834942917221,0.0160323255498
4.516,-0.001464814320979,-0.00780692590955,-0.007685352883977,0.011823523659332,0.016033407374232
4.52,-0.001461184198998,-0.007808921274613,-0.007685617329949,0.011820037780607,0.016028503103475
4.524,-0.001459333077192,-0.007810940680219,-0.0076832373162,0.011821119605039,0.016020449521595
4.528,-0.001470848497253,-0.007809666531444,-0.007683501762172,0.011829942484293,0.016025113386923
4.532,-0.001463395928947,-0.007807575004209,-0.007682323775568,0.011864104095789,0.016032589995773
4.536,-0.001439114980592,-0.007803704476798,-0.00768479995149,0.011859872960235,0.016018742643048
4.54,-0.001458155090589,-0.007806036409462,-0.007688069465328,0.011855665865223,0.015998404343733
4.544,-0.001477651970901,-0.007811493612706,-0.007691699587309,0.011851242405324,0.015995928167812
4.548,-0.001470415767481,-0.007812863923653,-0.007703479453343,0.011846530458911,0.016008429250133
4.552,-0.001462915118088,-0.007810556031532,-0.00771249465694,0.011835351606451,0.016014607669664
4.556,-0.001470151321509,-0.00781103684239,-0.007737592983754,0.011831697443926,0.016000640114225
4.56,-0.001466449077898,-0.007819378910785,-0.007763172121426,0.011825446902766,0.01599426937035
4.564,-0.001453467184719,-0.007819715478386,-0.007692492925226,0.011826240240682,0.016010665020625
4.568,-0.001456400130955,-0.007817575870066,-0.007670375625735,0.011835519890251,0.016010328453024
4.572,-0.001455558711953,-0.007817551829523,-0.007670135220305,0.011840231836665,0.016003621141548
4.576,-0.001455101941637,-0.007817383545723,-0.0076682840985,0.011865907136509,0.016009919763794
4.58,-0.001457361752672,-0.007816878694321,-0.0076732124098,0.011902064113068,0.016024199846292
4.584,-0.00146144864497,-0.007818152843096,-0.00767477504509,0.011942356063011,0.016028503103475
4.588,-0.001457193468872,-0.007821734883992,-0.007655879178351,0.011960434551291,0.016023887319234
4.592,-0.001457145387786,-0.00782344176254,-0.007679847599647,0.011956179375193,0.016025017224751
4.596,-0.001458804185248,-0.007825509249231,-0.007681818924167,0.011943654252329,0.016035715266353
4.6,-0.001463155523517,-0.007825052478916,-0.007673765342287,0.011920719574378,0.016050572321881
4.604,-0.001454164360463,-0.007824860154572,-0.007673548977401,0.011886173314195,0.016030306144195
4.608,-0.00143942750765,-0.007825917938461,-0.007683766208144,0.011863503082216,0.016015617372467
4.612,-0.001444884710894,-0.007821085789333,-0.00768578561375,0.011861748122583,0.016027325116872
4.616,-0.001439090940049,-0.007821662762363,-0.007681193870051,0.011840327998836,0.016038359726075
4.62,-0.001436927291186,-0.00782541308706,-0.007679967802362,0.011835303525365,0.016032301509257
4.624,-0.001444620264922,-0.007824932276201,-0.007680977505165,0.01184955956732,0.016026099049183
4.628,-0.001460150455652,-0.007823129235482,-0.007682588221541,0.0118528531217,0.01602410368412
4.632,-0.001460174496195,-0.007829548060443,-0.007683333478371,0.011843188823444,0.016027541481758
4.636,-0.001455726995753,-0.007834428290657,-0.007693406465857,0.011832851389987,0.016019391737707
4.64,-0.001462386226144,-0.007827817141352,-0.007720043387418,0.011829052984204,0.016004943371408
4.644,-0.001463972901977,-0.007831904033649,-0.007728649901785,0.011824893970278,0.016014223020978
4.648,-0.001479911781936,-0.007836111128661,-0.007731823253452,0.011810325401266,0.016019199413363
4.652,-0.001483469782289,-0.007837673763952,-0.007708696251157,0.011839150012233,0.016011290074741
4.656,-0.001467338577986,-0.007834957182601,-0.007673548977401,0.011859897000777,0.016000087181738
4.66,-0.001443418237776,-0.007834596574457,-0.007667106111897,0.011851723216183,0.015995471397496
4.664,-0.001443201872889,-0.007832841614824,-0.007670447747363,0.011840424161008,0.016018478197075
4.668,-0.001463035320803,-0.007833731114912,-0.007673356653057,0.011832298457499,0.016025570157238
4.672,-0.001466833726585,-0.007840270142587,-0.007686699154381,0.011825879632538,0.016005183776838
4.676,-0.001458683982533,-0.007841351967019,-0.00769482485789,0.011820398388751,0.01600898218262
4.68,-0.001443322075604,-0.007839356601956,-0.00771069161622,0.011817008672199,0.01603174857677
4.684,-0.001429691087765,-0.007831423222791,-0.007686194302979,0.011819388685948,0.016034994050065
4.688,-0.001444067332435,-0.007832913736452,-0.007659316975989,0.011827634592172,0.016030450387452
4.692,-0.001458828225791,-0.00784111156159,-0.007648859339817,0.011828980862576,0.016030089779308
4.696,-0.001467771307759,-0.007843371372625,-0.007649820961534,0.011826216200139,0.016046918159356
4.7,-0.001456424171498,-0.007837601642323,-0.007655446448578,0.011817826050658,0.016060573187738
4.704,-0.001460246617823,-0.00783774588558,-0.00766220184114,0.011801358278754,0.016049803024507
4.708,-0.001461136117912,-0.007838130534267,-0.007670351585192,0.011797319467543,0.016043985213119
4.712,-0.001450125549252,-0.00783716891255,-0.007677635869698,0.011814484415192,0.016060957836424
4.716,-0.001437816791274,-0.007843780061855,-0.007674125950431,0.011836385349797,0.016062183904114
4.72,-0.001439595791451,-0.00784308288611,-0.007675592423549,0.011839726985263,0.016058385498331
4.724,-0.001453996076663,-0.007840630750731,-0.007684535505518,0.011829942484293,0.016045379564609
4.728,-0.001466569280613,-0.007842313588736,-0.007678573450872,0.011825783470367,0.016045644010581
4.732,-0.001449788981651,-0.007841856818421,-0.007683525802715,0.011826120037967,0.016051557984141
4.736,-0.001451904549428,-0.007848684332611,-0.00770641239958,0.011823114970102,0.016045187240265
4.74,-0.001450991008797,-0.007853059711424,-0.007712903346169,0.011824124672905,0.016023646913804
4.744,-0.001444283697321,-0.007856617711777,-0.007701219642308,0.011822057186213,0.016028190576417
4.748,-0.001463131482974,-0.007858396711953,-0.007672611396227,0.0118073203334,0.01604629310524
4.752,-0.001481282092883,-0.007856473468519,-0.007645060934034,0.0117923671157,0.016044970875379
4.756,-0.001483950593148,-0.007853732846626,-0.007642103947255,0.011801358278754,0.016037806793587
4.76,-0.001465006645323,-0.007859310252584,-0.007651720164425,0.011804339306077,0.016040355091137
4.764,-0.001454861536208,-0.007864310685513,-0.007662490327655,0.011795420264652,0.016049129889305
4.768,-0.001458876306877,-0.007864358766599,-0.007670688152793,0.011798425332518,0.01605648629544
4.772,-0.00146555957781,-0.007863228861081,-0.00767140936908,0.011792992169816,0.016054058200605
4.776,-0.001468348280789,-0.007865007861258,-0.007688550276186,0.011789025480234,0.016053457187032
4.78,-0.001470151321509,-0.007864575131485,-0.007693358384771,0.011788785074805,0.016072329013228
4.784,-0.001468492524047,-0.007862243198821,-0.007675472220835,0.011793713386104,0.01607218476997
4.788,-0.001463756537091,-0.007863349063796,-0.00766967844999,0.011805493252138,0.016057159430642
4.792,-0.001471834159513,-0.007863829874654,-0.007673428774686,0.011815998969396,0.016048913524419
4.796,-0.001462049658543,-0.007869359199527,-0.00769951276376,0.011819701213006,0.016054899619607
4.8,-0.001450774643911,-0.007871498807847,-0.007716797914123,0.011831240673611,0.016059323079505
4.804,-0.001448226346361,-0.007869719807671,-0.00771956257656,0.011829221268005,0.016037710631416
4.808,-0.001457794482445,-0.007869046672469,-0.00769441616866,0.011823475578246,0.016017300210472
4.812,-0.001471737997342,-0.007864551090942,-0.007668788949902,0.011815710482881,0.016019680224222
4.816,-0.001482748566001,-0.007866233928947,-0.007652369259084,0.01179515581868,0.01602352671109
4.82,-0.001475512362581,-0.007870849713188,-0.007643209812229,0.011782342209301,0.016009871682708
4.824,-0.001461761172028,-0.007873470132367,-0.007643666582545,0.011808426198374,0.015997538884187
4.828,-0.001457698320273,-0.007870416983416,-0.007647705393756,0.011813691077275,0.015994317451436
4.832,-0.001460198536738,-0.007872845078251,-0.007664149125117,0.011821961024041,0.015999317884364
4.836,-0.001470055159337,-0.007876931970548,-0.007659172732731,0.011826312362311,0.01599756292473
4.84,-0.00147870975479,-0.007880225524929,-0.007653523205144,0.011808426198374,0.015987489937245
4.844,-0.001477219241129,-0.007879672592442,-0.007656961002782,0.01180518072508,0.015994870383923
4.848,-0.001485489187895,-0.007879720673528,-0.007669077436417,0.011824966091907,0.016023863278691
4.852,-0.00147147355137,-0.007877701267922,-0.007682564180998,0.011831793606098,0.016019367697164
4.856,-0.001463492091118,-0.007877773389551,-0.007673044125999,0.011832130173699,0.016012059372114
4.86,-0.001465799983239,-0.007882317052164,-0.007668187936328,0.011831336835782,0.016023166102946
4.864,-0.001462963199174,-0.0078798168357,-0.007664413571089,0.011826504686654,0.01604432178072
4.868,-0.001467675145587,-0.007881307349361,-0.007668163895785,0.011830976227638,0.016051846470656
4.872,-0.001466761604956,-0.007879937038414,-0.007696844263495,0.01183559201188,0.016041148429054
4.876,-0.001459837928594,-0.007877821470637,-0.007713672643543,0.011833668768446,0.01604078782091
4.88,-0.001461929455828,-0.00787842248421,-0.007679655275304,0.011838068187801,0.016059635606563
