time,channel1,channel2,channel3,channel4,channel5
0,-0.02118310803371,-0.011296338593523,0.008444360905213,0.000183164896548,0.002429777673456
0.004,-0.021180006803672,-0.011296314552981,0.008443711810554,0.000180328112482,0.002427806348937
0.008,-0.021177722952095,-0.011295184647463,0.008446813040592,0.000175159395753,0.002427830389479
0.012,-0.0211797423577,-0.01129770890447,0.008447197689279,0.000176794152672,0.0024299699978
0.016,-0.02118072801996,-0.01129597798538,0.008446260108105,0.000174774747067,0.002427469781336
0.02,-0.021180175087473,-0.011297612742298,0.008447870824481,0.000167298138217,0.00242718129482
0.024,-0.021178973060327,-0.011299463864104,0.008442654026666,0.000166673084101,0.002427349578621
0.028,-0.021175967992461,-0.011301627512967,0.00843159537692,0.000171865841373,0.002428239078709
0.032,-0.021176112235719,-0.011302420850884,0.008437365107222,0.000173164030691,0.002427950592194
0.036,-0.021179189425213,-0.011300449526364,0.008441403918434,0.000172370692774,0.002424945524328
0.04,-0.021181184790276,-0.011301146702108,0.00844359160784,0.000169149260022,0.002423983902611
0.044,-0.021182050249821,-0.01130066589125,0.008447630419051,0.000167514503103,0.002425089767586
0.048,-0.02118269934448,-0.011302709337399,0.00845106821669,0.000170639773684,0.002427061092106
0.052,-0.021182242574164,-0.011302541053598,0.008453953081841,0.000171481192686,0.002427854430022
0.056,-0.021181906006564,-0.011300401445278,0.008460371906802,0.000172947665804,0.002429128578797
0.06,-0.02118253106068,-0.011299439823561,0.008442870391552,0.000176024855299,0.002431556673633
0.064,-0.021183588844568,-0.011299704269533,0.008427219998108,0.000176409503986,0.002427878470565
0.068,-0.021183709047283,-0.01130124286428,0.00845378479804,0.000177178801359,0.002426195632561
0.072,-0.021181617520048,-0.011303743080744,0.008452727014151,0.000175712328241,0.002427830389479
0.076,-0.021179838519872,-0.011305089351148,0.008462223028607,0.000178236585248,0.002431556673633
0.08,-0.021178852857612,-0.011303286310429,0.008451765392434,0.000177803855475,0.002429585349113
0.084,-0.021178323965668,-0.011304824905176,0.008437749755909,0.000175207476839,0.002429080497712
0.088,-0.021175366978888,-0.011305449959292,0.008444817675529,0.000176409503986,0.002429729592371
0.092,-0.021172458073194,-0.011304271972689,0.008446260108105,0.000174846868695,0.002426147551475
0.096,-0.021173612019254,-0.011302108323825,0.008446789000049,0.000171457152143,0.002425402294644
0.1,-0.02117678537092,-0.011304680661918,0.008445803337789,0.000171120584542,0.002427085132649
0.104,-0.021177458506122,-0.011307829973042,0.008448976689455,0.000174726665981,0.002427517862421
0.108,-0.021177867195352,-0.011309224324531,0.008447029405478,0.000174269895665,0.002427229375906
0.112,-0.021176352641148,-0.011309921500276,0.008448784365112,0.00017003876011,0.002427734227308
0.116,-0.021176280519519,-0.011311171608508,0.008449962351715,0.000172226449517,0.002427085132649
0.12,-0.021178684573812,-0.011309969581362,0.008448664162397,0.000179534774566,0.002431604754719
0.124,-0.021180992465932,-0.011307493405441,0.008443110796981,0.000178452950134,0.002433768403582
0.128,-0.02118212237145,-0.011307012594582,0.008441163513004,0.000175712328241,0.002433143349466
0.132,-0.021181256911905,-0.011307998256842,0.008433302255468,0.000174077571322,0.002431965362863
0.136,-0.021178516290011,-0.011308959878559,0.008434119633927,0.000173428476663,0.002429513227484
0.14,-0.021179718317157,-0.011311051405794,0.008438302688396,0.000176481625614,0.002430066159972
0.144,-0.02118351672294,-0.011313046770856,0.008442798269923,0.000175808490412,0.002434225173898
0.148,-0.021184766831172,-0.011312061108597,0.008444384945756,0.000175111314668,0.002439850660942
0.152,-0.021183420560768,-0.011309248365074,0.008447317891993,0.000178404869048,0.002438432268909
0.156,-0.021184454304114,-0.011308166540643,0.008448784365112,0.000185064099439,0.002437518728278
0.16,-0.021187315128722,-0.011311940905882,0.008447774662309,0.000186795018529,0.002435282957786
0.164,-0.021189623020843,-0.011311484135566,0.008463016366523,0.000173524638835,0.002433552038696
0.168,-0.021189887466815,-0.01130912816236,0.008446356270276,0.000166192273242,0.002433840525211
0.172,-0.021189022007269,-0.011309176243446,0.008427869092767,0.000170952300742,0.002431604754719
0.176,-0.021189671101928,-0.011313215054657,0.008441500080605,0.00017455838218,0.002430522930287
0.18,-0.021191281818304,-0.011313575662801,0.008440298053459,0.000176217179642,0.00243605225516
0.184,-0.021191666466991,-0.011313479500629,0.008434600444786,0.000174053530779,0.002437542768821
0.188,-0.021191305858847,-0.011311940905882,0.008439889364229,0.0001714331116,0.002438504390538
0.192,-0.021189238372156,-0.011311820703167,0.008445755256703,0.000175832530955,0.002438047620223
0.196,-0.021187747858494,-0.01131184474371,0.00844712556765,0.000175087274125,0.002437085998506
0.2,-0.021187363209808,-0.011310955243622,0.008446885162221,0.000175159395753,0.002435427201044
0.204,-0.021186016939404,-0.011312181311311,0.008449697905743,0.000177563450046,0.002436436903847
0.208,-0.021181329033533,-0.01131381606823,0.0084546021765,0.000175832530955,0.002441629661119
0.212,-0.021178372046754,-0.011313527581715,0.008444481107928,0.000173019787433,0.002442206634149
0.216,-0.021180896303761,-0.011311964946425,0.0084445772701,0.000167971273419,0.002440018944743
0.22,-0.021183180155339,-0.01131364778443,0.008439745120972,0.000167153894959,0.002438119741851
0.224,-0.021182386817422,-0.011313551622258,0.008430850120089,0.000163908421664,0.002437927417508
0.228,-0.021179694276614,-0.011315426784606,0.008433614782526,0.000165182570439,0.002437302363392
0.232,-0.021178684573812,-0.011316099919808,0.008447462135251,0.000166312475957,0.002438239944566
0.236,-0.021180295290188,-0.011316172041437,0.00844851991914,0.000172082206259,0.002438624593253
0.24,-0.021166447937463,-0.011316556690124,0.008437076620707,0.000172154327888,0.002443961593782
0.244,-0.0211697174513,-0.011321629244681,0.008441500080605,0.000171553314315,0.002442110471977
0.248,-0.021173131208396,-0.011319345393103,0.0084445772701,0.000166240354328,0.002442206634149
0.252,-0.021175366978888,-0.011312061108597,0.008446524554077,0.000167827030161,0.002439273687912
0.256,-0.021177915276438,-0.011310931203079,0.008446909202764,0.000171745638658,0.002438792877053
0.26,-0.021178155681867,-0.011314032433116,0.00844671687842,0.000167634705818,0.002439874701485
0.264,-0.021176881533092,-0.011316652852295,0.008444793634986,0.000163571854063,0.002440884404288
0.268,-0.021178564371097,-0.011316700933381,0.008443976256527,0.000163499732435,0.002440619958316
0.272,-0.021179694276614,-0.011317590433469,0.008434215796099,0.000163307408091,0.002438119741851
0.276,-0.021181497317334,-0.011318431852472,0.008427340200822,0.000162201543117,0.002439538133884
0.28,-0.021184911074429,-0.011316676892838,0.008439480675,0.000162610232346,0.002442254715235
0.284,-0.02118681027732,-0.011319104987674,0.008449072851627,0.000165158529897,0.002439850660942
0.288,-0.021189070088355,-0.011320619541878,0.008449000729998,0.000164749840667,0.002437494687735
0.292,-0.021189142209984,-0.011319297312017,0.008449745986829,0.000167827030161,0.002441293093518
0.296,-0.021184766831172,-0.011316244163066,0.008450274878773,0.000169101178936,0.002443937553239
0.3,-0.021179622154986,-0.011314729608861,0.008445995662132,0.000166192273242,0.00244114885026
0.304,-0.021181088628104,-0.011314561325061,0.008446596675706,0.000165278732611,0.00244057187723
0.308,-0.021185343804202,-0.011319297312017,0.008446837081135,0.000165471056955,0.002442038350348
0.312,-0.021186401588091,-0.011322230258254,0.00844515424313,0.000163884381122,0.00244155753949
0.316,-0.021185391885288,-0.011320667622964,0.008441644323863,0.000165831665098,0.002441293093518
0.32,-0.021185464006916,-0.011319826203961,0.008444769594443,0.000168860773507,0.002441797944919
0.324,-0.021185464006916,-0.011319465595818,0.008449000729998,0.000170591692598,0.002441341174603
0.328,-0.021183348439139,-0.011319754082333,0.008449433459771,0.000171649476486,0.002444250080297
0.332,-0.021181377114619,-0.011318215487585,0.008447678500137,0.000165783584013,0.002445379985815
0.336,-0.021181785803849,-0.011319177109302,0.008450996095061,0.000161215880857,0.00244566847233
0.34,-0.021180583776703,-0.011319754082333,0.008449433459771,0.000160590826741,0.002443889472154
0.344,-0.021179333668471,-0.011318624176815,0.00845123650049,0.000162730435061,0.00244682241839
0.348,-0.02118113670919,-0.011317061541525,0.008447582337965,0.000166985611159,0.002448336972595
0.352,-0.021183372479682,-0.01131775871727,0.008443495445668,0.000168908854593,0.002448481215852
0.356,-0.021183540763482,-0.011321749447395,0.008452366406008,0.00016847612482,0.002448986067254
0.36,-0.021182867628281,-0.011322061974453,0.008461742217748,0.000166432678672,0.002448336972595
0.364,-0.021182314695793,-0.011325018961233,0.008450899932889,0.000167418340932,0.0024450914993
0.368,-0.021182555101223,-0.01132737493444,0.008448087189367,0.000167923192333,0.002443504823467
0.372,-0.021180655898331,-0.011329442421132,0.008445586972903,0.000169822395224,0.002442495120664
0.376,-0.021179670236071,-0.011325115123405,0.008448832446198,0.00016674520573,0.002441870066548
0.38,-0.02118072801996,-0.011322903393456,0.008450491243659,0.000164461354152,0.002440139147457
0.384,-0.021181473276791,-0.011323047636713,0.008446885162221,0.000166456719215,0.002442495120664
0.388,-0.021181689641677,-0.011323720771915,0.008440658661603,0.000168019354505,0.002444947256042
0.392,-0.021182242574164,-0.011325018961233,0.00844301463481,0.000169606030338,0.002447303229249
0.396,-0.021183420560768,-0.011322037933911,0.008445635053989,0.000172779382004,0.00244763979685
0.4,-0.021183949452712,-0.011327495137155,0.008447822743395,0.000169798354681,0.00244682241839
0.404,-0.021184430263571,-0.011324538150375,0.00844671687842,0.000160855272713,0.0024450914993
0.408,-0.021183204195881,-0.011322951474542,0.008433278214925,0.000162706394518,0.002447158985991
0.412,-0.021179838519872,-0.011325860380236,0.008435081255644,0.000167105813874,0.002443817350525
0.416,-0.021177698911552,-0.011328576961586,0.008444336864671,0.000162081340402,0.002444754931699
0.42,-0.021178900938698,-0.011328024029099,0.008450202757144,0.000160807191627,0.002446702215676
0.424,-0.021178372046754,-0.011327350893897,0.008445394648559,0.000166216313785,0.002445379985815
0.428,-0.02117817972241,-0.011326485434352,0.008443856053812,0.000170543611512,0.002443312499123
0.432,-0.021178444168382,-0.011326846042496,0.008447582337965,0.000166288435414,0.002444827053328
0.436,-0.021179093263041,-0.011327350893897,0.008452390446551,0.000161023556513,0.002445235742557
0.44,-0.021180175087473,-0.01132638927218,0.008447870824481,0.00016099951597,0.00244682241839
0.444,-0.021181641560591,-0.011329129894073,0.00844301463481,0.000157177069645,0.00244706282382
0.448,-0.021181978128192,-0.011331101218593,0.008444505148471,0.000155854839784,0.002442975931522
0.452,-0.021181978128192,-0.011328673123758,0.008443495445668,0.000157898285933,0.002438432268909
0.456,-0.021181641560591,-0.011329490502217,0.0084445772701,0.000161047597056,0.002438528431081
0.46,-0.021180944384846,-0.011329394340046,0.008444457067385,0.000162153462031,0.002439970863657
0.464,-0.021180006803672,-0.011326846042496,0.008451188419404,0.000158427177877,0.002437711052622
0.468,-0.021177242141236,-0.011326052704579,0.008453712676411,0.000160158096968,0.002437807214793
0.472,-0.021172698478623,-0.011325043001776,0.008447317891993,0.000162778516147,0.002436268620046
0.476,-0.021172626356994,-0.011326822001953,0.008446981324392,0.000161384164657,0.002437903376965
0.48,-0.021176761330378,-0.011326725839781,0.008446813040592,0.000160398502397,0.002443793309982
0.484,-0.0211797423577,-0.011324129461145,0.008447317891993,0.000159460921223,0.00244410583704
0.488,-0.021180247209102,-0.011328625042672,0.008446861121678,0.000161167799771,0.002440187228543
0.492,-0.021181329033533,-0.011334322651345,0.008445250405302,0.000163187205377,0.002441918147634
0.496,-0.021181329033533,-0.011335741043378,0.008437292985593,0.00016378821895,0.002441701782747
0.5,-0.021181497317334,-0.011335188110891,0.008427460403537,0.000160182137511,0.002440259350172
0.504,-0.021182338736336,-0.011332134961939,0.008433614782526,0.000159965772625,0.002441269052975
0.508,-0.02118171368222,-0.011332687894426,0.008446067783761,0.000163451651349,0.002445980999388
0.512,-0.021180896303761,-0.011335164070348,0.008451188419404,0.000162562151261,0.002447110904906
0.516,-0.021180535695617,-0.011336125692065,0.008450226797687,0.000161023556513,0.002444538566813
0.52,-0.021178828817069,-0.011335620840663,0.008458953514769,0.00016025425914,0.002444153918126
0.524,-0.021177819114266,-0.011332832137684,0.008467103258821,0.000161288002486,0.002443024012608
0.528,-0.021179501952271,-0.011333505272886,0.008440658661603,0.000159605164481,0.00244213451252
0.532,-0.021181906006564,-0.011334539016232,0.008436331363876,0.000159364759052,0.002444754931699
0.536,-0.021182579141765,-0.011333769718858,0.008442702107752,0.000162009218773,0.002448024445537
0.54,-0.021182338736336,-0.011335212151434,0.008441548161691,0.000164821962296,0.002445235742557
0.544,-0.021183468641854,-0.011334154367545,0.008440850985946,0.000165975908356,0.002443576945096
0.548,-0.021183252276967,-0.011334947705461,0.008440442296717,0.000166625003015,0.002443024012608
0.552,-0.021180848222675,-0.011336534381294,0.008447630419051,0.000165158529897,0.002441028647545
0.556,-0.021180800141589,-0.011336534381294,0.008449818108458,0.000163091043205,0.002441052688088
0.56,-0.021182146411993,-0.011335260232519,0.008450226797687,0.000165855705641,0.002443312499123
0.564,-0.021183059952624,-0.011332038799767,0.008451044176147,0.000167081773331,0.002443024012608
0.568,-0.02118327631751,-0.011332928299856,0.008456813906449,0.000163427610806,0.002443024012608
0.572,-0.021181208830819,-0.01133559680012,0.00845888139314,0.000162345786374,0.002445740593959
0.576,-0.02117916538467,-0.011335957408264,0.008455804203646,0.000160903353799,0.002445956958845
0.58,-0.021177963357524,-0.011338601867986,0.008454265608899,0.000161119718685,0.002445428066901
0.584,-0.021177434465579,-0.011336967111067,0.008449866189543,0.000162465989089,0.002445163620929
0.588,-0.021177506587208,-0.011336197813694,0.008443856053812,0.000161167799771,0.002444754931699
0.592,-0.021178420127839,-0.011336101651522,0.008441764526578,0.000158018488648,0.00244451452627
0.596,-0.021178468208925,-0.011338217219299,0.008442629986123,0.000159052231994,0.002441821985462
0.6,-0.021176424762777,-0.011337880651698,0.008440442296717,0.000161600529544,0.002443793309982
0.604,-0.021176472843862,-0.011337736408441,0.008438759458712,0.000161312043029,0.002444346242469
0.608,-0.021177097897978,-0.011337544084097,0.008442173215807,0.000156840502044,0.002446029080474
0.612,-0.021177530627751,-0.011339058638302,0.008445875459418,0.000154412407209,0.002447471513049
0.616,-0.02117801143861,-0.011338217219299,0.008447774662309,0.000157730002133,0.002445307864186
0.62,-0.021179189425213,-0.011340741476306,0.008444937878244,0.000161744772801,0.002444827053328
0.624,-0.021178468208925,-0.011340861679021,0.008440754823775,0.00016297084049,0.0024450914993
0.628,-0.021180511655074,-0.011340308746534,0.008441187553547,0.000163499732435,0.002445476147987
0.632,-0.021181569438963,-0.011343193611685,0.008442053013093,0.000166552881386,0.0024450914993
0.636,-0.021182747425566,-0.011344395638831,0.008442533823951,0.00016946178708,0.002447591715764
0.64,-0.021182819547195,-0.011342256030511,0.008442750188837,0.000167346219303,0.002446197364274
0.644,-0.021180679938874,-0.011341534814223,0.008441307756262,0.000161456286286,0.002446101202103
0.648,-0.021178564371097,-0.011342881084627,0.008442101094178,0.000161384164657,0.002446870499476
0.652,-0.02117817972241,-0.011343938868515,0.008444793634986,0.0001612399214,0.002445235742557
0.656,-0.021177795073723,-0.011343121490056,0.008443711810554,0.000161167799771,0.002445644431787
0.66,-0.021177506587208,-0.011342135827796,0.008443976256527,0.000161576489001,0.002447928283365
0.664,-0.021178973060327,-0.011341895422367,0.008441932810378,0.000163067002662,0.002447303229249
0.668,-0.021177458506122,-0.011344179273945,0.008442149175264,0.00015984556991,0.002446870499476
0.672,-0.021174453438257,-0.011343866746887,0.008443832013269,0.000156624137158,0.002445379985815
0.676,-0.021174862127486,-0.011342231989968,0.008443351202411,0.000156816461501,0.002445980999388
0.68,-0.021177097897978,-0.011340813597935,0.00844613990539,0.000159965772625,0.002446317566989
0.684,-0.021177170019607,-0.011341703098023,0.008446452432448,0.000160230218597,0.002448553337481
0.688,-0.021176496884405,-0.011343097449513,0.008443495445668,0.000156431812815,0.002449971729514
0.692,-0.021176400722234,-0.011342784922455,0.008444697472814,0.000158619502221,0.002446317566989
0.696,-0.021176977695264,-0.01134307340897,0.008451356703205,0.000162105380945,0.002443216336952
0.7,-0.021176472843862,-0.011340549151963,0.008450539324745,0.000166480759757,0.002444442404641
0.704,-0.021175607384317,-0.011340861679021,0.008439408553371,0.000165062367725,0.002446317566989
0.708,-0.021174934249115,-0.011339226922102,0.008445274445845,0.000160182137511,0.002448721621282
0.712,-0.0211744774788,-0.011340428949248,0.008441139472461,0.000157369393989,0.002448024445537
0.716,-0.021173996667941,-0.01134718434181,0.008442341499608,0.000156119285757,0.002448024445537
0.72,-0.021172361911022,-0.01134800172027,0.008435802471932,0.000157321312903,0.00244780808065
0.724,-0.021172890802967,-0.011347857477012,0.008425128470873,0.000160326380769,0.002448601418567
0.728,-0.021174862127486,-0.011346342922808,0.008433614782526,0.000161528407915,0.002449683242999
0.732,-0.021175391019431,-0.011346751612038,0.008432484877008,0.000163067002662,0.00245232770272
0.736,-0.02117563142486,-0.011349684558275,0.00844145199952,0.000163547813521,0.002455044284071
0.74,-0.021174044749027,-0.011350670220535,0.008446644756791,0.000158811826564,0.002453024878465
0.744,-0.02117366010034,-0.011348458490585,0.008448351635339,0.000159196475251,0.002452015175662
0.748,-0.021174405357171,-0.011348362328414,0.00844811122991,0.000159557083395,0.00244862545911
0.752,-0.021174814046401,-0.011348121922984,0.008441307756262,0.000156287569557,0.002449538999741
0.756,-0.021174597681514,-0.011347857477012,0.008434937012387,0.000149604298624,0.00244879374291
0.76,-0.021174525559885,-0.011353194477542,0.008434119633927,0.000152801690833,0.002449875567342
0.764,-0.021175294857259,-0.011349997085333,0.008430850120089,0.000156816461501,0.002448865864539
0.768,-0.021173107167853,-0.011348698896015,0.008421161781291,0.000160494664569,0.002450572743087
0.772,-0.021171568573106,-0.011347520909411,0.00842551311956,0.00016239386746,0.002452808513579
0.776,-0.021171592613649,-0.011347256463439,0.008432941647324,0.000159340718509,0.002452279621634
0.78,-0.021172890802967,-0.011346270801179,0.008439312391199,0.000158258894077,0.002453529729867
0.784,-0.021175847789746,-0.011346174639007,0.008440730783232,0.000163499732435,0.002451197797203
0.788,-0.021177819114266,-0.011348506571671,0.008438855620884,0.000168524205906,0.002446846458933
0.792,-0.021178420127839,-0.011352569423426,0.008437893999167,0.000167754908532,0.002449298594312
0.796,-0.02117998276313,-0.011352088612567,0.008437845918081,0.000167634705818,0.002451125675574
0.8,-0.021182026209278,-0.011349299909588,0.008437773796452,0.000152417042146,0.002452471945978
0.804,-0.021182771466109,-0.011349588396103,0.008439456634457,0.00012491466104,0.002452423864892
0.808,-0.021182867628281,-0.011347737274298,0.008448880527283,9.82777394784776E-05,0.002450428499829
0.812,-0.021184189858141,-0.011347833436469,0.008442317459065,7.57517507575056E-05,0.002453529729867
0.816,-0.021184069655427,-0.011348314247328,0.008436018836818,6.08225736009169E-05,0.002455573176015
0.82,-0.021183324398596,-0.011350574058363,0.008441331796805,6.82511013648234E-05,0.002453481648781
0.824,-0.021182386817422,-0.011352184774739,0.008445827378332,8.81807114498669E-05,0.002453385486609
0.828,-0.021182146411993,-0.011354564788488,0.008441980891464,0.000110322051484,0.002456294392303
0.832,-0.021181881966021,-0.011353603166771,0.008438951783055,0.000138665851593,0.002456799243704
0.836,-0.021180800141589,-0.011354132058716,0.008438543093826,0.000160494664569,0.002457905108679
0.84,-0.021181112668647,-0.011355165802062,0.008436018836818,0.000165831665098,0.002457039649134
0.844,-0.021180463573988,-0.011350525977277,0.008441932810378,0.000168764611335,0.002455188527328
0.848,-0.021178107600781,-0.011351343355736,0.008443423324039,0.000167995313962,0.002457039649134
0.852,-0.021176160316804,-0.011355165802062,0.008442629986123,0.000167394300389,0.00245215941892
0.856,-0.02117777103318,-0.011356872680609,0.008432196390493,0.000168980976222,0.002452255581092
0.86,-0.021180247209102,-0.011357906423955,0.008426402619648,0.000171288868343,0.002454996202985
0.864,-0.021180439533445,-0.011355814896721,0.008436331363876,0.00017496707141,0.002452544067607
0.868,-0.021179405790099,-0.011355887018349,0.008445178283673,0.000175207476839,0.002454924081356
0.872,-0.02117620839789,-0.011355574491291,0.008446380310819,0.000172130287345,0.002456414595018
0.876,-0.021173732221969,-0.011355526410205,0.008441331796805,0.000164413273066,0.00245232770272
0.88,-0.021173131208396,-0.011354540747945,0.008439264310113,0.000167827030161,0.002453289324437
0.884,-0.021173299492196,-0.01135326659917,0.008440081688573,0.000174342017294,0.002454010540725
0.888,-0.02117349181654,-0.011352425180168,0.008445707175617,0.000171889881916,0.002454443270498
0.892,-0.02117546314106,-0.011355261964233,0.00845361651424,0.000173067868519,0.0024552846895
0.896,-0.021181016506475,-0.011356127423779,0.008441764526578,0.000174438179466,0.002457929149222
0.9,-0.021185007236601,-0.011357690059069,0.008433446498725,0.00017027916554,0.002461751595547
0.904,-0.021185103398773,-0.011360214316076,0.008447462135251,0.000168115516676,0.002462376649663
0.908,-0.021185992898861,-0.011359156532187,0.008448568000225,0.000170255124997,0.002458626324967
0.912,-0.021187363209808,-0.011358387234814,0.008442221296893,0.000169654111424,0.002458289757366
0.916,-0.021188589277497,-0.011358242991556,0.008429407687514,0.00016847612482,0.002459419662883
0.92,-0.021186593912434,-0.011356415910294,0.008436908336907,0.000168524205906,0.002455404892215
0.924,-0.021185151479858,-0.011358675721329,0.008439216229027,0.000171505233229,0.00245429902724
0.928,-0.02118762765578,-0.011360598964763,0.008441668364406,0.000175664247155,0.00245413074344
0.932,-0.021190272115502,-0.011362233721682,0.008443375242954,0.000173789084807,0.002454395189412
0.936,-0.021190079791158,-0.011364181005659,0.008443038675353,0.000172635138746,0.002454563473212
0.94,-0.021186425628633,-0.01136230584331,0.008442870391552,0.000173716963178,0.002456751162619
0.944,-0.021183300358053,-0.011359420978159,0.008441091391376,0.000174462220009,0.00245487600027
0.948,-0.021181425195705,-0.011358819964586,0.008436018836818,0.000174894949781,0.002457352176192
0.952,-0.021181040547018,-0.011359973910647,0.008435610147589,0.000174245855122,0.00245684732479
0.956,-0.021180223168559,-0.011361464424308,0.008435441863788,0.000173765044264,0.00245586166253
0.96,-0.021178035479153,-0.011360310478248,0.008440778864318,0.000169437746537,0.00245610206796
0.964,-0.02117760274938,-0.011359733505217,0.008443495445668,0.000168692489707,0.002457736824878
0.968,-0.02117875669544,-0.011362257762224,0.00844375989164,0.000171625435943,0.002455933784159
0.972,-0.021179021141412,-0.011361464424308,0.008443255040239,0.00017241877386,0.002453433567695
0.976,-0.02117604011409,-0.011358651680786,0.00844654859462,0.000173909287521,0.002452087297291
0.98,-0.021172554235366,-0.011356127423779,0.008445298486388,0.000173644841549,0.002455044284071
0.984,-0.021174934249115,-0.011362065437881,0.008444216661956,0.000173356355034,0.002455741459816
0.988,-0.0211797423577,-0.011361055735078,0.00844277422938,0.000170519570969,0.002455717419273
0.992,-0.021181184790276,-0.011362498167654,0.008441187553547,0.000165951867813,0.002454731757013
0.996,-0.021180199128016,-0.011361632708108,0.008442629986123,0.000166192273242,0.002452952756836
1,-0.021179429830642,-0.011361464424308,0.008443832013269,0.000168860773507,0.002450813148516
1.004,-0.021176953654721,-0.011362618370368,0.008444192621413,0.00017184180083,0.002451293959375
1.008,-0.021173948586855,-0.011362978978512,0.008441476040062,0.000171120584542,0.002451197797203
1.012,-0.021171183924419,-0.011365863843663,0.008448015067738,0.000174342017294,0.002450236175486
1.016,-0.021168851991755,-0.01136706587081,0.008455684000931,0.00017479878761,0.002449394756483
1.02,-0.021167121072664,-0.011365479194976,0.008439528756085,0.000176890314844,0.002453361446066
1.024,-0.021166231572576,-0.011363027059598,0.008424839984358,0.00017612101747,0.002454274986697
1.028,-0.021166279653662,-0.011364036762401,0.008439264310113,0.000177395166246,0.002454683675927
1.032,-0.021168635626869,-0.011364036762401,0.008437341066679,0.000175231517382,0.002455404892215
1.036,-0.02117267443808,-0.011366056168007,0.008440826945403,0.000173236152319,0.002455789540902
1.04,-0.021177145979064,-0.011367258195153,0.00844005764803,0.000173043827976,0.002453553770409
1.044,-0.021180583776703,-0.011367594762754,0.008437341066679,0.000173308273948,0.002457640662707
1.048,-0.021181329033533,-0.011366464857236,0.008440322094002,0.00017184180083,0.002459179257454
1.052,-0.021182218533622,-0.01136526283009,0.008439865323686,0.000171553314315,0.002455452973301
1.056,-0.021182627222851,-0.011365310911176,0.008437653593737,0.000170663814226,0.002453529729867
1.06,-0.021180800141589,-0.011365863843663,0.008438134404596,0.000169846435767,0.002454996202985
1.064,-0.021176088195176,-0.011367426478953,0.008437341066679,0.000170351287168,0.002454755797556
1.068,-0.0211744774788,-0.011369229519673,0.008438062282967,0.000171913922459,0.002457760865421
1.072,-0.021175775668118,-0.011369181438587,0.008439120066856,0.000171312908885,0.002459539865598
1.076,-0.021175535262688,-0.011368340019585,0.008435994796275,0.000174149692951,0.002458890770939
1.08,-0.021175847789746,-0.011373268330884,0.008432388714837,0.000174630503809,0.002456462676103
1.084,-0.021177554668294,-0.011369878614332,0.008433614782526,0.000172370692774,0.002459972595371
1.088,-0.021179525992814,-0.01137471076346,0.008436812174735,0.000167971273419,0.002461607352289
1.092,-0.021181353074076,-0.011378485128699,0.008440370175088,0.000163523772978,0.002461583311747
1.096,-0.021182362776879,-0.011378388966527,0.008443447364582,0.000162009218773,0.002460765933287
1.1,-0.02118154539842,-0.011377523506982,0.008439168147942,0.000165062367725,0.002461463109032
1.104,-0.02117998276313,-0.011376249358207,0.00843397539067,0.000163523772978,0.002462544933464
1.108,-0.0211795740739,-0.011378268763813,0.008438374810025,0.000166961570616,0.002461294825231
1.112,-0.021179790438786,-0.011378893817929,0.008442822310466,0.000171986044087,0.002459780271027
1.116,-0.021180679938874,-0.011378364925984,0.00844219725635,0.00017225049006,0.002460285122429
1.12,-0.021183083993167,-0.01137939866933,0.008437893999167,0.000168572286992,0.00246177563609
1.124,-0.021184189858141,-0.011377475425896,0.008439865323686,0.000166072070528,0.002463362311923
1.128,-0.021184694709543,-0.011375648344634,0.008431835782349,0.000160903353799,0.002460405325143
1.132,-0.021184790871715,-0.011378605331414,0.008432556998637,0.000161552448458,0.002459972595371
1.136,-0.021184310060856,-0.011381562318193,0.008441379877891,0.000164437313609,0.00246078997383
1.14,-0.021183468641854,-0.011378965939558,0.008445058080958,0.000165471056955,0.002459852392656
1.144,-0.021182579141765,-0.011377956236755,0.008445995662132,0.000164966205553,0.002455837621987
1.148,-0.021183204195881,-0.011378340885441,0.008443663729469,0.000165302773154,0.002457183892391
1.152,-0.021186930480035,-0.011378124520555,0.008445082121501,0.000168379962649,0.002458385919537
1.156,-0.021189959588443,-0.01137824472327,0.008443255040239,0.00017027916554,0.002459900473742
1.16,-0.02118935857487,-0.011378941899015,0.008445106162044,0.000171192706171,0.00246078997383
1.164,-0.021189238372156,-0.011381538277651,0.008445827378332,0.000173308273948,0.002462665136178
1.168,-0.021192339602193,-0.011385000115832,0.008437124701793,0.000170784016941,0.002462448771292
1.172,-0.021196282251233,-0.01138177868308,0.008436812174735,0.000164701759581,0.002460261081886
1.176,-0.021195416791688,-0.01137783603404,0.008443327161868,0.000160855272713,0.002461270784688
1.18,-0.021191450102105,-0.011378797655757,0.008444336864671,0.000165158529897,0.002460140879171
1.184,-0.021190151912787,-0.011378917858472,0.00844654859462,0.000167394300389,0.00246276129835
1.188,-0.021190632723645,-0.011377403304267,0.008442053013093,0.000168500165363,0.002462376649663
1.192,-0.021191594345362,-0.011376129155492,0.008439576837171,0.000170327246625,0.002460814014373
1.196,-0.021192363642736,-0.011378076439469,0.00844121159409,0.000169221381651,0.002459251379083
1.2,-0.021194166683455,-0.011378941899015,0.008445947581047,0.000169077138393,0.002457857027593
1.204,-0.02119272425088,-0.011376946533952,0.008443206959153,0.000169774314138,0.002457808946507
1.208,-0.02119034423713,-0.011375768547348,0.008438038242424,0.000168548246449,0.002457977230308
1.212,-0.021189550899214,-0.011379855439646,0.0084347206475,0.000165807624556,0.002460020676456
1.216,-0.021188997966726,-0.011379302507159,0.008428902836113,0.000165134489354,0.002463771001153
1.22,-0.021188180588267,-0.011377235020467,0.008433061850039,0.000168764611335,0.002463506555181
1.224,-0.021188973926184,-0.011382283534481,0.008436884296364,0.000174846868695,0.002460814014373
1.228,-0.021189502818128,-0.011383437480542,0.008440850985946,0.000170759976398,0.002460261081886
1.232,-0.021190656764188,-0.011383365358913,0.008442702107752,0.000160855272713,0.002461054419802
1.236,-0.021192243440021,-0.011382812426426,0.008438687337083,0.00015869162385,0.002461487149575
1.24,-0.021193349304996,-0.011384807791488,0.008439480675,0.000166023989442,0.002459083095282
1.244,-0.021193950318569,-0.011384254859001,0.00844202897255,0.000167081773331,0.002457544500535
1.248,-0.021194190723998,-0.011384038494115,0.008443158878067,0.000168956935679,0.002457592581621
1.252,-0.021196402453947,-0.01138079302082,0.008443904134898,0.000170255124997,0.002457135811305
1.256,-0.021197868927066,-0.01137997564236,0.008442389580694,0.000167081773331,0.002455957824702
1.26,-0.021200489346245,-0.01138293262914,0.008434071552841,0.000162898718862,0.002457977230308
1.264,-0.021203855022254,-0.011384110615744,0.008433230133839,0.000163427610806,0.00246218432532
1.268,-0.021203662697911,-0.011385529007776,0.008442990594267,0.000166625003015,0.0024602130008
1.272,-0.021203181887052,-0.01138802922424,0.008449072851627,0.000168836732964,0.002457640662707
1.276,-0.021204167549312,-0.011386370426779,0.008450779730175,0.000169077138393,0.002456558838275
1.28,-0.021202220265335,-0.011385120318546,0.008448183351539,0.000168091476133,0.002458001270851
1.284,-0.021201162481447,-0.01138432698063,0.008441548161691,0.000166096111071,0.002459611987227
1.288,-0.021200104697558,-0.011385553048319,0.008438927742512,0.00016494216501,0.002457616622164
1.292,-0.021197628521637,-0.01138588961592,0.008448471838054,0.000167033692245,0.002456390554475
1.296,-0.021196763062091,-0.011386706994379,0.008450298919316,0.000170687854769,0.002456799243704
1.3,-0.021196642859377,-0.011389062967586,0.008441860688749,0.000171673517029,0.002458938852025
1.304,-0.021194503251056,-0.011385216480718,0.008435778431389,0.000167394300389,0.002461222703603
1.308,-0.021192555967079,-0.011381394034393,0.008436090958447,0.000163283367548,0.002461030379259
1.312,-0.021190632723645,-0.011382307575024,0.008438567134368,0.000168548246449,0.002459732189941
1.316,-0.021187507453065,-0.011381874845252,0.008443711810554,0.000174414138923,0.002459419662883
1.32,-0.021186257344833,-0.01138276434534,0.00844178856712,0.000173476557749,0.00245963602777
1.324,-0.02118606502049,-0.011384615467145,0.008443351202411,0.000169101178936,0.002457784905964
1.328,-0.021185632290717,-0.011385336683433,0.008447341932536,0.000166456719215,0.002458794608767
1.332,-0.021186185223204,-0.011387211845781,0.008446981324392,0.000168764611335,0.002456462676103
1.336,-0.021186593912434,-0.011385529007776,0.008442894432095,0.000170110881739,0.002455092365157
1.34,-0.021185536128545,-0.011385000115832,0.008441500080605,0.000167298138217,0.002458073392479
1.344,-0.021183468641854,-0.011387572453925,0.008441524121148,0.000165711462384,0.002460501487315
1.348,-0.02118327631751,-0.011389447616273,0.008436884296364,0.000164028624379,0.002460814014373
1.352,-0.021185512088002,-0.011386370426779,0.008436139039533,0.000164749840667,0.002458746527681
1.356,-0.021188156547724,-0.011387139724152,0.008442293418522,0.000168379962649,0.002459611987227
1.36,-0.021188132507181,-0.011388101345869,0.008443255040239,0.000171673517029,0.002460477446772
1.364,-0.02118762765578,-0.011385168399632,0.008446572635163,0.000173380395577,0.002458482081709
1.368,-0.021187675736866,-0.011385673251034,0.008452678933066,0.000166360557043,0.002459443703426
1.372,-0.02118935857487,-0.011387788818811,0.008453953081841,0.000167201976045,0.002459059054739
1.376,-0.021189478777585,-0.011388654278356,0.008452991460124,0.000170952300742,0.002459443703426
1.38,-0.021187675736866,-0.011389111048672,0.008451428824834,0.000171721598115,0.002459035014196
1.384,-0.021187026642207,-0.011391731467851,0.008450322959859,0.000166985611159,0.002459587946684
1.388,-0.02118779593958,-0.011393414305856,0.008449866189543,0.000166625003015,0.002461511190118
1.392,-0.021187339169265,-0.011394784616802,0.008445106162044,0.000168259759934,0.002462376649663
1.396,-0.02118582461506,-0.011392596927396,0.008434648525872,0.000168428043734,0.002461607352289
1.4,-0.021183709047283,-0.011393438346399,0.008442389580694,0.000166456719215,0.002462809379436
1.404,-0.021182579141765,-0.011395746238519,0.008442341499608,0.000167033692245,0.002460164919714
1.408,-0.021182170452536,-0.011394303805944,0.008444288783585,0.000166793286815,0.00246078997383
1.412,-0.021182386817422,-0.011392861373368,0.008436018836818,0.0001665048003,0.002458506122252
1.416,-0.021182338736336,-0.011392741170654,0.008444288783585,0.000167514503103,0.002459732189941
1.42,-0.021182891668823,-0.011389062967586,0.008442942513181,0.000165422975869,0.002457929149222
1.424,-0.021183180155339,-0.011389712062245,0.008443495445668,0.000161119718685,0.002459443703426
1.428,-0.021183132074253,-0.011394039359972,0.008441500080605,0.000162153462031,0.002460814014373
1.432,-0.021183709047283,-0.011395361589833,0.008438975823598,0.000164918124467,0.002458578243881
1.436,-0.021184045614884,-0.011394808657345,0.00843669197202,0.000170423408797,0.002458626324967
1.44,-0.021182410857965,-0.011393342184227,0.008422700376038,0.000171000381827,0.002458962892568
1.444,-0.021181737722763,-0.011390457319076,0.008412170618237,0.000168692489707,0.002460597649487
1.448,-0.021181906006564,-0.011394472089744,0.008425176551959,0.000163668016235,0.002457760865421
1.452,-0.02117817972241,-0.011393847035628,0.008435225498902,0.000162297705288,0.002458097433022
1.456,-0.021174188992285,-0.011395265427661,0.008440778864318,0.000167875111247,0.002458121473565
1.46,-0.021175727587032,-0.011396828062951,0.008441187553547,0.000167995313962,0.002460862095459
1.464,-0.021179237506299,-0.011397188671095,0.008440129769659,0.000165975908356,0.002463698879524
1.468,-0.021180944384846,-0.011395241387118,0.008440418256174,0.000163980543293,0.002462472811835
1.472,-0.021181088628104,-0.0113939431978,0.008441884729292,0.000166432678672,0.002462953622693
1.476,-0.021180247209102,-0.011396275130464,0.00844202897255,0.000167033692245,0.002463578676809
1.48,-0.021179862560415,-0.01139452017083,0.008438182485682,0.00016987047631,0.002462088163148
1.484,-0.021181040547018,-0.011395962603406,0.008436090958447,0.000169533908709,0.002462208365863
1.488,-0.021183011871538,-0.011394255724858,0.008442365540151,0.00016946178708,0.002462280487491
1.492,-0.021184478344657,-0.011395025022232,0.008437893999167,0.00016929350328,0.002459972595371
1.496,-0.02118269934448,-0.011398727265842,0.008436283282791,0.000168283800477,0.002462256446948
1.5,-0.021179453871185,-0.01139706846838,0.00844178856712,0.000168668449164,0.002462064122605
1.504,-0.021178420127839,-0.011396828062951,0.008442581905037,0.00016871653025,0.002463290190294
1.508,-0.021178828817069,-0.01139805413064,0.008442173215807,0.000169509868166,0.002464636460698
1.512,-0.02118031933073,-0.011394592292459,0.00843710066125,0.000174630503809,0.002462568974006
1.516,-0.02118212237145,-0.011394568251916,0.008440009566944,0.00017398140915,0.002461222703603
1.52,-0.021183059952624,-0.011399712928102,0.008450178716601,0.000167466422017,0.002461030379259
1.524,-0.02118229065525,-0.011400313941675,0.008446260108105,0.000159989813168,0.002462809379436
1.528,-0.02118229065525,-0.011400482225476,0.008441379877891,0.000163643975692,0.002460188960257
1.532,-0.021182362776879,-0.01139690018458,0.008432244471579,0.00017027916554,0.002461054419802
1.536,-0.021182651263394,-0.011398751306385,0.008438783499255,0.000166673084101,0.002460333203514
1.54,-0.021182843587738,-0.011400890914705,0.008439576837171,0.000163018921576,0.002459611987227
1.544,-0.021182747425566,-0.011400890914705,0.008441067350833,0.000163716097321,0.00245922733854
1.548,-0.021182939749909,-0.011399761009188,0.008440971188661,0.000166600962472,0.002461607352289
1.552,-0.021181906006564,-0.011397597360325,0.008443134837524,0.000165422975869,0.002462016041519
1.556,-0.021179357709013,-0.011398655144213,0.00844202897255,0.00016477388121,0.002460261081886
1.56,-0.021178492249468,-0.011397453117067,0.008442918472638,0.000168187638305,0.002464660501241
1.564,-0.021179093263041,-0.011397693522496,0.008444360905213,0.000168524205906,0.00246415564984
1.568,-0.021178660533269,-0.011401972739137,0.00844145199952,0.000168500165363,0.002465141312099
1.572,-0.021177458506122,-0.011401828495879,0.008440562499431,0.000173067868519,0.002466944352819
1.576,-0.021176472843862,-0.011399592725387,0.008436090958447,0.000173476557749,0.00246687223119
1.58,-0.021176953654721,-0.011398607063127,0.008440514418345,0.000173933328064,0.002469588812541
1.584,-0.021178780735983,-0.01140454507723,0.008446740918963,0.000171481192686,0.002472906407464
1.588,-0.021179405790099,-0.011404569117773,0.008435057215101,0.000168644408621,0.002474877731984
1.592,-0.021180679938874,-0.011403775779856,0.008435802471932,0.000170471489883,0.002472690042578
1.596,-0.021180703979417,-0.011402453549996,0.008441067350833,0.000167875111247,0.002468146379965
1.6,-0.021179694276614,-0.011401395766107,0.008440971188661,0.000170591692598,0.002466415460875
1.604,-0.021178660533269,-0.011403198806826,0.008437653593737,0.000171865841373,0.002467304960963
1.608,-0.021179189425213,-0.011405578820576,0.008444937878244,0.000169317543823,0.002466727987933
1.612,-0.021179766398243,-0.011405987509806,0.008445827378332,0.000168836732964,0.002464588379612
1.616,-0.021181425195705,-0.011405578820576,0.008439264310113,0.000169750273595,0.002464924947213
1.62,-0.021181641560591,-0.011403246887912,0.008435826512475,0.000174846868695,0.002467833852907
1.624,-0.02118055973616,-0.011402717995968,0.008438903701969,0.00017027916554,0.002468506988109
1.628,-0.0211795740739,-0.011406804888265,0.008442750188837,0.000163259327005,0.002467785771821
1.632,-0.021178059519695,-0.011407189536952,0.00844162028332,0.000164894083924,0.002466271217617
1.636,-0.02117719406015,-0.01140257375271,0.008431931944521,0.00017027916554,0.002466415460875
1.64,-0.021178227803496,-0.011404136388,0.008440298053459,0.000173091909062,0.002468603150281
1.644,-0.021178107600781,-0.011404857604288,0.008452390446551,0.000177611531132,0.002469588812541
1.648,-0.021176328600605,-0.011405098009717,0.008454722379214,0.000175183436296,0.002467593447478
1.652,-0.02117702577635,-0.011406083671977,0.00844868820294,0.000157513637246,0.002468002136708
1.656,-0.021178348006211,-0.011406973172065,0.00844318291861,0.000132655715862,0.00246901183951
1.66,-0.021178540330554,-0.011407766509982,0.008443615648383,0.000108158402621,0.002468098298879
1.664,-0.021178444168382,-0.011406155793606,0.008433326296011,8.618534638707E-05,0.002467713650192
1.668,-0.021178372046754,-0.011404112347457,0.008421378146177,7.83000483075835E-05,0.002469709015255
1.672,-0.021177097897978,-0.011404761442116,0.00843101840389,8.67142383314258E-05,0.002473194893979
1.676,-0.021174862127486,-0.011404496996144,0.008440201891287,0.000102148266889,0.002471271650545
1.68,-0.021174573640971,-0.011405506698947,0.008445995662132,0.000119745944311,0.002469228204397
1.684,-0.021173732221969,-0.011407117415323,0.008447918905566,0.00014808974442,0.002471752461404
1.688,-0.021170967559533,-0.011406035590891,0.008450996095061,0.000171481192686,0.002470742758601
1.692,-0.02116995785673,-0.011404400833972,0.008445779297246,0.000179102044793,0.002471103366745
1.696,-0.021170606951389,-0.011403727698771,0.008446115864847,0.000183741869578,0.002470117704485
1.7,-0.021172962924595,-0.011404929725917,0.008453087622295,0.000184559248037,0.002471199528917
1.704,-0.021173371613825,-0.011404448915058,0.008448255473167,0.000176481625614,0.002471463974889
1.708,-0.021173804343598,-0.011405218212432,0.008441500080605,0.000171769679201,0.002474973894156
1.712,-0.021176232438433,-0.011401684252622,0.008429239403713,0.000174991111953,0.002476969259219
1.716,-0.021177410425036,-0.01140298244194,0.008439096026313,0.000178549112306,0.002476945218676
1.72,-0.021178420127839,-0.01140750206401,0.008442413621237,0.000179847301624,0.002472401556063
1.724,-0.021179141344127,-0.01140848772627,0.008434985093473,0.000181482058543,0.002468410825937
1.728,-0.021178636492726,-0.011406251955778,0.008442822310466,0.00017833274742,0.002466776069018
1.732,-0.021178949019784,-0.011409088739843,0.00844712556765,0.000177635571675,0.00246802617725
1.736,-0.021180127006387,-0.011410819658934,0.00844770254068,0.000178452950134,0.00246843486648
1.74,-0.02118055973616,-0.011411468753593,0.008449697905743,0.000173716963178,0.002466535663589
1.744,-0.021180824182132,-0.011410579253504,0.008454025203469,0.000176169098556,0.002467713650192
1.748,-0.021181208830819,-0.011410891780562,0.00845106821669,0.000176842233758,0.002465574041872
1.752,-0.021181978128192,-0.011410699456219,0.008446837081135,0.000174630503809,0.002463097865951
1.756,-0.021181449236248,-0.011411492794135,0.008442822310466,0.000176072936385,0.002465598082415
1.76,-0.021181064587561,-0.011412935226711,0.008444144540327,0.000176241220185,0.002465574041872
1.764,-0.021180511655074,-0.011411108145449,0.008448471838054,0.000177491328417,0.00246646354196
1.768,-0.021180006803672,-0.011410266726446,0.008450515284202,0.000178236585248,0.002467497285306
1.772,-0.0211795740739,-0.011410098442646,0.00844811122991,0.000177755774389,0.002467954055622
1.776,-0.021177963357524,-0.011407934793782,0.008448495878597,0.000178140423076,0.002471271650545
1.78,-0.021178420127839,-0.011408054996497,0.008451765392434,0.000177467287874,0.002473146812894
1.784,-0.021179646195529,-0.011413151591597,0.008451284581576,0.000173260192862,0.002473050650722
1.788,-0.02118130499299,-0.011410867740019,0.008450154676058,0.000173091909062,0.002471992866833
1.792,-0.021182002168735,-0.011408944496585,0.008461285447433,0.000178188504162,0.002470382150457
1.796,-0.021180848222675,-0.011411348550878,0.00845558783876,0.00018006366651,0.002470021542313
1.8,-0.021179237506299,-0.011410314807532,0.00844301463481,0.000181698423429,0.002469300326026
1.804,-0.021177049816893,-0.011406251955778,0.008443110796981,0.000180400234111,0.002469444569283
1.808,-0.021174838086943,-0.011412839064539,0.008442341499608,0.000180328112482,0.002470093663942
1.812,-0.02117053482976,-0.011413295834855,0.008446668797334,0.000184246720979,0.002469516690912
1.816,-0.021167072991579,-0.011412839064539,0.00845008255443,0.000186338248214,0.002469853258513
1.82,-0.021166712383435,-0.011412694821282,0.008450467203116,0.000181241653114,0.002470165785571
1.824,-0.021166904707778,-0.01141358432137,0.008445058080958,0.000181337815285,0.002469372447654
1.828,-0.021165991167147,-0.011416108578377,0.008442173215807,0.000181001247684,0.002469901339599
1.832,-0.021165101667059,-0.011415892213491,0.008449481540857,0.000176794152672,0.002471199528917
1.836,-0.021166952788864,-0.011415988375662,0.008452318324922,0.000178693355563,0.00247196882629
1.84,-0.02117094351899,-0.011414858470145,0.00845123650049,0.000182732166775,0.002472593880406
1.844,-0.021175294857259,-0.011416324943263,0.008437365107222,0.000187203707759,0.002470742758601
1.848,-0.021178323965668,-0.011416156659463,0.008434696606958,0.00018516026161,0.002467954055622
1.852,-0.021179646195529,-0.011417358686609,0.00845065952746,0.00017792405819,0.002468482947566
1.856,-0.021178540330554,-0.011416276862178,0.008450875892346,0.000178020220362,0.002470334069371
1.86,-0.021175847789746,-0.011413464118655,0.008445899499961,0.000176601828329,0.002471415893803
1.864,-0.021175102532916,-0.011411420672507,0.008439264310113,0.000177900017647,0.002472281353348
1.868,-0.021174357276085,-0.011413103510511,0.008433374377097,0.000179751139452,0.002472906407464
1.872,-0.021175391019431,-0.011413127551054,0.008442461702322,0.00017907800425,0.002470069623399
1.876,-0.021177386384494,-0.011411084104906,0.008454962784644,0.000178981842079,0.002470959123487
1.88,-0.02117777103318,-0.011413968970057,0.008455924406361,0.000181698423429,0.002473002569636
1.884,-0.021175607384317,-0.011416901916294,0.008447750621766,0.000180255990854,0.002474637326555
1.888,-0.021174116870656,-0.011414353618744,0.008443158878067,0.000179342450222,0.00247278620475
1.892,-0.021172842721881,-0.011412983307797,0.008448543959682,0.000183934193921,0.00247475752927
1.896,-0.021172217667765,-0.011417551010953,0.008450755689632,0.000178476990677,0.002474276718411
1.9,-0.021171953221792,-0.011416974037922,0.008445971621589,0.000175688287698,0.002472064988462
1.904,-0.021171352208219,-0.011417719294753,0.008448159310996,0.00017931840968,0.002473242975065
1.908,-0.021171183924419,-0.011419474254387,0.008454626217043,0.000177755774389,0.002473675704838
1.912,-0.021172434032651,-0.011419618497644,0.00845082781126,0.000174077571322,0.002473218934522
1.916,-0.021172289789393,-0.011421253254563,0.008436595809849,0.000174846868695,0.002474877731984
1.92,-0.021172193627222,-0.011423344781798,0.008436860255821,0.000176385463443,0.002473122772351
1.924,-0.021172962924595,-0.011420700322076,0.008446115864847,0.000173644841549,0.002475310461757
1.928,-0.021173443735454,-0.01142024355176,0.00845106821669,0.00017578444987,0.002476608651075
1.932,-0.021174092830113,-0.011418945362442,0.008442750188837,0.000180760842255,0.002475190259042
1.936,-0.021175198695087,-0.011414065132228,0.008427123835936,0.000183765910121,0.002474396921126
1.94,-0.021174838086943,-0.011415916254034,0.008436499647677,0.000178068301447,0.002472810245293
1.944,-0.021174116870656,-0.011421397497821,0.008447390013622,0.000170591692598,0.002471992866833
1.948,-0.021174525559885,-0.011420219511217,0.008446764959506,0.000173284233405,0.002473627623752
1.952,-0.02117366010034,-0.011418632835384,0.008445394648559,0.000176072936385,0.002473218934522
1.956,-0.021172482113737,-0.011417863538011,0.008451837514063,0.000174894949781,0.002472593880406
1.96,-0.021172193627222,-0.011418945362442,0.008447630419051,0.000173212111777,0.002472329434434
1.964,-0.02117053482976,-0.011417815456925,0.008441548161691,0.000173428476663,0.002473627623752
1.968,-0.021168707748498,-0.011415820091862,0.00844359160784,0.000175640206612,0.002473916110267
1.972,-0.02116815481601,-0.011414185334943,0.008446644756791,0.000174029490236,0.002473651664295
1.976,-0.021166496018548,-0.011416901916294,0.008446837081135,0.000172154327888,0.002474973894156
1.98,-0.021166712383435,-0.011422022551937,0.008443206959153,0.000170110881739,0.002476536529446
1.984,-0.021168323099811,-0.011422599524967,0.008437581472109,0.000170952300742,0.002478243407994
1.988,-0.021169356843157,-0.011423921754828,0.008438182485682,0.000172154327888,0.002477762597135
1.992,-0.021168178856553,-0.011422575484424,0.00843710066125,0.000170014719567,0.002479637759483
1.996,-0.021165702680632,-0.01142163790325,0.008437701674823,0.000171721598115,0.002481777367804
2,-0.021164909342715,-0.011419594457101,0.008443615648383,0.000173428476663,0.002481801408347
2.004,-0.021165510356288,-0.011419931024702,0.008456453298305,0.000172514936032,0.002481801408347
2.008,-0.021164909342715,-0.011420411835561,0.008456453298305,0.000171673517029,0.002478339570165
2.012,-0.021163947720998,-0.011424811254916,0.008447462135251,0.000170663814226,0.002477281786277
2.016,-0.021165582477917,-0.011427022984865,0.008447438094708,0.000171312908885,0.002478676137766
2.02,-0.02116757784298,-0.011424787214373,0.008447149608193,0.000170952300742,0.00247903674591
2.024,-0.021167361478094,-0.011423537106141,0.008446332229733,0.000168019354505,0.002478435732337
2.028,-0.021167457640265,-0.011423945795371,0.008446909202764,0.000167562584189,0.002478531894509
2.032,-0.02116839522144,-0.011423633268313,0.008446187986476,0.000172154327888,0.002478411691794
2.036,-0.021168082694381,-0.0114243544846,0.008447774662309,0.000171745638658,0.002479156948625
2.04,-0.021167217234836,-0.011425075700888,0.008443062715896,0.000170543611512,0.002477137543019
2.044,-0.021167048951036,-0.011424162160257,0.008441908769835,0.000169846435767,0.002476680772704
2.048,-0.021168491383611,-0.011423753471027,0.008443375242954,0.000171769679201,0.002475959556416
2.052,-0.021168226937639,-0.011422912052025,0.008447462135251,0.000174053530779,0.002476392286188
2.056,-0.021167601883523,-0.011420868605876,0.008445250405302,0.000176601828329,0.002477281786277
2.06,-0.021168202897096,-0.011423104376368,0.008447942946109,0.000176505666157,0.002477858759307
2.064,-0.021167842288952,-0.011424931457631,0.008444769594443,0.000177851936561,0.00247805108365
2.068,-0.021166880667235,-0.011423152457454,0.008436643890934,0.000178885679907,0.002477594313335
2.072,-0.021168467343068,-0.011420003146331,0.008429840417287,0.000177443247331,0.00247886846211
2.076,-0.021170318464874,-0.011425965200976,0.008436139039533,0.000173957368607,0.002476825015961
2.08,-0.021170390586502,-0.011427672079524,0.008438951783055,0.000173524638835,0.002476031678045
2.084,-0.0211695491675,-0.01142615752532,0.008444625351186,0.000177779814932,0.002480238773057
2.088,-0.021167601883523,-0.011425652673918,0.008442413621237,0.000179005882622,0.002481873529975
2.092,-0.021167601883523,-0.011425364187403,0.008438735418169,0.000181217612571,0.002480887867716
2.096,-0.021169356843157,-0.01142558055229,0.008435249539445,0.000180135788139,0.002482162016491
2.1,-0.021170462708131,-0.011425965200976,0.008438759458712,0.00017299574689,0.002483291922008
2.104,-0.021170967559533,-0.011424522768401,0.008451428824834,0.000168908854593,0.002482162016491
2.108,-0.021170679073017,-0.011425484390118,0.008448664162397,0.000166360557043,0.002479974327084
2.112,-0.02117012614053,-0.011429739566216,0.008442726148295,0.000167105813874,0.002482017773233
2.116,-0.021169645329672,-0.011430316539246,0.00843849501274,0.000169750273595,0.002481609084003
2.12,-0.021170150181073,-0.011429523201329,0.00844202897255,0.000174750706524,0.002479205029711
2.124,-0.021170823316275,-0.011430052093274,0.008441379877891,0.000175592125526,0.002477233705191
2.128,-0.021170919478447,-0.011430989674448,0.008444865756615,0.000174173733494,0.002477594313335
2.132,-0.021170919478447,-0.011430388660875,0.008441572202234,0.000171457152143,0.002480984029887
2.136,-0.021170991600075,-0.011428585620155,0.008441956850921,0.000172514936032,0.002480767665001
2.14,-0.021170991600075,-0.011429378958072,0.008445635053989,0.000174630503809,0.002481945651604
2.144,-0.021173684140883,-0.011430725228476,0.008449193054341,0.000176072936385,0.002481921611061
2.148,-0.021176136276261,-0.011431446444763,0.008446236067562,0.000177202841902,0.002481633124546
2.152,-0.021177843154809,-0.011429162593186,0.008441692404949,0.000176818193215,0.002480046448713
2.156,-0.021178444168382,-0.011430244417617,0.008435826512475,0.000171553314315,0.002478988664824
2.16,-0.021179189425213,-0.011429306836443,0.008437437228851,0.000171673517029,0.002481272516402
2.164,-0.021179694276614,-0.011426446011835,0.008441860688749,0.000176457585071,0.002480455137943
2.168,-0.021179501952271,-0.01143010017436,0.008436860255821,0.000176553747243,0.002480046448713
2.172,-0.021180752060503,-0.011427359552466,0.008436764093649,0.000172611098203,0.002480455137943
2.176,-0.021183781168912,-0.011427047025408,0.008439288350656,0.000172082206259,0.002479782002741
2.18,-0.021185199560944,-0.011429955931102,0.008441331796805,0.000170423408797,0.002479132908082
2.184,-0.021185944817775,-0.011432167661051,0.008443110796981,0.000169750273595,0.002480959989344
2.188,-0.021186545831348,-0.011431999377251,0.008442053013093,0.000172707260375,0.002482258178662
2.192,-0.02118606502049,-0.011429979971645,0.008448928608369,0.00017751536896,0.00248141675966
2.196,-0.021185536128545,-0.011433465850369,0.008454241568356,0.00017578444987,0.002483484246351
2.2,-0.021187146844921,-0.011436302634434,0.008447462135251,0.000171168665628,0.002484517989697
2.204,-0.021188396953153,-0.011436831526379,0.008432364674294,0.000169678151967,0.002484734354584
2.208,-0.021187868061209,-0.011433369688197,0.008437821877538,0.000170519570969,0.002485744057386
2.212,-0.021189887466815,-0.011432191701594,0.008446187986476,0.000173236152319,0.002488628922537
2.216,-0.021190801007446,-0.011433057161139,0.008452510649265,0.000174870909238,0.002487330733219
2.22,-0.021190079791158,-0.01143461979643,0.00845279913578,0.000170976341284,0.002483844854495
2.224,-0.021189478777585,-0.011434571715344,0.008450491243659,0.000173861206436,0.002485816179015
2.228,-0.021188060385552,-0.011433489890912,0.008452438527636,0.000173765044264,0.0024855276925
2.232,-0.021187988263924,-0.011434451512629,0.008453472270982,0.00017554404444,0.002485984462816
2.236,-0.021189382615413,-0.011433706255798,0.008440346134545,0.000177707693304,0.002486224868245
2.24,-0.021189959588443,-0.011432552309738,0.00844613990539,0.000178957801536,0.002485623854672
2.244,-0.021191065453418,-0.011430340579789,0.008447991027195,0.000173596760463,0.002489590544254
2.248,-0.021190873129075,-0.011432624431367,0.008440971188661,0.000172178368431,0.002489302057739
2.252,-0.021189839385729,-0.011433970701771,0.008441596242777,0.000173596760463,0.002487474976477
2.256,-0.021190488480388,-0.011436158391177,0.00844104331029,0.000175760409327,0.002485503651957
2.26,-0.021192363642736,-0.011437528702123,0.008443735851097,0.000174414138923,0.002486224868245
2.264,-0.021194046480741,-0.011437600823752,0.00844654859462,0.000170351287168,0.002485455570871
2.268,-0.0211946955754,-0.011436398796606,0.008445875459418,0.000166817327358,0.002484445868068
2.272,-0.021192531926536,-0.011438682648184,0.008451164378861,0.00016066294837,0.002483099597665
2.276,-0.02119190687242,-0.011437552742666,0.00844827951371,0.000161384164657,0.00248199373269
2.28,-0.02119411860237,-0.011433273526026,0.008445466770188,0.000168500165363,0.002481729286718
2.284,-0.021195488913316,-0.011434018782856,0.008444192621413,0.000169269462737,0.002481296556945
2.288,-0.02119642649449,-0.011434764039687,0.008437317026136,0.000166072070528,0.002482642827349
2.292,-0.021196594778291,-0.011432985039511,0.008436980458535,0.000164918124467,0.002482787070607
2.296,-0.021195585075488,-0.011430484823046,0.008432100228322,0.000168211678848,0.002483123638208
2.3,-0.02119370991314,-0.011433297566569,0.00843866329654,0.000167418340932,0.002485623854672
2.304,-0.021191353939933,-0.01143889901307,0.008441500080605,0.000170351287168,0.002487426895391
2.308,-0.021189478777585,-0.011439259621214,0.008448303554253,0.000174702625438,0.002487931746793
2.312,-0.021188829682926,-0.011440221242931,0.008445106162044,0.000174077571322,0.002486465273674
2.316,-0.021187026642207,-0.011439283661757,0.008442798269923,0.000177323044617,0.002486176787159
2.32,-0.021185752493432,-0.011437937391353,0.008445034040415,0.000175880612041,0.002487426895391
2.324,-0.021184502385199,-0.011438634567098,0.008443832013269,0.000174197774036,0.002489326098282
2.328,-0.021182723385023,-0.011440509729446,0.008442269377979,0.000174245855122,0.002491345503888
2.332,-0.021182627222851,-0.011440221242931,0.008447678500137,0.000174654544352,0.002488532760366
2.336,-0.021184045614884,-0.011436014147919,0.008451957716778,0.000165422975869,0.002488027908964
2.34,-0.021183156114796,-0.011435725661404,0.008436499647677,0.00016280255669,0.002487595179192
2.344,-0.021180968425389,-0.011435966066833,0.008434480242071,0.000163932462207,0.002486970125076
2.348,-0.021180175087473,-0.011436807485836,0.008443543526754,0.000159965772625,0.002489854990227
2.352,-0.021180054884758,-0.011435845864119,0.008448423756968,0.000159701326653,0.002492691774292
2.356,-0.021177843154809,-0.011434547674801,0.008450443162574,0.000163259327005,0.002490552165971
2.36,-0.02117719406015,-0.011435653539775,0.008444913837701,0.000166769246273,0.002488941449595
2.364,-0.021179069222498,-0.01143815375624,0.008439144107399,0.000169101178936,0.00248987903077
2.368,-0.021178708614354,-0.011438874972527,0.00843570630976,0.000169029057308,0.002490768530858
2.372,-0.021176977695264,-0.011437216175065,0.008441019269747,0.000161624570087,0.002492114801262
2.376,-0.021174814046401,-0.011435605458689,0.008440298053459,0.000160807191627,0.002491345503888
2.38,-0.021173732221969,-0.011436422837149,0.008432220431036,0.000165663381298,0.002488316395479
2.384,-0.021174381316628,-0.011436663242578,0.008440802904861,0.000165182570439,0.002486176787159
2.388,-0.021174357276085,-0.011436951729093,0.00844827951371,0.000167634705818,0.002488508719823
2.392,-0.021172794640795,-0.011438634567098,0.008446404351362,0.000171553314315,0.002487571138649
2.396,-0.021172482113737,-0.011440581851075,0.008442149175264,0.000169221381651,0.002485888300644
2.4,-0.021172001302878,-0.011439860634787,0.008442341499608,0.000170423408797,0.002485720016843
2.404,-0.021171207964962,-0.011439644269901,0.008442341499608,0.000171096543999,0.002484974760013
2.408,-0.021170630991932,-0.011441158824105,0.008444048378155,0.000169317543823,0.002487474976477
2.412,-0.021170871397361,-0.011442625297224,0.008443663729469,0.000167226016588,0.002488749125252
2.416,-0.021173395654368,-0.01144284166211,0.008444433026842,0.000165254692068,0.002489903071312
2.42,-0.021176472843862,-0.011441831959307,0.008445178283673,0.000165879746184,0.002493485112208
2.424,-0.021177843154809,-0.011443586918941,0.008439552796628,0.000167634705818,0.002496610382789
2.428,-0.021178612452183,-0.011439956796959,0.008427989295481,0.000168860773507,0.002496922909847
2.432,-0.021180295290188,-0.011436470918235,0.008430465471403,0.000172442814403,0.002495913207044
2.436,-0.021179550033357,-0.011441880040393,0.008436331363876,0.000173164030691,0.002493725517638
2.44,-0.021178612452183,-0.011441254986277,0.008436716012563,0.00017496707141,0.002492259044519
2.444,-0.021178396087296,-0.011443923486542,0.008436018836818,0.000172490895489,0.002490864693029
2.448,-0.021179237506299,-0.011443947527085,0.008440418256174,0.00016847612482,0.002487378814305
2.452,-0.021180199128016,-0.01144300994591,0.008441860688749,0.000164749840667,0.002483267881465
2.456,-0.02118113670919,-0.011444332175771,0.008442822310466,0.000164389232523,0.002483604449066
2.46,-0.021178564371097,-0.011442144486365,0.008445514851274,0.000164437313609,0.002483652530152
2.464,-0.021174958289658,-0.011441134783562,0.008440442296717,0.000172394733317,0.002484421827526
2.468,-0.0211746457626,-0.011441807918764,0.008439552796628,0.000174005449693,0.002485094962727
2.472,-0.021174405357171,-0.011442625297224,0.008440899067032,0.000169125219479,0.002485215165442
2.476,-0.021176857492549,-0.01144127902682,0.008440346134545,0.00017282746309,0.002484493949154
2.48,-0.021179237506299,-0.011442985905368,0.008439432593914,0.000173212111777,0.002484085259925
2.484,-0.021178131641324,-0.011443803283827,0.008441548161691,0.000172202408974,0.002485984462816
2.488,-0.021177218100693,-0.011445029351516,0.008445226364759,0.0001714331116,0.002488701044166
2.492,-0.021177097897978,-0.011444380256857,0.00844811122991,0.000159124353622,0.002489374179368
2.496,-0.021176376681691,-0.011442865702653,0.008447221729822,0.000129241958766,0.002488172152222
2.5,-0.021176929614178,-0.011442240648537,0.008442581905037,0.000102965645349,0.002486705679103
2.504,-0.0211795740739,-0.011441182864648,0.008445178283673,8.5824738243191E-05,0.002489374179368
2.508,-0.021181449236248,-0.011444957229887,0.008446500513534,7.67614535603667E-05,0.002488845287424
2.512,-0.021181785803849,-0.011445630365089,0.008449385378685,8.95269818536816E-05,0.002489253976654
2.516,-0.02118072801996,-0.011446039054319,0.00845082781126,0.000108254564792,0.002489999233484
2.52,-0.021179550033357,-0.011446183297577,0.008437244904508,0.000126573458502,0.002491850355289
2.524,-0.021179429830642,-0.011446279459748,0.008445586972903,0.000153715231464,0.002491537828231
2.528,-0.021179525992814,-0.011445269756945,0.008449794067915,0.000171962003544,0.002492162882347
2.532,-0.021178780735983,-0.011446087135405,0.008444072418698,0.000173837165893,0.002493388950037
2.536,-0.021178492249468,-0.011446231378662,0.008443351202411,0.000170976341284,0.002493268747322
2.54,-0.021178323965668,-0.011446159257034,0.008447942946109,0.000169942597939,0.002494254409582
2.544,-0.021179429830642,-0.011446015013776,0.008445178283673,0.000171288868343,0.002492379247234
2.548,-0.021179814479329,-0.011446760270607,0.008444793634986,0.000175880612041,0.00249398996361
2.552,-0.021178804776526,-0.01144481298663,0.008445106162044,0.000173380395577,0.002495023706956
2.556,-0.021176929614178,-0.01144752956798,0.008445490810731,0.000170880179113,0.002493821679809
2.56,-0.021175607384317,-0.011446688148978,0.008444865756615,0.000173067868519,0.002493196625693
2.564,-0.021174357276085,-0.011443707121655,0.008427989295481,0.000174197774036,0.002493629355466
2.568,-0.021172962924595,-0.011440750134875,0.008416185388905,0.000174125652408,0.002492475409405
2.572,-0.021172145546136,-0.011448731595127,0.008437268945051,0.000171312908885,0.002493845720352
2.576,-0.021172313829936,-0.011449212405985,0.008450467203116,0.000170976341284,0.002496105531387
2.58,-0.021173587978711,-0.011449645135758,0.008444192621413,0.000171312908885,0.002499831815541
2.584,-0.021174188992285,-0.011450799081818,0.008445490810731,0.000175279598468,0.002499567369568
2.588,-0.021174573640971,-0.011449669176301,0.008452751054694,0.00017225049006,0.002497235436905
2.592,-0.021174838086943,-0.01144793825721,0.008453520352068,0.00016789915179,0.002498293220793
2.596,-0.021176761330378,-0.011450366352046,0.008449193054341,0.000171625435943,0.002496081490844
2.6,-0.021178540330554,-0.01145089524399,0.008439504715543,0.000174366057837,0.002494038044696
2.604,-0.021180247209102,-0.01144851523024,0.008442798269923,0.000176433544529,0.002493100463522
2.608,-0.021180175087473,-0.011446760270607,0.008449024770541,0.000175231517382,0.002492619652663
2.612,-0.021177843154809,-0.011448467149154,0.008449625784114,0.000175712328241,0.002494230369039
2.616,-0.021176376681691,-0.011452337676565,0.008441692404949,0.000175135355211,0.002496874828761
2.62,-0.021176905573635,-0.011451111608876,0.008441500080605,0.000167875111247,0.002499735653369
2.624,-0.02117760274938,-0.011452001108965,0.008446740918963,0.000163740137864,0.002498557666766
2.628,-0.021178251844039,-0.011452794446881,0.008447317891993,0.000171745638658,0.002498221099165
2.632,-0.021179838519872,-0.011449284527614,0.008449000729998,0.00017398140915,0.002496394017902
2.636,-0.021180944384846,-0.011448611392412,0.008450202757144,0.000167586624732,0.002495240071842
2.64,-0.021182218533622,-0.011451039487247,0.008448087189367,0.000162682353975,0.002497547963963
2.644,-0.021183564804025,-0.011450534635846,0.008451428824834,0.000167129854416,0.002498389382965
2.648,-0.021184502385199,-0.011452842527967,0.008447630419051,0.000172442814403,0.00250163485626
2.652,-0.021184887033886,-0.011448779676213,0.008428806673941,0.000173596760463,0.002502957086121
2.656,-0.021184189858141,-0.011443635000027,0.008425440997931,0.000172034125173,0.002501682937346
2.66,-0.021182939749909,-0.011449765338472,0.00843611499899,0.000172346652231,0.002502572437434
2.664,-0.021181040547018,-0.011450654838561,0.008452150041121,0.000172202408974,0.002502163748204
2.668,-0.021178780735983,-0.011450919284533,0.008457246636221,0.000174149692951,0.002502283950919
2.672,-0.021176544965491,-0.011449717257387,0.008451212459947,0.000176048895842,0.002503726383495
2.676,-0.021175679505946,-0.011450702919647,0.00844770254068,0.000175207476839,0.002504976491727
2.68,-0.021176496884405,-0.011454068595656,0.008452366406008,0.000177371125703,0.002505144775527
2.684,-0.021177939316981,-0.011452169392765,0.008444192621413,0.0001816263018,0.002504207194353
2.688,-0.02118015104693,-0.011448010378839,0.00844359160784,0.000181890747773,0.002504279315982
2.692,-0.021181809844392,-0.011451207771048,0.008453712676411,0.000180159828682,0.00250401487001
2.696,-0.021183252276967,-0.011455775474204,0.008460780596031,0.00017965497728,0.002503894667295
2.7,-0.021183011871538,-0.011455919717461,0.008452919338495,0.000178981842079,0.002503077288836
2.704,-0.021185271682573,-0.011456184163433,0.008450851851803,0.000172274530602,0.002505457302585
2.708,-0.021188805642383,-0.011454405163257,0.008444144540327,0.000172971706347,0.002504856289012
2.712,-0.021189478777585,-0.011454861933573,0.008435057215101,0.000177250922988,0.00250673145136
2.716,-0.021189286453242,-0.011458251650125,0.008431691539092,0.000178957801536,0.002507476708191
2.72,-0.021189118169441,-0.011456328406691,0.008439456634457,0.000179751139452,0.002504880329555
2.724,-0.021189382615413,-0.011453010811767,0.008442221296893,0.000181770545058,0.002504351437611
2.728,-0.021189935547901,-0.011454405163257,0.008438062282967,0.000183669747949,0.002504495680868
2.732,-0.021190656764188,-0.011456184163433,0.008448039108281,0.000185737234641,0.002503918707838
2.736,-0.021189959588443,-0.011457674677095,0.008448568000225,0.000181698423429,0.002502115667119
2.74,-0.021189647061385,-0.011458443974468,0.008446981324392,0.000175279598468,0.002501250207573
2.744,-0.021190440399302,-0.011455462947146,0.008447870824481,0.000178621233935,0.002500528991285
2.748,-0.021192339602193,-0.011454284960542,0.008449986392258,0.000180857004427,0.002501851221146
2.752,-0.021195993764718,-0.011455486987689,0.008447774662309,0.000180328112482,0.00250163485626
2.756,-0.021197676602722,-0.011456376487777,0.008451020135604,0.000172563017118,0.002499351004682
2.76,-0.021197099629692,-0.011459165190756,0.008449337297599,0.000171000381827,0.002498148977536
2.764,-0.021194431129428,-0.01145680921755,0.008443110796981,0.00017578444987,0.002498846153281
2.768,-0.021191954953506,-0.011456496690492,0.008450707608546,0.000167394300389,0.002500192423684
2.772,-0.021191786669706,-0.011458179528496,0.00845106821669,0.000162057299859,0.002500865558886
2.776,-0.021191065453418,-0.01146108843419,0.008452029838407,0.000165687421841,0.002503413856436
2.78,-0.021191041412875,-0.011461352880162,0.008447630419051,0.000169798354681,0.002501562734631
2.784,-0.021189623020843,-0.01145656881212,0.008440586539974,0.000170808057484,0.002503173451007
2.788,-0.021187531493608,-0.011453491622626,0.008429095160456,0.000167610665275,0.002503461937522
2.792,-0.021186377547548,-0.011447553608523,0.008435826512475,0.000165831665098,0.002502572437434
2.796,-0.021185992898861,-0.011455294663345,0.008437365107222,0.000167754908532,0.002503798505123
2.8,-0.021188493115325,-0.011456472649949,0.008443543526754,0.000168668449164,0.002506082356701
2.804,-0.021192003034592,-0.011456088001262,0.008449577703028,0.000166673084101,0.00250632276213
2.808,-0.021194094561827,-0.011454813852487,0.008450683568003,0.000166865408444,0.002505625586386
2.812,-0.0211946955754,-0.011457770839267,0.008447438094708,0.000169918557396,0.002504423559239
2.816,-0.021194767697029,-0.011458804582612,0.008437869958624,0.000166576921929,0.002502957086121
2.82,-0.021193806075312,-0.011457818920352,0.008446620716248,0.000165855705641,0.002503750424037
2.824,-0.021192580007622,-0.01145813144741,0.008441812607663,0.000165134489354,0.002502283950919
2.828,-0.021192459804908,-0.011459285393471,0.008444937878244,0.000164677719038,0.002504663964669
2.832,-0.021193782034769,-0.011459814285415,0.008442053013093,0.000166769246273,0.002504808207926
2.836,-0.021195705278203,-0.011455799514747,0.008441884729292,0.000171505233229,0.002502596477977
2.84,-0.021196763062091,-0.011452890609053,0.008448351635339,0.000172659179289,0.002500264545313
2.844,-0.021197051548606,-0.01145344354154,0.00844827951371,0.000164389232523,0.002502163748204
2.848,-0.02119765256218,-0.011454934055201,0.00844770254068,0.000159701326653,0.002503654261866
2.852,-0.021196522656662,-0.011458780542069,0.008438062282967,0.000161648610629,0.002504447599782
2.856,-0.021195657197117,-0.011461833691021,0.008444817675529,0.000168644408621,0.00250673145136
2.86,-0.021193493548253,-0.011461376920705,0.008445370608016,0.000170759976398,0.00250673145136
2.864,-0.021188997966726,-0.011459069028585,0.008436884296364,0.000165663381298,0.00250476012684
2.868,-0.021186834317863,-0.011460631663875,0.008437076620707,0.000164870043381,0.002504255275439
2.872,-0.021186738155691,-0.011459213271842,0.008439456634457,0.000163259327005,0.00250516881607
2.876,-0.021185512088002,-0.011458347812297,0.008441403918434,0.00016575954347,0.002504038910553
2.88,-0.021183997533798,-0.011457987204153,0.008437461269394,0.000166264394871,0.002502860923949
2.884,-0.021183156114796,-0.011460150853016,0.008435201458359,0.000162562151261,0.002500793437258
2.888,-0.02118253106068,-0.011461737528849,0.008439288350656,0.000163355489177,0.00250221182929
2.892,-0.02118113670919,-0.011464430069657,0.00844260594558,0.000163451651349,0.002504447599782
2.896,-0.021181737722763,-0.011464117542599,0.008442485742865,0.000166552881386,0.002505048613355
2.9,-0.021183035912081,-0.011460295096274,0.008444408986299,0.000167947232876,0.002507019937875
2.904,-0.021182218533622,-0.01145993448813,0.008439528756085,0.000166168232699,0.002507644991991
2.908,-0.021181930047106,-0.011458876704241,0.008441716445492,0.000164990246096,0.002507765194706
2.912,-0.021185584209631,-0.011462843393824,0.008436066917904,0.000167226016588,0.002509760559769
2.916,-0.021189815345186,-0.011465824421147,0.008437653593737,0.000172538976575,0.002509207627281
2.92,-0.021192075156221,-0.011466064826576,0.008441476040062,0.000170110881739,0.00250656316756
2.924,-0.021192628088708,-0.011461352880162,0.008433278214925,0.000168259759934,0.002506659329731
2.928,-0.02119190687242,-0.011459742163786,0.008445707175617,0.000169654111424,0.002506491045931
2.932,-0.021192075156221,-0.01146601674549,0.008435658228675,0.00016830784102,0.002507404586562
2.936,-0.02119272425088,-0.01146387713717,0.008433037809496,0.00016789915179,0.002508630654251
2.94,-0.021191666466991,-0.011462747231652,0.008432124268865,0.000169149260022,0.00250829408665
2.944,-0.021190969291246,-0.011461112474733,0.008440850985946,0.000165422975869,0.002507885397421
2.948,-0.021191281818304,-0.011462410664051,0.008443351202411,0.000162441948546,0.002507356505476
2.952,-0.021193181021195,-0.011462290461337,0.008446644756791,0.000163451651349,0.002508197924479
2.956,-0.021193397386082,-0.011465319569745,0.008446380310819,0.000166096111071,0.002510025005741
2.96,-0.021191474142648,-0.011465968664404,0.008444937878244,0.000167610665275,0.002509592275968
2.964,-0.021192964656309,-0.01146519936703,0.00843808632351,0.00016535085424,0.002508366208279
2.968,-0.021194310926713,-0.011462963596538,0.008426186254762,0.000161576489001,0.002508895100223
2.972,-0.021194984061915,-0.011460535501703,0.008428902836113,0.000159148394165,0.002509159546196
2.976,-0.02119544083223,-0.011460150853016,0.008439336431742,0.000160446583483,0.002507068018961
2.98,-0.021195633156574,-0.011461232677448,0.00844162028332,0.000162538110718,0.002502452234719
2.984,-0.021196450535033,-0.011465487853546,0.008442509783408,0.000165567219126,0.002504062951095
2.988,-0.021196883264806,-0.011468204434896,0.008443303121325,0.00016337952972,0.002506418924302
2.992,-0.021195921643089,-0.011467627461866,0.008444505148471,0.000162610232346,0.002504375478153
2.996,-0.021193806075312,-0.011464814718344,0.008452919338495,0.000163860340579,0.002503221532093
3,-0.021193757994226,-0.011466545637434,0.008443423324039,0.000170399368254,0.002503894667295
3.004,-0.021195032143001,-0.011467194732093,0.00843512933673,0.000171697557572,0.002507644991991
3.008,-0.021195128305172,-0.011466473515806,0.008436283282791,0.000169942597939,0.002508390248822
3.012,-0.02119231556165,-0.011466353313091,0.008437773796452,0.000166144192156,0.002508414289365
3.016,-0.021189863426272,-0.011460391258445,0.008431523255291,0.000160783151084,0.002505914072901
3.02,-0.021190031710072,-0.011465656137346,0.00842649878182,0.000160759110541,0.002504375478153
3.024,-0.021190031710072,-0.01146873332684,0.00843767763428,0.000162345786374,0.002501562734631
3.028,-0.021188348872067,-0.011468444840325,0.008433374377097,0.000163139124291,0.002502981126664
3.032,-0.021185343804202,-0.011467915948381,0.008436643890934,0.000163331448634,0.002505986194529
3.036,-0.02118426197977,-0.011466233110376,0.008443952215984,0.000163595894606,0.002504231234896
3.04,-0.021186978561121,-0.011464309866942,0.008443543526754,0.000162658313432,0.002504159113267
3.044,-0.021189935547901,-0.011464309866942,0.008439264310113,0.000162538110718,0.002506010235072
3.048,-0.021192411723822,-0.011466473515806,0.00844022593183,0.000163884381122,0.002507620951448
3.052,-0.021193445467168,-0.011468492921411,0.008447582337965,0.000163692056778,0.002505865991815
3.056,-0.021192652129251,-0.011471257583848,0.008444216661956,0.00016494216501,0.002504519721411
3.06,-0.021192291521107,-0.011471185462219,0.008443351202411,0.000169702192509,0.002505914072901
3.064,-0.021190488480388,-0.011468084232182,0.008452150041121,0.000167418340932,0.002510169248998
3.068,-0.021188949885641,-0.011467435137523,0.008443423324039,0.000166673084101,0.002508871059681
3.072,-0.021187315128722,-0.011468685245755,0.008442509783408,0.000164557516323,0.002510145208456
3.076,-0.021185343804202,-0.011470488286474,0.00845025083823,0.00016280255669,0.00251026541117
3.08,-0.02118409369597,-0.011470896975704,0.008449505581399,0.000162754475604,0.002510409654428
3.084,-0.021183588844568,-0.011473397192168,0.008445514851274,0.000165302773154,0.002509928843569
3.088,-0.021183252276967,-0.011473325070539,0.008440370175088,0.000164533475781,0.002511924208632
3.092,-0.021184213898684,-0.01147012767833,0.008430802039004,0.000163067002662,0.002511731884289
3.096,-0.021184382182485,-0.011467435137523,0.008434696606958,0.00016378821895,0.002512981992521
3.1,-0.021185151479858,-0.011467627461866,0.00844532252693,0.000159605164481,0.002510529857142
3.104,-0.021185415925831,-0.011469454543128,0.008444625351186,0.000160975475428,0.002507332464933
3.108,-0.021184911074429,-0.011471161421676,0.008441908769835,0.000167226016588,0.002509472073254
3.112,-0.021185055317687,-0.011470320002674,0.008438615215454,0.000167754908532,0.002513198357407
3.116,-0.021184790871715,-0.011471281624391,0.008441908769835,0.000165398935326,0.002515217763013
3.12,-0.021183877331083,-0.011474358813885,0.008450443162574,0.000163980543293,0.002514953317041
3.124,-0.02118212237145,-0.011471041218961,0.008457559163279,0.000164894083924,0.002515049479212
3.128,-0.021182482979594,-0.01147094505679,0.008444096459241,0.000167851070704,0.00251182804646
3.132,-0.021181809844392,-0.011472603854251,0.008429527890229,0.000166889448987,0.002509327829996
3.136,-0.021179622154986,-0.011471810516335,0.008432773363523,0.00016674520573,0.002510962586915
3.14,-0.021178804776526,-0.011472892340767,0.008434167715013,0.000166552881386,0.002512741587091
3.144,-0.021178420127839,-0.011472844259681,0.008433879228498,0.000166072070528,0.002511419357231
3.148,-0.021176929614178,-0.011470151718873,0.008417002767365,0.000169341584366,0.002510409654428
3.152,-0.021175775668118,-0.011464526231829,0.008417411456594,0.000174005449693,0.002516299587444
3.156,-0.021176064154633,-0.011472844259681,0.008440009566944,0.00017003876011,0.002516515952331
3.16,-0.021176929614178,-0.011474382854428,0.008448351635339,0.000167706827447,0.002513655127723
3.164,-0.021176689208749,-0.011475128111259,0.008432653160809,0.000166360557043,0.002510626019314
3.168,-0.021175294857259,-0.011474815584201,0.008422676335495,0.000173260192862,0.002512501181662
3.172,-0.021173395654368,-0.0114744790166,0.0084296240524,0.00017612101747,0.002513823411523
3.176,-0.02117111180279,-0.011473373151625,0.008435033174558,0.00016847612482,0.002511227032887
3.18,-0.021169597248586,-0.011471858597421,0.008442509783408,0.0001563116101,0.002509736519226
3.184,-0.021168082694381,-0.011472748097509,0.008438278647853,0.000161552448458,0.002514833114326
3.188,-0.021166760464521,-0.011472026881221,0.008439144107399,0.000169990679025,0.002513366641208
3.192,-0.021164789140001,-0.011472315367736,0.00843808632351,0.000161840934973,0.002511924208632
3.196,-0.021162577410052,-0.011471401827105,0.008441019269747,0.000150469758169,0.002514232100753
3.2,-0.021163755396655,-0.011472820219138,0.008434167715013,0.00015022935274,0.002513679168266
3.204,-0.021165269950859,-0.011473829921941,0.008434432160985,0.000157345353446,0.002513991695324
3.208,-0.021166375815834,-0.011474166489542,0.008433999431213,0.000159821529367,0.002510890465286
3.212,-0.021165822883347,-0.011475128111259,0.008435778431389,0.000159340718509,0.00251026541117
3.216,-0.021163827518284,-0.011474767503115,0.00844178856712,0.000160326380769,0.002512549262748
3.22,-0.021161134977476,-0.011473733759769,0.008449721946286,0.000158619502221,0.002516539992874
3.224,-0.021158706882641,-0.011472435570451,0.008433879228498,0.000160374461854,0.002517934344363
3.228,-0.021160173355759,-0.011473373151625,0.008429696174029,0.000163067002662,0.00251831899305
3.232,-0.021163563072312,-0.011476474381662,0.008439264310113,0.000162826597233,0.002519472939111
3.236,-0.021166856626692,-0.011475488719402,0.008430417390317,0.000161648610629,0.002518535357936
3.24,-0.021166039248233,-0.011474695381486,0.008420272281202,0.000162610232346,0.00251971334454
3.244,-0.021164500653486,-0.011476955192521,0.008429167282085,0.000162081340402,0.002517621817305
3.248,-0.021165390153574,-0.011478806314326,0.008440442296717,0.000161768813344,0.002515145641384
3.252,-0.021166784505064,-0.011478373584554,0.008439023904684,0.000161864975516,0.002516083222558
3.256,-0.021167649964609,-0.011477916814238,0.008427748890052,0.000158932029279,0.002515337965727
3.26,-0.021169044316099,-0.01147858994944,0.0084347206475,0.00015746555616,0.00251437634401
3.264,-0.021170775235189,-0.011480056422558,0.008436451566591,0.000162201543117,0.00251791030382
3.268,-0.021171736856906,-0.011479215003556,0.008441524121148,0.000164846002839,0.002516371709073
3.272,-0.021172361911022,-0.011476498422205,0.008434888931301,0.000164293070351,0.002516443830702
3.276,-0.021171760897449,-0.011474935786915,0.008431042444433,0.000164269029808,0.002518607479565
3.28,-0.021172818681338,-0.011473589516511,0.008415175686102,0.000163259327005,0.002525819642443
3.284,-0.02117349181654,-0.011470368083759,0.008413012037239,0.000162369826917,0.002526132169501
3.288,-0.021174525559885,-0.011472074962307,0.008428037376567,0.000157441515618,0.002523992561181
3.292,-0.021174381316628,-0.011477267719579,0.008423661997755,0.000156864542587,0.002522598209691
3.296,-0.021174333235542,-0.011475296395059,0.008432965687867,0.000163692056778,0.002520915371686
3.3,-0.021174790005858,-0.011476690746549,0.008449914270629,0.000160398502397,0.002516708276674
3.304,-0.021173011005681,-0.011477099435778,0.008455515717131,0.000154364326123,0.002516660195588
3.308,-0.021172409992108,-0.011477676408809,0.008434816809672,0.000159653245567,0.002518006465992
3.312,-0.021173131208396,-0.011477484084465,0.008428277781996,0.000160013853711,0.002519641222911
3.316,-0.02117308312731,-0.01147858994944,0.008427508484623,0.000162514070175,0.002518631520108
3.32,-0.021171352208219,-0.01147916692247,0.00843298972841,0.000171312908885,0.002516251506359
3.324,-0.021169260680985,-0.011478133179124,0.008432532958094,0.000174918990324,0.002514424425096
3.328,-0.021168803910669,-0.011477099435778,0.008431811741806,0.000173236152319,0.002516395749616
3.332,-0.021165895004975,-0.011481667138934,0.00842986445783,0.000166625003015,0.002517982425449
3.336,-0.02116166386942,-0.011482244111964,0.008436163080076,0.000153450785492,0.002516780398303
3.34,-0.021160822450418,-0.011478037016953,0.00843808632351,0.000126188809815,0.002517862222735
3.344,-0.021161711950506,-0.011476979233064,0.008436595809849,0.000101571293859,0.002517309290247
3.348,-0.021163899639912,-0.011477964895324,0.008444961918787,8.47429138115542E-05,0.002516564033417
3.352,-0.021164067923713,-0.011477940854781,0.008441500080605,6.86117095087023E-05,0.00251831899305
3.356,-0.021163106301996,-0.011478565908897,0.008432244471579,7.25783990913708E-05,0.002518655560651
3.36,-0.021163154383082,-0.011478349544011,0.008439817242601,9.10655766008985E-05,0.002516107263101
3.364,-0.021163587112854,-0.011481883503821,0.008440778864318,0.000108206483707,0.002515337965727
3.368,-0.02116404388317,-0.011484311598656,0.008432845485152,0.00013313652672,0.002514929276498
3.372,-0.02116642389692,-0.011482821084995,0.008417603780938,0.000159196475251,0.002515145641384
3.376,-0.021168515424154,-0.011477339841208,0.00841705084845,0.000167033692245,0.002515963019843
3.38,-0.021169909775644,-0.011484503922999,0.008427099795393,0.000167827030161,0.002516636155045
3.384,-0.021171496451477,-0.011483325936396,0.008434335998814,0.00016871653025,0.002515458168442
3.388,-0.021171977262335,-0.011480777638846,0.008435345701616,0.000169125219479,0.002517525655134
3.392,-0.021172313829936,-0.011483133612053,0.008439264310113,0.000167298138217,0.002518871925537
3.396,-0.021172818681338,-0.01148154693622,0.008446187986476,0.000163860340579,0.002519400817482
3.4,-0.021172794640795,-0.011481907544364,0.008444072418698,0.000162417908003,0.002523079020549
3.404,-0.021173155248939,-0.01148113824699,0.008429119200999,0.000165134489354,0.00252267033132
3.408,-0.021173371613825,-0.011477339841208,0.008430393349774,0.00016592782727,0.002520314358113
3.412,-0.021172458073194,-0.011478157219667,0.00844063462106,0.000162465989089,0.002523559831408
3.416,-0.021173275451653,-0.011476762868178,0.008437124701793,0.000167418340932,0.002522790534034
3.42,-0.021173900505769,-0.011474935786915,0.008441668364406,0.00017455838218,0.002522333763719
3.424,-0.02117226574885,-0.011479215003556,0.008438903701969,0.00016987047631,0.002521203858201
3.428,-0.02117168877582,-0.011482316233593,0.008437749755909,0.000161672651172,0.002520723047343
3.432,-0.021171857059621,-0.011481282490247,0.008437461269394,0.000160134056425,0.002518583439022
3.436,-0.021172914843509,-0.011481739260563,0.008439168147942,0.00016905309785,0.002517982425449
3.44,-0.021174453438257,-0.011481522895677,0.008437268945051,0.000169173300565,0.002521131736572
3.444,-0.021174958289658,-0.011485874233946,0.008435033174558,0.000170808057484,0.002524930142355
3.448,-0.0211744774788,-0.011487989801724,0.008438278647853,0.000170832098027,0.002526973588503
3.452,-0.021173275451653,-0.011485153017658,0.008440730783232,0.000168067435591,0.002528127534564
3.456,-0.021173155248939,-0.011481979665992,0.008434576404243,0.000169221381651,0.002526637020902
3.46,-0.021172337870479,-0.011481162287533,0.008428998998284,0.000168235719391,0.002526180250587
3.464,-0.02117111180279,-0.011480056422558,0.008436860255821,0.000166961570616,0.002521828912317
3.468,-0.021172121505593,-0.011484744328429,0.008437942080252,0.000168283800477,0.002522622250234
3.472,-0.021172866762424,-0.011486258882633,0.008440899067032,0.000166192273242,0.002523151142178
3.476,-0.021174285154456,-0.011486859896206,0.008441379877891,0.000171096543999,0.002521179817658
3.48,-0.021172626356994,-0.011485345342002,0.00843849501274,0.00017792405819,0.002521300020373
3.484,-0.021170174221616,-0.011484071193227,0.008446356270276,0.000176914355387,0.002523487709779
3.488,-0.02116995785673,-0.011486739693492,0.008444120499784,0.00016871653025,0.002525819642443
3.492,-0.021173107167853,-0.011487292625979,0.008442101094178,0.000168668449164,0.002525675399185
3.496,-0.021175967992461,-0.011486835855663,0.008437749755909,0.000166552881386,0.002524713777468
3.5,-0.021176689208749,-0.011486403125891,0.008428277781996,0.000165975908356,0.002522718412405
3.504,-0.02117777103318,-0.01148919182887,0.008420392483917,0.000170086841196,0.002524257007153
3.508,-0.021178348006211,-0.011486907977292,0.008405847955447,0.000172154327888,0.002525771561357
3.512,-0.02117801143861,-0.011480344909073,0.008417844186367,0.00017102442237,0.002529954615826
3.516,-0.021176472843862,-0.011485201098744,0.008424551497843,0.000174822828153,0.002532959683692
3.52,-0.021175391019431,-0.011486258882633,0.008427989295481,0.000178428909591,0.002530699872657
3.524,-0.021172986965138,-0.011485754031232,0.008435369742159,0.000178236585248,0.002528560264336
3.528,-0.021170414627045,-0.011485778071775,0.008443110796981,0.000177202841902,0.00253130088623
3.532,-0.02117053482976,-0.011487653234123,0.008438206526225,0.000177323044617,0.00253204614306
3.536,-0.021172458073194,-0.011485104936573,0.008429912538915,0.000175399801183,0.002532406751204
3.54,-0.021174669803143,-0.01148623484209,0.008435898634104,0.00017496707141,0.002531661494374
3.544,-0.021176665168206,-0.011489384153213,0.008435417823245,0.000174918990324,0.00252932956171
3.548,-0.021180343371273,-0.011489624558643,0.008435177417816,0.00017439009838,0.002531204724058
3.552,-0.021183468641854,-0.011488398490953,0.008436187120619,0.000177972139276,0.002530195021255
3.556,-0.021180968425389,-0.011489119707241,0.008438903701969,0.000178236585248,0.002530531588856
3.56,-0.021177530627751,-0.011486715652949,0.008438062282967,0.000177323044617,0.002531901899803
3.564,-0.021175967992461,-0.011487869599009,0.008439144107399,0.000181770545058,0.002531733616002
3.568,-0.021175799708661,-0.011489480315385,0.008438975823598,0.000182371558631,0.002530964318629
3.572,-0.021177386384494,-0.011487557071951,0.008433855187955,0.000176193139099,0.00252949784551
3.576,-0.021178299925125,-0.011489023545069,0.008437581472109,0.000169317543823,0.002533584737808
3.58,-0.021176184357347,-0.011489312031585,0.008450226797687,0.000166576921929,0.002532118264689
3.584,-0.021172073424507,-0.011489720720814,0.008455251271159,0.000167682786904,0.002530771994285
3.588,-0.021173347573282,-0.011488398490953,0.008445514851274,0.000168836732964,0.002531132602429
3.592,-0.021177218100693,-0.011488542734211,0.008442557864494,0.000167971273419,0.002532502913376
3.596,-0.021179958722587,-0.011488879301812,0.008425320795217,0.000166769246273,0.002530940278086
3.6,-0.021182218533622,-0.011487076261092,0.008428181619825,0.000167706827447,0.002531733616002
3.604,-0.021182482979594,-0.011489744761357,0.008434528323157,0.00016871653025,0.00253228654849
3.608,-0.021180752060503,-0.011488134044981,0.008431571336377,0.000166192273242,0.002530531588856
3.612,-0.021177458506122,-0.011486619490777,0.008433759025783,0.0001665048003,0.002526877426332
3.616,-0.02117719406015,-0.011488110004438,0.008437172782879,0.000164100746008,0.002529089156281
3.62,-0.021177746992637,-0.011489480315385,0.008436716012563,0.000161840934973,0.002532262507947
3.624,-0.021177362343951,-0.011490321734387,0.008433927309584,0.000165447016412,0.00253442615681
3.628,-0.021174501519343,-0.01148919182887,0.008435682269217,0.000163932462207,0.002534955048754
3.632,-0.021171207964962,-0.011488326369325,0.00843791803971,0.00016066294837,0.002535507981242
3.636,-0.021170246343245,-0.011488302328782,0.008436331363876,0.000160855272713,0.00253697445436
3.64,-0.021172650397537,-0.011489119707241,0.008423421592326,0.000161913056602,0.002537118697618
3.644,-0.021172217667765,-0.011488254247696,0.008423012903096,0.000161648610629,0.002536373440787
3.648,-0.021170967559533,-0.011490225572216,0.00842510443033,0.000158114650819,0.00253303180532
3.652,-0.021167746126781,-0.011492437302165,0.008436090958447,0.000156840502044,0.00253048350777
3.656,-0.021165991167147,-0.011491403558819,0.008434576404243,0.000157898285933,0.002531925940346
3.66,-0.021168587545783,-0.011495250045687,0.00844301463481,0.000160061934796,0.002531445129487
3.664,-0.021169525126957,-0.011495634694374,0.008444072418698,0.000163115083748,0.002530940278086
3.668,-0.021170510789217,-0.01149428842397,0.008435850553018,0.000159004150908,0.002533296251293
3.672,-0.021171496451477,-0.011492677707594,0.008431763660721,0.000152224717803,0.002531974021432
3.676,-0.021171712816363,-0.011491595883162,0.008432076187779,0.000154580691009,0.002530339264513
3.68,-0.021171544532563,-0.01149231709945,0.008436836215278,0.000157177069645,0.00253031522397
3.684,-0.021169837654015,-0.011493519126596,0.00844202897255,0.000160302340226,0.002531781697088
3.688,-0.021167866329495,-0.011492605585965,0.008438062282967,0.000158763745478,0.002531204724058
3.692,-0.021166736423978,-0.011494889437543,0.008435730350303,0.000158619502221,0.002530122899626
3.696,-0.021166928748321,-0.011496812680977,0.00843356670144,0.000160085975339,0.002528704507594
3.7,-0.02116601520769,-0.011494721153743,0.008421882997578,0.000159100313079,0.002531685534917
3.704,-0.021163923680455,-0.011492701748137,0.008427171917022,0.000164028624379,0.002534137670295
3.708,-0.021160293558474,-0.011492437302165,0.008430802039004,0.000166432678672,0.002532094224146
3.712,-0.021158322233954,-0.011493110437367,0.008433879228498,0.000160807191627,0.002530747953743
3.716,-0.021158562639383,-0.0114946971132,0.008438927742512,0.000157225150731,0.002531084521343
3.72,-0.021156831720292,-0.011495009640258,0.008435970755733,0.000155109582954,0.002534522318982
3.724,-0.021154355544371,-0.011494023977998,0.008433470539268,0.000156960704759,0.002532382710661
3.728,-0.02115228805768,-0.011494216302341,0.008430080822716,0.00015515766404,0.00252932956171
3.732,-0.021149571476329,-0.011493230640081,0.008416570037592,0.000153835434179,0.002530243102341
3.736,-0.021146518327378,-0.011494528829399,0.008427965254938,0.000157321312903,0.002530243102341
3.74,-0.021145051854259,-0.011499913911015,0.008417603780938,0.000160326380769,0.002530363305056
3.744,-0.021142191029651,-0.011499841789386,0.008425416957388,0.00015869162385,0.002530964318629
3.748,-0.021139955259159,-0.011498567640611,0.00843710066125,0.000159701326653,0.002531949980889
3.752,-0.021139762934816,-0.011499168654184,0.008435489944874,0.000159484961766,0.002532094224146
3.756,-0.021140171624045,-0.011500322600244,0.008427845052224,0.000160085975339,0.002531324926773
3.76,-0.021141830421507,-0.011498928248755,0.008439576837171,0.000160013853711,0.002530050777998
3.764,-0.02114284012431,-0.011496235707947,0.008442341499608,0.000163740137864,0.002531397048401
3.768,-0.021142359313451,-0.011494600951028,0.008444961918787,0.000162177502574,0.002533224129664
3.772,-0.021142479516166,-0.011493855694197,0.008436355404419,0.000160037894253,0.002531565332202
3.776,-0.021142912245939,-0.011495610653831,0.00842551311956,0.000161167799771,0.002528776629223
3.78,-0.021142599718881,-0.011494649032114,0.00843101840389,0.000162826597233,0.002524112763895
3.784,-0.021143272854083,-0.011496019343061,0.008431282849862,0.000163932462207,0.002525483074842
3.788,-0.021147672273438,-0.011494432667228,0.008436427526048,0.000163091043205,0.002525579237014
3.792,-0.021150749462932,-0.011496091464689,0.00843825460731,0.000160975475428,0.002524689736925
3.796,-0.021150100368273,-0.011496956924235,0.008441331796805,0.000156936664216,0.002523054980006
3.8,-0.02115089370619,-0.011497798343237,0.008443615648383,0.000156215447928,0.00252440125041
3.804,-0.021153730490255,-0.011497894505409,0.00843866329654,0.000158042529191,0.002527021669589
3.808,-0.021156903841921,-0.011498134910838,0.008436619850392,0.000160783151084,0.002526492777645
3.812,-0.021159283855671,-0.011498567640611,0.008429936579458,0.00015943688068,0.002524353169324
3.816,-0.021158754963726,-0.011496812680977,0.008419887632516,0.000162297705288,0.002522886696206
3.82,-0.021159644463815,-0.011496235707947,0.008420560767717,0.000162898718862,0.002525410953213
3.824,-0.021158803044812,-0.011494576910485,0.008425416957388,0.000162682353975,0.002524713777468
3.828,-0.021157024044636,-0.011498495518982,0.008431691539092,0.000166432678672,0.002523800236837
3.832,-0.021157985666353,-0.011500587046216,0.008431114566062,0.000165254692068,0.00252283861512
3.836,-0.021159331936757,-0.01150234200585,0.008414190023842,0.000158811826564,0.002522502047519
3.84,-0.021157312531151,-0.011500827451646,0.008427388281908,0.00015828293462,0.002523439628693
3.844,-0.021155221003916,-0.011496860762063,0.00844277422938,0.000157080907474,0.002524281047696
3.848,-0.021157432733866,-0.011497606018894,0.008440850985946,0.000159557083395,0.00252440125041
3.852,-0.02115911557187,-0.011499529262328,0.008446236067562,0.000161744772801,0.002523583871951
3.856,-0.021159668504358,-0.011500659167845,0.0084496738652,0.000166264394871,0.002525074385612
3.86,-0.021160125274673,-0.011499120573098,0.00845222216275,0.000166576921929,0.00252440125041
3.864,-0.02116108689639,-0.011500274519158,0.00844145199952,0.000163307408091,0.002525410953213
3.868,-0.021161351342362,-0.011499529262328,0.008428494146883,0.000157850204847,0.002526396615473
3.872,-0.02116050992336,-0.011497798343237,0.008430273147059,0.00015885990765,0.00252776692642
3.876,-0.021160630126075,-0.011502678573451,0.008425873727704,0.00015926859688,0.002531036440258
3.88,-0.021157913544724,-0.011502486249108,0.008427316160279,0.000157850204847,0.002531036440258
3.884,-0.021156855760835,-0.011500611086759,0.008429479809143,0.000156768380416,0.002527718845334
3.888,-0.021160654166618,-0.011500827451646,0.008431138606605,0.000157441515618,0.002528199656192
3.892,-0.021162601450595,-0.011499360978527,0.008434648525872,0.000159292637423,0.002529521886053
3.896,-0.021161735991049,-0.011497053086406,0.00843710066125,0.000161576489001,0.002530916237543
3.9,-0.021159428098928,-0.01149897632984,0.008435441863788,0.000163091043205,0.0025307239132
3.904,-0.021158779004269,-0.011502943019423,0.008438927742512,0.000165543178583,0.002530122899626
3.908,-0.021160582044989,-0.011503856560054,0.008436643890934,0.000160855272713,0.002529401683339
3.912,-0.021160221436845,-0.011502462208565,0.00843020102543,0.000155085542411,0.002528199656192
3.916,-0.021157456774409,-0.011501019775989,0.008430826079547,0.000154676853181,0.002527334196647
3.92,-0.02115714424735,-0.01150390464114,0.00842666706562,0.000159172434708,0.002526757223617
3.924,-0.021159668504358,-0.01150546727643,0.008434480242071,0.000163764178407,0.002528560264336
3.928,-0.021160630126075,-0.011507077992806,0.008455107027901,0.000164990246096,0.00252793521022
3.932,-0.021159908909787,-0.01150570768186,0.008442557864494,0.000160110015882,0.002526084088415
3.936,-0.021158827085355,-0.011502101600421,0.008432052147236,0.000153787353093,0.002526997629046
3.94,-0.021158394355583,-0.011501043816532,0.008423397551783,0.000151094812285,0.002527454399362
3.944,-0.02115894728807,-0.011504048884398,0.00842707575485,0.000152897853005,0.002528680467051
3.948,-0.021158009706896,-0.011504794141228,0.008428085457653,0.000153378663863,0.00252817561565
3.952,-0.021154980598487,-0.011502221803135,0.008427123835936,0.000155205745126,0.002527598642619
3.956,-0.02115228805768,-0.011502678573451,0.008421858957035,0.000151599663687,0.002527334196647
3.96,-0.021151590881935,-0.011504265249284,0.008424839984358,0.00015022935274,0.002531252805144
3.964,-0.021151975530622,-0.011503087262681,0.008433662863612,0.000153162298977,0.002532887562063
3.968,-0.021153634328083,-0.01150020239753,0.008435369742159,0.000154316245037,0.002528247737278
3.972,-0.021152720787452,-0.011500707248931,0.00842313310581,0.000155830799242,0.002526685101988
3.976,-0.021154259382199,-0.011500490884045,0.008427748890052,0.000158739704936,0.002525819642443
3.98,-0.021155533530975,-0.01149897632984,0.008431715579635,0.000161143759228,0.002528295818364
3.984,-0.021155293125545,-0.011500394721873,0.00843200406615,0.000162345786374,0.002527574602076
3.988,-0.021155100801202,-0.011499601383957,0.008431090525519,0.000163427610806,0.00252949784551
3.992,-0.021156639395949,-0.011500611086759,0.008429888498372,0.000163259327005,0.00252949784551
3.996,-0.02115738465278,-0.011501139978704,0.008427796971138,0.000160182137511,0.002530459467227
4,-0.021156663436492,-0.011499841789386,0.00841647387542,0.000160110015882,0.00253228654849
4.004,-0.021155605652603,-0.01149880804604,0.00841844519994,0.000156191407385,0.00252892087248
4.008,-0.021157865463638,-0.011502534330193,0.008422508051694,0.000158811826564,0.002527887129134
4.012,-0.021159596382729,-0.01150193331662,0.0084243591735,0.000161504367372,0.002527430358819
4.016,-0.021158682842098,-0.011502654532908,0.008445635053989,0.000160374461854,0.002528560264336
4.02,-0.021158202031239,-0.011503303627567,0.008438326728939,0.00015984556991,0.002529377642796
4.024,-0.021158418396126,-0.011501692911191,0.008423782200469,0.000160278299683,0.002528896831937
4.028,-0.021157649098752,-0.011501139978704,0.00843397539067,0.000157417475075,0.002528872791394
4.032,-0.021156254747262,-0.011501164019247,0.008437461269394,0.00015672029933,0.002529185318452
4.036,-0.021154067057856,-0.011501572708476,0.008434672566415,0.00015712898856,0.002528800669766
4.04,-0.021153057355053,-0.011501885235534,0.008427724849509,0.000163018921576,0.002529690169854
4.044,-0.021152071692793,-0.011502438168022,0.008422411889523,0.00016535085424,0.002526829345246
4.048,-0.021150845625104,-0.01149765409998,0.00842649878182,0.000164028624379,0.002527502480448
4.052,-0.021149523395243,-0.011501115938161,0.008431042444433,0.000159821529367,0.002528464102165
4.056,-0.021148249246468,-0.011509337803841,0.008429888498372,0.000154628772095,0.002528872791394
4.06,-0.021149451273614,-0.011509145479498,0.008428037376567,0.000159172434708,0.002529449764425
4.064,-0.021149691679044,-0.011507150114435,0.008429287484799,0.000163259327005,0.002528536223793
4.068,-0.021149210868185,-0.011503784438426,0.008434480242071,0.000156407772272,0.002527526520991
4.072,-0.021148585814069,-0.01150390464114,0.008435754390846,0.000152849771919,0.002525651358642
4.076,-0.021148032881582,-0.011507510722579,0.008432701241895,0.000158763745478,0.002527069750675
4.08,-0.021147383786923,-0.011507246276607,0.008437990161338,0.000158571421135,0.002526300453301
4.084,-0.021146806813893,-0.011505683641317,0.008453472270982,0.000154556650467,0.002525290750498
4.088,-0.02114735974638,-0.011507654965836,0.008433254174382,0.000150037028397,0.002528199656192
4.092,-0.021145244178602,-0.011504096965484,0.008400799441433,0.000152441082689,0.002531156642972
4.096,-0.021143320935168,-0.011500538965131,0.008394621021901,0.000153907555808,0.002527526520991
4.1,-0.021143224772997,-0.011506837587377,0.008422652294952,0.00015393159635,0.002527550561533
4.104,-0.021144306597428,-0.011507510722579,0.00842395048427,0.000155181704583,0.002528608345422
4.108,-0.021143849827113,-0.01150842426321,0.008420440565003,0.000156047164128,0.002530411386142
4.112,-0.021142623759424,-0.011508664668639,0.008423469673411,0.000156023123585,0.002532238467404
4.116,-0.021142599718881,-0.011505659600774,0.008428205660368,0.000156191407385,0.00253286352152
4.12,-0.021143705583855,-0.011504121006026,0.00842904707937,0.000157537677789,0.002535267575812
4.124,-0.021144787408287,-0.011504289289827,0.008423397551783,0.000157657880504,0.002538753454537
4.128,-0.021145364381317,-0.01150529899263,0.008423878362641,0.000160206178054,0.002538657292365
4.132,-0.021145676908375,-0.011507534763122,0.008424190889699,0.000159316677966,0.00253894577888
4.136,-0.021143537300055,-0.011506837587377,0.008424022605899,0.000152272798889,0.002535171413641
4.14,-0.021140195664588,-0.011508760830811,0.008424575538386,0.000147801257905,0.002532911602606
4.144,-0.021141830421507,-0.011511116804018,0.008427388281908,0.00015179198803,0.002531493210573
4.148,-0.021145676908375,-0.011510419628273,0.008424791903272,0.000152969974633,0.002528728548137
4.152,-0.021145700948918,-0.011509458006556,0.00842592180879,0.00015220067726,0.002528608345422
4.156,-0.021145340340774,-0.011509698411985,0.008435610147589,0.000154460488295,0.002528367939993
4.16,-0.021144643165029,-0.011509674371442,0.0084345523637,0.00015434028558,0.002530219061798
4.164,-0.021142551637795,-0.01150940992547,0.008426114133133,0.000161167799771,0.002531805737631
4.168,-0.021140796678161,-0.011507967492895,0.008422508051694,0.000167226016588,0.00253401746758
4.172,-0.021139546569929,-0.011510996601303,0.008424791903272,0.000166865408444,0.002533007764777
4.176,-0.021138200299525,-0.011511164885104,0.00842082521369,0.000156191407385,0.002530002696912
4.18,-0.021137503123781,-0.011511597614876,0.008427003633221,0.000132319148261,0.00253048350777
4.184,-0.02113848878604,-0.011510852358046,0.00842395048427,0.000107365064704,0.002530603710485
4.188,-0.021140147583502,-0.011513040047452,0.008429575971314,8.20744135468499E-05,0.002529714210397
4.192,-0.021141061124133,-0.011514482480027,0.008431234768776,6.38997630953506E-05,0.002530916237543
4.196,-0.021140339907846,-0.011513953588083,0.008427965254938,6.24813710627601E-05,0.002532070183603
4.2,-0.021140844759247,-0.011511237006732,0.008428494146883,8.17618864888215E-05,0.002531781697088
4.204,-0.021142191029651,-0.011511188925647,0.008428325863082,9.67872258171112E-05,0.002532575035005
4.208,-0.021143056489196,-0.011511645695962,0.008428998998284,0.000119144930738,0.002533536656722
4.212,-0.021142166989108,-0.011512006304106,0.008432268512122,0.000143017189862,0.002531541291659
4.216,-0.021140147583502,-0.011512799642022,0.00843258103918,0.000156095245214,0.002529642088768
4.22,-0.021139234042871,-0.011514025709712,0.008431258809319,0.000162874678319,0.002526685101988
4.224,-0.021140556272732,-0.011516213399118,0.008433759025783,0.00016535085424,0.002528440061622
4.228,-0.021141806380964,-0.011510876398588,0.008446332229733,0.000166793286815,0.002531180683515
4.232,-0.021142359313451,-0.01151277560148,0.008443399283496,0.000160206178054,0.002531998061975
4.236,-0.021140989002505,-0.011512439033879,0.008439865323686,0.00015359502875,0.002532142305232
4.24,-0.021139786975358,-0.011511261047275,0.008430008701087,0.000156119285757,0.002532526953919
4.244,-0.021140964961962,-0.01151178993922,0.00841844519994,0.000158619502221,0.002531589372745
4.248,-0.021143849827113,-0.011511020641846,0.008419382781114,0.000161263961943,0.002533055845863
4.252,-0.021146686611178,-0.011511333168904,0.008424671700558,0.000163643975692,0.00253130088623
4.256,-0.021147960759953,-0.011511621655419,0.008425609281732,0.00016395650275,0.002530339264513
4.26,-0.02115106198999,-0.011513881466454,0.008424070686985,0.000160518705112,0.002529209358995
4.264,-0.021155701814775,-0.011514698844914,0.008432124268865,0.000159605164481,0.002529089156281
4.268,-0.021157745260924,-0.011512390952793,0.008430176984888,0.000161648610629,0.002529642088768
4.272,-0.02115796162581,-0.011512198628449,0.008430850120089,0.000162417908003,0.002529666129311
4.276,-0.021156831720292,-0.011515203696315,0.008426186254762,0.0001612399214,0.002529666129311
4.28,-0.021156134544548,-0.011514867128714,0.008433590741983,0.000161360124114,0.002530603710485
4.284,-0.021155293125545,-0.011512511155507,0.008431571336377,0.000164485394695,0.002532430791747
4.288,-0.021153802611884,-0.011511525493247,0.008428277781996,0.000164052664922,0.002533079886406
4.292,-0.021153538165912,-0.011514362277313,0.008429840417287,0.000165182570439,0.002531949980889
4.296,-0.021152528463109,-0.011514722885457,0.008433879228498,0.000166432678672,0.002530844115914
4.3,-0.021150653300761,-0.011513160250166,0.008436163080076,0.00016847612482,0.002531012399715
4.304,-0.021149835922301,-0.011512318831164,0.008434408120442,0.000166096111071,0.002529930575283
4.308,-0.021148681976241,-0.011513040047452,0.00843512933673,0.000161864975516,0.002530844115914
4.312,-0.021147431868009,-0.011514049750255,0.008433999431213,0.000163259327005,0.002530170980712
4.316,-0.021146326003034,-0.011510587912073,0.008436163080076,0.000162417908003,0.002530411386142
4.32,-0.021146902976064,-0.011510587912073,0.008436812174735,0.000163860340579,0.002527983291306
4.324,-0.02114834540864,-0.011513376615053,0.008435081255644,0.000164317110894,0.002529281480624
4.328,-0.021147071259865,-0.011512054385192,0.008439384512828,0.00015787424539,0.002529810372568
4.332,-0.021146638530092,-0.011512871763651,0.008451597108634,0.000154676853181,0.00253031522397
4.336,-0.021149475314157,-0.011512847723108,0.008429768295658,0.000155253826211,0.002530339264513
4.34,-0.021149571476329,-0.011512270750078,0.008417940348539,0.000155758677613,0.002529449764425
4.344,-0.021147600151809,-0.011513737223197,0.00841474295633,0.000160398502397,0.002528536223793
4.348,-0.021147335705837,-0.011514554601656,0.008415007402302,0.000160446583483,0.002529810372568
4.352,-0.021147167422037,-0.011517920277666,0.008431499214748,0.000159076272536,0.002529233399538
4.356,-0.021146710651721,-0.011517607750608,0.008449529621942,0.000159052231994,0.002528247737278
4.36,-0.021146085597605,-0.011516093196403,0.008443255040239,0.000163163164834,0.002529137237367
4.364,-0.021143729624398,-0.011513785304282,0.008427268079194,0.000164293070351,0.002528776629223
4.368,-0.021141133245762,-0.01151549218283,0.008433710944698,0.000163499732435,0.00252718995339
4.372,-0.021142383353994,-0.011516646128891,0.008428542227969,0.000165014286639,0.002527045710132
4.376,-0.021145604786746,-0.011517703912779,0.008434335998814,0.000164172867637,0.002526612980359
4.38,-0.021148561773526,-0.011515948953146,0.008437004499078,0.000166432678672,0.002525675399185
4.384,-0.021152023611707,-0.01151409783134,0.008436764093649,0.000169750273595,0.002524761858554
4.388,-0.021153682409169,-0.011515636426088,0.008434095593384,0.000173188071234,0.002524473372039
4.392,-0.021153321801025,-0.011513040047452,0.008433807106869,0.000174870909238,0.00252423296661
4.396,-0.021155052720116,-0.011515588345002,0.008435513985417,0.000169726233052,0.002526420656016
4.4,-0.021156302828348,-0.011519194426441,0.008437004499078,0.000163668016235,0.002528319858907
4.404,-0.021156086463462,-0.011514554601656,0.008436716012563,0.000158475258963,0.002530122899626
4.408,-0.021154980598487,-0.011512799642022,0.008433783066326,0.00015926859688,0.002531805737631
4.412,-0.0211545959498,-0.011515636426088,0.008433831147412,0.000165783584013,0.002531012399715
4.416,-0.021155749895861,-0.011516574007262,0.00843200406615,0.000165326813697,0.002530940278086
4.42,-0.021157793342009,-0.011516958655949,0.008427772930595,0.000161047597056,0.002532094224146
4.424,-0.021159043450242,-0.011518112602009,0.008425729484446,0.000160037894253,0.002531853818717
4.428,-0.021159668504358,-0.011518641493953,0.008436499647677,0.000162730435061,0.002528896831937
4.432,-0.021158009706896,-0.011520276250872,0.008437990161338,0.000163980543293,0.002529377642796
4.436,-0.021156687477035,-0.011518929980468,0.008434576404243,0.000165711462384,0.00253130088623
4.44,-0.021156831720292,-0.011519482912956,0.0084294557686,0.000164557516323,0.002530940278086
4.444,-0.021157264450065,-0.011517751993865,0.00842058480826,0.000161624570087,0.002528824710308
4.448,-0.021157360612237,-0.011514386317856,0.008409478077429,0.000159653245567,0.002530651791571
4.452,-0.021158153950153,-0.011515251777401,0.008411353239777,0.000162105380945,0.002531685534917
4.456,-0.021159572342186,-0.011515131574686,0.008420512686632,0.000160085975339,0.002530988359172
4.46,-0.021160582044989,-0.011517247142464,0.008431090525519,0.000157080907474,0.002532623116091
4.464,-0.021159956990873,-0.01152082918336,0.008443687770012,0.000157561718332,0.002534089589209
4.468,-0.02115714424735,-0.011521646561819,0.008452823176323,0.000159725367195,0.002533200089121
4.472,-0.021156134544548,-0.011521213832046,0.008428205660368,0.000160614867284,0.00253130088623
4.476,-0.021160149315216,-0.011519242507526,0.008416209429448,0.000160278299683,0.002530603710485
4.48,-0.021164236207513,-0.011517896237123,0.008433254174382,0.000157225150731,0.002529521886053
4.484,-0.021165342072488,-0.011517992399294,0.008438206526225,0.000152633407032,0.002532695237719
4.488,-0.021164596815657,-0.011518737656125,0.008431282849862,0.000151070771742,0.002532719278262
4.492,-0.021163442869597,-0.011519819480557,0.008433855187955,0.000155398069469,0.002529786332025
4.496,-0.021161351342362,-0.011521117669875,0.008432292552665,0.000156023123585,0.002530531588856
4.5,-0.021157264450065,-0.011522776467336,0.00841729125388,0.000154893218067,0.002528007331849
4.504,-0.021155341206631,-0.011519915642728,0.008431090525519,0.000158980110365,0.002526805304703
4.508,-0.021157096166265,-0.011518809777754,0.008435802471932,0.000160927394342,0.002527478439905
4.512,-0.02115714424735,-0.011523185156566,0.008428758592855,0.000157826164304,0.002527093791218
4.516,-0.021156182625633,-0.011522680305165,0.008424214930242,0.000160759110541,0.002527887129134
4.52,-0.021155269085002,-0.011520300291415,0.008433903269041,0.000158547380592,0.002529305521167
4.524,-0.021154283422742,-0.011518954021011,0.0084347206475,0.000152441082689,0.002528728548137
4.528,-0.021153898774056,-0.011520252210329,0.008432028106693,0.00015022935274,0.002529978656369
4.532,-0.021153946855141,-0.011522247575392,0.008431234768776,0.000150710163598,0.002530146940169
4.536,-0.021155870098575,-0.011524603548599,0.008425873727704,0.00015220067726,0.002528367939993
4.54,-0.021156735558121,-0.011525420927058,0.008426402619648,0.000153210380063,0.002529521886053
4.544,-0.021157288490608,-0.011523641926882,0.008429768295658,0.000155470191098,0.002532358670119
4.548,-0.021155966260747,-0.011521814845619,0.008432244471579,0.000154532609924,0.002533007764777
4.552,-0.021154571909257,-0.011522343737564,0.008428446065797,0.00015260936649,0.002534305954095
4.556,-0.021154980598487,-0.011524291021541,0.008430826079547,0.000156864542587,0.002531373007859
4.56,-0.02115558161206,-0.011523593845796,0.008430176984888,0.000154893218067,0.002530964318629
4.564,-0.021154668071429,-0.011522103332135,0.008431282849862,0.000152032393459,0.002533512616179
4.568,-0.021154403625457,-0.01151943483187,0.008437292985593,0.000155806758699,0.002534305954095
4.572,-0.021153802611884,-0.011518112602009,0.008414983361759,0.000158739704936,0.002535051210926
4.576,-0.021150148449359,-0.011523113034937,0.008424190889699,0.000153811393636,0.002535868589386
4.58,-0.021145700948918,-0.011526286386604,0.00843356670144,0.000152585325947,0.002533801102694
4.584,-0.021145340340774,-0.01152395445394,0.008434937012387,0.000151647744773,0.002535652224499
4.588,-0.021148850260041,-0.011522367778107,0.008442870391552,0.000156527974986,0.002535724346128
4.592,-0.021150533098046,-0.011521598480733,0.008437966120795,0.000159220515794,0.002533825143237
4.596,-0.021151110071076,-0.011520492615759,0.008428085457653,0.000157417475075,0.002533656859436
4.6,-0.021151687044106,-0.011521959088877,0.008423613916669,0.000157225150731,0.002538993859966
4.604,-0.02115089370619,-0.011521766764534,0.008422868659838,0.000157778083219,0.002539498711367
4.608,-0.021148032881582,-0.011522127372678,0.008417892267453,0.000156095245214,0.002538200522049
4.612,-0.021148080962668,-0.011522175453763,0.00840644896902,0.000157080907474,0.002542840346834
4.616,-0.02114851369244,-0.011521213832046,0.008427316160279,0.000157032826388,0.002542623981948
4.62,-0.021147479949095,-0.011522079291592,0.008429792336201,0.000155494231641,0.002539835278968
4.624,-0.021146109638148,-0.011527440332664,0.008429431728057,0.000156191407385,0.002539883360054
4.628,-0.021144547002858,-0.011525973859546,0.008430417390317,0.000157201110188,0.00254034013037
4.632,-0.021145075894802,-0.011523641926882,0.008428229700911,0.000152657447575,0.002542239333261
4.636,-0.021146422165206,-0.011524146778283,0.008430537593031,0.000149387933738,0.002542359535975
4.64,-0.021145845192176,-0.011524242940455,0.008432677201352,0.000151599663687,0.002541061346657
4.644,-0.02114579711109,-0.011525084359457,0.008430994363347,0.000150565920341,0.002540724779056
4.648,-0.021144907611002,-0.011527849021894,0.008429551930772,0.000152994015176,0.00254305671172
4.652,-0.021143296894626,-0.011528017305694,0.008431763660721,0.00015393159635,0.00254363368475
4.656,-0.021144330637971,-0.011525853656831,0.008435009134016,0.000156696258787,0.002542191252175
4.66,-0.021145027813716,-0.01152592577846,0.008435586107046,0.000157513637246,0.002542623981948
4.664,-0.021146566408463,-0.011527728819179,0.008433879228498,0.000157850204847,0.002544667428096
4.668,-0.021147600151809,-0.011530541562701,0.008430489511946,0.000156527974986,0.002546686833702
4.672,-0.021149234908728,-0.011529507819356,0.00843003274163,0.000155710596527,0.002547792698677
4.676,-0.021150052287188,-0.011528546197639,0.008432484877008,0.00015573463707,0.002548778360936
4.68,-0.02114875409787,-0.011527344170492,0.008433109931124,0.000156047164128,0.002550677563828
4.684,-0.021145917313804,-0.011528594278724,0.00843750935048,0.000152681488118,0.002548922604194
4.688,-0.021144186394714,-0.011529099130126,0.008438422891111,0.000153691190921,0.002546566630987
4.692,-0.021145604786746,-0.011526454670404,0.008431931944521,0.000156095245214,0.002548057144649
4.696,-0.021146229840862,-0.011526839319091,0.008427532525166,0.000157369393989,0.00254798502302
4.7,-0.021146253881405,-0.011530709846502,0.008445034040415,0.000158379096792,0.002545508847099
4.704,-0.021145292259688,-0.011531695508762,0.008440177850744,0.000157898285933,0.002546758955331
4.708,-0.02114341709734,-0.011529507819356,0.008425248673588,0.000160590826741,0.002549764023196
4.712,-0.021142022745851,-0.011529435697727,0.008432725282438,0.000161432245743,0.002551639185545
4.716,-0.021139137880699,-0.011530373278901,0.008420248240659,0.000159148394165,0.002550148671883
4.72,-0.021135820285776,-0.011531815711476,0.008414550631986,0.000158090610277,0.002549643820482
4.724,-0.021134498055915,-0.0115300367113,0.008428782633398,0.000156287569557,0.002549715942111
4.728,-0.021137262718351,-0.011529002967954,0.008420079956859,0.000158427177877,0.00254740804999
4.732,-0.021138777272556,-0.011527584575922,0.008417195091708,0.000158835867107,0.002549018766366
4.736,-0.021138392623869,-0.011535157346943,0.008425753524989,0.000155782718156,0.00254856199605
4.74,-0.021139402326672,-0.011531527224961,0.008431523255291,0.000156047164128,0.002547552293247
4.744,-0.02113971485373,-0.011530108832929,0.008432244471579,0.000156383731729,0.002545292482212
4.748,-0.021137863731924,-0.011529123170669,0.008434360039357,0.000161191840314,0.00254716764456
4.752,-0.021137406961609,-0.011529796305871,0.008439168147942,0.000159533042852,0.002550292915141
4.756,-0.021137815650839,-0.011531334900618,0.008439504715543,0.000152825731376,0.00254937937451
4.76,-0.021136469380435,-0.011529507819356,0.008437244904508,0.000150157231111,0.002547528252704
4.764,-0.021135459677632,-0.011527103765063,0.008435610147589,0.000153234420606,0.002549283212338
4.768,-0.02113716655618,-0.011528401954381,0.008430152944345,0.000158715664393,0.002549211090709
4.772,-0.021138368583326,-0.011527945184065,0.008423734119384,0.00015729727236,0.00254815330682
4.776,-0.021139137880699,-0.011525973859546,0.008424022605899,0.000154244123408,0.00254913896908
4.78,-0.021140387988932,-0.01152765669755,0.008429960620001,0.000155638474898,0.002547432090533
4.784,-0.021140796678161,-0.01153159934659,0.008432605079723,0.000158643542764,0.002544811671354
4.788,-0.021141638097164,-0.011530132873472,0.008437485309937,0.000158595461678,0.002545124198412
4.792,-0.021143513259512,-0.011528618319267,0.008425753524989,0.000154075839608,0.002545364603841
4.796,-0.021144835489373,-0.011529147211212,0.008417699943109,0.000151311177172,0.002547119563475
4.8,-0.02114497973263,-0.0115302049951,0.00842863839014,0.000152320879974,0.002544883792983
4.804,-0.021145412462403,-0.011530950251931,0.008434263877185,0.000152056434002,0.002544547225382
4.808,-0.021145196097517,-0.011530733887045,0.008433855187955,0.000150517839255,0.002547552293247
4.812,-0.021145099935345,-0.011532705211565,0.008430225065973,0.000151599663687,0.002552841212691
4.816,-0.021144907611002,-0.011534844819885,0.008432196390493,0.000154724934267,0.002553923037122
4.82,-0.021145869232719,-0.011531695508762,0.008425633322275,0.000155037461325,0.002552360401832
4.824,-0.021148153084296,-0.011534868860428,0.008425873727704,0.000156864542587,0.002550557361113
4.828,-0.021148874300584,-0.011533137941337,0.008411497483035,0.000158523340049,0.002552817172148
4.832,-0.02114596539489,-0.011528209630038,0.008407530793452,0.000157754042676,0.002555125064269
4.836,-0.021144931651544,-0.011529531859898,0.008416786402478,0.000159797488824,0.002556303050872
4.84,-0.021148609854612,-0.011534195725226,0.008427316160279,0.000158066569734,0.002557264672589
4.844,-0.021151783206278,-0.011533498549481,0.008430465471403,0.000154484528838,0.002555581834584
4.848,-0.021153970895684,-0.011533546630567,0.00843020102543,0.000156167366843,0.00255447596961
4.852,-0.021154788274144,-0.011533426427852,0.008422700376038,0.000159869610453,0.002555173145355
4.856,-0.021154860395773,-0.011528906805782,0.008424407254586,0.000157080907474,0.002556134767072
4.86,-0.02115401897677,-0.011529315495012,0.008426282416934,0.000156359691186,0.002554596172324
4.864,-0.021151638963021,-0.011526310427146,0.008432484877008,0.000156744339873,0.002555173145355
4.868,-0.021150845625104,-0.011528810643611,0.00843397539067,0.000155013420782,0.002554980821011
4.872,-0.021150244611531,-0.011533666833282,0.008431691539092,0.000157850204847,0.002552528685633
4.876,-0.021148056922125,-0.011532969657537,0.00843397539067,0.000160711029455,0.00255036503677
4.88,-0.021146662570635,-0.011533041779166,0.008426162214219,0.000158355056249,0.002549571698853
4.884,-0.021146614489549,-0.011531262778989,0.008436163080076,0.000157730002133,0.002550653523285
4.888,-0.021147552070723,-0.011530180954557,0.008430946282261,0.000155205745126,0.002552408482918
4.892,-0.021149571476329,-0.011533690873825,0.008433807106869,0.00015335462332,0.002554355766895
4.896,-0.021151278354877,-0.011531959954734,0.008439360472285,0.000152681488118,0.002557000226617
4.9,-0.021150412895331,-0.01153414764414,0.008425416957388,0.000155109582954,0.002556303050872
4.904,-0.021148537732983,-0.011534989063143,0.008417171051165,0.000160566786198,0.002555798199471
4.908,-0.021147816516695,-0.011534844819885,0.008424864024901,0.000163908421664,0.002557288713132
4.912,-0.021148225205925,-0.011537248874177,0.008421714713778,0.000159941732082,0.002560269740455
4.916,-0.021147840557238,-0.011538811509468,0.008420632889346,0.00015770596159,0.002559332159281
4.92,-0.021148249246468,-0.011535421792915,0.008427171917022,0.000156576056072,0.002560678429684
4.924,-0.021149042584385,-0.011534532292827,0.008427965254938,0.000152393001603,0.002559067713308
4.928,-0.021149475314157,-0.011534339968484,0.008423613916669,0.000150061068939,0.00255644729413
