time,channel3
0.0,-0.008104571871507787
0.004,-0.008097792438402864
0.008,-0.008101085992783624
0.012,-0.008129718279407614
0.016,-0.008151186484239875
0.02,-0.008117938413374234
0.024,-0.008098730019576948
0.028,-0.00809156593778522
0.032,-0.008070338138382212
0.036000000000000004,-0.008059784340038022
0.04,-0.008059063123750263
0.044,-0.008063991435049944
0.048,-0.008070602584354391
0.052000000000000005,-0.008075723219997472
0.056,-0.008079136977092859
0.06,-0.00808699823462942
0.064,-0.008092719883845632
0.068,-0.008094859492165981
0.07200000000000001,-0.008098080924917966
0.076,-0.008099186789892528
0.08,-0.008102768830788393
0.084,-0.008094018073163596
0.088,-0.008090820680954536
0.092,-0.008109548263893316
0.096,-0.008118875994548318
0.1,-0.008090027343038002
0.10400000000000001,-0.008087575207659627
0.108,-0.008088608951005412
0.112,-0.00808243053147362
0.116,-0.008075002003709713
0.12,-0.008063462543105587
0.124,-0.008064760732423551
0.128,-0.00806831873277649
0.132,-0.008073920179278077
0.136,-0.008078848490577755
0.14,-0.008081084261069805
0.14400000000000002,-0.008079209098721634
0.148,-0.008079329301436261
0.152,-0.008082719017988724
0.156,-0.008103874695762955
0.16,-0.00810740865557297
0.164,-0.00809389787044897
0.168,-0.008090892802583313
0.17200000000000001,-0.008098561735776472
0.176,-0.008106422993313033
0.18,-0.008090123505209703
0.184,-0.008085002869566623
0.188,-0.008092816046017333
0.192,-0.00809207078918665
0.196,-0.008084930747937848
0.2,-0.008085651964225605
0.20400000000000001,-0.008074785638823386
0.20800000000000002,-0.008059255448093666
0.212,-0.00806269324573198
0.216,-0.008068559138205743
0.22,-0.008072982598103991
0.224,-0.008061803745643744
0.228,-0.00806735711105948
0.232,-0.00809389787044897
0.23600000000000002,-0.008099066587177902
0.24,-0.008072790273760589
0.244,-0.008074136544164404
0.248,-0.008075050084795563
0.252,-0.00807735797691639
0.256,-0.008086108734541185
0.26,-0.008073775936020525
0.264,-0.008060289191439453
0.268,-0.008057380285745496
0.272,-0.00805735624520257
0.276,-0.008060024745467274
0.28,-0.00806319809713341
0.28400000000000003,-0.008065866597398113
0.28800000000000003,-0.008069015908521323
0.292,-0.008082767099074574
0.296,-0.008093657465019718
0.3,-0.008087142477886972
0.304,-0.008071395922270923
0.308,-0.008056009974798755
0.312,-0.00808892147806344
0.316,-0.008101470641470428
0.32,-0.008052932785304322
0.324,-0.008029156688351236
0.328,-0.008036561175572218
0.332,-0.008061082529355987
0.336,-0.008064904975681103
0.34,-0.008047908311832943
0.34400000000000003,-0.008037811283804331
0.34800000000000003,-0.008039037351493519
0.352,-0.008044542635823404
0.356,-0.008047235176631034
0.36,-0.00805050469046887
0.364,-0.00805420693407936
0.368,-0.00805685139380114
0.372,-0.00805913524537904
0.376,-0.008064544367537224
0.38,-0.008075554936196995
0.384,-0.008079834152837691
0.388,-0.008078151314832922
0.392,-0.008079954355552317
0.396,-0.008098153046546742
0.4,-0.00809846557360477
0.404,-0.008069328435579351
0.40800000000000003,-0.008049759433638186
0.41200000000000003,-0.008059231407550741
0.41600000000000004,-0.0080372102702312
0.42,-0.008025959296142176
0.424,-0.008022016647102432
0.428,-0.008032354080560297
0.432,-0.00803547935114058
0.436,-0.00804310020324789
0.44,-0.008042018378816252
0.444,-0.008038965229864744
0.448,-0.008041104838185093
0.452,-0.008044157987136601
0.456,-0.008046153352199397
0.46,-0.008049038217350429
0.464,-0.00805964009678047
0.468,-0.00807466543610876
0.47200000000000003,-0.00807730989583054
0.47600000000000003,-0.00806694842182975
0.48,-0.008057981299318628
0.484,-0.00805552916394025
0.488,-0.00806512134056743
0.492,-0.008061202732070612
0.496,-0.008039013310950595
0.5,-0.008028747999121507
0.504,-0.00802329079587747
0.508,-0.008030310634411649
0.512,-0.008050624893183497
0.516,-0.00808065153129715
0.52,-0.008075603017282844
0.524,-0.008036849662087321
0.528,-0.00801821824132024
0.532,-0.008012881240790833
0.536,-0.008012568713732803
0.54,-0.008021992606559506
0.544,-0.00803954220289495
0.548,-0.008033844594221663
0.552,-0.008023170593162845
0.556,-0.008025526566369522
0.56,-0.008032618526532474
0.5640000000000001,-0.008038845027150118
0.5680000000000001,-0.008042931919447412
0.5720000000000001,-0.008053798244849631
0.5760000000000001,-0.008054639663852016
0.58,-0.008055865731541203
0.584,-0.008057668772260598
0.588,-0.008056490785657261
0.592,-0.008059880502209724
0.596,-0.00804639375762865
0.6,-0.00803579187819861
0.604,-0.00803132033721451
0.608,-0.008032233877845671
0.612,-0.008027017080030887
0.616,-0.008016222876257443
0.62,-0.008029925985724844
0.624,-0.008039878770495903
0.628,-0.008029084566722461
0.632,-0.008019251984666027
0.636,-0.008018699052178746
0.64,-0.008020694417241543
0.644,-0.00802802678283375
0.648,-0.008032834891418802
0.652,-0.008031031850699408
0.656,-0.008038027648690658
0.66,-0.008064688610794776
0.664,-0.008048004474004642
0.668,-0.00802283402556189
0.672,-0.00802446878248081
0.676,-0.008013866903050768
0.68,-0.008024877471710538
0.684,-0.00805461562330909
0.6880000000000001,-0.008041297162528495
0.6920000000000001,-0.008016270957343294
0.6960000000000001,-0.008009467483695444
0.7000000000000001,-0.00800949152423837
0.704,-0.008005140185968897
0.708,-0.008006582618544414
0.712,-0.008012761038076206
0.716,-0.008018578849464119
0.72,-0.008027906580119122
0.724,-0.008054567542223239
0.728,-0.008062452840302726
0.732,-0.008034084999650916
0.736,-0.008011246483871914
0.74,-0.008015117011282881
0.744,-0.008037811283804331
0.748,-0.008038244013576987
0.752,-0.008020742498327394
0.756,-0.008006462415829786
0.76,-0.00800446705076699
0.764,-0.008011078200071438
0.768,-0.008009251118809117
0.772,-0.008021656038958554
0.776,-0.00803552743222643
0.78,-0.008027401728717692
0.784,-0.008011246483871914
0.788,-0.008001630266701809
0.792,-0.007995980739114372
0.796,-0.007994610428167633
0.8,-0.007997375090604037
0.804,-0.008005669077913254
0.808,-0.008025935255599251
0.812,-0.008028146985548375
0.8160000000000001,-0.008000836928785275
0.8200000000000001,-0.008000043590868741
0.8240000000000001,-0.008029829823553145
0.8280000000000001,-0.008047139014459333
0.8320000000000001,-0.008041777973387
0.836,-0.008019612592809906
0.84,-0.007995451847170017
0.844,-0.00798569138674236
0.848,-0.007983022886477655
0.852,-0.007982421872904523
0.856,-0.00799802418526302
0.86,-0.00800259188841882
0.864,-0.008000235915212144
0.868,-0.00798619623814379
0.872,-0.007974151926138233
0.876,-0.007974608696453812
0.88,-0.007978310940064303
0.884,-0.007982830562134254
0.888,-0.007986460684115968
0.892,-0.007989177265466522
0.896,-0.007991581319759048
0.9,-0.007994995076854436
0.904,-0.008011126281157289
0.908,-0.00803963836506665
0.912,-0.008021343511900526
0.916,-0.00800391411827971
0.92,-0.008018867335979223
0.924,-0.008014347713909274
0.928,-0.00802305039044822
0.932,-0.007998288631235197
0.936,-0.007962564384448256
0.9400000000000001,-0.007949534410182764
0.9440000000000001,-0.007942971341964167
0.9480000000000001,-0.007944822463769412
0.9520000000000001,-0.007951097045472906
0.9560000000000001,-0.007954198275510265
0.96,-0.007954029991709789
0.964,-0.007960833465357637
0.968,-0.007967853303891815
0.972,-0.007973695155822653
0.976,-0.007977830129205799
0.98,-0.007986725130088145
0.984,-0.007996052860743149
0.988,-0.007987951197777335
0.992,-0.007979537007753492
0.996,-0.007982133386389421
1.0,-0.007989730197953803
1.004,-0.007986725130088145
1.008,-0.007979585088839343
1.012,-0.007991533238673198
1.016,-0.007990619698042038
1.02,-0.007989922522297205
1.024,-0.008003385226335353
1.028,-0.007976171331743956
1.032,-0.007978575386036482
1.036,-0.007990691819670815
1.04,-0.00798208530530357
1.044,-0.007989682116867953
1.048,-0.007974368291024561
1.052,-0.007945880247658124
1.056,-0.007939413341611228
1.06,-0.007939124855096125
1.064,-0.007944726301597711
1.068,-0.007939629706497555
1.072,-0.007944245490739205
1.076,-0.007954558883654143
1.08,-0.007958573654322662
1.084,-0.00796107387078689
1.088,-0.007963838533223295
1.092,-0.007968213912035694
1.096,-0.007976339615544432
1.1,-0.007980739034899756
1.104,-0.00797386343962313
1.108,-0.007969968871669238
1.112,-0.00798660492737352
1.116,-0.007986244319229641
1.12,-0.007972901817906119
1.124,-0.007967709060634263
1.1280000000000001,-0.007967492695747935
1.1320000000000001,-0.007954486762025368
1.1360000000000001,-0.007954150194424414
1.1400000000000001,-0.007948091977607248
1.1440000000000001,-0.007944509936711383
1.1480000000000001,-0.00794645722068833
1.1520000000000001,-0.007959126586809943
1.156,-0.007968790885065899
1.16,-0.007979416805038865
1.164,-0.007971892115103258
1.168,-0.007960136289612804
1.172,-0.007958958303009467
1.176,-0.007963477925079416
1.18,-0.007968286033664469
1.184,-0.007977229115632667
1.188,-0.007997182766260635
1.192,-0.007995596090427567
1.196,-0.007969776547325835
1.2,-0.007950471991356848
1.204,-0.007957203343375923
1.208,-0.00796477611439738
1.212,-0.007963718330508669
1.216,-0.007955183937770201
1.22,-0.007976219412829806
1.224,-0.007984585521767798
1.228,-0.007951241288730457
1.232,-0.007954751207997546
1.236,-0.007975113547855243
1.24,-0.007952178869904543
1.244,-0.007932417543619976
1.248,-0.007934148462710596
1.252,-0.00794285113924954
1.256,-0.007942634774363213
1.26,-0.007931311678645414
1.264,-0.007930229854213777
1.268,-0.007940807693100894
1.272,-0.00795234715370502
1.276,-0.007955905154057958
1.28,-0.00795554454591408
1.284,-0.007956794654146193
1.288,-0.007960184370698654
1.292,-0.007978551345493556
1.296,-0.008003240983077801
1.3,-0.00799350456319307
1.304,-0.00797157958804523
1.308,-0.00797254120976224
1.312,-0.007968286033664469
1.316,-0.00794193759861838
1.32,-0.007934364827596923
1.324,-0.007954558883654143
1.328,-0.007959102546267019
1.332,-0.007945976409829825
1.336,-0.007914795825655758
1.34,-0.007905299811200278
1.344,-0.007910156000871181
1.348,-0.007916935433976105
1.352,-0.007923786988709805
1.356,-0.00793001348932745
1.36,-0.007932609867963378
1.364,-0.007933186840993584
1.368,-0.007939918193012659
1.372,-0.00794746692349119
1.3760000000000001,-0.007955833032429183
1.3800000000000001,-0.007960737303185935
1.3840000000000001,-0.007962756708791659
1.3880000000000001,-0.00796376641159452
1.3920000000000001,-0.00799081202238544
1.3960000000000001,-0.008022064728188283
1.4000000000000001,-0.007974296169395784
1.4040000000000001,-0.007940855774186743
1.408,-0.007917608569178013
1.412,-0.007907968311464982
1.416,-0.007916767150175629
1.42,-0.007930037529870374
1.424,-0.007925493867257499
1.428,-0.007921767583104084
1.432,-0.007922873448078646
1.436,-0.007922729204821094
1.44,-0.0079233061778513
1.444,-0.0079346292735691
1.448,-0.00794919784258181
1.452,-0.007965930060457793
1.456,-0.007953621302480058
1.46,-0.007934076341081819
1.464,-0.007928162367522204
1.468,-0.007926936299833017
1.472,-0.007928739340552412
1.476,-0.007941841436446679
1.48,-0.007956698491974492
1.484,-0.007945567720600096
1.488,-0.007929244191953842
1.492,-0.007934340787053996
1.496,-0.007949221883124736
1.5,-0.00795340493759373
1.504,-0.007980883278157307
1.508,-0.00798482592719705
1.512,-0.007940374963328238
1.516,-0.007911646514532548
1.52,-0.007905708500430007
1.524,-0.007908425081780562
1.528,-0.00791046852792921
1.532,-0.007913329352537316
1.536,-0.007913040866022214
1.54,-0.007914315014797252
1.544,-0.007920301109985642
1.548,-0.00792604679974478
1.552,-0.007927537313406148
1.556,-0.007925325583457023
1.56,-0.007927080543090567
1.564,-0.007934004219453044
1.568,-0.007941817395903755
1.572,-0.007960424776127907
1.576,-0.007981243886301186
1.58,-0.007963718330508669
1.584,-0.007951698059046037
1.588,-0.007936432314288495
1.592,-0.00791518047434256
1.596,-0.007914843906741608
1.6,-0.00792289748862157
1.604,-0.007926022759201855
1.608,-0.007929797124441123
1.612,-0.007926623772774987
1.616,-0.007924267799568311
1.62,-0.007921743542561158
1.624,-0.007920493434329044
1.6280000000000001,-0.007925734272686752
1.6320000000000001,-0.007930398138014254
1.6360000000000001,-0.007933379165336986
1.6400000000000001,-0.007937129490033328
1.6440000000000001,-0.007951962505018215
1.6480000000000001,-0.007964992479283707
1.6520000000000001,-0.007959943965269403
1.6560000000000001,-0.007953380897050806
1.6600000000000001,-0.007964655911682755
1.6640000000000001,-0.007962011451960975
1.668,-0.007927296907976895
1.672,-0.007917223920491209
1.676,-0.007918570190895024
1.68,-0.007918377866551621
1.684,-0.0079187384746955
1.688,-0.007909723271098526
1.692,-0.00790325636505163
1.696,-0.007898568459181205
1.7,-0.007899217553840187
1.704,-0.007906549919432392
1.708,-0.007914002487739224
1.712,-0.0079187384746955
1.716,-0.007921503137131905
1.72,-0.007924099515767833
1.724,-0.007929268232496766
1.728,-0.007943932963681177
1.732,-0.007953957870081012
1.736,-0.007946745707203433
1.74,-0.007951217248187531
1.744,-0.007959559316582598
1.748,-0.007938884449666872
1.752,-0.007920998285730474
1.756,-0.00792421971848246
1.76,-0.007920132826185165
1.764,-0.007922152231790887
1.768,-0.007913329352537316
1.772,-0.007910444487386285
1.776,-0.00794513499082744
1.78,-0.007948308342493575
1.784,-0.00789864058080998
1.788,-0.00787361437562478
1.792,-0.00787164305110491
1.796,-0.00787758106520745
1.8,-0.007885153836228908
1.804,-0.00789128417467485
1.808,-0.00789686158063351
1.812,-0.007901813932476114
1.816,-0.00790544405445783
1.82,-0.007903064040708228
1.824,-0.007902679392021425
1.828,-0.007912776420050035
1.832,-0.00791609401497372
1.836,-0.007923594664366403
1.84,-0.007936552517003122
1.844,-0.00793174440841807
1.848,-0.007928402772951457
1.852,-0.007941360625588175
1.856,-0.007967781182263038
1.86,-0.007945687923314721
1.864,-0.007904506473283744
1.868,-0.007890106188071512
1.872,-0.00788818294463749
1.8760000000000001,-0.007888711836581847
1.8800000000000001,-0.007888519512238444
1.8840000000000001,-0.007894120958740031
1.8880000000000001,-0.007903136162337005
1.8920000000000001,-0.007905756581515858
1.8960000000000001,-0.00790539597337198
1.9000000000000001,-0.007906117189659737
1.9040000000000001,-0.00790813659526546
1.9080000000000001,-0.007909266500782946
1.9120000000000001,-0.007909987717070705
1.9160000000000001,-0.0079209261641017
1.92,-0.007935254327685158
1.924,-0.007942129922961783
1.928,-0.007940230720070687
1.932,-0.007940254760613611
1.936,-0.007912560055163708
1.94,-0.007891476499018252
1.944,-0.00789549126968677
1.948,-0.00790736729789185
1.952,-0.00791777685297849
1.956,-0.007898376134837803
1.96,-0.007879552389727321
1.964,-0.007879432187012694
1.968,-0.007894337323626358
1.972,-0.007908473162866412
1.976,-0.007899650283612841
1.98,-0.007890394674586614
1.984,-0.007889481133955455
1.988,-0.007896044202174051
1.992,-0.00789621248597453
1.996,-0.007894096918197105
2.0,-0.007901693729761489
2.004,-0.007917031596147806
2.008,-0.00792686417820424
2.012,-0.007911598433446698
2.016,-0.007898328053751952
2.02,-0.0078981838104944
2.024,-0.007945062869198664
2.028,-0.00796624258751582
2.032,-0.007918594231437948
2.036,-0.007903376567766258
2.04,-0.007889481133955455
2.044,-0.007879095619411742
2.048,-0.007881451592618417
2.052,-0.007875585700144653
2.056,-0.007876859848919691
2.06,-0.007880802497959435
2.064,-0.007876234794803635
2.068,-0.00788255745759298
2.072,-0.007894842175027788
2.076,-0.007902823635278977
2.08,-0.007911141663131118
2.084,-0.00790467475708422
2.088,-0.007886283741746394
2.092,-0.007882797863022232
2.096,-0.007883879687453868
2.1,-0.007889024363639875
2.104,-0.007894721972313163
2.108,-0.007899025229496785
2.112,-0.007896525013032557
2.116,-0.007897318350949091
2.12,-0.007901573527046863
2.124,-0.007912968744393437
2.128,-0.00794362043662315
2.132,-0.007961506600559545
2.136,-0.007958958303009467
2.14,-0.00793275411122093
2.144,-0.007878061876065955
2.148,-0.007856954279377574
2.152,-0.007868854348125578
2.156,-0.007905540216629531
2.16,-0.007887077079662928
2.164,-0.007865680996459444
2.168,-0.007861089252760719
2.172,-0.007855944576574713
2.176,-0.007864935739628761
2.18,-0.007879071578868815
2.184,-0.007893423782995198
2.188,-0.007893543985709824
2.192,-0.007889120525811576
2.196,-0.00789087548544512
2.2,-0.007892942972136692
2.204,-0.007893592066795675
2.208,-0.007894721972313163
2.212,-0.00789813572940855
2.216,-0.007915204514885487
2.22,-0.007915493001400589
2.224,-0.007907150933005523
2.228,-0.00791097337933064
2.232,-0.00790594890585926
2.236,-0.007912367730820305
2.24,-0.007893423782995198
2.244,-0.007874215389197912
2.248,-0.007865680996459444
2.2520000000000002,-0.007878374403123983
2.2560000000000002,-0.007880946741216987
2.2600000000000002,-0.00786803696966612
2.2640000000000002,-0.007869287077898234
2.2680000000000002,-0.00786483957745706
2.2720000000000002,-0.007857867820008734
2.2760000000000002,-0.007857555292950706
2.2800000000000002,-0.007859190049869623
2.2840000000000003,-0.007871450726761507
2.2880000000000003,-0.007872412348478517
2.2920000000000003,-0.007871522848390284
2.2960000000000003,-0.007878013794980104
2.3000000000000003,-0.007878783092353714
2.3040000000000003,-0.007881788160219371
2.308,-0.007902270702791694
2.312,-0.007905780622058784
2.316,-0.007884961511885506
2.32,-0.007860416117558812
2.324,-0.007856257103632741
2.328,-0.007853276076310008
2.332,-0.007851352832875988
2.336,-0.007855800333317162
2.34,-0.00787041698341572
2.344,-0.007866594537090604
2.348,-0.007855439725173281
2.352,-0.007844597440313988
2.356,-0.007844116629455482
2.36,-0.007852025968077894
2.364,-0.007856521549604919
2.368,-0.007860079549957858
2.372,-0.007861762387962627
2.376,-0.007869527483327487
2.38,-0.007881667957504744
2.384,-0.007882244930534951
2.388,-0.007871282442961031
2.392,-0.007868926469754355
2.396,-0.007856954279377574
2.4,-0.0078592621714984
2.404,-0.007881788160219371
2.408,-0.007897847242893446
2.412,-0.007857699536208258
2.416,-0.007823201357110503
2.42,-0.007822408019193969
2.424,-0.007821542559648658
2.428,-0.007822287816479341
2.432,-0.007827384411579498
2.436,-0.007831735749848972
2.44,-0.007834716777171706
2.444,-0.007834260006856126
2.448,-0.00783332242568204
2.452,-0.007846448562119234
2.456,-0.007855848414403012
2.46,-0.007852218292421297
2.464,-0.00784296268339507
2.468,-0.007845390778230522
2.472,-0.007868758185953877
2.476,-0.007881619876418893
2.48,-0.007872700834993621
2.484,-0.007864478969313181
2.488,-0.007842361669821938
2.492,-0.00783190403364945
2.496,-0.007846184116147056
2.5,-0.007873782659425258
2.504,-0.007860464198644663
2.508,-0.007861642185248
2.512,-0.00785971894181398
2.516,-0.007845078251172494
2.52,-0.007839212358698729
2.524,-0.007821710843449136
2.528,-0.007805579639146284
2.532,-0.007810772396418141
2.536,-0.00781666232943483
2.54,-0.007822672465166146
2.544,-0.007829019168498418
2.548,-0.007837745885580288
2.552,-0.007845438859316373
2.556,-0.007849453629984892
2.56,-0.00784890069749761
2.564,-0.007853083751966606
2.568,-0.007861353698732898
2.572,-0.007872436389021444
2.576,-0.007883278673880736
2.58,-0.00788407201179727
2.584,-0.007867195550663736
2.588,-0.00785245869785055
2.592,-0.007827913303523854
2.596,-0.007836591939519875
2.6,-0.007845006129543718
2.604,-0.007832456966136731
2.608,-0.007805940247290163
2.612,-0.007793847854198756
2.616,-0.007799425260157417
2.62,-0.00780656530140622
2.624,-0.007810507950445963
2.628,-0.007816926775407008
2.632,-0.007832336763422104
2.636,-0.007841736615705882
2.64,-0.007837962250466615
2.644,-0.007850920103103332
2.648,-0.007850150805729724
2.652,-0.00785123263016136
2.656,-0.007888351228437968
2.66,-0.007866979185777409
2.664,-0.007815340099573942
2.668,-0.007807863490724184
2.672,-0.007805771963489686
2.676,-0.007825749654660579
2.68,-0.007830052911844205
2.684,-0.007812863923652639
2.688,-0.007808151977239287
2.692,-0.007811613815420525
2.696,-0.007816397883462653
2.7,-0.007822215694850566
2.704,-0.007827408452122424
2.708,-0.007826903600720992
2.712,-0.007827889262980928
2.716,-0.007829524019899848
2.72,-0.007827865222438004
2.724,-0.007839693169557235
2.728,-0.007867003226320333
2.732,-0.00786337310433862
2.736,-0.007849525751613667
2.74,-0.00785702640100635
2.744,-0.007835990925946744
2.748,-0.0077940882596280086
2.7520000000000002,-0.007780385150160608
2.7560000000000002,-0.007794160381256784
2.7600000000000002,-0.007818056680924496
2.7640000000000002,-0.007834644655542929
2.7680000000000002,-0.007822768627337847
2.7720000000000002,-0.007837241034178858
2.7760000000000002,-0.00783551011508824
2.7800000000000002,-0.007804834382315601
2.7840000000000003,-0.007784423961372053
2.7880000000000003,-0.007782308393594629
2.7920000000000003,-0.007787717515752813
2.7960000000000003,-0.007805868125661387
2.8000000000000003,-0.007812070585736105
2.8040000000000003,-0.007799160814185239
2.8080000000000003,-0.007785169218202735
2.8120000000000003,-0.007783991231599397
2.816,-0.007788414691497646
2.82,-0.007793078556825147
2.824,-0.007796780800435638
2.828,-0.007796372111205908
2.832,-0.007798175151925303
2.836,-0.007804089125484918
2.84,-0.007808464504297316
2.844,-0.007821494478562807
2.848,-0.007837144872007156
2.852,-0.007817960518752795
2.856,-0.00782584581683228
2.86,-0.007819402951328311
2.864,-0.007803704476798114
2.868,-0.007819138505356132
2.872,-0.007819619316214638
2.876,-0.007796396151748834
2.88,-0.007786443366977774
2.884,-0.007799281016899865
2.888,-0.007804906503944377
2.892,-0.007791876529678884
2.896,-0.007798054949210677
2.9,-0.0077771156363227725
2.904,-0.007775240473974602
2.908,-0.007790217732217041
2.912,-0.007772980662939627
2.916,-0.007770792973533428
2.92,-0.007768605284127229
2.924,-0.0077635567701129235
2.928,-0.007765528094632795
2.932,-0.007771057419505606
2.936,-0.00777326914945473
2.94,-0.007786106799376821
2.944,-0.007801228300876812
2.948,-0.007819451032414161
2.952,-0.00781296008582434
2.956,-0.00778605871829097
2.96,-0.007769783270730567
2.964,-0.007770600649190026
2.968,-0.007783895069427697
2.972,-0.0078047382201439
2.976,-0.007818994262098582
2.98,-0.0078093780449284755
2.984,-0.0077763222984062385
2.988,-0.007776658866007193
2.992,-0.007776899271436445
2.996,-0.007772788338596225
3.0,-0.007792140975651062
3.004,-0.007788030042810842
3.008,-0.007768316797612126
3.012,-0.007758940985871273
3.016,-0.007759181391300526
3.02,-0.00776235474296666
3.024,-0.007761441202335501
3.028,-0.007763869297170952
3.032,-0.007772740257510374
3.036,-0.007777933014782231
3.04,-0.007781082325905441
3.044,-0.0077949537191733176
3.048,-0.007824812073486495
3.052,-0.007811902301935628
3.056,-0.007789736921358536
3.06,-0.007812791802023863
3.064,-0.007786082758833896
3.068,-0.007749853660645524
3.072,-0.007747161119837895
3.076,-0.007750767201276684
3.08,-0.0077488920389285135
3.084,-0.007751175890506413
3.088,-0.0077635567701129235
3.092,-0.0077704804464754
3.096,-0.007774230771171741
3.1,-0.0077761540146057614
3.104,-0.007778894636499242
3.108,-0.007789472475386357
3.112,-0.0078021658820508965
3.116,-0.007808127936696362
3.12,-0.007815123734687613
3.124,-0.007810556031531813
3.128,-0.007764326067486532
3.132,-0.007744877268259994
3.136,-0.007760671904961892
3.14,-0.007789520556472208
3.144,-0.007784399920829127
3.148,-0.007786611650778251
3.152,-0.007783798907255996
3.156,-0.007758532296641544
3.16,-0.0077523779176526765
3.164,-0.007738819051442828
3.168,-0.007738626727099426
3.172,-0.007746656268436463
3.176,-0.00775362802588479
3.18,-0.007753844390771118
3.184,-0.007757450472209907
3.188,-0.007762066256451558
3.192,-0.007765263648660618
3.196,-0.007767403256980966
3.2,-0.0077696630680159405
3.204,-0.007771393987106559
3.208,-0.007770744892447577
3.212,-0.007769086094985734
3.216,-0.007778365744554886
3.22,-0.007812142707364881
3.224,-0.007814450599485706
3.228,-0.007784664366801305
3.232,-0.00779565089491815
3.236,-0.007781803542193199
3.24,-0.007753844390771118
3.244,-0.007749228606529467
3.248,-0.007737809348639967
3.2520000000000002,-0.007745309998032649
3.2560000000000002,-0.007764061621514355
3.2600000000000002,-0.007762907675453941
3.2640000000000002,-0.007748291025355382
3.2680000000000002,-0.0077401653218466425
3.2720000000000002,-0.007743699281656656
3.2760000000000002,-0.007750695079647908
3.2800000000000002,-0.007751368214849816
3.2840000000000003,-0.007757714918182085
3.2880000000000003,-0.007769855392359343
3.2920000000000003,-0.007776226136234537
3.2960000000000003,-0.007769759230187642
3.3000000000000003,-0.007767956189468247
3.3040000000000003,-0.00775129609322104
3.3080000000000003,-0.00774134330844998
3.3120000000000003,-0.007749276687615317
3.3160000000000003,-0.007776586744378417
3.3200000000000003,-0.007754974296288605
3.3240000000000003,-0.007737737227011191
3.3280000000000003,-0.00773946814610181
3.332,-0.007749541133587496
3.336,-0.007762066256451558
3.34,-0.007758820783156647
3.344,-0.007761489283421351
3.348,-0.007756200363977794
3.352,-0.007751921147337097
3.356,-0.007755935918005615
3.36,-0.007767667702953144
3.364,-0.007778029176953932
3.368,-0.0077665618379785814
3.372,-0.0077340349834007
3.376,-0.00771723064389594
3.38,-0.007724322604058893
3.384,-0.007730380820876061
3.388,-0.007733145483312466
3.392,-0.007736390956607377
3.396,-0.007739997038046166
3.4,-0.007743194430255226
3.404,-0.007743939687085909
3.408,-0.007744420497944414
3.412,-0.00774860355241341
3.416,-0.007757354310038206
3.42,-0.007768316797612126
3.424,-0.00778012070418843
3.428,-0.0077614171617925755
3.432,-0.007779423528443598
3.436,-0.007788438732040571
3.44,-0.007743795443828357
3.444,-0.007727568077353804
3.448,-0.007717855698011997
3.452,-0.007716870035752062
3.456,-0.007720067427961121
3.46,-0.007726173725864138
3.464,-0.007730476983047761
3.468,-0.007740862497591475
3.472,-0.007741078862477803
3.476,-0.0077414394706216815
3.48,-0.007742064524737738
3.484,-0.0077379535918975185
3.488,-0.007737448740496088
3.492,-0.007739227740672558
3.496,-0.007741319267907055
3.5,-0.007741800078765561
3.504,-0.007742857862654272
3.508,-0.007750454674218655
3.512,-0.007763436567398298
3.516,-0.0077778368526105306
3.52,-0.007774278852257592
3.524,-0.007752978931225808
3.528,-0.00776093635093407
3.532,-0.007774110568457115
3.536,-0.007748819917299738
3.54,-0.007738578646013575
3.544,-0.007713312035399123
3.548,-0.007694584452460343
3.552,-0.00769251696576877
3.556,-0.0077002099395048545
3.56,-0.007708576048442846
3.564,-0.007715066995032667
3.568,-0.007720596319905478
3.572,-0.007725476550119305
3.576,-0.00772864990178544
3.58,-0.0077309818344491925
3.584,-0.007734083064486551
3.588,-0.007746367781921361
3.592,-0.00777367783868446
3.596,-0.007767427297523891
3.6,-0.007776274217320388
3.604,-0.007795723016546926
3.608,-0.0077754568388609295
3.612,-0.0077472332414666705
3.616,-0.007730885672277491
3.62,-0.007733482050913419
3.624,-0.007714129413858581
3.628,-0.0076807851808212415
3.632,-0.007671385328537464
3.636,-0.007676313639837142
3.64,-0.00768434318117418
3.644,-0.007693117979341901
3.648,-0.007701123480136014
3.652,-0.007708023115955565
3.656,-0.007713360116484973
3.66,-0.007718144184527101
3.664,-0.007722279157910246
3.668,-0.007722759968768751
3.672,-0.007722567644425349
3.676,-0.007724611090573996
3.68,-0.00773028465870436
3.684,-0.007740982700306102
3.688,-0.007751560539193217
3.692,-0.007750695079647908
3.696,-0.0077396123893593615
3.7,-0.007763652932284625
3.704,-0.007789905205159013
3.708,-0.007742521295053318
3.712,-0.007701604290994519
3.716,-0.0076787176941296685
3.72,-0.0076702313824770505
3.724,-0.007675880910064488
3.728,-0.007686362586779903
3.732,-0.00769439212811694
3.736,-0.007701243682850641
3.74,-0.007706484521208348
3.744,-0.007709970399932511
3.748,-0.007713768805714703
3.7520000000000002,-0.007716028616749677
3.7560000000000002,-0.007717110441181314
3.7600000000000002,-0.007727255550295776
3.7640000000000002,-0.007752401958195602
3.7680000000000002,-0.007771754595250439
3.7720000000000002,-0.007754661769230576
3.7760000000000002,-0.007708552007899921
3.7800000000000002,-0.007694464249745716
3.7840000000000003,-0.0077044410750597
3.7880000000000003,-0.007704897845375281
3.7920000000000003,-0.007705018048089907
3.7960000000000003,-0.007689367654645561
3.8000000000000003,-0.0076933103036853035
3.8040000000000003,-0.007696435574265588
3.8080000000000003,-0.007698839628558114
3.8120000000000003,-0.007702854399226633
3.8160000000000003,-0.007705210372433309
3.8200000000000003,-0.007708359683556518
3.8240000000000003,-0.007715619927519948
3.8280000000000003,-0.007734131145572401
3.8320000000000003,-0.007747714052325176
3.8360000000000003,-0.007731438604764772
3.84,-0.007742064524737738
3.844,-0.007746656268436463
3.848,-0.007708576048442846
3.852,-0.007698118412270356
3.856,-0.0076933103036853035
3.86,-0.007706099872521544
3.864,-0.007708648170071621
3.868,-0.007696531736437289
3.872,-0.0076957624390636805
3.876,-0.00770302268302711
3.88,-0.007706484521208348
3.884,-0.00769621920937926
3.888,-0.007691819790023937
3.892,-0.007689127249216308
3.896,-0.007695161425490549
3.9,-0.007708696251157472
3.904,-0.0077458869710628556
3.908,-0.007758820783156647
3.912,-0.007735164888918188
3.916,-0.007708912616043799
3.92,-0.007700474385477032
3.924,-0.007699584885388798
3.928,-0.0076824439782830845
3.932,-0.007680039923990558
3.936,-0.007683694086515198
3.94,-0.007687516532840315
3.944,-0.0076941036416018375
3.948,-0.007702854399226633
3.952,-0.007709297264730603
3.956,-0.007714345778744909
3.96,-0.007717951860183698
3.964,-0.007721798347051741
3.968,-0.007723024414740929
3.972,-0.0077336743752568216
3.976,-0.007748026579383204
3.98,-0.00776225858079496
3.984,-0.007758508256098619
3.988,-0.007714057292229805
3.992,-0.007706821088809302
3.996,-0.007730380820876061
4.0,-0.007735188929461114
4.0040000000000004,-0.007694560411917417
4.008,-0.007674462518031897
4.0120000000000005,-0.007674534639660673
4.016,-0.007681794883624102
4.0200000000000005,-0.007689223411388009
4.024,-0.007696724060780691
4.0280000000000005,-0.0077034554127997645
4.032,-0.0077079750348697145
4.0360000000000005,-0.007710715656763194
4.04,-0.007711653237937279
4.0440000000000005,-0.007708624129528697
4.048,-0.007708071197041415
4.0520000000000005,-0.007711653237937279
4.056,-0.00772088480642058
4.0600000000000005,-0.007736583280950778
4.064,-0.007757186026237729
4.0680000000000005,-0.007762811513282241
4.072,-0.007725692915005633
4.0760000000000005,-0.007705018048089907
4.08,-0.007693166060427752
4.0840000000000005,-0.007686146221893575
4.088,-0.007690497560163048
4.0920000000000005,-0.007697685682497702
4.096,-0.007699055993444441
4.1,-0.007699152155616142
4.104,-0.00770119560176479
4.108,-0.0077045612777743265
4.112,-0.007708263521384817
4.116,-0.0077121821298816355
4.12,-0.007720187630675748
4.124,-0.0077464399035501365
4.128,-0.007768965892271108
4.132,-0.007736943889094658
4.136,-0.007707854832155088
4.14,-0.007687925222070045
4.144,-0.007683694086515198
4.148,-0.00769804629064158
4.152,-0.007728529699070814
4.156,-0.007718240346698802
4.16,-0.0076936949523721074
4.164,-0.007684631667689283
4.168,-0.007679102342816473
4.172,-0.007680881342992943
4.176,-0.007686747235466707
4.18,-0.0076912428169937305
4.184,-0.007693983438887211
4.188,-0.007697276993267972
4.192,-0.007700498426019957
4.196,-0.007701147520678939
4.2,-0.007711797481194831
4.204,-0.007735381253804515
4.208,-0.007722952293112153
4.212,-0.007708936656586725
4.216,-0.007713456278656674
4.22,-0.00770809523758434
4.224,-0.007681458316023149
4.228,-0.007668644706643983
4.232,-0.007684078735202002
4.236,-0.007693598790200407
4.24,-0.007682251653939682
4.244,-0.007680448613220287
4.248,-0.0076821314512250565
4.252,-0.0076863385462369775
4.256,-0.007690185033105019
4.26,-0.007692156357624891
4.264,-0.007702325507282277
4.268,-0.007749180525443616
4.272,-0.007770047716702745
4.276,-0.00770069075036336
4.28,-0.007658138989385644
4.284,-0.007659100611102654
4.288,-0.007680761140278316
4.292,-0.00767881385630137
4.296,-0.007682564180997711
4.3,-0.007695882641778307
4.304,-0.007700955196335537
4.308,-0.007692661209026321
4.312,-0.0076884541140144
4.316,-0.007690401397991347
4.32,-0.007692541006311695
4.324,-0.007696724060780691
4.328,-0.007723913914829164
4.332,-0.007768725486841856
4.336,-0.007727207469209925
4.34,-0.0076796793158466796
4.344,-0.007673500896314887
4.348,-0.007666793584838738
4.352,-0.007684054694659077
4.356,-0.007696700020237765
4.36,-0.007698719425843488
4.364,-0.007707325940210732
4.368,-0.007701940858595473
4.372,-0.007687228046325212
4.376,-0.007677347383182929
4.38,-0.0076745105991177474
4.384,-0.007676433842551769
4.388,-0.007678645572500893
4.392,-0.007689848465504066
4.396,-0.007713360116484973
4.4,-0.007711725359566055
4.404,-0.007698887709643965
4.408,-0.007695017182232997
4.412,-0.007682155491767982
4.416,-0.0076935507091145565
4.42,-0.007713336075942048
4.424,-0.007699152155616142
4.428,-0.007674799085632851
4.432,-0.007673765342287065
4.436,-0.007675880910064488
4.44,-0.007681482356566074
4.444,-0.007690810087221076
4.448,-0.00769850306095716
4.452,-0.0076998012502751245
4.456,-0.007696123047207559
4.46,-0.0076967961824094665
4.464,-0.00771307162996987
4.468,-0.007734804280774309
4.472,-0.007742713619396721
4.476,-0.007763436567398298
4.48,-0.007724394725687669
4.484,-0.007677756072412658
4.488,-0.007667875409270375
4.492,-0.007671721896138417
4.496,-0.007662730733084369
4.5,-0.007674943328890403
4.5040000000000004,-0.007687925222070045
4.508,-0.007679799518561306
4.5120000000000005,-0.00767749162644048
4.516,-0.007685352883977041
4.5200000000000005,-0.0076856173299492195
4.524,-0.0076832373161996185
4.5280000000000005,-0.007683501762171796
4.532,-0.007682323775568458
4.5360000000000005,-0.00768479995148976
4.54,-0.007688069465327596
4.5440000000000005,-0.007691699587309311
4.548,-0.00770347945334269
4.5520000000000005,-0.0077124946569396636
4.556,-0.00773759298375364
4.5600000000000005,-0.00776317212142612
4.564,-0.007692492925225844
4.5680000000000005,-0.007670375625734602
4.572,-0.00767013522030535
4.5760000000000005,-0.007668284098500105
4.58,-0.007673212409799783
4.5840000000000005,-0.007674775045089926
4.588,-0.007655879178350668
4.5920000000000005,-0.007679847599647156
4.596,-0.007681818924167028
4.6000000000000005,-0.007673765342287065
4.604,-0.007673548977400737
4.6080000000000005,-0.007683766208143974
4.612,-0.0076857856137496966
4.616,-0.007681193870050971
4.62,-0.007679967802361782
4.624,-0.007680977505164644
4.628,-0.007682588221540636
4.632,-0.00768333347837132
4.636,-0.007693406465857005
4.64,-0.007720043387418197
4.644,-0.00772864990178544
4.648,-0.007731823253451576
4.652,-0.007708696251157472
4.656,-0.007673548977400737
4.66,-0.007667106111896767
4.664,-0.007670447747363378
4.668,-0.007673356653057335
4.672,-0.007686699154380856
4.676,-0.007694824857889595
4.68,-0.007710691616220269
4.684,-0.007686194302979426
4.688,-0.007659316975988982
4.692,-0.007648859339816492
4.696,-0.007649820961533502
4.7,-0.007655446448578014
4.704,-0.007662201841140013
4.708,-0.007670351585191677
4.712,-0.007677635869698032
4.716,-0.0076741259504309435
4.72,-0.007675592423549385
4.724,-0.007684535505517583
4.728,-0.007678573450872118
4.732,-0.007683525802714721
4.736,-0.007706412399579572
4.74,-0.007712903346169393
4.744,-0.007701219642307715
4.748,-0.0076726113962266515
4.752,-0.0076450609340343
4.756,-0.007642103947254493
4.76,-0.007651720164424598
4.764,-0.007662490327655116
4.768,-0.007670688152792631
4.772,-0.007671409369080388
4.776,-0.0076885502761861015
4.78,-0.007693358384771154
4.784,-0.0076754722208347585
4.788,-0.0076696784499897695
4.792,-0.007673428774686111
4.796,-0.007699512763760022
4.8,-0.007716797914123286
4.804,-0.007719562576559691
4.808,-0.0076944161686598655
4.812,-0.007668788949901535
4.816,-0.00765236925908358
4.82,-0.007643209812229055
4.824,-0.007643666582544635
4.828,-0.007647705393756079
4.832,-0.00766414912511696
4.836,-0.00765917273273143
4.84,-0.007653523205143993
4.844,-0.007656961002782306
4.848,-0.007669077436416638
4.852,-0.007682564180997711
4.856,-0.007673044125999307
4.86,-0.007668187936328404
4.864,-0.007664413571089137
4.868,-0.007668163895785478
4.872,-0.007696844263495317
4.876,-0.007713672643543001
4.88,-0.007679655275303754
4.884,-0.007669005314787862
4.888,-0.0076719863421105955
4.892,-0.007669798652704396
4.896,-0.0076610478950796005
4.9,-0.007653619367315694
4.904,-0.007648017920814107
4.908,-0.007656215745951623
4.912,-0.007658018786671017
4.916,-0.007650157529134456
4.92,-0.0076443877988323925
4.924,-0.007656576354095501
4.928,-0.007658764043501701
4.932,-0.007660759408564497
4.936,-0.007663620233172603
4.94,-0.007644676285347496
4.944,-0.007640661514678977
4.948,-0.007662129719511237
4.952,-0.007646599528781517
4.956,-0.0076331368247433695
4.96,-0.007651912488768
4.964,-0.007680448613220287
4.968,-0.007660855570736198
4.972,-0.007636189973694878
4.976,-0.007634098446460381
4.98,-0.007653138556457189
4.984,-0.0076549415971765835
4.988,-0.007642440514855447
4.992,-0.007648883380359417
4.996,-0.0076627066925414435
5.0,-0.007669414004017592
5.0040000000000004,-0.0076664329766948595
5.008,-0.007656095543236996
5.0120000000000005,-0.00763501198709154
5.016,-0.0076205155397076054
5.0200000000000005,-0.007622919594000132
5.024,-0.007632776216599491
5.0280000000000005,-0.0076446282042616455
5.032,-0.0076707121933355564
5.0360000000000005,-0.007666673382124112
5.04,-0.007656191705408697
5.0440000000000005,-0.007618712498988211
5.048,-0.007608879916931778
5.0520000000000005,-0.007603831402917473
5.056,-0.007602533213599509
5.0600000000000005,-0.007619457755818894
5.064,-0.0076329685409428924
5.0680000000000005,-0.0076366227034675325
5.072,-0.007635420676321269
5.0760000000000005,-0.007629602864933355
5.08,-0.007631333784023974
5.0840000000000005,-0.0076349639060056896
5.088,-0.007644676285347496
5.0920000000000005,-0.007643257893314905
5.096,-0.007638786352330807
5.1000000000000005,-0.007639026757760059
5.104,-0.00763816129821475
5.1080000000000005,-0.007651960569853851
5.112,-0.007684367221717106
5.1160000000000005,-0.0076930218171702
5.12,-0.007687131884153511
5.124,-0.00764825832624336
5.128,-0.007613279336287101
5.132,-0.0075892868744476885
5.136,-0.007592604469371374
5.14,-0.007590368698879325
5.144,-0.007603639078574071
5.148,-0.007643017487885653
5.152,-0.007646839934210769
5.156,-0.007617919161071677
5.16,-0.007600465726907936
5.164,-0.007597388537413502
5.168,-0.007600057037678206
5.172,-0.007605586362551017
5.176,-0.007611740741539885
5.18,-0.007616813296097115
5.184,-0.007622030093911897
5.188,-0.007631165500223497
5.192,-0.007646719731496144
5.196,-0.00764095000119408
5.2,-0.007628569121587569
5.204,-0.007618904823331613
5.208,-0.007618399971930182
5.212,-0.00761450540397629
5.216,-0.00761135609285308
5.22,-0.007637944933328422
5.224,-0.007671241085279912
5.228,-0.007640541311964351
5.232,-0.0075980857131583346
5.236,-0.007585151901064543
5.24,-0.007586642414725909
5.244,-0.007587724239157546
5.248,-0.007586137563324479
5.252,-0.007583637346860251
5.256,-0.007592748712628926
5.26,-0.007601619672968348
5.264,-0.0076169575393546666
5.268,-0.007605321916578839
5.272,-0.007601523510796648
5.276,-0.007605971011237821
5.28,-0.007614625606690916
5.284,-0.007639651811876116
5.288,-0.007643161731143204
5.292,-0.007628809527016821
5.296,-0.007617943201614602
5.3,-0.0075999849160494305
5.304,-0.0075898398069349695
5.308,-0.007585921198438151
5.312,-0.0075903446583364
5.316,-0.007594792158777574
5.32,-0.007600585929622562
5.324,-0.0075800072248785365
5.328,-0.0075658233045526315
5.332,-0.007567698466900802
5.336,-0.007574501940548651
5.34,-0.007588950306846734
5.344,-0.007586594333640059
5.348,-0.007579814900535135
5.352,-0.007583252698173447
5.356,-0.00760455261920523
5.36,-0.007598278037501737
5.364,-0.007578564792303021
5.368,-0.0075802476303077895
5.372,-0.007584598968577262
5.376,-0.007577122359727505
5.38,-0.007580632278994593
5.384,-0.007596667321125745
5.388,-0.007614986214834795
5.392,-0.007594551753348321
5.396,-0.007570895859109862
5.4,-0.007573420116117014
5.404,-0.007596306712981865
5.408,-0.007621837769568495
5.412,-0.007625011121234629
5.416,-0.007584598968577262
5.42,-0.007548658356903993
5.424,-0.007567626345272026
5.428,-0.007562866317772824
5.432,-0.007546807235098749
5.436,-0.007544138734834044
5.44,-0.007553778992547075
5.444,-0.00756060650673785
5.448,-0.007558490938960426
5.452,-0.007555654154895245
5.456,-0.007556928303670284
5.46,-0.007562986520487451
5.464,-0.007579742778906359
5.468,-0.007598470361845139
5.472,-0.007601595632425423
5.476,-0.007596859645469146
5.48,-0.007576329021810971
5.484,-0.007569886156307001
5.488,-0.007569717872506524
5.492,-0.007580968846595548
5.496,-0.0075783484274166936
5.5,-0.0075597170066496145
5.5040000000000004,-0.00755796204701607
5.508,-0.007553827073632925
5.5120000000000005,-0.007551951911284755
5.516,-0.007555365668380142
5.5200000000000005,-0.007556832141498583
5.524,-0.0075583707362458
5.5280000000000005,-0.007558923668733081
5.532,-0.007560846912167102
5.5360000000000005,-0.007563972182747386
5.54,-0.007568251399388083
5.5440000000000005,-0.007570751615852311
5.548,-0.007566231993782361
5.5520000000000005,-0.007597869348272008
5.556,-0.007621741607396794
5.5600000000000005,-0.007588613739245781
5.564,-0.007550389275994613
5.5680000000000005,-0.0075437060050613895
5.572,-0.007540244166880151
5.5760000000000005,-0.00754101346425376
5.58,-0.007538128599102728
5.5840000000000005,-0.007541470234569339
5.588,-0.0075410855858825355
5.5920000000000005,-0.0075442589375486705
5.596,-0.007547312086500179
5.6000000000000005,-0.007548706437989844
5.604,-0.00755101433011067
5.6080000000000005,-0.007553370303317345
5.612,-0.007565558858580453
5.6160000000000005,-0.007584358563148009
5.62,-0.0075959461048379865
5.6240000000000006,-0.00758760403644292
5.628,-0.007579358130219554
5.632,-0.007577579130043085
5.636,-0.007548393910931816
5.64,-0.007526420854698123
5.644,-0.007528320057589219
5.648,-0.007514881394093996
5.652,-0.007516275745583662
5.656,-0.007528223895417518
5.66,-0.007532479071515289
5.664,-0.007530002895593987
5.668,-0.007531805936313382
5.672,-0.0075359409096965296
5.676,-0.007538008396388102
5.68,-0.0075400999236226
5.684,-0.007542503977915126
5.688,-0.007544090653748193
5.692,-0.007544475302434997
5.696,-0.007553778992547075
5.7,-0.007576064575838794
5.704,-0.007580439954651192
5.708,-0.007561135398682205
5.712,-0.007544138734834044
5.716,-0.007526829543927852
5.72,-0.007523752354433419
5.724,-0.007533272409431825
5.728,-0.007516948880785569
5.732,-0.007523800435519269
5.736,-0.007540340329051852
5.74,-0.007553105857345167
5.744,-0.0075314693687124285
5.748,-0.007520891529825312
5.752,-0.007513366839889705
5.756,-0.007502813041545514
5.76,-0.007506443163527229
5.764,-0.007508150042074922
5.768,-0.007504784366065386
5.772,-0.007521420421769668
5.776,-0.007518607678247412
5.78,-0.007496682703099573
5.784,-0.00749197075668622
5.788,-0.007493629554148064
5.792,-0.0074973798788444046
5.796,-0.007500264743995437
5.8,-0.007500360906167137
5.804,-0.0075007936359397925
5.808,-0.007506395082441378
5.812,-0.007513655326404808
5.816,-0.007525988124925468
5.82,-0.00753207038228556
5.824,-0.0075373593017291195
5.828,-0.007547696735186983
5.832,-0.007533657058118629
5.836,-0.007516035340154409
5.84,-0.007502837082088439
5.844,-0.007493244905461259
5.848,-0.007485047080323745
5.852,-0.007482907472003396
5.856,-0.007487282850815794
5.86,-0.007485263445210073
5.864,-0.0074721613493158034
5.868,-0.007472545998002608
5.872,-0.007479421593279233
5.876,-0.0074843018234930616
5.88,-0.007490888932254584
5.884,-0.007491682270171118
5.888,-0.007485575972268101
5.892,-0.007484950918152044
5.896,-0.007502500514487486
5.9,-0.007507669231216417
5.904,-0.007499495446621828
5.908,-0.007541999126513696
5.912,-0.007533200287803049
5.916,-0.007478916741877803
5.92,-0.007459323699393713
5.924,-0.007450861428284021
5.928,-0.007456799442386561
5.932,-0.007460309361653649
5.936,-0.0074574244965026175
5.94,-0.007460092996767321
5.944,-0.007470334268053483
5.948,-0.007476753093014529
5.952,-0.007480527458253795
5.956,-0.007482522823316592
5.96,-0.007484037377520884
5.964,-0.007485047080323745
5.968,-0.007485431729010549
5.972,-0.007485047080323745
5.976,-0.007495504716496235
5.98,-0.0075128379479453495
5.984,-0.007511852285685413
5.988,-0.00751065025853915
5.992,-0.007480719782597197
5.996,-0.0074585303614771795
6.0,-0.007458554402020105
6.0040000000000004,-0.0074808880663976745
6.008,-0.007468579308419939
6.0120000000000005,-0.007445644630469238
6.016,-0.007432686777832521
6.0200000000000005,-0.007444130076264947
6.024,-0.007481104431284001
6.0280000000000005,-0.007501586973856326
6.032,-0.007473074889946964
6.0360000000000005,-0.0074566311585860835
6.04,-0.007454587712437437
6.0440000000000005,-0.007451462441857152
6.048,-0.0074453801844970606
6.0520000000000005,-0.0074590111723356846
6.056,-0.007465213632410403
6.0600000000000005,-0.007452255779773685
6.064,-0.007450693144483544
6.0680000000000005,-0.007457472577588468
6.072,-0.007451654766200554
6.0760000000000005,-0.007446582211643324
6.08,-0.007443240576176712
6.0840000000000005,-0.007442663603146505
6.088,-0.007448769901049522
6.0920000000000005,-0.007457809145189421
6.096,-0.00746908415982137
6.1000000000000005,-0.0074816092826854325
6.104,-0.007488124269818179
6.1080000000000005,-0.007476103998355547
6.112,-0.007478387849933447
6.1160000000000005,-0.007474589444151255
6.12,-0.0074731229710328145
6.1240000000000006,-0.00749562491921086
6.128,-0.007505794068868247
6.132000000000001,-0.0074965865409278715
6.136,-0.007478964822963653
6.140000000000001,-0.007465165551324552
6.144,-0.007476584809214052
6.148,-0.0074928602567744555
6.152,-0.007471920943886551
6.156,-0.007460549767082902
6.16,-0.007463170186261755
6.164,-0.007475190457724387
6.168,-0.007474300957636152
6.172,-0.007468819713849192
6.176,-0.007470839119454915
6.18,-0.007486777999414364
6.184,-0.007514520785950118
6.188,-0.007500024338566184
6.192,-0.0074720892276870276
6.196,-0.0074939661217490175
6.2,-0.0075031736496893936
6.204,-0.007470286186967633
6.208,-0.007444995535810257
6.212,-0.007435475480811852
6.216,-0.00743706215664492
6.22,-0.007440572075912008
6.224,-0.007444226238436648
6.228,-0.007446101400784819
6.232,-0.007447087063044754
6.236,-0.007447952522590064
6.24,-0.007448673738877821
6.244,-0.007449226671365103
6.248,-0.00744812080639054
6.252,-0.007442182792288
6.256,-0.007447327468474007
6.26,-0.007477330066044736
6.264,-0.007474926011752209
6.268,-0.007446774535986726
6.272,-0.007437831454018527
6.276,-0.007426868966444607
6.28,-0.0074048478291250655
6.284,-0.007399895477282461
6.288,-0.007400784977370696
6.292,-0.007402227409946212
6.296,-0.0074066749103873855
6.3,-0.007416074762671163
6.304,-0.007429056655850806
6.308,-0.007426820885358757
6.312,-0.007419224073794373
6.316,-0.007425811182555895
6.32,-0.007421796411887376
6.324,-0.007413790911093263
6.328,-0.00741345434349231
6.332,-0.0074255467365837175
6.336,-0.007427830588161617
6.34,-0.007418767303478793
6.344,-0.007419344276508999
6.348,-0.00740883855925066
6.352,-0.007386745300302342
6.356,-0.007387298232789623
6.36,-0.00740020800434049
6.364,-0.007414488086838096
6.368,-0.007409824221510595
6.372,-0.0074080211807912005
6.376,-0.0074104011945408015
6.38,-0.007400929220628248
6.384,-0.007391553408887395
6.388,-0.007391168760200591
6.392,-0.007398284760906469
6.396,-0.0073987415312220485
6.4,-0.007402828423519344
6.404,-0.007396145152586121
6.408,-0.007391505327801544
6.412,-0.0073968423283309525
6.416,-0.007402059126145735
6.42,-0.007405496923784048
6.424,-0.007411939789288018
6.428,-0.007429321101822983
6.432,-0.00745172688782933
6.436,-0.007464179889064617
6.44,-0.007414536167923947
6.444,-0.007375975137071824
6.448,-0.007372200771832558
6.452,-0.0073747250288397105
6.456,-0.007381264056515382
6.46,-0.007387202070617923
6.464,-0.007393428571235565
6.468,-0.007401217707143351
6.472,-0.0074066749103873855
6.476,-0.00740980018096767
6.48,-0.007413189897520132
6.484,-0.007419464479223626
6.488,-0.007425210168982763
6.492,-0.007426508358300728
6.496,-0.007436869832301517
6.5,-0.007457280253245066
6.5040000000000004,-0.007453001036604369
6.508,-0.007438095899990706
6.5120000000000005,-0.007419175992708522
6.516,-0.007401145585514575
6.5200000000000005,-0.007420378019854785
6.524,-0.007425739060927119
6.5280000000000005,-0.0074192000332514475
6.532,-0.007402588018090091
6.5360000000000005,-0.007388812786993915
6.54,-0.00738609620564336
6.5440000000000005,-0.007391721692687872
6.548,-0.007399222342080554
6.5520000000000005,-0.007404030450665607
6.556,-0.007407828856447798
6.5600000000000005,-0.007411218573000261
6.564,-0.007413430302949385
6.5680000000000005,-0.007415497789640957
6.572,-0.007420930952342066
6.5760000000000005,-0.0074325184940320435
6.58,-0.00743487446723872
6.5840000000000005,-0.007438865197364314
6.588,-0.0074262919934144
6.5920000000000005,-0.007419248114337298
6.596,-0.007424633195952557
6.6000000000000005,-0.007413430302949385
6.604,-0.007399871436739536
6.6080000000000005,-0.007404198734466083
6.612,-0.0074111945324573355
6.6160000000000005,-0.007418815384564644
6.62,-0.007437302562074172
6.6240000000000006,-0.007439442170394521
6.628,-0.007409487653909641
6.632000000000001,-0.007390038854683104
6.636,-0.007388380057221261
6.640000000000001,-0.007389750368168
6.644,-0.00739705869321728
6.648000000000001,-0.007411026248656858
6.652,-0.007403814085779279
6.656000000000001,-0.007398092436563066
6.66,-0.007401650436916005
6.664,-0.007404150653380233
6.668,-0.007406722991473236
6.672,-0.007405376721069421
6.676,-0.007411483018972438
6.68,-0.007425931385270521
6.684,-0.007425089966268137
6.688,-0.00741710850601695
6.692,-0.00739741930136116
6.696,-0.0074000156799970875
6.7,-0.007423262885005818
6.704,-0.007425811182555895
6.708,-0.0074293451423659085
6.712,-0.007424152385094052
6.716,-0.007394366152409651
6.72,-0.007378884042765781
6.724,-0.007377946461591696
6.728,-0.0073871780300749975
6.732,-0.007397948193305515
6.736,-0.007395303733583736
6.74,-0.007390760070970862
6.744,-0.007386360651615538
6.748,-0.007386985705731595
6.752,-0.007387514597675951
6.756,-0.007386817421931118
6.76,-0.007389269557309495
6.764,-0.007388716624822214
6.768,-0.007389029151880242
6.772,-0.00740299670731982
6.776,-0.007424392790523305
6.78,-0.007411050289199784
6.784,-0.007397683747333337
6.788,-0.007390808152056712
6.792,-0.007369123582338125
6.796,-0.007361021919372311
6.8,-0.007379388894167212
6.804,-0.007398453044706946
6.808,-0.007415930519413612
6.812,-0.007422445506546358
6.816,-0.007406482586043983
6.82,-0.0073981885987347675
6.824,-0.007385567313699004
6.828,-0.007365397298184709
6.832,-0.007354314607896162
6.836,-0.007354458851153714
6.84,-0.0073590265543095135
6.844,-0.007372248852918408
6.848,-0.0073851105433834245
6.852,-0.007375374123498693
6.856,-0.007370253487855612
6.86,-0.0073782109075638735
6.864,-0.007396193233671971
6.868,-0.007399318504252255
6.872,-0.007380086069912044
6.876,-0.007379845664482792
6.88,-0.007380230313169596
6.884,-0.007385038421754649
6.888,-0.00741117049191441
6.892,-0.007395784544442241
6.896,-0.007374821191011412
6.9,-0.007363113446606809
6.904,-0.007360637270685507
6.908,-0.007355011783640995
6.912,-0.007351045094058327
6.916,-0.007355131986355621
6.92,-0.00736782539302016
6.924,-0.007375253920784066
6.928,-0.007364724162982801
6.932,-0.007358858270509037
6.936,-0.007370013082426359
6.94,-0.007380951529457354
6.944,-0.007377177164218087
6.948,-0.007375806853271347
6.952,-0.007395616260641765
6.956,-0.007393717057750669
6.96,-0.007379893745568643
6.964,-0.0073662387171870925
6.968,-0.007366599325330972
6.972,-0.0073623441492332
6.976,-0.007353064499664048
6.98,-0.00735503582418392
6.984,-0.007360276662541627
6.988,-0.0073633057709502105
6.992,-0.007378619596793604
6.996,-0.007403068828948596
7.0,-0.00740340539654955
7.0040000000000004,-0.007370710258171192
7.008,-0.007362945162806332
7.0120000000000005,-0.0073786917184223795
7.016,-0.007380951529457354
7.0200000000000005,-0.0073603007030845526
7.024,-0.007347126485561508
7.0280000000000005,-0.007352511567176767
7.032,-0.007357271594675969
7.0360000000000005,-0.007367440744333356
7.04,-0.007372657542148138
7.0440000000000005,-0.007365204973841306
7.048,-0.007358617865079784
7.0520000000000005,-0.007358834229966112
7.056,-0.007358064932592503
7.0600000000000005,-0.007361911419460546
7.064,-0.007374292299067056
7.0680000000000005,-0.007400736896284846
7.072,-0.007404751666953364
7.0760000000000005,-0.007383403664835731
7.08,-0.007365757906328587
7.0840000000000005,-0.007368883176908872
7.088,-0.007367705190305534
7.0920000000000005,-0.007355612797214126
7.096,-0.007345371525927964
7.1000000000000005,-0.007331620335374713
7.104,-0.007332822362520976
7.1080000000000005,-0.007346597593617153
7.112,-0.007360036257112375
7.1160000000000005,-0.0073667916496743735
7.12,-0.007363089406063884
7.1240000000000006,-0.007377153123675162
7.128,-0.007364435676467698
7.132000000000001,-0.007347799620763416
7.136,-0.007345756174614768
7.140000000000001,-0.0073515018643739065
7.144,-0.007357800486620325
7.148000000000001,-0.007359218878652916
7.152,-0.007362897081720481
7.156000000000001,-0.007365277095470082
7.16,-0.007355059864726845
7.164000000000001,-0.0073541222835527605
7.168,-0.007375326042412842
7.172,-0.007397683747333337
7.176,-0.0074021552883174364
7.18,-0.0073926352333190315
7.184,-0.0073653732576417835
7.188,-0.007342390498605232
7.192,-0.007332341551662471
7.196,-0.007328014253935923
7.2,-0.007331956902975666
7.204,-0.00734681395850348
7.208,-0.007371167028486772
7.212,-0.007348352553250697
7.216,-0.007325297672585368
7.22,-0.007323710996752301
7.224,-0.007327052632218912
7.228,-0.0073330146868643776
7.232,-0.007339721998340528
7.236,-0.007343688687923196
7.24,-0.007348857404652127
7.244,-0.00735635805404481
7.248,-0.007360180500369926
7.252,-0.007363522135836538
7.256,-0.007368450447136217
7.26,-0.007378307069735575
7.264,-0.007392731395490733
7.268,-0.007390711989885011
7.272,-0.007378186867020949
7.276,-0.007367344582161655
7.28,-0.007364916487326204
7.284,-0.007360396865256254
7.288,-0.007361358486973265
7.292,-0.007363089406063884
7.296,-0.007364676081896951
7.3,-0.007369291866138601
7.304,-0.007370157325683911
7.308,-0.007345996580044021
7.312,-0.007331091443430357
7.316,-0.007330538510943076
7.32,-0.007334096511296015
7.324,-0.0073389767415098445
7.328,-0.007343640606837345
7.332,-0.0073472226477332096
7.336,-0.007348809323566277
7.34,-0.0073481602289072944
7.344,-0.007347871742392192
7.348,-0.007355757040471678
7.352,-0.0073574398784764464
7.356,-0.007345756174614768
7.36,-0.007335442781699829
7.364,-0.007339361390196648
7.368,-0.007358858270509037
7.372,-0.007376528069559105
7.376,-0.007401241747686276
7.38,-0.007375326042412842
7.384,-0.007324816861726863
7.388,-0.007297218318448661
7.392,-0.007307002819419243
7.396,-0.007339577755082976
7.4,-0.007343279998693467
7.404,-0.007329793254112393
7.408,-0.0073093107115400685
7.412,-0.007303420778523379
7.416,-0.007298732872652953
7.42,-0.007301834102690311
7.424,-0.00731123395497409
7.428,-0.007315441049986011
7.432,-0.00731534488781431
7.436,-0.007316402671703021
7.44,-0.007321138658659298
7.444,-0.007319672185540857
7.448,-0.0073139024552387934
7.452,-0.007329745173026542
7.456,-0.007343039593264214
7.46,-0.007323206145350871
7.464,-0.007301569656718134
7.468,-0.00730854141416646
7.472,-0.007322316645262636
7.476,-0.007327821929592521
7.48,-0.007302531278435144
7.484,-0.007281664087176016
7.488,-0.007285510574044058
7.492,-0.007305536346300802
7.496,-0.00730854141416646
7.5,-0.007313950536324644
7.5040000000000004,-0.0073486410397658
7.508,-0.007340707660600463
7.5120000000000005,-0.0073042381569828375
7.516,-0.007288299277023388
7.5200000000000005,-0.00728438066852657
7.524,-0.007288659885167267
7.5280000000000005,-0.007290895655659317
7.532,-0.007292338088234832
7.5360000000000005,-0.00729762700767839
7.54,-0.007301882183776162
7.5440000000000005,-0.007298540548309551
7.548,-0.007300487832286497
7.5520000000000005,-0.007302867846036098
7.556,-0.0073068585761616915
7.5600000000000005,-0.007309935765656125
7.564,-0.0073023389540917425
7.5680000000000005,-0.0073063056436744106
7.572,-0.00732493706444149
7.5760000000000005,-0.007325778483443874
7.58,-0.0073350340924701
7.5840000000000005,-0.007323542712951824
7.588,-0.007308926062853265
7.5920000000000005,-0.00729397284515375
7.596,-0.007280966911431183
7.6000000000000005,-0.0072812553979462865
7.604,-0.007284765317213375
7.6080000000000005,-0.0072911601016314945
7.612,-0.007297482764420839
7.6160000000000005,-0.00730310825146535
7.62,-0.007308373130365983
7.6240000000000006,-0.00731681136093275
7.628,-0.007320754009972494
7.632000000000001,-0.007317147928533704
7.636,-0.007312868711893007
7.640000000000001,-0.0073282546593651755
7.644,-0.007350444080485195
7.648000000000001,-0.007346958201761031
7.652,-0.007339673917254677
7.656000000000001,-0.00731270042809253
7.66,-0.007296400939989202
7.664000000000001,-0.007300103183599692
7.668,-0.007292193844977281
7.672000000000001,-0.007291881317919253
7.676,-0.00729945408894071
7.68,-0.007306161400416859
7.684,-0.007306618170732439
7.688,-0.0073063056436744106
7.692,-0.007306978778876318
7.696,-0.0073058248328159055
7.7,-0.007311979211804772
7.704,-0.007329745173026542
7.708,-0.007358978473223663
7.712,-0.007346068701672797
7.716,-0.007313613968723691
7.72,-0.007307940400593328
7.724,-0.007322725334492366
7.728,-0.007313085076779335
7.732,-0.007306594130189513
7.736,-0.00731498427967043
7.74,-0.007327581524163269
7.744,-0.007325586159100472
7.748,-0.0073251774698707426
7.752,-0.0073207299694295685
7.756,-0.007298636710481252
7.76,-0.00728611158761719
7.764,-0.007293564155924021
7.768,-0.007305055535442297
7.772,-0.007302387035177592
7.776,-0.007301449454003507
7.78,-0.00730529594087155
7.784,-0.007308252927651357
7.788,-0.007313710130895392
7.792,-0.007321619469517803
7.796,-0.007333134889579004
7.8,-0.007332630038177574
7.804,-0.007310272333257079
7.808,-0.007302459156806368
7.812,-0.007304694927298418
7.816,-0.007321451185717327
7.82,-0.007339914322683929
7.824,-0.00734727072881906
7.828,-0.007319263496311127
7.832,-0.007319672185540857
7.836,-0.007307724035707001
7.84,-0.0073053440219574
7.844,-0.007304502602955016
7.848,-0.007290246561000335
7.852,-0.007290198479914484
7.856,-0.007292963142350889
7.86,-0.007293684358638647
7.864,-0.007305464224672026
7.868,-0.007315705495958188
7.872,-0.007306065238245158
7.876,-0.007296761548133081
7.88,-0.007299117521339757
7.884,-0.007304911292184745
7.888,-0.0073082048465655065
7.892,-0.007314142860668046
7.896,-0.0073175566177634335
7.9,-0.007319792388255483
7.904,-0.007341236552544819
7.908,-0.007336332281788065
7.912,-0.007333543578808734
7.916,-0.0073354668222427545
7.92,-0.007317917225907313
7.924,-0.007302435116263443
7.928,-0.007285943303816713
7.932,-0.007288155033765837
7.936,-0.007286808763362022
7.94,-0.007283298844094933
7.944,-0.007288515641909716
7.948,-0.007295535480443893
7.952,-0.007302218751377116
7.956,-0.007312508103749129
7.96,-0.007312315779405726
7.964,-0.007309262630454218
7.968,-0.007312580225377904
7.972,-0.007323254226436721
7.976,-0.007332654078720499
7.98,-0.007327845970135446
7.984,-0.007329624970311916
7.988,-0.007325922726701425
7.992,-0.007304815130013044
7.996,-0.0072976510482213154
8.0,-0.0073004397512006465
8.004,-0.007306497968017813
8.008000000000001,-0.007316594996046423
8.012,-0.007330947200172805
8.016,-0.007318518239480445
8.02,-0.007310512738686332
8.024000000000001,-0.007338519971194265
8.028,-0.007321451185717327
8.032,-0.007288635844624342
8.036,-0.007274403843212586
8.040000000000001,-0.0072776012354216464
8.044,-0.007287169371505901
8.048,-0.007290751412401765
8.052,-0.0072912322232602704
8.056000000000001,-0.007300800359344525
8.06,-0.007307916360050403
8.064,-0.007300151264685543
8.068,-0.007302459156806368
8.072000000000001,-0.007325489996928771
8.076,-0.0073279421323071475
8.08,-0.0073061373598739335
8.084,-0.007300896521516226
8.088000000000001,-0.007326788186246735
8.092,-0.007335851470929559
8.096,-0.0073018581432332365
8.1,-0.007282409344006699
8.104000000000001,-0.007279452357226892
8.108,-0.0072843325874407195
8.112,-0.007293948804610825
8.116,-0.007295944169673622
8.120000000000001,-0.007303540981238006
8.124,-0.007326091010501902
8.128,-0.007362969203349257
8.132,-0.007349314174967708
8.136000000000001,-0.0073215233073461025
8.14,-0.007303901589381884
8.144,-0.007291592831404149
8.148,-0.007298973278082205
8.152000000000001,-0.0072967134670472306
8.156,-0.007281856411519418
8.16,-0.007276831938048038
8.164,-0.007278058005737226
8.168000000000001,-0.007283010357579831
8.172,-0.007286039465988414
8.176,-0.007285125925357253
8.18,-0.0072986126699383265
8.184000000000001,-0.007309430914254695
8.188,-0.007302122589205415
8.192,-0.007317027725819078
8.196,-0.007317075806904928
8.2,-0.007297963575279344
8.204,-0.007311762846918445
8.208,-0.007342198174261829
8.212,-0.0073135178065519895
8.216,-0.007273105653894622
8.22,-0.0072789475058254605
8.224,-0.007288155033765837
8.228,-0.007305416143586175
8.232,-0.0072967134670472306
8.236,-0.0072837796549534385
8.24,-0.007285438452415282
8.244,-0.007279933168085397
8.248,-0.0072764953704470845
8.252,-0.007274932735156942
8.256,-0.007273802829639455
8.26,-0.007284044100925617
8.264,-0.007304262197525763
8.268,-0.007327004551133062
8.272,-0.007318566320566295
8.276,-0.0073028918865790235
8.28,-0.007291280304346121
8.284,-0.007296689426504305
8.288,-0.007315633374329412
8.292,-0.007305848873358831
8.296,-0.007288924331139445
8.3,-0.007277961843565525
8.304,-0.007267672491193512
8.308,-0.007278033965194301
8.312,-0.007291761115204626
8.316,-0.007315224685099683
8.32,-0.007329985578455795
8.324,-0.0073068585761616915
8.328,-0.007299838737627515
8.332,-0.0073068585761616915
8.336,-0.00732087421268712
8.34,-0.0073063777653031865
8.344,-0.007322364726348486
8.348,-0.007334505200525744
8.352,-0.00729483830469906
8.356,-0.00727204787000591
8.36,-0.00727022078874359
8.364,-0.007272793126836594
8.368,-0.0072673840046784096
8.372,-0.007280510141115603
8.376,-0.007287818466164883
8.38,-0.007299550251112411
8.384,-0.007321691591146579
8.388,-0.007336332281788065
8.392,-0.007324576456297611
8.396,-0.0072951989128429385
8.4,-0.007281303479032137
8.404,-0.007279837005913696
8.408,-0.007305656549015428
8.412,-0.007310296373800004
8.416,-0.007299357926769009
8.42,-0.007299237724054383
8.424,-0.007289669587970129
8.428,-0.007289669587970129
8.432,-0.007296328818360427
8.436,-0.007299502170026561
8.44,-0.007310777184658509
8.444,-0.0073119311307189225
8.448,-0.007315873779758665
8.452,-0.007315585293243562
8.456,-0.007287938668879509
8.46,-0.007280173573514649
8.464,-0.0072997185349128885
8.468,-0.007306425846389037
8.472,-0.007297843372564718
8.476,-0.007286832803904947
8.48,-0.007269331288655355
8.484,-0.007266278139703848
8.488,-0.0072707015996020955
8.492,-0.007275052937871568
8.496,-0.007300680156629899
8.5,-0.007316426712245946
8.504,-0.007294044966782526
8.508000000000001,-0.007277168505648991
8.512,-0.0072743557621267356
8.516,-0.0072839479387539156
8.52,-0.007288179074308762
8.524000000000001,-0.007284933601013851
8.528,-0.007285582695672833
8.532,-0.00727885134365376
8.536,-0.007282433384549624
8.540000000000001,-0.007294958507413686
8.544,-0.007294309412754704
8.548,-0.007286832803904947
8.552,-0.007286712601190321
8.556000000000001,-0.007301209048574254
8.56,-0.007306329684217336
8.564,-0.0072893570609121
8.568,-0.007284693195584599
8.572000000000001,-0.007292866980179188
8.576,-0.007264547220613228
8.58,-0.00725875344976824
8.584,-0.007256589800904966
8.588000000000001,-0.007260147801257905
8.592,-0.007266085815360445
8.596,-0.007272144032177612
8.6,-0.007276639613704635
8.604000000000001,-0.007284524911784122
8.608,-0.007293636277552797
8.612,-0.007292987182893815
8.616,-0.00729164091249
8.620000000000001,-0.007307026859962169
8.624,-0.007285654817301609
8.628,-0.007278586897681582
8.632,-0.007296641345418455
8.636000000000001,-0.0072959922507594725
8.64,-0.007284092182011467
8.644,-0.007267480166850111
8.648,-0.007275437586558372
8.652000000000001,-0.007275101018957419
8.656,-0.0072714949375186294
8.66,-0.007267792693908139
8.664,-0.007260989220260289
8.668000000000001,-0.007256084949503535
8.672,-0.007249113192055209
8.676,-0.007250243097572696
8.68,-0.007253728976296859
8.684000000000001,-0.0072581764767380335
8.688,-0.007264499139527377
8.692,-0.007271350694261078
8.696,-0.00727296141063707
8.700000000000001,-0.00727433172158381
8.704,-0.0072723603970639384
8.708,-0.007280173573514649
8.712,-0.007311714765832595
8.716,-0.007332990646321453
8.72,-0.007296521142703828
8.724,-0.007276375167732458
8.728,-0.007273538383667276
8.732,-0.007270725640145021
8.736,-0.0072802216546005
8.74,-0.007255219489958226
8.744,-0.007247911164908946
8.748,-0.0072424780022078365
8.752,-0.007246733178305608
8.756,-0.007264066409754723
8.76,-0.0072688745183397754
8.764,-0.007258921733568717
8.768,-0.007258248598366809
8.772,-0.007256157071132311
8.776,-0.007256133030589386
8.78,-0.007259138098455044
8.784,-0.0072626960988079825
8.788,-0.007268970680511477
8.792,-0.0072749808162427924
8.796,-0.0072847412766704495
8.8,-0.007285871182187937
8.804,-0.007295944169673622
8.808,-0.007302988048750724
8.812,-0.007294020926239601
8.816,-0.007281039033059959
8.82,-0.0072736345458389775
8.824,-0.007242309718407359
8.828,-0.007234881190643451
8.832,-0.007259787193114026
8.836,-0.007289164736568697
8.84,-0.007272648883579042
8.844,-0.007255772422445507
8.848,-0.007248440056853302
8.852,-0.007240194150629937
8.856,-0.007240674961488442
8.86,-0.007244665691614035
8.864,-0.0072515172463477355
8.868,-0.007256133030589386
8.872,-0.007260027598543279
8.876,-0.007265100153100509
8.88,-0.007259546787684774
8.884,-0.0072871212904200506
8.888,-0.007295030629042462
8.892,-0.007262984585323086
8.896,-0.007247718840565544
8.9,-0.007253127962723728
8.904,-0.007270124626571889
8.908,-0.007276279005560757
8.912,-0.007251421084176034
8.916,-0.007237405447650604
8.92,-0.007237333326021828
8.924,-0.007244809934871587
8.928,-0.007245939840389074
8.932,-0.007244160840212605
8.936,-0.00725144512471896
8.94,-0.00726144599057587
8.944,-0.0072733220187809495
8.948,-0.007286977047162499
8.952,-0.0073001993457713936
8.956,-0.007300487832286497
8.96,-0.0072839479387539156
8.964,-0.0072771204245631405
8.968,-0.007238343028824691
8.972,-0.007236780393534547
8.976,-0.007242021231892257
8.98,-0.007240097988458235
8.984,-0.00723666019081992
8.988,-0.007236443825933594
8.992,-0.007240218191172862
8.996,-0.007235602406931209
9.0,-0.007237910299052037
9.004,-0.007252767354579849
9.008000000000001,-0.007261494071661719
9.012,-0.007266686828933577
9.016,-0.007270028464400188
9.02,-0.0072745961675559885
9.024000000000001,-0.007272913329551219
9.028,-0.007270533315801618
9.032,-0.007294742142527359
9.036,-0.007302795724407322
9.040000000000001,-0.007290102317742783
9.044,-0.0072725286808644155
9.048,-0.007253921300640262
9.052,-0.007254738679099721
9.056000000000001,-0.007258104355109258
9.06,-0.007258705368682389
9.064,-0.0072512768409184825
9.068,-0.007240915366917695
9.072000000000001,-0.007262022963606076
9.076,-0.007272889289008295
9.08,-0.007248079448709423
9.084,-0.007241492339947901
9.088000000000001,-0.007244425286184783
9.092,-0.007249954611057594
9.096,-0.007253127962723728
9.1,-0.007268778356168074
9.104000000000001,-0.0072922659666060565
9.108,-0.007267720572279363
9.112,-0.0072456513538739714
9.116,-0.007245603272788121
9.120000000000001,-0.007248416016310376
9.124,-0.007251709570691138
9.128,-0.007242381840036135
9.132,-0.007253392408695906
9.136000000000001,-0.007274884654071091
9.14,-0.007276855978590963
9.144,-0.00726103730134614
9.148,-0.007250844111145828
9.152000000000001,-0.007259065976826269
9.156,-0.007284404709069495
9.16,-0.007277865681393824
9.164,-0.00726656662621895
9.168000000000001,-0.007263393274552815
9.172,-0.007238775758597346
9.176,-0.007233294514810384
9.18,-0.007246540853962206
9.184000000000001,-0.007247622678393843
9.188,-0.007237213123307201
9.192,-0.0072373814071076785
9.196,-0.007238463231539318
9.200000000000001,-0.0072459638809319995
9.204,-0.007252743314036924
9.208,-0.007256133030589386
9.212,-0.007256565760362041
9.216000000000001,-0.0072588976930257915
9.22,-0.0072764953704470845
9.224,-0.0072898859528564555
9.228,-0.007293708399181573
9.232,-0.00728611158761719
9.236,-0.007253127962723728
9.24,-0.00725327220598128
9.244,-0.007272408478149789
9.248,-0.007266157936989221
9.252,-0.007241227893975723
9.256,-0.007237501609822305
9.26,-0.007242502042750762
9.264,-0.007242670326551239
9.268,-0.007241275975061573
9.272,-0.007247310151335814
9.276,-0.007252478868064746
9.28,-0.007254666557470945
9.284,-0.007256301314389863
9.288,-0.0072581764767380335
9.292,-0.007267119558706231
9.296,-0.007298732872652953
9.3,-0.007319888550427184
9.304,-0.007295920129130697
9.308,-0.007252478868064746
9.312,-0.007217620080823112
9.316,-0.007221755054206257
9.32,-0.0072333425958962345
9.324,-0.00724550711061642
9.328,-0.007257166773935173
9.332,-0.007251252800375558
9.336,-0.007252599070779372
9.34,-0.0072584890037960615
9.344,-0.007266903193819904
9.348,-0.00725692636850592
9.352,-0.0072498584488858925
9.356,-0.007249569962370789
9.36,-0.007254426152041692
9.364,-0.007264427017898602
9.368,-0.007289188777111623
9.372,-0.007294670020898583
9.376,-0.007246612975590982
9.38,-0.007227356500707844
9.384,-0.007231635717348541
9.388,-0.007259186179540894
9.392,-0.007281183276317511
9.396,-0.007279596600484443
9.4,-0.007258561125424837
9.404,-0.007246757218848533
9.408,-0.007253055841094953
9.412,-0.0072629365042372355
9.416,-0.007263753882696695
9.42,-0.007258104355109258
9.424,-0.007265028031471734
9.428,-0.007267408045221335
9.432,-0.00725601282787476
9.436,-0.00724920935422691
9.44,-0.00724829581359575
9.444,-0.007251565327433586
9.448,-0.0072522384626354935
9.452,-0.007251565327433586
9.456,-0.0072578639496800055
9.46,-0.007261590233833421
9.464,-0.0072690428021402525
9.468,-0.007271182410460601
9.472,-0.0072813275195750616
9.476,-0.007294405574926405
9.48,-0.007281976614234044
9.484,-0.00726103730134614
9.488,-0.007254161706069515
9.492,-0.007262022963606076
9.496,-0.007254041503354888
9.5,-0.00725418574661244
9.504,-0.007254570395299244
9.508000000000001,-0.007249353597484462
9.512,-0.007246637016133907
9.516,-0.007247117826992412
9.52,-0.007246949543191936
9.524000000000001,-0.0072434396239248475
9.528,-0.007243824272611651
9.532,-0.0072474784351362915
9.536,-0.007256181111675236
9.540000000000001,-0.0072743557621267356
9.544,-0.007297410642792063
9.548,-0.007297723169850091
9.552,-0.007261373868947094
9.556000000000001,-0.0072472380297070385
9.56,-0.007242598204922463
9.564,-0.007240867285831844
9.568,-0.007247694800022618
9.572000000000001,-0.007244569529442335
9.576,-0.007247165908078263
9.58,-0.007250555624630725
9.584,-0.007256133030589386
9.588000000000001,-0.007257984152394631
9.592,-0.007256589800904966
9.596,-0.007256806165791293
9.6,-0.007257311017192724
9.604000000000001,-0.007260484368858859
9.608,-0.007271062207745975
9.612,-0.00730397371101066
9.616,-0.0073026514811497705
9.620000000000001,-0.007242790529265865
9.624,-0.007230385609116427
9.628,-0.007223678297640279
9.632,-0.007219615445885909
9.636000000000001,-0.007220504945974144
9.64,-0.007242141434606883
9.644,-0.007248728543368405
9.648,-0.007230866419974932
9.652000000000001,-0.007243920434783353
9.656,-0.007245627313331046
9.66,-0.007242117394063958
9.664,-0.0072424780022078365
9.668000000000001,-0.007242694367094164
9.672,-0.007245266705187167
9.676,-0.007249017029883508
9.68,-0.007252959678923252
9.684000000000001,-0.007254378070955842
9.688,-0.007265100153100509
9.692,-0.0072773608299923935
9.696,-0.007269163004854879
9.700000000000001,-0.00725144512471896
9.704,-0.007235289879873181
9.708,-0.007236179379961415
9.712,-0.007260484368858859
9.716000000000001,-0.007274019194525782
9.72,-0.007241516380490826
9.724,-0.007227140135821516
9.728,-0.007223245567867624
9.732,-0.0072255775005313745
9.736,-0.007239905664114833
9.74,-0.007242237596778584
9.744,-0.007245194583558392
9.748,-0.007250892192231679
9.752,-0.007252118259920867
9.756,-0.007258705368682389
9.76,-0.007257815868594155
9.764,-0.007249978651600519
9.768,-0.007250459462459024
9.772,-0.0072481996514240496
9.776,-0.007261758517633898
9.78,-0.007266758950562353
9.784,-0.0072469255026490105
9.788,-0.00723824686665299
9.792,-0.007243343461753146
9.796,-0.007252166341006718
9.8,-0.007249233394769836
9.804,-0.007252575030236447
9.808,-0.007274163437783333
9.812,-0.007259426584970147
9.816,-0.0072397133397714315
9.82,-0.007235770690731686
9.824,-0.007236876555706248
9.828,-0.0072408192047459935
9.832,-0.007246588935048056
9.836,-0.007253200084352504
9.84,-0.007255075246700674
9.844,-0.007256060908960611
9.848,-0.007261301747318318
9.852,-0.0072773608299923935
9.856,-0.007288106952679986
9.86,-0.007258032233480482
9.864,-0.00724043455605919
9.868,-0.00722925570359894
9.872,-0.007235217758244405
9.876,-0.007251541286890661
9.88,-0.007264979950385883
9.884,-0.0072568302063342185
9.888,-0.007250675827345351
9.892,-0.007245987921474925
9.896,-0.007233174312095757
9.9,-0.007228702771111659
9.904,-0.007231972284949494
9.908,-0.007233054109381131
9.912,-0.007235626447474134
9.916,-0.007236948677335024
9.92,-0.007236996758420875
9.924,-0.007250627746259501
9.928,-0.007262816301522609
9.932,-0.0072557243413596565
9.936,-0.007262672058265058
9.94,-0.007267840774993989
9.944,-0.007272600802493191
9.948,-0.007249425719113238
9.952,-0.007253921300640262
9.956,-0.007252118259920867
9.96,-0.0072283421629677795
9.964,-0.007222187783978912
9.968,-0.007223341730039325
9.972,-0.007225553459988449
9.976,-0.007235217758244405
9.98,-0.007240747083117218
9.984,-0.007242237596778584
9.988,-0.007245531151159345
9.992,-0.007248367935224526
9.996,-0.007250195016486846
10.0,-0.0072482477325099
10.004,-0.007246204286361252
10.008000000000001,-0.007258609206510688
10.012,-0.007274764451356465
10.016,-0.007279404276141041
10.02,-0.007275533748730073
10.024000000000001,-0.007262792260979684
10.028,-0.0072520701788350165
10.032,-0.00724646873233343
10.036,-0.0072581764767380335
10.040000000000001,-0.007247093786449487
10.044,-0.0072424058805790606
10.048,-0.007258104355109258
10.052,-0.007260340125601307
10.056000000000001,-0.007258008192937556
10.06,-0.007251829773405764
10.064,-0.0072469255026490105
10.068,-0.007250507543544875
10.072000000000001,-0.007257142733392247
10.076,-0.007261758517633898
10.08,-0.007256349395475713
10.084,-0.0072557243413596565
10.088000000000001,-0.007259330422798446
10.092,-0.007272408478149789
10.096,-0.007277096384020216
10.1,-0.007266302180246772
10.104000000000001,-0.007259931436371578
10.108,-0.007244833975414512
10.112,-0.0072550031250718985
10.116,-0.007266302180246772
10.120000000000001,-0.007291616871947074
10.124,-0.00729346799375232
10.128,-0.0072498584488858925
10.132,-0.007258464963253137
10.136000000000001,-0.007259955476914503
10.14,-0.007234520582499572
10.144,-0.007229952879343773
10.148,-0.0072351696771585546
10.152000000000001,-0.007239689299228506
10.156,-0.0072429588130663415
10.16,-0.007246348529618804
10.164,-0.00724920935422691
10.168000000000001,-0.007251397043633109
10.172,-0.007254305949327066
10.176,-0.007262311450121179
10.18,-0.007278298411166479
10.184000000000001,-0.007286977047162499
10.188,-0.00726834562639542
10.192,-0.007245675394416897
10.196,-0.0072736345458389775
10.200000000000001,-0.007282265100749147
10.204,-0.007256060908960611
10.208,-0.007241011529089396
10.212,-0.007233583001325487
10.216000000000001,-0.007235770690731686
10.22,-0.007227957514280976
10.224,-0.0072137495534121444
10.228,-0.007215384310331063
10.232000000000001,-0.007226755487134712
10.236,-0.007233222393181608
10.24,-0.00723569856910291
10.244,-0.0072387517180544205
10.248,-0.007241275975061573
10.252,-0.007242261637321509
10.256,-0.007244641651071111
10.26,-0.007252839476208625
10.264,-0.007259426584970147
10.268,-0.007259186179540894
10.272,-0.0072710862482889
10.276,-0.007287385736392228
10.28,-0.007253801097925635
10.284,-0.007235794731274611
10.288,-0.007236491907019444
10.292,-0.007242598204922463
10.296,-0.007241588502119602
10.3,-0.007231371271376363
10.304,-0.007228967217083836
10.308,-0.007235578366388284
10.312,-0.007243391542838997
10.316,-0.007254666557470945
10.32,-0.007266542585676025
10.324,-0.00727067755905917
10.328,-0.007265268436900986
10.332,-0.007274379802669661
10.336,-0.007280990951974108
10.34,-0.007268441788567121
10.344,-0.007225120730215795
10.348,-0.007212451364094181
10.352,-0.007218173013310393
10.356,-0.007221202121718976
10.36,-0.007230842379432007
10.364,-0.007236323623218967
10.368,-0.007240001826286534
10.372,-0.007244112759126754
10.376,-0.0072469255026490105
10.38,-0.007258993855197493
10.384,-0.007278250330080629
10.388,-0.007281303479032137
10.392,-0.007283058438665681
10.396,-0.007257599503707827
10.4,-0.0072397133397714315
10.404,-0.007239376772170477
10.408,-0.007257046571220546
10.412,-0.00727702426239144
10.416,-0.007257335057735649
10.42,-0.007228991257626762
10.424,-0.007222380108322314
10.428,-0.007224327392299261
10.432,-0.007229688433371594
10.436,-0.007235386042044881
10.44,-0.007240410515516264
10.444,-0.0072420933535210326
10.448,-0.00724007394791531
10.452,-0.007244641651071111
10.456,-0.007259835274199876
10.46,-0.007279572559941517
10.464,-0.007297146196819885
10.468,-0.007303853508296034
10.472,-0.0072546905980138705
10.476,-0.0072546905980138705
10.48,-0.007277817600307973
10.484,-0.007257262936106874
10.488,-0.007234809069014675
10.492,-0.007226274676276207
10.496,-0.00722427931121341
10.5,-0.007227043973649815
10.504,-0.007232669460694327
10.508000000000001,-0.00723779009633741
10.512,-0.007240674961488442
10.516,-0.007244281042927231
10.52,-0.007246637016133907
10.524000000000001,-0.007249041070426433
10.528,-0.007257166773935173
10.532,-0.007247406313507516
10.536,-0.00724053071823089
10.540000000000001,-0.007284813398299225
10.544,-0.007293660318095722
10.548,-0.0072626239771792075
10.552,-0.007255820503531358
10.556000000000001,-0.0072682494642237186
10.56,-0.007259186179540894
10.564,-0.007241035569632321
10.568,-0.007245627313331046
10.572000000000001,-0.007243848313154577
10.576,-0.007235145636615629
10.58,-0.0072342080554415435
10.584,-0.007236395744847743
10.588000000000001,-0.007238799799140271
10.592,-0.007239184447827076
10.596,-0.007239088285655375
10.6,-0.007248319854138675
10.604000000000001,-0.007276855978590963
10.608,-0.007275101018957419
10.612,-0.007255507976473329
10.616,-0.007245266705187167
10.620000000000001,-0.007248800664997181
10.624,-0.007247598637850918
10.628,-0.007227572865594171
10.632,-0.007215792999560792
10.636000000000001,-0.007213172580381938
10.64,-0.007218822107969375
10.644,-0.007228438325139481
10.648,-0.007229976919886697
10.652000000000001,-0.0072274767034224705
10.656,-0.0072269958925639645
10.66,-0.00722884701436921
10.664,-0.007242189515692734
10.668000000000001,-0.007260893058088588
10.672,-0.0072474784351362915
10.676,-0.007230097122601324
10.68,-0.007228414284596555
10.684000000000001,-0.007241179812889872
10.688,-0.007250796030059977
10.692,-0.0072266833655059365
10.696,-0.007207090323021847
10.700000000000001,-0.007212475404637106
10.704,-0.007224399513928037
10.708,-0.007232645420151402
10.712,-0.00723204440657827
10.716000000000001,-0.007228726811654584
10.72,-0.007228318122424854
10.724,-0.00723021732531595
10.728,-0.007235097555529779
10.732000000000001,-0.00723432825815617
10.736,-0.0072336551229542625
10.74,-0.007232525217436775
10.744,-0.0072352417987873304
10.748000000000001,-0.007250002692143444
10.752,-0.007276375167732458
10.756,-0.007294405574926405
10.76,-0.007263345193466965
10.764,-0.007218870189055226
10.768,-0.007200142606116446
10.772,-0.007200551295346175
10.776,-0.007201008065661756
10.78,-0.00720052725480325
10.784,-0.00723478502847175
10.788,-0.007258945774111642
10.792,-0.007230313487487651
10.796,-0.007215937242818344
10.8,-0.00721377359395507
10.804,-0.0072164661347627
10.808,-0.007221755054206257
10.812,-0.007225289014016271
10.816,-0.007227596906137096
10.82,-0.007234905231186376
10.824,-0.007246180245818327
10.828,-0.007253488570867607
10.832,-0.007244160840212605
10.836,-0.007233703204040113
10.84,-0.007230289446944726
10.844,-0.007214350566985276
10.848,-0.007209518417857299
10.852,-0.007229159541427239
10.856,-0.007246853381020235
10.86,-0.007219014432312778
10.864,-0.007207955782567156
10.868,-0.007208172147453484
10.872,-0.00721016751251628
10.876,-0.007216610378020251
10.88,-0.007232477136350925
10.884,-0.0072430309346951174
10.888,-0.007226875689849339
10.892,-0.007213581269611668
10.896,-0.007212956215495611
10.9,-0.007221105959547275
10.904,-0.007229640352285744
10.908,-0.007235530285302433
10.912,-0.007233558960782562
10.916,-0.007233775325668889
10.92,-0.00724286265089464
10.924,-0.0072200241351156385
10.928,-0.007220048175658564
10.932,-0.007235626447474134
10.936,-0.007243655988811174
10.94,-0.007228270041339004
10.944,-0.007211658026177647
10.948,-0.007206657593249192
10.952,-0.007205695971532182
10.956,-0.007208941444827092
10.96,-0.007218701905254749
10.964,-0.007231010663232484
10.968,-0.007226971852021039
10.972,-0.007217139269964607
10.976,-0.007216922905078279
10.98,-0.007224423554470962
10.984,-0.007225553459988449
10.988,-0.007221009797375574
10.992,-0.007215528553588615
10.996,-0.007195791267846973
11.0,-0.007192858321610091
11.004,-0.007209181850256345
11.008000000000001,-0.007208965485370017
11.012,-0.007201320592719784
11.016,-0.0072002868493739975
11.02,-0.007203123633439178
11.024000000000001,-0.007206585471620416
11.028,-0.0072136053101545935
11.032,-0.0072278853926522
11.036,-0.007235890893446313
11.040000000000001,-0.007252887557294476
11.044,-0.0072533443276100555
11.048,-0.007229928838800847
11.052,-0.007204253538956666
11.056000000000001,-0.007189132037456675
11.06,-0.007169635157144287
11.064,-0.007172039211436813
11.068,-0.007192257308036959
11.072000000000001,-0.0071971856193366384
11.076,-0.007189829213201508
11.08,-0.0071958393489328235
11.084,-0.007208580836683213
11.088000000000001,-0.00720372464701231
11.092,-0.007196344200334254
11.096,-0.007196680767935208
11.1,-0.007199926241230118
11.104000000000001,-0.007202955349638701
11.108,-0.007207018201393071
11.112,-0.007214590972414529
11.116,-0.007226635284420086
11.120000000000001,-0.0072266833655059365
11.124,-0.00723774201525156
11.128,-0.007233462798610861
11.132,-0.00720692203922137
11.136000000000001,-0.007223534054382727
11.14,-0.007212932174952686
11.144,-0.0071990127005989585
11.148,-0.007194877727215813
11.152000000000001,-0.007191103361976547
11.156,-0.00719728178150834
11.16,-0.0072004791737174
11.164,-0.007199229065485286
11.168000000000001,-0.007204517984928844
11.172,-0.007209927107087028
11.176,-0.007210600242288936
11.18,-0.0072102636746879814
11.184000000000001,-0.007222307986693538
11.188,-0.007252094219377942
11.192,-0.007247358232421665
11.196,-0.007203195755067954
11.200000000000001,-0.007187112631850953
11.204,-0.007198555930283379
11.208,-0.007197834713995621
11.212,-0.007187785767052861
11.216000000000001,-0.007186944348050476
11.22,-0.007187617483252384
11.224,-0.007190045578087835
11.228,-0.007207018201393071
11.232000000000001,-0.007223461932753951
11.236,-0.007215456431959839
11.24,-0.007217187351050458
11.244,-0.00719915694385651
11.248000000000001,-0.0071853817127603345
11.252,-0.007185766361447138
11.256,-0.007190430226774639
11.26,-0.007193002564867643
11.264,-0.007192834281067166
11.268,-0.007193026605410568
11.272,-0.007203700606469385
11.276,-0.007216946945621205
11.28,-0.00721382167504092
11.284,-0.007210624282831861
11.288,-0.007211609945091796
11.292,-0.007212547526265881
11.296,-0.0072488247055401064
11.3,-0.007233703204040113
11.304,-0.007206128701304836
11.308,-0.007192497713466212
11.312,-0.007176727117307239
11.316,-0.007185718280361288
11.32,-0.007204806471443947
11.324,-0.00719093507817607
11.328,-0.007180814009604534
11.332,-0.007185261510045708
11.336,-0.0071913437674058
11.34,-0.00719687309227861
11.344,-0.007200310889916923
11.348,-0.007201753322492438
11.352,-0.007203195755067954
11.356,-0.007203892930812787
11.36,-0.007207402850079875
11.364,-0.007235506244759508
11.368,-0.007246492772876355
11.372,-0.00720737880953695
11.376,-0.007229087419798463
11.38,-0.007220841513575098
11.384,-0.007182568969238078
11.388,-0.007176534792963837
11.392,-0.0071864875777348965
11.396,-0.0071936276189836995
11.4,-0.007197618349109293
11.404,-0.007199637754715015
11.408,-0.007200358971002773
11.412,-0.007216105526618821
11.416,-0.00723432825815617
11.42,-0.007224471635556813
11.424,-0.00721016751251628
11.428,-0.007215167945444735
11.432,-0.007221634851491631
11.436,-0.007236011096160938
11.44,-0.007234087852726918
11.444,-0.00718869930768402
11.448,-0.007170909305919326
11.452,-0.0071739624548708344
11.456,-0.007178049347168129
11.46,-0.007184732618101352
11.464,-0.007193819943327102
11.468,-0.007199301187114062
11.472,-0.00719728178150834
11.476,-0.0072005993764320255
11.48,-0.007219639486428835
11.484,-0.007234280177070319
11.488,-0.007234400379784946
11.492,-0.007218389378196721
11.496,-0.00720920589079927
11.5,-0.0072277892304804985
11.504,-0.00723779009633741
11.508000000000001,-0.007244930137586213
11.512,-0.00724327134012437
11.516,-0.007201488876520261
11.52,-0.007192281348579885
11.524000000000001,-0.007200407052088624
11.528,-0.007190742753832668
11.532,-0.007184155645071146
11.536,-0.007193795902784177
11.540000000000001,-0.007194565200157784
11.544,-0.007186896266964626
11.548,-0.007191271645777024
11.552,-0.007198363605939976
11.556000000000001,-0.007202113930636318
11.56,-0.007204133336242039
11.564,-0.007205888295875584
11.568,-0.007207282647365249
11.572000000000001,-0.007208797201569541
11.576,-0.007214831377843782
11.58,-0.007228606608939958
11.584,-0.007226659324963011
11.588000000000001,-0.0072269958925639645
11.592,-0.007212667728980508
11.596,-0.007192978524324717
11.6,-0.007186199091219793
11.604000000000001,-0.007196320159791329
11.608,-0.007216321891505148
11.612,-0.0072032919172396554
11.616,-0.007201272511633933
11.620000000000001,-0.007186319293934419
11.624,-0.0071883146589972165
11.628,-0.0072041573767849644
11.632,-0.007205022836330274
11.636000000000001,-0.007193026605410568
11.64,-0.007186102929048092
11.644,-0.007196680767935208
11.648,-0.00720372464701231
11.652000000000001,-0.00719499792993044
11.656,-0.007192714078352539
11.66,-0.007195070051559216
11.664,-0.0071947334839582615
11.668000000000001,-0.007189492645600554
11.672,-0.007216442094219774
11.676,-0.007230986622689559
11.68,-0.007245867718760298
11.684000000000001,-0.00722199545963551
11.688,-0.00719692117336446
11.692,-0.0071890599158279
11.696,-0.007179611982458271
11.700000000000001,-0.00717728004979452
11.704,-0.007180116833859701
11.708,-0.007188002131939188
11.712,-0.0071906946727468175
11.716000000000001,-0.007193747821698326
11.72,-0.007197161578793713
11.724,-0.007202522619866047
11.728,-0.007209013566455868
11.732000000000001,-0.007200959984575905
11.736,-0.00719463732178656
11.74,-0.007197474105851742
11.744,-0.007221202121718976
11.748000000000001,-0.007256036868417685
11.752,-0.007230842379432007
11.756,-0.007213509147982892
11.76,-0.00718910799691375
11.764000000000001,-0.007175477009075126
11.768,-0.007176198225362884
11.772,-0.007175212563102948
11.776,-0.007170091927459867
11.78,-0.007170260211260344
11.784,-0.007171221832977354
11.788,-0.007171558400578308
11.792,-0.007175669333418528
11.796,-0.007180982293405011
11.8,-0.007185742320904213
11.804,-0.007188771429312796
11.808,-0.007190069618630761
11.812,-0.00718728091565143
11.816,-0.007195142173187991
11.82,-0.0072078115393096045
11.824,-0.00720422949841374
11.828,-0.007210720445003562
11.832,-0.0072357226096458355
11.836,-0.007234544623042498
11.84,-0.007208027904195932
11.844,-0.007190574470032191
11.848,-0.00719098315926192
11.852,-0.007220456864888293
11.856,-0.007202883228009926
11.86,-0.007184179685614071
11.864,-0.0071784820769407835
11.868,-0.007182328563808826
11.872,-0.007184924942444754
11.876,-0.007178986928342214
11.88,-0.007179395617571944
11.884,-0.007168072521854144
11.888,-0.00716439431878658
11.892,-0.007165211697246038
11.896,-0.007166053116248423
11.9,-0.0071711016302627275
11.904,-0.007180453401460655
11.908,-0.007191463970120426
11.912,-0.007189132037456675
11.916,-0.007184179685614071
11.92,-0.007199132903313585
11.924,-0.007208556796140288
11.928,-0.0072112252964049925
11.932,-0.0071763424686204355
11.936,-0.0071616777374360245
11.94,-0.0071577110478533565
11.944,-0.007154489615101371
11.948,-0.007161220967120445
11.952,-0.007167952319139519
11.956,-0.00716352885924127
11.96,-0.007163769264670523
11.964,-0.007165932913533796
11.968,-0.007166630089278629
11.972,-0.007165452102675291
11.976,-0.007170620819404222
11.98,-0.007170620819404222
11.984,-0.007156797507222196
11.988,-0.0071642981566148786
11.992,-0.007173842252156208
11.996,-0.007195430659703094
12.0,-0.007214807337300857
12.004,-0.0072088452826553915
12.008000000000001,-0.007207571133880352
12.012,-0.007187377077823131
12.016,-0.007156292655820766
12.02,-0.007141002870520299
12.024000000000001,-0.007145546533133173
12.028,-0.007149969993031422
12.032,-0.007148070790140326
12.036,-0.007150042114660197
12.040000000000001,-0.007153287587955108
12.044,-0.0071577110478533565
12.048,-0.007160571872461463
12.052,-0.0071611969265775195
12.056000000000001,-0.0071600910616029575
12.06,-0.007162975926753989
12.064,-0.007177520455223773
12.068,-0.007199229065485286
12.072000000000001,-0.007203027471267477
12.076,-0.007177953184996428
12.08,-0.007152301925695172
12.084,-0.007146724519736511
12.088000000000001,-0.00714662835756481
12.092,-0.00715165283103619
12.096,-0.0071447051141307885
12.1,-0.007151268182349385
12.104000000000001,-0.007151268182349385
12.108,-0.0071521576824376204
12.112,-0.007154681939444773
12.116,-0.007158239939797712
12.120000000000001,-0.007160884399519491
12.124,-0.0071604035886609855
12.128,-0.007167255143394686
12.132,-0.00719139184849165
12.136000000000001,-0.007210215593602131
12.14,-0.007191463970120426
12.144,-0.007190838916004369
12.148,-0.007194396916357308
12.152000000000001,-0.007153720317727762
12.156,-0.007140978829977373
12.16,-0.00714662835756481
12.164,-0.0071502584795465245
12.168000000000001,-0.007158167818168936
12.172,-0.007165187656703113
12.176,-0.007169635157144287
12.18,-0.007150595047147479
12.184000000000001,-0.0071390796270862774
12.188,-0.00714165196517928
12.192,-0.0071483592766554286
12.196,-0.007155234871932054
12.200000000000001,-0.007155523358447157
12.204,-0.007157662966767506
12.208,-0.0071592977236864235
12.212,-0.007160884399519491
12.216000000000001,-0.007165307859417739
12.22,-0.007167711913710266
12.224,-0.007173361441297703
12.228,-0.007190261942974163
12.232000000000001,-0.007187930010310412
12.236,-0.007176871360564791
12.24,-0.0071870405102221775
12.244,-0.007228101757538527
12.248000000000001,-0.007198916538427257
12.252,-0.007149224736200738
12.256,-0.007129799977517125
12.26,-0.007123236909298528
12.264000000000001,-0.007134319599587074
12.268,-0.007143310762641124
12.272,-0.007146027343991678
12.276,-0.007153527993384361
12.280000000000001,-0.007148383317198354
12.284,-0.007154970425959876
12.288,-0.0071899734564590595
12.292,-0.007203412119954282
12.296,-0.007170596778861297
12.3,-0.007140834586719822
12.304,-0.007145474411504397
12.308,-0.0071528788987253785
12.312,-0.0071417721678939065
12.316,-0.007135858194334291
12.32,-0.007140401856947167
12.324,-0.007141892370608533
12.328,-0.007137541032339059
12.332,-0.007137781437768312
12.336,-0.007139704681202334
12.34,-0.007147758263082297
12.344,-0.007166101197334273
12.348,-0.007170981427548102
12.352,-0.007182929577381958
12.356,-0.007155403155732531
12.36,-0.007125232274361325
12.364,-0.0071321559507238
12.368,-0.007142589546353366
12.372,-0.007148383317198354
12.376,-0.007154633858358923
12.38,-0.007140522059661793
12.384,-0.0071368438565942265
12.388,-0.0071354254645616365
12.392,-0.007126362179878812
12.396,-0.007125809247391531
12.4,-0.0071282854233128325
12.404,-0.007127636328653851
12.408,-0.007130473112719032
12.412,-0.007140185492060839
12.416,-0.007156773466679271
12.42,-0.007166918575793732
12.424,-0.007173145076411375
12.428,-0.007170981427548102
12.432,-0.007144753195216639
12.436,-0.007139945086631586
12.44,-0.007141267316492476
12.444,-0.007151412425606937
12.448,-0.007143671370785002
12.452,-0.007128165220598207
12.456,-0.0071300403829463775
12.46,-0.007118885571029055
12.464,-0.007106769137394722
12.468,-0.007112851394754814
12.472,-0.007120376084690422
12.476,-0.007118573043971027
12.48,-0.0071210732604352536
12.484,-0.007124270652644314
12.488,-0.0071269391529090185
12.492,-0.007129174923401068
12.496,-0.007134319599587074
12.5,-0.007145835019648276
12.504,-0.007149344938915365
12.508000000000001,-0.007141988532780234
12.512,-0.007135401424018711
12.516,-0.007125737125762755
12.52,-0.007132997369726185
12.524000000000001,-0.007161653696893099
12.528,-0.007151869195922517
12.532,-0.0071364592079074226
12.536,-0.007129439369373246
12.540000000000001,-0.007147421695481344
12.544,-0.007145762898019501
12.548,-0.007129247045029844
12.552,-0.00713028078837563
12.556000000000001,-0.007131891504751622
12.56,-0.0071300403829463775
12.564,-0.007132083829095024
12.568,-0.007135545667276262
12.572000000000001,-0.007138142045912191
12.576,-0.0071373246674527316
12.58,-0.007148190992854952
12.584,-0.0071673032244805365
12.588000000000001,-0.007165572305389918
12.592,-0.007161653696893099
12.596,-0.007159586210201527
12.6,-0.007164250075529028
12.604000000000001,-0.007147469776567194
12.608,-0.007106240245450366
12.612,-0.0071041967993017196
12.616,-0.007119847192746066
12.620000000000001,-0.0071309779641204624
12.624,-0.007148215033397878
12.628,-0.0071542972907579685
12.632,-0.0071481188712261765
12.636000000000001,-0.007142950154497244
12.64,-0.007132732923754007
12.644,-0.007122635895725396
12.648,-0.007124919747303296
12.652000000000001,-0.007143503086984525
12.656,-0.007165187656703113
12.66,-0.007176967522736492
12.664,-0.007146580276478959
12.668000000000001,-0.007116697881622856
12.672,-0.007107322069882003
12.676,-0.007108403894313641
12.68,-0.007135689910533814
12.684000000000001,-0.0071485996820846815
12.688,-0.007157061953194374
12.692,-0.007142108735494861
12.696,-0.007122900341697574
12.700000000000001,-0.007116745962708707
12.704,-0.007115567976105369
12.708,-0.007117395057367689
12.712,-0.007126434301507588
12.716000000000001,-0.007131987666923323
12.72,-0.007135930315963067
12.724,-0.007146868762994063
12.728,-0.007168240805654621
12.732000000000001,-0.0071687216165131264
12.736,-0.007144368546529835
12.74,-0.007144488749244462
12.744,-0.007161413291463847
12.748000000000001,-0.007127323801595822
12.752,-0.007098306866285029
12.756,-0.007099532933974218
12.76,-0.007121457909122058
12.764000000000001,-0.007146700479193586
12.768,-0.007156845588308047
12.772,-0.007136122640306468
12.776,-0.007116938287052108
12.780000000000001,-0.007111913813580729
12.784,-0.007115976665335098
12.788,-0.0071237658012428835
12.792,-0.007134992734788981
12.796000000000001,-0.007154080925871642
12.8,-0.0071420125733231594
12.804,-0.0071300403829463775
12.808,-0.007129535531544946
12.812,-0.007129150882858142
12.816,-0.007132035748009174
12.82,-0.007134103234700747
12.824,-0.007133093531897885
12.828,-0.00712850178819916
12.832,-0.00712895855851474
12.836,-0.007133261815698362
12.84,-0.007135858194334291
12.844,-0.007138069924283415
12.848,-0.007137444870167358
12.852,-0.007157807210025058
12.856,-0.007166774332536181
12.86,-0.0071497055470592435
12.864,-0.007135088896960682
12.868,-0.007133285856241288
12.872,-0.007167086859594209
12.876,-0.007166437764935227
12.88,-0.0071255928825052035
12.884,-0.007103066893784231
12.888,-0.007089844595175337
12.892,-0.007089315703230981
12.896,-0.007094772906475016
12.9,-0.007106096002192815
12.904,-0.007114462111130806
12.908,-0.0071207366928343
12.912,-0.0071282854233128325
12.916,-0.007124414895901866
12.92,-0.007119053854829532
12.924,-0.007127155517795345
12.928,-0.007146075425077529
12.932,-0.007144657033044938
12.936,-0.007143190559926497
12.94,-0.0071670628190512835
12.944,-0.007148142911769102
12.948,-0.007115495854476593
12.952,-0.007109966529603782
12.956,-0.0071116012865227
12.96,-0.007114365948959106
12.964,-0.0071274199637675235
12.968,-0.007144056019471806
12.972,-0.007116649800537006
12.976,-0.007097465447282646
12.98,-0.0071019610288096694
12.984,-0.007107850961826359
12.988,-0.007111457043265148
12.992,-0.007115567976105369
12.996,-0.007126073693363709
13.0,-0.007137036180937629
13.004,-0.007134175356329523
13.008000000000001,-0.0071171065708525855
13.012,-0.0071232128687556025
13.016,-0.007154681939444773
13.02,-0.007148022709054475
13.024000000000001,-0.007113260083984543
13.028,-0.007121217503692805
13.032,-0.007130449072176107
13.036,-0.007132540599410604
13.040000000000001,-0.007143983897843031
13.044,-0.007144176222186433
13.048,-0.007115904543706322
13.052,-0.007101311934150687
13.056000000000001,-0.00710429296147342
13.06,-0.007107298029339078
13.064,-0.0071112406783788214
13.068,-0.007115543935562444
13.072000000000001,-0.007118549003428102
13.076,-0.007121361746950357
13.08,-0.007123982166129211
13.084,-0.0071266987474797655
13.088000000000001,-0.00712799693679773
13.092,-0.007128646031456712
13.096,-0.007128694112542563
13.1,-0.007128237342226983
13.104000000000001,-0.007129559572087872
13.108,-0.007139416194687231
13.112,-0.0071476380603676705
13.116,-0.007137300626909806
13.120000000000001,-0.007156052250391513
13.124,-0.00715444153401552
13.128,-0.0071128273542118885
13.132,-0.007091599554808882
13.136000000000001,-0.00709785009596945
13.14,-0.007107153786081527
13.144,-0.007104052556044168
13.148,-0.007106432569793769
13.152000000000001,-0.007116048786963874
13.156,-0.007117972030397895
13.16,-0.00711525544904734
13.164,-0.007115567976105369
13.168000000000001,-0.0071176595033398665
13.172,-0.007120424165776272
13.176,-0.0071233811525560796
13.18,-0.007125400558161801
13.184000000000001,-0.007127564207025075
13.188,-0.0071375650728819845
13.192,-0.007143647330242077
13.196,-0.007145474411504397
13.200000000000001,-0.0071451859249892944
13.204,-0.007120664571205524
13.208,-0.007099316569087891
13.212,-0.007091767838609358
13.216000000000001,-0.007104845893960701
13.22,-0.007135858194334291
13.224,-0.007119799111660215
13.228,-0.007088354081513971
13.232000000000001,-0.007085036486590284
13.236,-0.00708693568948138
13.24,-0.007091311068293778
13.244,-0.007097297163482169
13.248000000000001,-0.007103403461385186
13.252,-0.007109485718745277
13.256,-0.007112034016295355
13.26,-0.007113091800184067
13.264000000000001,-0.007115327570676116
13.268,-0.007121530030750834
13.272,-0.007142373181467038
13.276,-0.007153287587955108
13.280000000000001,-0.0071454263304185466
13.284,-0.007121746395637161
13.288,-0.007101119609807286
13.292,-0.007098114541941628
13.296000000000001,-0.007105086299389954
13.3,-0.0071047497317890005
13.304,-0.007102081231524296
13.308,-0.007101239812521911
13.312000000000001,-0.007098883839315236
13.316,-0.007096551906651485
13.32,-0.007097777974340674
13.324,-0.007096864433709514
13.328,-0.007101840826095043
13.332,-0.007112851394754814
13.336,-0.007124198531015538
13.34,-0.007123645598528257
13.344,-0.007136964059308853
13.348,-0.007155138709760353
13.352,-0.0071681686840258454
13.356,-0.007152926979811229
13.36,-0.007103307299213484
13.364,-0.007071309336579959
13.368,-0.007064481822389185
13.372,-0.007066284863108579
13.376,-0.007080204337462306
13.38,-0.007087969432827167
13.384,-0.007092513095440041
13.388,-0.007096095136335905
13.392,-0.007100109907004424
13.396,-0.007104461245273897
13.4,-0.00710835581322779
13.404,-0.0071110002729495685
13.408,-0.00711297159746944
13.412,-0.007115279489590265
13.416,-0.00712388600395751
13.42,-0.007144320465443985
13.424,-0.007149585344344617
13.428,-0.007142277019295337
13.432,-0.007148864128056859
13.436,-0.00715444153401552
13.44,-0.007108476015942416
13.444,-0.0070877771084837645
13.448,-0.007089411865402682
13.452,-0.007075035620733375
13.456,-0.007067438809168992
13.46,-0.007072439242097446
13.464,-0.007079386959002848
13.468,-0.007086286594822398
13.472,-0.0070927775414122195
13.476,-0.007097297163482169
13.48,-0.007099605055602994
13.484,-0.007098907879858161
13.488,-0.007098931920401086
13.492,-0.007109798245803305
13.496,-0.007113668773214273
13.5,-0.007113981300272301
13.504,-0.00712525631490425
13.508000000000001,-0.007129271085572769
13.512,-0.007115592016648294
13.516,-0.007105975799478189
13.52,-0.007113692813757198
13.524000000000001,-0.0071247995445886695
13.528,-0.007119630827859738
13.532,-0.0070995088934312925
13.536,-0.007086887608395529
13.540000000000001,-0.00708744054088281
13.544,-0.007092008244038611
13.548,-0.0070927775414122195
13.552,-0.00709241693326834
13.556000000000001,-0.007090637933091871
13.56,-0.007090686014177721
13.564,-0.007090613892548945
13.568,-0.007090806216892348
13.572000000000001,-0.007097874136512375
13.576,-0.007116217070764351
13.58,-0.007112130178467056
13.584,-0.007099076163658638
13.588000000000001,-0.007104605488531449
13.592,-0.007123260949841453
13.596,-0.00711205805683828
13.6,-0.007119582746773888
13.604000000000001,-0.007119823152203141
13.608,-0.007077103107424948
13.612,-0.007068328309257226
13.616,-0.0070715257014662865
13.620000000000001,-0.0070746990531324215
13.624,-0.007079266756288221
13.628,-0.007083714256729395
13.632,-0.007085132648761985
13.636000000000001,-0.007089099338344654
13.64,-0.007110759867520316
13.644,-0.0071224195308390685
13.648,-0.007097297163482169
13.652000000000001,-0.007079867769861353
13.656,-0.007077728161541005
13.66,-0.007080348580719858
13.664,-0.0070965759471944105
13.668000000000001,-0.007125520760876428
13.672,-0.007131410693893117
13.676,-0.007093258352270725
13.68,-0.007067775376769945
13.684000000000001,-0.007065203038676942
13.688,-0.007068400430886002
13.692,-0.007071044890607781
13.696,-0.007086959730024305
13.700000000000001,-0.007104220839844645
13.704,-0.00709607109579298
13.708,-0.007083666175643545
13.712,-0.007082752635012384
13.716000000000001,-0.007090493689834319
13.72,-0.007109870367432081
13.724,-0.007131819383122847
13.728,-0.007128718153085488
13.732000000000001,-0.00710612004273574
13.736,-0.007077511796654677
13.74,-0.007090301365490917
13.744,-0.007080661107777887
13.748000000000001,-0.007067943660570422
13.752,-0.007057582186569634
13.756,-0.00706181332212448
13.76,-0.007065443444106195
13.764000000000001,-0.007062847065470266
13.768,-0.0070654194035632695
13.772,-0.007070059228347845
13.776,-0.007074266323359766
13.780000000000001,-0.007077872404798556
13.784,-0.007080468783434484
13.788,-0.007082343945782655
13.792,-0.007083473851300142
13.796000000000001,-0.007084820121703957
13.8,-0.007085373054191238
13.804,-0.007085300932562462
13.808,-0.007086286594822398
13.812000000000001,-0.007089459946488533
13.816,-0.0071023697180393995
13.82,-0.007137877599940013
13.824,-0.007111120475664195
13.828,-0.007067895579484572
13.832,-0.007063111511442444
13.836,-0.007090012878975814
13.84,-0.007100350312433677
13.844,-0.007063544241215099
13.848,-0.007056259956708744
13.852,-0.007054432875446424
13.856,-0.0070523413482119265
13.86,-0.0070573417811403815
13.864,-0.007061019984207946
13.868,-0.00706546748464912
13.872,-0.0070701794310624715
13.876,-0.007079266756288221
13.88,-0.007104725691246075
13.884,-0.007123284990384378
13.888,-0.007113404327242095
13.892,-0.007081526567323196
13.896,-0.007069746701289817
13.9,-0.007067462849711917
13.904,-0.0070739057152158875
13.908,-0.007106672975223021
13.912,-0.007099653136688844
13.916,-0.00707460289096072
13.92,-0.007084988405504434
13.924,-0.007078112810227809
13.928,-0.007058327443400317
13.932,-0.007062943227641967
13.936,-0.007067414768626067
13.94,-0.007077872404798556
13.944,-0.007089796514089487
13.948,-0.0070875367030545115
13.952,-0.007076309769508414
13.956,-0.007063568281758024
13.96,-0.0070613805923518255
13.964,-0.007063159592528295
13.968,-0.007068232147085525
13.972,-0.007072150755582343
13.976,-0.007074795215304122
13.98,-0.007077223310139573
13.984,-0.007078858067058492
13.988,-0.007080228378005231
13.992,-0.0070864789191658
13.996,-0.007110591583719839
14.0,-0.007122131044323966
14.004,-0.007091864000781059
14.008000000000001,-0.007100951326006809
14.012,-0.007122034882152265
14.016,-0.007086527000251651
14.02,-0.0070515480102953925
14.024000000000001,-0.007046162928680134
14.028,-0.0070704198364917245
14.032,-0.007071982471781866
14.036,-0.007032411738126882
14.040000000000001,-0.007026016953708762
14.044,-0.0070363303466237
14.048,-0.007044816658276319
14.052,-0.0070512354832373645
14.056000000000001,-0.007057365821683306
14.06,-0.0070629672681848926
14.064,-0.0070669339577675615
14.068,-0.007070804485178528
14.072000000000001,-0.007073088336756428
14.076,-0.0070757327964782075
14.08,-0.007083065162070413
14.084,-0.007090806216892348
14.088000000000001,-0.007101480217951164
14.092,-0.007095133514618895
14.096,-0.007087632865226213
14.1,-0.007094075730730183
14.104000000000001,-0.0070507546723788585
14.108,-0.007039503698289835
14.112,-0.007042941495928148
14.116,-0.0070324357786698075
14.120000000000001,-0.0070362341844519985
14.124,-0.007064193335874081
14.128,-0.007082752635012384
14.132,-0.007065371322477419
14.136000000000001,-0.007050177699348652
14.14,-0.007042460685069643
14.144,-0.007034984076219886
14.148,-0.007034863873505259
14.152000000000001,-0.007035993779022746
14.156,-0.007036570752052953
14.16,-0.0070392392523176564
14.164,-0.007039119049603031
14.168000000000001,-0.007031522238038647
14.172,-0.007055466618792211
14.176,-0.007071982471781866
14.18,-0.007057029254082353
14.184000000000001,-0.007052557713098253
14.188,-0.007082031418724626
14.192,-0.007088209838256419
14.196,-0.007085541337991715
14.200000000000001,-0.007064169295331156
14.204,-0.007036522670967102
14.208,-0.007016761344682536
14.212,-0.007006952803169028
14.216000000000001,-0.00701166474958238
14.22,-0.007018372061058528
14.224,-0.007024021588645965
14.228,-0.00702943071080415
14.232000000000001,-0.007031594359667423
14.236,-0.00703500811676281
14.24,-0.007040465320006845
14.244,-0.0070528221590704316
14.248000000000001,-0.0070716939852667636
14.252,-0.007067126282110963
14.256,-0.007084796081161032
14.26,-0.007078593621086314
14.264000000000001,-0.007031666481296199
14.268,-0.007014020722789055
14.272,-0.007000990748523563
14.276,-0.006996495166996539
14.280000000000001,-0.007008443316830395
14.284,-0.007016424777081582
14.288,-0.007017362358255667
14.292,-0.007020295304492549
14.296000000000001,-0.0070242619940752175
14.3,-0.0070245023995044705
14.304,-0.007025872710451211
14.308,-0.007027579588998904
14.312000000000001,-0.007029214345917822
14.316,-0.007030536575778712
14.32,-0.007033733967987772
14.324,-0.007054432875446424
14.328000000000001,-0.007086791446223829
14.332,-0.0070840508243303485
14.336,-0.007051908618439272
14.34,-0.0070266420078248185
14.344,-0.0070085635195450205
14.348,-0.006993442018045031
14.352,-0.006995437383107827
14.356,-0.007007241289684132
14.36,-0.0070119772766404085
14.364,-0.007010270398092715
14.368,-0.007009092411489377
14.372,-0.0070090443304035265
14.376,-0.007012506168584764
14.38,-0.0070207761153510545
14.384,-0.00702628139968094
14.388,-0.007030344251435309
14.392,-0.0070274353457413525
14.396,-0.007027507467370128
14.4,-0.007030512535235786
14.404,-0.00703587357630812
14.408,-0.007056500362137997
14.412,-0.007090926419606974
14.416,-0.007079338877916997
14.42,-0.007041210576837529
14.424,-0.00701897307463166
14.428,-0.007001880248611798
14.432,-0.007011496465781903
14.436,-0.007007818262714338
14.44,-0.006999620437576823
14.444,-0.007002769748700032
14.448,-0.007008202911401142
14.452,-0.007010847371122921
14.456,-0.007013828398445654
14.46,-0.007016761344682536
14.464,-0.007021184804580784
14.468,-0.00702678625108237
14.472,-0.007029142224289046
14.476,-0.007029550913518776
14.48,-0.007028805656688093
14.484,-0.00703044041360701
14.488,-0.007035344684363764
14.492,-0.0070433021040720275
14.496,-0.007034359022103829
14.5,-0.007030945265008441
14.504,-0.0070352004411062125
14.508000000000001,-0.0070372679277977855
14.512,-0.007044552212304141
14.516,-0.00705267791581288
14.52,-0.007065683849535448
14.524000000000001,-0.007054120348388396
14.528,-0.007033998413959949
14.532,-0.007031353954238171
14.536,-0.007028300805286662
14.540000000000001,-0.007045802320536255
14.544,-0.007038998846888404
14.548,-0.00703683519802513
14.552,-0.0070731123772993535
14.556000000000001,-0.0070980905013987025
14.56,-0.007073977836844663
14.564,-0.007043638671672981
14.568,-0.007036306306080774
14.572000000000001,-0.007046138888137208
14.576,-0.007060659376064067
14.58,-0.007063231714157071
14.584,-0.007053879942959143
14.588000000000001,-0.00704673990171034
14.592,-0.007043734833844682
14.596,-0.0070528942806992075
14.6,-0.007064842430533063
14.604000000000001,-0.007068448511971853
14.608,-0.007076670377652292
14.612,-0.00708231990523973
14.616,-0.00711210613792413
14.620000000000001,-0.007125761166305681
14.624,-0.0070901571222333655
14.628,-0.007046884144967892
14.632,-0.007025031291448826
14.636000000000001,-0.0070210165207803075
14.64,-0.007026257359138015
14.644,-0.007034575386990156
14.648,-0.007049312239803343
14.652000000000001,-0.007064001011530679
14.656,-0.007048879510030689
14.66,-0.007039864306433713
14.664,-0.0070453695907636
14.668000000000001,-0.007050345983149129
14.672,-0.007053351051014787
14.676,-0.007072535404269147
14.68,-0.007096143217421756
14.684000000000001,-0.007097513528368496
14.688,-0.00707094872843608
14.692,-0.007054192470017172
14.696,-0.0070406816848931734
14.700000000000001,-0.007025680386107808
14.704,-0.007022218547926571
14.708,-0.007034623468076006
14.712,-0.007047124550397145
14.716000000000001,-0.007032507900298583
14.72,-0.00702130500729541
14.724,-0.0070210165207803075
14.728,-0.007023757142673787
14.732000000000001,-0.007027363224112577
14.736,-0.007032628103013209
14.74,-0.0070361620628232235
14.744,-0.007043350185157878
14.748000000000001,-0.00705318276721431
14.752,-0.007077992607513182
14.756,-0.0070953017984193715
14.76,-0.007066573349623682
14.764000000000001,-0.007055154091734182
14.768,-0.0070445762528470665
14.772,-0.007017458520427369
14.776,-0.007009020289860601
14.780000000000001,-0.007016088209480628
14.784,-0.007016881547397162
14.788,-0.00701075120895122
14.792,-0.007001231153952816
14.796000000000001,-0.007000990748523563
14.8,-0.007005943100366167
14.804,-0.007014982344506066
14.808,-0.007013227384872522
14.812000000000001,-0.007010823330579996
14.816,-0.0070128427361857175
14.82,-0.007014645776905112
14.824,-0.007016809425768386
14.828000000000001,-0.007035585089793017
14.832,-0.007071982471781866
14.836,-0.007089796514089487
14.84,-0.0070545049970752
14.844000000000001,-0.0069951729371356495
14.848,-0.006983032462958391
14.852,-0.006982984381872541
14.856,-0.006969521677834393
14.86,-0.006967766718200849
14.864,-0.006994331518133265
14.868,-0.006999884883549001
14.872,-0.006992768882843123
14.876,-0.00699252847741387
14.88,-0.00699298524772945
14.884,-0.006993970909989386
14.888,-0.006997024058940895
14.892,-0.007010679087322444
14.896,-0.007029190305374897
14.9,-0.007031666481296199
14.904,-0.0070421962390974655
14.908,-0.00703358972473022
14.912,-0.0070141168849607565
14.916,-0.007003827532588744
14.92,-0.006981277503324847
14.924,-0.0069690889480617385
14.928,-0.0069723825024425
14.932,-0.006968920664261261
14.936,-0.006978104151658712
14.94,-0.006996110518309734
14.944,-0.006986277936253302
14.948,-0.006976060705510065
14.952,-0.006974449989134072
14.956,-0.00698887431488923
14.96,-0.006996783653511642
14.964,-0.006996879815683343
14.968,-0.007000774383637235
14.972,-0.006986734706568882
14.976,-0.006962742244729469
14.98,-0.006961588298669057
14.984,-0.006970531380637255
14.988,-0.006961588298669057
14.992,-0.006947428418886076
14.996,-0.006947428418886076
15.0,-0.006949303581234247
15.004,-0.006954015527647598
15.008000000000001,-0.006956227257596723
15.012,-0.006956996554970331
15.016,-0.006962501839300216
15.02,-0.006966997420827241
15.024000000000001,-0.006969377434576842
15.028,-0.0069661560018248565
15.032,-0.0069704352184655535
15.036,-0.006980868814095118
15.040000000000001,-0.006969425515662693
15.044,-0.00696375194753233
15.048,-0.0069632230555879745
15.052,-0.0069189644160625625
15.056000000000001,-0.006903963117277198
15.06,-0.006915358334623773
15.064,-0.006918219159231879
15.068,-0.0069125455911015175
15.072000000000001,-0.006879369641864654
15.076,-0.006863887532220785
15.08,-0.006867950383975154
15.084,-0.006873431627762114
15.088000000000001,-0.006880691871725544
15.092,-0.006886629885828084
15.096,-0.006890716778125378
15.1,-0.0068936737649051855
15.104000000000001,-0.006896895197657171
15.108,-0.0068987463194624165
15.112,-0.006899972387151605
15.116,-0.0069115118477557315
15.120000000000001,-0.006922594538044277
15.124,-0.006903554428047469
15.128,-0.0068977125761166295
15.132,-0.006910213658437767
15.136000000000001,-0.006921152105468761
15.14,-0.006893842048705663
15.144,-0.00688903394012061
15.148,-0.0069035063469616185
15.152000000000001,-0.006890548494324901
15.156,-0.006889009899577685
15.16,-0.006901895630585626
15.164,-0.006905309387681013
15.168000000000001,-0.0068939141703344385
15.172,-0.006884754723479913
15.176,-0.006876965587572128
15.18,-0.006873816276448918
15.184000000000001,-0.006870017870666727
15.188,-0.006874561533279601
15.192,-0.006886028872254952
15.196,-0.006890644656496602
15.200000000000001,-0.006892279413415521
15.204,-0.006884778764022838
15.208,-0.0068811486420411235
15.212,-0.00688172561507133
15.216000000000001,-0.00689908288706337
15.22,-0.006927739214230284
15.224,-0.006920815537867808
15.228,-0.0069057180769107425
15.232000000000001,-0.006887182818315365
15.236,-0.006886557764199308
15.24,-0.00687715791191553
15.244,-0.006856531126085654
15.248000000000001,-0.006857853355946544
15.252,-0.006862348937473567
15.256,-0.006869248573293118
15.26,-0.00687811953363254
15.264000000000001,-0.006882422790816163
15.268,-0.006884971088366241
15.272,-0.0068867020074568595
15.276,-0.006887879994060197
15.280000000000001,-0.006888793534691357
15.284,-0.006890043642923471
15.288,-0.006892543859387698
15.292,-0.006907617279801838
15.296000000000001,-0.006929566295492603
15.3,-0.006926633349255721
15.304,-0.006923051308359857
15.308,-0.006906150806683397
15.312000000000001,-0.006889851318580069
15.316,-0.006863382680819354
15.32,-0.006834990799624617
15.324,-0.006824989933767707
15.328000000000001,-0.006827946920547515
15.332,-0.00684979977406658
15.336,-0.006840111435267698
15.34,-0.0068162872572287625
15.344000000000001,-0.0068228743659902846
15.348,-0.00682929319095133
15.352,-0.006831865529044333
15.356,-0.00683390897519298
15.36,-0.006836240907856731
15.364,-0.0068402316379823245
15.368,-0.006839871029838446
15.372,-0.006841601948929065
15.376,-0.006852901004103939
15.38,-0.006844150246479144
15.384,-0.0068289806638933016
15.388,-0.006861146910327304
15.392,-0.006872494046588028
15.396,-0.006839270016265314
15.4,-0.006814364013794741
15.404,-0.006799338674466452
15.408,-0.006781019780757401
15.412,-0.006754551142996686
15.416,-0.006753373156393348
15.42,-0.006762484522162023
15.424,-0.006766691617173944
15.428,-0.0067778464290912666
15.432,-0.006776259753258199
15.436,-0.006775009645026085
15.44,-0.0067756106585992164
15.444,-0.006778110875063444
15.448,-0.006780346645555494
15.452,-0.006784409497309863
15.456,-0.006786645267801913
15.46,-0.006794915214568203
15.464,-0.006805300729111917
15.468,-0.0068133543109918804
15.472,-0.006802872634276465
15.476,-0.006803257282963269
15.48,-0.006796838458002224
15.484,-0.006795371984883784
15.488,-0.006791910146702545
15.492,-0.006791357214215264
15.496,-0.006784193132423536
15.5,-0.006803810215450551
15.504,-0.006825614987883764
15.508000000000001,-0.006785539402827351
15.512,-0.006751786480560281
15.516,-0.006747843831520538
15.52,-0.006752531737390964
15.524000000000001,-0.006764503927767745
15.528,-0.006786837592145315
15.532,-0.006790828322270908
15.536,-0.006779649469810661
15.540000000000001,-0.006778856131894127
15.544,-0.006778856131894127
15.548,-0.006786428902915585
15.552,-0.006792463079189826
15.556000000000001,-0.006786308700200959
15.56,-0.0068014782827868
15.564,-0.006810301162040372
15.568,-0.006813378351534806
15.572000000000001,-0.006821816582101573
15.576,-0.006805517093998245
15.58,-0.00678462586219619
15.584,-0.006793040052220032
15.588000000000001,-0.006788832957208111
15.592,-0.006788015578748653
15.596,-0.006809147215979959
15.6,-0.006823571541735117
15.604000000000001,-0.006794362282080922
15.608,-0.006776524199230377
15.612,-0.006775971266743096
15.616,-0.006782414132247066
15.620000000000001,-0.0067890974031802895
15.624,-0.006794915214568203
15.628,-0.006799098269037199
15.632,-0.0068000358502112845
15.636000000000001,-0.0068009013097565935
15.64,-0.006803569810021298
15.644,-0.006804579512824159
15.648,-0.006804122742508579
15.652000000000001,-0.006813546635335282
15.656,-0.006833476245420325
15.66,-0.0068793215607788035
15.664,-0.006856507085542729
15.668000000000001,-0.006795660471398886
15.672,-0.0067835440377645535
15.676,-0.006791741862902069
15.68,-0.006797078863431477
15.684000000000001,-0.006791357214215264
15.688,-0.006800420498898088
15.692,-0.006805204566940216
15.696,-0.006794674809138951
15.700000000000001,-0.006795804714656438
15.704,-0.006800997471928295
15.708,-0.006806743161687433
15.712,-0.006811695513530037
15.716000000000001,-0.0068106617701842505
15.72,-0.0068234272984775655
15.724,-0.006840640327212054
15.728,-0.00684665046294337
15.732000000000001,-0.006812464810903645
15.736,-0.006787943457119877
15.74,-0.006785779808256604
15.744,-0.006807103769831312
15.748000000000001,-0.006808377918606351
15.752,-0.0068189797980363915
15.756,-0.0068282594476055435
15.76,-0.006791982268331321
15.764000000000001,-0.006777293496603986
15.768,-0.006789866700553898
15.772,-0.006796982701259776
15.776,-0.006777630064204939
15.780000000000001,-0.006767412833461702
15.784,-0.006770273658069808
15.788,-0.00677539429371289
15.792,-0.006780202402297942
15.796000000000001,-0.006784770105453742
15.8,-0.006788929119379812
15.804,-0.006790876403356759
15.808,-0.006795107538911605
15.812000000000001,-0.0068018629314736045
15.816,-0.006807945188833696
15.82,-0.006830110569410789
15.824,-0.006862637423988671
15.828000000000001,-0.006823908109336071
15.832,-0.0068036900127359246
15.836,-0.0067920303494171715
15.84,-0.006769239914724022
15.844000000000001,-0.0067622200761898454
15.848,-0.006771860333902876
15.852,-0.006775562577513367
15.856,-0.006776283793801124
15.860000000000001,-0.006779072496780455
15.864,-0.0067817169565022335
15.868,-0.00678416909188061
15.872,-0.00678645294345851
15.876,-0.00678645294345851
15.88,-0.006789025281551514
15.884,-0.006798978066322573
15.888,-0.006812753297418749
15.892,-0.006849367044293926
15.896,-0.006858959220921106
15.9,-0.006803641931650074
15.904,-0.006770538104041986
15.908,-0.006760969967957732
15.912,-0.006749526669525306
15.916,-0.0067535173996509
15.92,-0.006802367782875035
15.924,-0.006806983567116685
15.928,-0.0067745047936246545
15.932,-0.006749743034411633
15.936,-0.006740343182127855
15.94,-0.006744550277139776
15.944,-0.006752123048161235
15.948,-0.0067592150083241875
15.952,-0.00676585019817156
15.956,-0.006772509428561858
15.96,-0.006772269023132605
15.964,-0.006773422969193018
15.968,-0.0067813323078154296
15.972,-0.006783928686451358
15.976,-0.006793641065793164
15.98,-0.0068103492431262225
15.984,-0.006807440337432265
15.988,-0.006817897973604755
15.992,-0.006806118107571376
15.996,-0.006786909713774091
16.0,-0.006790563876298731
16.004,-0.006778759969722426
16.008,-0.006773831658422747
16.012,-0.0067923428764752
16.016000000000002,-0.006791982268331321
16.02,-0.0067818852403027105
16.024,-0.006778014712891743
16.028,-0.006783928686451358
16.032,-0.006790539835755806
