time,channel4
0.0,0.011981950837208927
0.004,0.01196351174078525
0.008,0.011963896389472053
0.012,0.011967935200683498
0.016,0.011961203848664424
0.02,0.01196360790295695
0.024,0.01197894576934327
0.028,0.011984595296930705
0.032,0.011977335052967277
0.036000000000000004,0.011974498268902095
0.04,0.011966492768107982
0.044,0.011971204714521334
0.048,0.011981157499292393
0.052000000000000005,0.0119863021754784
0.056,0.011983393269784441
0.06,0.011969569957602415
0.064,0.011961155767578573
0.068,0.011963535781328175
0.07200000000000001,0.01197675807993707
0.076,0.01197634939070734
0.08,0.011972623106553924
0.084,0.011976469593421966
0.088,0.011964160835444231
0.092,0.011958944037629449
0.096,0.011969377633259014
0.1,0.011963896389472053
0.10400000000000001,0.011957958375369514
0.108,0.011958343024056317
0.112,0.011957405442882233
0.116,0.011956275537364745
0.12,0.011957838172654887
0.124,0.011957717969940261
0.128,0.011949568225888597
0.132,0.011941274238579382
0.136,0.011943077279298777
0.14,0.011955001388589707
0.14400000000000002,0.011945914063363957
0.148,0.011926705669566672
0.152,0.011933340859414044
0.156,0.01196122788920735
0.16,0.011961612537894155
0.164,0.011947933468969678
0.168,0.011946034266078584
0.17200000000000001,0.011967238024938666
0.176,0.011974161701301141
0.18,0.011976734039394145
0.184,0.011979065972057895
0.188,0.011970651782034053
0.192,0.011966877416794787
0.196,0.011965915795077777
0.2,0.0119636559840428
0.20400000000000001,0.01196392043001498
0.20800000000000002,0.011971252795607184
0.212,0.011974450187816245
0.216,0.011971589363208138
0.22,0.011968343889913228
0.224,0.011963367497527699
0.228,0.011959905659346461
0.232,0.011961203848664424
0.23600000000000002,0.01196853621425663
0.24,0.011959881618803535
0.244,0.011954184010130247
0.248,0.011945673657934704
0.252,0.011942380103553944
0.256,0.011952429050496703
0.26,0.011969257430544387
0.264,0.011980556485719262
0.268,0.011981133458749467
0.272,0.011974137660758217
0.276,0.011975267566275703
0.28,0.01197625322853564
0.28400000000000003,0.011970219052261397
0.28800000000000003,0.01196360790295695
0.292,0.01194980863131785
0.296,0.01195538603727651
0.3,0.011983249026526891
0.304,0.011991086243520526
0.308,0.011981494066893347
0.312,0.011973753012071412
0.316,0.011969137227829761
0.32,0.011973272201212906
0.324,0.01196807944394105
0.328,0.01195812665916999
0.332,0.01195584280759209
0.336,0.011952020361266974
0.34,0.011946587198565865
0.34400000000000003,0.011955506239991137
0.34800000000000003,0.01198452317530193
0.352,0.011998106082054703
0.356,0.011987143594480783
0.36,0.011982864377840087
0.364,0.011982864377840087
0.368,0.011988682189228
0.372,0.011982431648067431
0.376,0.01197589262039176
0.38,0.011974137660758217
0.384,0.011974498268902095
0.388,0.011975267566275703
0.392,0.011973921295871888
0.396,0.011964088713815456
0.4,0.011957453523968084
0.404,0.011967238024938666
0.40800000000000003,0.011973536647185085
0.41200000000000003,0.011972166336238344
0.41600000000000004,0.011970146930632622
0.42,0.011959713335003059
0.424,0.011957693929397335
0.428,0.011961564456808304
0.432,0.011968199646655676
0.436,0.011969690160317042
0.44,0.011966420646479207
0.444,0.011973248160669981
0.448,0.011975532012247882
0.452,0.011968800660228807
0.456,0.011966180241049954
0.46,0.011967238024938666
0.464,0.011970026727917997
0.468,0.011970627741491128
0.47200000000000003,0.011958799794371897
0.47600000000000003,0.011949928834032475
0.48,0.011949496104259822
0.484,0.011959016159258226
0.488,0.011966492768107982
0.492,0.011966733173537235
0.496,0.011961324051379051
0.5,0.011952621374840105
0.504,0.011946995887795594
0.508,0.011967189943852815
0.512,0.011974233822929918
0.516,0.011954184010130247
0.52,0.011951299144979216
0.524,0.011977383134053126
0.528,0.011989571689316235
0.532,0.011985917526791595
0.536,0.011984643378016555
0.54,0.011976950404280472
0.544,0.011968151565569825
0.548,0.011971084511806708
0.552,0.011967887119597648
0.556,0.011963848308386203
0.56,0.011961612537894155
0.5640000000000001,0.011947356495939473
0.5680000000000001,0.011960554754005441
0.5720000000000001,0.011961756781151705
0.5760000000000001,0.011961083645949798
0.58,0.011973584728270936
0.584,0.011972863511983177
0.588,0.0119589921187153
0.592,0.011952981982983984
0.596,0.011953486834385414
0.6,0.011942812833326598
0.604,0.011924205453102445
0.608,0.011922258169125498
0.612,0.01194843832037111
0.616,0.011964761849017362
0.62,0.01198046032354756
0.624,0.011991759378722435
0.628,0.011979378499115923
0.632,0.01196214142983851
0.636,0.011948702766343288
0.64,0.011943125360384626
0.644,0.01195634765899352
0.648,0.011961107686492724
0.652,0.011960867281063471
0.656,0.011958174740255841
0.66,0.011960410510747891
0.664,0.01195995374043231
0.668,0.011965819632906076
0.672,0.011958318983513393
0.676,0.011957838172654887
0.68,0.011949616306974447
0.684,0.011938245130170798
0.6880000000000001,0.011950193280004654
0.6920000000000001,0.01195995374043231
0.6960000000000001,0.011958559388942646
0.7000000000000001,0.01196899298457221
0.704,0.011978032228712108
0.708,0.011971108552349632
0.712,0.01195341471275664
0.716,0.011951178942264589
0.72,0.011960122024232788
0.724,0.011957140996910054
0.728,0.01193661037325188
0.732,0.011941226157493531
0.736,0.011947981550055529
0.74,0.011953294510042014
0.744,0.011959593132288431
0.748,0.011952068442352824
0.752,0.0119521405639816
0.756,0.01195762180776856
0.76,0.011958895956543598
0.764,0.011971445119950587
0.768,0.01196762267362547
0.772,0.011943654252328982
0.776,0.011936442089451403
0.78,0.011951106820635814
0.784,0.011970844106377455
0.788,0.011974137660758217
0.792,0.011972983714697804
0.796,0.01197579645822006
0.8,0.011971974011894941
0.804,0.011967814997968871
0.808,0.011957597767225634
0.812,0.011945096684904498
0.8160000000000001,0.011945914063363957
0.8200000000000001,0.011958919997086525
0.8240000000000001,0.011964809930103213
0.8280000000000001,0.011963704065128651
0.8320000000000001,0.011950145198918804
0.836,0.011939158670801957
0.84,0.011974378066187468
0.844,0.01197493099867475
0.848,0.011967454389824992
0.852,0.011964208916530081
0.856,0.011963367497527699
0.86,0.011960242226947413
0.864,0.011955241794018958
0.868,0.01195026540163343
0.872,0.011950169239461728
0.876,0.011926176777622316
0.88,0.011917113492939491
0.884,0.011936345927279702
0.888,0.011946515076937088
0.892,0.011967454389824992
0.896,0.01196168465952293
0.9,0.011966180241049954
0.904,0.011981349823635795
0.908,0.011978777485542791
0.912,0.011980316080290009
0.916,0.011966709132994309
0.92,0.01196351174078525
0.924,0.011960747078348844
0.928,0.011949784590774924
0.932,0.0119475728608258
0.936,0.011950577928691457
0.9400000000000001,0.011959400807945029
0.9440000000000001,0.011988369662169972
0.9480000000000001,0.01201416516472878
0.9520000000000001,0.012041114613348
0.9560000000000001,0.012056813087878196
0.96,0.01205760642579473
0.964,0.0120389269239418
0.968,0.012001736204036419
0.972,0.011987023391766157
0.976,0.011967839038511797
0.98,0.011944904360561096
0.984,0.011952020361266974
0.988,0.011961949105495107
0.992,0.01194788538788383
0.996,0.011959184443058702
1.0,0.011963631943499876
1.004,0.011951419347693842
1.008,0.011942163738667615
1.012,0.011933845710815474
1.016,0.01193889422482978
1.02,0.011948967212315465
1.024,0.011963343456984772
1.028,0.011960242226947413
1.032,0.011958343024056317
1.036,0.011962213551467286
1.04,0.011958150699712915
1.044,0.011956588064422773
1.048,0.01195569856433454
1.052,0.011950049036747103
1.056,0.011943077279298777
1.06,0.011940937670978428
1.064,0.01193980776546094
1.068,0.011944086982101637
1.072,0.011944159103730412
1.076,0.011940024130347268
1.08,0.01194492840110402
1.084,0.011955145631847257
1.088,0.011944159103730412
1.092,0.011936634413794805
1.096,0.011943221522556327
1.1,0.01193574491370657
1.104,0.01192935012928845
1.108,0.011940000089804342
1.112,0.01194569769847763
1.116,0.011941274238579382
1.12,0.011932908129641389
1.124,0.011929133764402123
1.1280000000000001,0.011932523480954586
1.1320000000000001,0.0119361536029363
1.1360000000000001,0.011941490603465709
1.1400000000000001,0.01194132231966523
1.1440000000000001,0.011932475399868735
1.1480000000000001,0.011929542453631852
1.1520000000000001,0.011933629345929148
1.156,0.011928460629200216
1.16,0.011920575331120729
1.164,0.011924974750476052
1.168,0.011926946074995923
1.172,0.01191432478996016
1.176,0.011916368236108808
1.18,0.011939278873516585
1.184,0.011943173441470476
1.188,0.011929830940146956
1.192,0.011928148102142187
1.196,0.01194163484672326
1.2,0.011934302481131054
1.204,0.011926200818165242
1.208,0.011943149400927552
1.212,0.011955025429132632
1.216,0.01195127510443629
1.22,0.011950337523262205
1.224,0.011952116523438675
1.228,0.011947380536482397
1.232,0.011941442522379858
1.236,0.01191829147954283
1.24,0.011914805600818666
1.244,0.011932908129641389
1.248,0.011942572427897345
1.252,0.011943798495586534
1.256,0.011941514644008633
1.26,0.011935023697418813
1.264,0.011930768521321041
1.268,0.011938870184286856
1.272,0.011937764319312292
1.276,0.0119155989387352
1.28,0.011926849912824224
1.284,0.011951299144979216
1.288,0.011957213118538831
1.292,0.011951659753123095
1.296,0.011948101752770156
1.3,0.01195437633447365
1.304,0.011965915795077777
1.308,0.011962886686669193
1.312,0.011951251063893366
1.316,0.011943101319841701
1.32,0.011945096684904498
1.324,0.011932643683669211
1.328,0.011913988222359208
1.332,0.01192564788567796
1.336,0.011933100453984791
1.34,0.01193711522465331
1.344,0.011938749981572228
1.348,0.011933268737785269
1.352,0.01193574491370657
1.356,0.011940913630435502
1.36,0.011925143034276529
1.364,0.011914757519732816
1.368,0.011935720873163646
1.372,0.011934374602759831
1.3760000000000001,0.011937908562569844
1.3800000000000001,0.011954087847958546
1.3840000000000001,0.011953775320900518
1.3880000000000001,0.011943894657758235
1.3920000000000001,0.011944303346987964
1.3960000000000001,0.011947596901368726
1.4000000000000001,0.011943750414500683
1.4040000000000001,0.011939831806003866
1.408,0.011934687129817859
1.412,0.011936418048908479
1.416,0.011931826305209753
1.42,0.01193670653542358
1.424,0.011939591400574613
1.428,0.011939711603289238
1.432,0.011941250198036456
1.436,0.011942163738667615
1.44,0.0119384374545142
1.444,0.011931826305209753
1.448,0.011926609507394971
1.452,0.0119361536029363
1.456,0.011947861347340903
1.46,0.01192889335897287
1.464,0.011902568964469708
1.468,0.011899587937146974
1.472,0.011910502343635044
1.476,0.01192144079066604
1.48,0.011936129562393375
1.484,0.01194351000907143
1.488,0.011945457293048377
1.492,0.011950457725976832
1.496,0.011950145198918804
1.5,0.011943125360384626
1.504,0.011935600670449019
1.508,0.011930864683492743
1.512,0.011931778224123902
1.516,0.011934590967646158
1.52,0.011933629345929148
1.524,0.011930528115891788
1.528,0.011926922034452999
1.532,0.011930455994263013
1.536,0.011931225291636621
1.54,0.01192112826360801
1.544,0.011917954911941876
1.548,0.0119293982103743
1.552,0.011929927102318657
1.556,0.011945409211962526
1.56,0.011961949105495107
1.564,0.011957020794195429
1.568,0.011947404577025323
1.572,0.011944351428073815
1.576,0.01194036069794822
1.58,0.011938269170713724
1.584,0.011945216887619124
1.588,0.011946082347164435
1.592,0.011939759684375089
1.596,0.011934879454161261
1.6,0.011941731008894962
1.604,0.011940432819576997
1.608,0.011935672792077795
1.612,0.011929927102318657
1.616,0.011920407047320253
1.62,0.011915286411677172
1.624,0.011932691764755062
1.6280000000000001,0.011946875685080967
1.6320000000000001,0.011938028765284471
1.6360000000000001,0.011936057440764598
1.6400000000000001,0.011921560993380665
1.6440000000000001,0.011930407913177163
1.6480000000000001,0.011936297846193851
1.6520000000000001,0.011950409644890981
1.6560000000000001,0.011984258729329752
1.6600000000000001,0.012018276097569
1.6640000000000001,0.012045970803018903
1.668,0.012053591655126211
1.672,0.012044576451529237
1.676,0.01202974343654435
1.68,0.01200279398792513
1.684,0.011960122024232788
1.688,0.011924854547761427
1.692,0.011924445858531698
1.696,0.011928460629200216
1.7,0.011923844844958566
1.704,0.011922763020526929
1.708,0.011924806466675576
1.712,0.011917137533482417
1.716,0.011931153170007845
1.72,0.01194158676563741
1.724,0.011931994589010229
1.728,0.011902785329356035
1.732,0.011885187651934742
1.736,0.011924301615274146
1.74,0.011952981982983984
1.744,0.01194259646844027
1.748,0.011926321020879867
1.752,0.011950385604348055
1.756,0.011955265834561885
1.76,0.011934350562216905
1.764,0.011932379237697034
1.768,0.011934663089274935
1.772,0.011926369101965718
1.776,0.01192189756098162
1.78,0.011923123628670807
1.784,0.011920238763519777
1.788,0.011918604006600858
1.792,0.011920935939264608
1.796,0.011908314654228844
1.8,0.011914348830503086
1.804,0.01191848380388623
1.808,0.011914396911588937
1.812,0.011913122762813897
1.816,0.011910358100377492
1.82,0.011885115530305966
1.824,0.01188687048993951
1.828,0.01191148800589498
1.832,0.011926705669566672
1.836,0.011931994589010229
1.84,0.011927234561511027
1.844,0.011922618777269377
1.848,0.011920262804062701
1.852,0.011912665992498317
1.856,0.011910382140920418
1.86,0.011913507411500702
1.864,0.011914925803533292
1.868,0.011911752451867158
1.872,0.011914781560275742
1.8760000000000001,0.011916320155022957
1.8800000000000001,0.011910334059834568
1.8840000000000001,0.011903458464557941
1.8880000000000001,0.0119041796808457
1.8920000000000001,0.0119041796808457
1.8960000000000001,0.011906343329708973
1.9000000000000001,0.01190930031648878
1.9040000000000001,0.011914541154846489
1.9080000000000001,0.011910093654405315
1.9120000000000001,0.011901246734608817
1.9160000000000001,0.011900453396692283
1.92,0.011914204587245535
1.924,0.011929854980689882
1.928,0.011939326954602435
1.932,0.011933605305386221
1.936,0.01192838850757144
1.94,0.011922378371840124
1.944,0.011917281776739968
1.948,0.011916031668507856
1.952,0.011908915667801976
1.956,0.011890188084863198
1.96,0.011902496842840931
1.964,0.011908386775857621
1.968,0.01191240154652614
1.972,0.011908675262372725
1.976,0.01190778576228449
1.98,0.011924686263960949
1.984,0.01193281196746969
1.988,0.011924854547761427
1.992,0.011903867153787672
1.996,0.011899467734432349
2.0,0.011923460196271761
2.004,0.011923219790842508
2.008,0.011908218492057145
2.012,0.01192112826360801
2.016,0.011927186480425176
2.02,0.011918027033570651
2.024,0.011917281776739968
2.028,0.011923219790842508
2.032,0.01192646526413742
2.036,0.011918652087686709
2.04,0.011915743181992752
2.044,0.011898626315429964
2.048,0.01188783211165652
2.052,0.011903650788901344
2.056,0.011915911465793228
2.06,0.011921272506865562
2.064,0.011920431087863177
2.068,0.01192432565581707
2.072,0.011922498574554751
2.076,0.011920767655464131
2.08,0.011921609074466516
2.084,0.01191747410108337
2.088,0.011916127830679555
2.092,0.011917594303797997
2.096,0.011909468600289257
2.1,0.011896534788195466
2.104,0.011896270342223288
2.108,0.011901823707639024
2.112,0.011923724642243939
2.116,0.01192605657490769
2.12,0.011916680763166836
2.124,0.011916151871222481
2.128,0.011937812400398142
2.132,0.011945962144449807
2.136,0.011931898426838528
2.14,0.01192990306177573
2.144,0.011928220223770963
2.148,0.011926922034452999
2.152,0.011921104223065086
2.156,0.011918916533658886
2.16,0.011921488871751889
2.164,0.011920166641891
2.168,0.011917594303797997
2.172,0.011914829641361592
2.176,0.011913795898015805
2.18,0.01189641458548084
2.184,0.011890620814635851
2.188,0.01189783297751343
2.192,0.011905213424191487
2.196,0.011909468600289257
2.2,0.011924926669390202
2.204,0.011922210088039648
2.208,0.011920647452749506
2.212,0.01192067149329243
2.216,0.011915863384707378
2.22,0.011911848614038859
2.224,0.011899804302033303
2.228,0.01189595781516526
2.232,0.01190326614021454
2.236,0.01191422862778846
2.24,0.011917810668684324
2.244,0.011913555492586552
2.248,0.011907737681198639
2.2520000000000002,0.011908386775857621
2.2560000000000002,0.011915911465793228
2.2600000000000002,0.011905429789077814
2.2640000000000002,0.011900862085922014
2.2680000000000002,0.011906535654052376
2.2720000000000002,0.011911680330238383
2.2760000000000002,0.011908723343458575
2.2800000000000002,0.011911848614038859
2.2840000000000003,0.011914973884619142
2.2880000000000003,0.01192966265634648
2.2920000000000003,0.011930648318606414
2.2960000000000003,0.011923075547584957
2.3000000000000003,0.011922065844782096
2.3040000000000003,0.01191793087139895
2.308,0.011912786195212945
2.312,0.011909083951602454
2.316,0.011890837179522178
2.32,0.011902544923926782
2.324,0.011912641951955393
2.328,0.011920599371663655
2.332,0.011917161574025342
2.336,0.011918002993027726
2.34,0.011924061209844893
2.344,0.01192213796641087
2.348,0.01191290639792757
2.352,0.011905501910706589
2.356,0.011912882357384646
2.36,0.011916656722623912
2.364,0.011918820371487185
2.368,0.011906030802650945
2.372,0.011886846449396585
2.376,0.011887351300798016
2.38,0.011901823707639024
2.384,0.011925936372193063
2.388,0.011951034699007037
2.392,0.011976782120479994
2.396,0.011994620203330541
2.4,0.012018588624627027
2.404,0.012010366758946588
2.408,0.012003226717697784
2.412,0.012006928961308274
2.416,0.011992432513924341
2.42,0.011969425714344865
2.424,0.01195615533465012
2.428,0.011949279739373493
2.432,0.011932427318782884
2.436,0.011919830074290046
2.44,0.011904275843017401
2.444,0.011893145071643005
2.448,0.011894875990733623
2.452,0.011906944343282105
2.456,0.01191437287104601
2.46,0.011913098722270973
2.464,0.011909156073231229
2.468,0.011899010964116769
2.472,0.01190321805912869
2.476,0.01189139011200946
2.48,0.011886317557452229
2.484,0.011905309586363187
2.488,0.01190833869477177
2.492,0.011913723776387029
2.496,0.011911704370781307
2.5,0.011911151438294026
2.504,0.011907304951425984
2.508,0.01190098228863664
2.512,0.011900092788548405
2.516,0.01189682327471057
2.52,0.011896991558511046
2.524,0.011890236165949046
2.528,0.011884274111303581
2.532,0.011886582003424408
2.536,0.011874369407618374
2.54,0.011856122635538096
2.544,0.011863358838958601
2.548,0.011865835014879905
2.552,0.011878937110774174
2.556,0.011893962450102463
2.56,0.011880860354208194
2.564,0.01185600243282347
2.568,0.011860498014350495
2.572,0.011890140003777347
2.576,0.011900814004836164
2.58,0.011889466868575439
2.584,0.011885668462793247
2.588,0.011890043841605646
2.592,0.011890620814635851
2.596,0.011885355935735219
2.6,0.011879273678375128
2.604,0.01187956216489023
2.608,0.011875018502277356
2.612,0.011868022704286104
2.616,0.011877711043084984
2.62,0.011880091056834586
2.624,0.011854415756990403
2.628,0.011849872094377528
2.632,0.011874730015762253
2.636,0.011893145071643005
2.64,0.011894154774445866
2.644,0.011886269476366378
2.648,0.011881990259725682
2.652,0.011886533922338557
2.656,0.011878071651228865
2.66,0.011870522920750332
2.664,0.011873455866987213
2.668,0.01187997085411996
2.672,0.011883360570672422
2.676,0.011877999529600088
2.68,0.011890765057893403
2.684,0.011898458031629488
2.688,0.011900910167007865
2.692,0.011897256004483225
2.696,0.011888553327944279
2.7,0.011877085988968928
2.704,0.011888841814459383
2.708,0.011897400247740776
2.712,0.011917113492939491
2.716,0.011911463965352054
2.72,0.011897231963940299
2.724,0.011891726679610413
2.728,0.011892327693183545
2.732,0.011877542759284508
2.736,0.011858406487115997
2.74,0.011846193891309963
2.744,0.011870186353149377
2.748,0.011921801398809918
2.7520000000000002,0.011932619643126287
2.7560000000000002,0.011923700601701014
2.7600000000000002,0.011894034571731238
2.7640000000000002,0.011883865422073852
2.7680000000000002,0.011902280477954604
2.7720000000000002,0.011920022398633448
2.7760000000000002,0.011923748682786865
2.7800000000000002,0.01191651247936636
2.7840000000000003,0.011904876856590533
2.7880000000000003,0.011901246734608817
2.7920000000000003,0.011904347964646176
2.7960000000000003,0.011902496842840931
2.8000000000000003,0.01190285745098481
2.8040000000000003,0.01189413073390294
2.8080000000000003,0.011871941312782922
2.8120000000000003,0.011862036609097711
2.816,0.011872277880383876
2.82,0.011894851950190698
2.824,0.011905333626906113
2.828,0.011908963748887827
2.832,0.011906703937852852
2.836,0.011892832544584975
2.84,0.011891077584951431
2.844,0.011902064113068277
2.848,0.011900765923750313
2.852,0.011891678598524563
2.856,0.011896246301680362
2.86,0.01189367396358736
2.864,0.011885596341164472
2.868,0.011891077584951431
2.872,0.011892399814812321
2.876,0.01189148627418116
2.88,0.011902256437411678
2.884,0.011898554193801189
2.888,0.011908266573142994
2.892,0.011913795898015805
2.896,0.011904420086274953
2.9,0.011889010098259859
2.904,0.011891558395809937
2.908,0.011893361436529332
2.912,0.011893625882501509
2.916,0.011894250936617567
2.92,0.01189499619344825
2.924,0.011901967950896576
2.928,0.011902424721212156
2.932,0.01189377012575906
2.936,0.011887591706227269
2.94,0.011875980123994366
2.944,0.011868287150258281
2.948,0.011876581137567498
2.952,0.011893529720329808
2.956,0.01189235173372647
2.96,0.01187453769141885
2.964,0.011849824013291677
2.968,0.011851194324238418
2.972,0.011901967950896576
2.976,0.011922546655640602
2.98,0.011914348830503086
2.984,0.011905429789077814
2.988,0.011892447895898172
2.992,0.011886101192565902
2.996,0.011882903800356842
3.0,0.011885235733020593
3.004,0.01188646180070978
3.008,0.011882783597642216
3.012,0.011874778096848103
3.016,0.01187261444798483
3.02,0.011890885260608029
3.024,0.01188915434151741
3.028,0.011873263542643812
3.032,0.011883961584245553
3.036,0.01189134203092361
3.04,0.011889418787489588
3.044,0.011896775193624719
3.048,0.011905453829620738
3.052,0.011897039639596896
3.056,0.011881990259725682
3.06,0.01188129308398085
3.064,0.011895693369193081
3.068,0.011905357667449037
3.072,0.011903843113244746
3.076,0.011889250503689112
3.08,0.011878263975572265
3.084,0.011876965786254303
3.088,0.011878360137743967
3.092,0.011885067449220115
3.096,0.011900621680492761
3.1,0.011906343329708973
3.104,0.011886990692654137
3.108,0.011862228933441113
3.112,0.011864056014703434
3.116,0.011873600110244764
3.12,0.011882206624612009
3.124,0.011890164044320271
3.128,0.01189093334169388
3.132,0.011913098722270973
3.136,0.011923267871928359
3.14,0.011943221522556327
3.144,0.01198233548589573
3.148,0.01200426046104357
3.152,0.011995677987219252
3.156,0.011974474228359169
3.16,0.011949784590774924
3.164,0.01192555172350626
3.168,0.011886293516909304
3.172,0.011874201123817896
3.176,0.011875210826620757
3.18,0.011871412420838567
3.184,0.01186518592022092
3.188,0.011857925676257491
3.192,0.011867133204197869
3.196,0.01188951494966129
3.2,0.011878889029688323
3.204,0.011876845583539675
3.208,0.011885476138449844
3.212,0.011874489610333
3.216,0.011872398083098501
3.22,0.011872061515497549
3.224,0.011852179986498353
3.228,0.01184600156696656
3.232,0.011864849352619966
3.236,0.011887086854825838
3.24,0.011887231098083388
3.244,0.011885259773563518
3.248,0.011881437327238401
3.2520000000000002,0.011877662961999134
3.2560000000000002,0.011858959419603278
3.2600000000000002,0.011837875863457822
3.2640000000000002,0.011847131472484049
3.2680000000000002,0.011859440230461782
3.2720000000000002,0.011867710177228076
3.2760000000000002,0.011874970421191506
3.2800000000000002,0.011868767961116787
3.2840000000000003,0.011867373609627122
3.2880000000000003,0.011883120165243169
3.2920000000000003,0.011878095691771789
3.2960000000000003,0.011869393015232843
3.3000000000000003,0.011858454568201848
3.3040000000000003,0.011854103229932375
3.3080000000000003,0.011863118433529348
3.3120000000000003,0.011874633853590551
3.3160000000000003,0.011875691637479263
3.3200000000000003,0.011869753623376724
3.3240000000000003,0.01186011336566369
3.3280000000000003,0.011836048782195501
3.332,0.011825158416250358
3.336,0.011844511053305194
3.34,0.011876124367251918
3.344,0.011883048043614394
3.348,0.011880643989321867
3.352,0.011875523353678787
3.356,0.011869248771975292
3.36,0.01186951321794747
3.364,0.011861724082039683
3.368,0.011858406487115997
3.372,0.01186148367661043
3.376,0.011858550730373549
3.38,0.011858118000600893
3.384,0.011855978392280545
3.388,0.011852179986498353
3.392,0.011852179986498353
3.396,0.011862421257784516
3.4,0.011855209094906937
3.404,0.01185965659534811
3.408,0.011872398083098501
3.412,0.011886509881795631
3.416,0.011889394746946664
3.42,0.011876364772681171
3.424,0.011871196055952238
3.428,0.01186996998826305
3.432,0.01186855159623046
3.436,0.01186047397380757
3.44,0.011859295987204232
3.444,0.011869489177404545
3.448,0.011877807205256686
3.452,0.0118791534756605
3.456,0.01187280677232823
3.46,0.011864969555334594
3.464,0.011865065717506295
3.468,0.011874273245446673
3.472,0.011872902934499932
3.476,0.011862902068643022
3.48,0.011845713080451457
3.484,0.011828283686830641
3.488,0.01184047224209375
3.492,0.011866147541937934
3.496,0.011876701340282124
3.5,0.011871075853237613
3.504,0.011868792001659712
3.508,0.01187280677232823
3.512,0.011883192286871945
3.516,0.01188037954334969
3.52,0.011888312922515026
3.524,0.011882975921985619
3.528,0.011854103229932375
3.532,0.011852035743240803
3.536,0.011862902068643022
3.54,0.01186631582573841
3.544,0.011868840082745562
3.548,0.01186845543405876
3.552,0.011867878461028552
3.556,0.011861387514438729
3.56,0.01183955870146259
3.564,0.011821480213182791
3.568,0.011840352039379123
3.572,0.01183727484988469
3.576,0.011849054715918069
3.58,0.011885764624964948
3.584,0.011894972152905324
3.588,0.011873479907530139
3.592,0.011890140003777347
3.596,0.011911463965352054
3.6,0.011906439491880675
3.604,0.011891197787666058
3.608,0.011882783597642216
3.612,0.011879946813577034
3.616,0.011857805473542865
3.62,0.01184083285023763
3.624,0.011855305257078638
3.628,0.011863238636243974
3.632,0.011867469771798823
3.636,0.011867782298856851
3.64,0.011868671798945086
3.644,0.011866387947367186
3.648,0.011864152176875134
3.652,0.011858310324944296
3.656,0.011854896567848909
3.66,0.011844150445161315
3.664,0.011839077890604085
3.668,0.011832731187271815
3.672,0.011823403456616813
3.676,0.011846121769681186
3.68,0.011886966652111211
3.684,0.011906655856767001
3.688,0.011896078017879886
3.692,0.011880139137920437
3.696,0.0118766772997392
3.7,0.011872181718212175
3.704,0.01186230105506989
3.708,0.011852901202786112
3.712,0.011854776365134281
3.716,0.011853742621788496
3.72,0.01185448787861918
3.724,0.011859584473719334
3.728,0.011853910905588972
3.732,0.01184275609367165
3.736,0.011834870795592164
3.74,0.01184732379682745
3.744,0.011876869624082602
3.748,0.011869753623376724
3.7520000000000002,0.011841025174581032
3.7560000000000002,0.011845977526423636
3.7600000000000002,0.011863503082216153
3.7640000000000002,0.011867013001483243
3.7680000000000002,0.011860906703580225
3.7720000000000002,0.011866556231167663
3.7760000000000002,0.011870811407265435
3.7800000000000002,0.01186823906917243
3.7840000000000003,0.011866676433882289
3.7880000000000003,0.011867493812341747
3.7920000000000003,0.011863791568731255
3.7960000000000003,0.011848020972572282
3.8000000000000003,0.011835351606450668
3.8040000000000003,0.011846145810224112
3.8080000000000003,0.01185513697327816
3.8120000000000003,0.011874730015762253
3.8160000000000003,0.011892880625670826
3.8200000000000003,0.011886269476366378
3.8240000000000003,0.01187997085411996
3.8280000000000003,0.011868527555687534
3.8320000000000003,0.011871580704639043
3.8360000000000003,0.011871676866810744
3.84,0.011861363473895804
3.844,0.011845520756108055
3.848,0.011851627054011072
3.852,0.01186468106881949
3.856,0.011879490043261455
3.86,0.011903338261843316
3.864,0.011924878588304351
3.868,0.011948318117656483
3.872,0.011946491036394164
3.876,0.01193204267009608
3.88,0.011958919997086525
3.884,0.011950217320547579
3.888,0.011905405748534888
3.892,0.01189098142277973
3.896,0.011888216760343325
3.9,0.01187408092110327
3.904,0.011863815609274181
3.908,0.011860353771092944
3.912,0.011859824879148587
3.916,0.011859512352090559
3.92,0.011855377378707413
3.924,0.011855257175992787
3.928,0.011857156378883883
3.932,0.011852660797356859
3.936,0.01184458317493397
3.94,0.011838765363546057
3.944,0.011839751025805992
3.948,0.011833139876501544
3.952,0.011839029809518235
3.956,0.011852011702697876
3.96,0.011837707579657344
3.964,0.011831168551981673
3.968,0.011857012135626331
3.972,0.011886509881795631
3.976,0.011859031541232053
3.98,0.011852997364957813
3.984,0.011861339433352878
3.988,0.011857853554628716
3.992,0.011853742621788496
3.996,0.011846674702168469
4.0,0.011845833283166084
4.0040000000000004,0.011852083824326653
4.008,0.011858262243858445
4.0120000000000005,0.011850376945778958
4.016,0.011851098162066717
4.0200000000000005,0.011841770431411715
4.024,0.011837034444455437
4.0280000000000005,0.01183458230907706
4.032,0.011830519457322691
4.0360000000000005,0.01182575942982349
4.04,0.011846530458910917
4.0440000000000005,0.011862036609097711
4.048,0.011854415756990403
4.0520000000000005,0.01184768440497133
4.056,0.01183768353911442
4.0600000000000005,0.011829653997777382
4.064,0.01183362068736005
4.0680000000000005,0.01184011163394987
4.072,0.011841409823267835
4.0760000000000005,0.011835375646993595
4.08,0.011832971592701068
4.0840000000000005,0.011839077890604085
4.088,0.011836938282283736
4.0920000000000005,0.011815085428764673
4.096,0.011804772035849734
4.1,0.011815686442337804
4.104,0.011844751458734447
4.108,0.011853141608215365
4.112,0.011827081659684378
4.116,0.011800132211065158
4.12,0.011802536265357684
4.124,0.011824268916162122
4.128,0.011864152176875134
4.132,0.011876653259196273
4.136,0.01187261444798483
4.14,0.011867037042026168
4.144,0.011853622419073869
4.148,0.011850593310665286
4.152,0.011850449067407735
4.156,0.011849054715918069
4.16,0.011851554932382297
4.164,0.011849078756460995
4.168,0.0118428041747575
4.172,0.011838116268887075
4.176,0.011841554066525387
4.18,0.011839582742005516
4.184,0.011828980862575474
4.188,0.011848670067231264
4.192,0.011861195190095326
4.196,0.011857060216712182
4.2,0.011845424593936355
4.204,0.011848213296915685
4.208,0.011852925243329036
4.212,0.011846722783254318
4.216,0.011845689039908533
4.22,0.011844150445161315
4.224,0.011845280350678803
4.228,0.011848573905059563
4.232,0.011832370579127937
4.236,0.011789506291092192
4.24,0.011799050386633522
4.244,0.01184773248605718
4.248,0.011859127703403754
4.252,0.011858021838429192
4.256,0.011847996932029358
4.26,0.011846434296739216
4.264,0.011843140742358454
4.268,0.011843789837017437
4.272,0.011848886432117593
4.276,0.011857444865398987
4.28,0.011852059783783727
4.284,0.011852636756813934
4.288,0.011849174918632695
4.292,0.011849054715918069
4.296,0.0118335726062742
4.3,0.011819364645405369
4.304,0.011850280783607258
4.308,0.011861844284754309
4.312,0.011848549864516639
4.316,0.011845472675022206
4.32,0.011838717282460207
4.324,0.011816167253196308
4.328,0.01181123894189663
4.332,0.01181626341536801
4.336,0.011839991431235245
4.34,0.011871965353325848
4.344,0.011873720312959392
4.348,0.01186102690629485
4.352,0.011856579405853676
4.356,0.011853454135273393
4.36,0.011841914674669265
4.364,0.011831865727726506
4.368,0.011838669201374356
4.372,0.011852636756813934
4.376,0.011846241972395814
4.38,0.01183869324191728
4.384,0.011842395485527771
4.388,0.011846121769681186
4.392,0.011850713513379912
4.396,0.011858478608744772
4.4,0.011842683972042875
4.404,0.011832923511615218
4.408,0.011829245308547653
4.412,0.01182270628087198
4.416,0.011825062254078656
4.42,0.01183503907939264
4.424,0.011844390850590568
4.428,0.011838933647346533
4.432,0.011828427930088193
4.436,0.011814171888133513
4.44,0.01181352279347453
4.444,0.01181022923909377
4.448,0.011840159715035721
4.452,0.011858093960057969
4.456,0.011850641391751137
4.46,0.011833909173875154
4.464,0.01183681807956911
4.468,0.011835592011879921
4.472,0.01184179447195464
4.476,0.011852155945955428
4.48,0.011846987229226497
4.484,0.011840568404265452
4.488,0.01184225124227022
4.492,0.011844318728961791
4.496,0.011846842985968945
4.5,0.011847516121170852
4.5040000000000004,0.011841457904353685
4.508,0.011840015471778171
4.5120000000000005,0.01183494291722094
4.516,0.011823523659331439
4.5200000000000005,0.011820037780607277
4.524,0.011821119605038913
4.5280000000000005,0.011829942484292484
4.532,0.011864104095789285
4.5360000000000005,0.011859872960234438
4.54,0.011855665865222517
4.5440000000000005,0.011851242405324269
4.548,0.011846530458910917
4.5520000000000005,0.011835351606450668
4.556,0.011831697443926028
4.5600000000000005,0.011825446902765461
4.564,0.011826240240681995
4.5680000000000005,0.011835519890251146
4.572,0.011840231836664498
4.5760000000000005,0.011865907136508681
4.58,0.011902064113068277
4.5840000000000005,0.011942356063011018
4.588,0.011960434551290816
4.5920000000000005,0.011956179375193044
4.596,0.011943654252328982
4.6000000000000005,0.01192071957437828
4.604,0.011886173314194677
4.6080000000000005,0.011863503082216153
4.612,0.011861748122582607
4.616,0.011840327998836199
4.62,0.011835303525364818
4.624,0.0118495595673195
4.628,0.011852853121700261
4.632,0.011843188823444305
4.636,0.011832851389986443
4.64,0.01182905298420425
4.644,0.01182489397027818
4.648,0.01181032540126547
4.652,0.01183915001223286
4.656,0.011859897000777364
4.66,0.011851723216182773
4.664,0.0118404241610079
4.668,0.01183229845749916
4.672,0.011825879632538115
4.676,0.011820398388751156
4.68,0.011817008672198693
4.684,0.011819388685948295
4.688,0.011827634592171659
4.692,0.011828980862575474
4.696,0.011826216200139069
4.7,0.011817826050658153
4.704,0.011801358278754347
4.708,0.011797319467542903
4.712,0.011814484415191541
4.716,0.011836385349796455
4.72,0.011839726985263067
4.724,0.011829942484292484
4.728,0.011825783470366414
4.732,0.011826120037967368
4.736,0.01182311497010171
4.74,0.01182412467290457
4.744,0.011822057186212999
4.748,0.011807320333399813
4.752,0.011792367115700298
4.756,0.011801358278754347
4.76,0.011804339306077079
4.764,0.011795420264651807
4.768,0.011798425332517464
4.772,0.011792992169816356
4.776,0.011789025480233686
4.78,0.011788785074804435
4.784,0.011793713386104113
4.788,0.011805493252137492
4.792,0.011815998969395832
4.796,0.011819701213006323
4.8,0.011831240673610448
4.804,0.011829221268004727
4.808,0.011823475578245589
4.812,0.011815710482880729
4.816,0.01179515581867963
4.82,0.011782342209300464
4.824,0.011808426198374375
4.828,0.011813691077275007
4.832,0.011821961024041297
4.836,0.01182631236231077
4.84,0.011808426198374375
4.844,0.011805180725079464
4.848,0.011824966091906955
4.852,0.01183179360609773
4.856,0.011832130173698684
4.86,0.01183133683578215
4.864,0.011826504686654173
4.868,0.011830976227638271
4.872,0.011835592011879921
4.876,0.011833668768445901
4.88,0.011838068187801224
4.884,0.011833764930617602
4.888,0.01182950975451983
4.892,0.01182717782185608
4.896,0.01182361982150314
4.9,0.011824557402677226
4.904,0.011826697010997575
4.908,0.01182023010495068
4.912,0.011819196361604892
4.916,0.011824172753990421
4.92,0.011843501350502333
4.924,0.011847756526600105
4.928,0.011830110768092962
4.932,0.011808979130861656
4.936,0.01182768267325751
4.94,0.011835832417309174
4.944,0.011838476877030954
4.948,0.011836409390339381
4.952,0.01182941359234813
4.956,0.011828476011174044
4.96,0.011812633293386296
4.964,0.011800156251608084
4.968,0.011810373482351321
4.972,0.011821263848296465
4.976,0.011831408957410926
4.98,0.011853862824503122
4.984,0.011854608081333805
4.988,0.011847972891486432
4.992,0.011839510620376739
4.996,0.011836625755225708
5.0,0.011829605916691532
5.0040000000000004,0.011826889335340976
5.008,0.011835207363193118
5.0120000000000005,0.011845280350678803
5.016,0.01183412553876148
5.0200000000000005,0.011829678038320307
5.024,0.011825567105480087
5.0280000000000005,0.011839366377119189
5.032,0.01185280504061441
5.0360000000000005,0.011844102364075465
5.04,0.011837875863457822
5.0440000000000005,0.011830110768092962
5.048,0.011831481079039701
5.0520000000000005,0.01183453422799121
5.056,0.01183859707974558
5.0600000000000005,0.011837467174228093
5.064,0.011821335969925241
5.0680000000000005,0.011807224171228111
5.072,0.011817104834370394
5.0760000000000005,0.011809411860634311
5.08,0.011789097601862463
5.0840000000000005,0.011791020845296483
5.088,0.011823523659331439
5.0920000000000005,0.011856723649111228
5.096,0.011858502649287698
5.1000000000000005,0.011860041244034914
5.104,0.011847083391398198
5.1080000000000005,0.011837034444455437
5.112,0.011830711781666094
5.1160000000000005,0.01182575942982349
5.12,0.011823836186389469
5.124,0.011835375646993595
5.128,0.011842203161184369
5.132,0.011835784336223324
5.136,0.011834774633420463
5.14,0.011834894836135089
5.144,0.011836217065995979
5.148,0.011832370579127937
5.152,0.011829629957234456
5.156,0.011821360010468166
5.16,0.01183092814655242
5.164,0.011849799972748752
5.168,0.011848477742887864
5.172,0.011846939148140646
5.176,0.011837371012056392
5.18,0.011831096430352897
5.184,0.011833716849531752
5.188,0.011828740457146221
5.192,0.011821792740240821
5.196,0.011834870795592164
5.2,0.011856146676081022
5.204,0.011870474839664481
5.208,0.011872133637126324
5.212,0.011863863690360032
5.216,0.011857492946484837
5.22,0.01185448787861918
5.224,0.011849126837546844
5.228,0.011849391283519023
5.232,0.011847083391398198
5.236,0.011858430527658921
5.24,0.011864945514791668
5.244,0.011850689472836988
5.248,0.011835471809165296
5.252,0.0118268172137122
5.256,0.011830711781666094
5.26,0.011842683972042875
5.264,0.011858310324944296
5.268,0.011848357540173236
5.272,0.011829293389633502
5.276,0.011843453269416482
5.28,0.011880091056834586
5.284,0.011912882357384646
5.288,0.011927402845311505
5.292,0.011935576629906094
5.296,0.011956443821165222
5.3,0.011948318117656483
5.304,0.01193153781869465
5.308,0.011907184748711358
5.312,0.011883432692301198
5.316,0.01186768613668515
5.32,0.011855305257078638
5.324,0.011842227201727295
5.328,0.011844246607333016
5.332,0.01184732379682745
5.336,0.011842515688242397
5.34,0.01185595435173762
5.344,0.011863070352443498
5.348,0.011856579405853676
5.352,0.011849078756460995
5.356,0.01184047224209375
5.36,0.011858550730373549
5.364,0.011865017636420444
5.368,0.01185915174394668
5.372,0.01184371771538866
5.376,0.011828307727373567
5.38,0.011834870795592164
5.384,0.011863791568731255
5.388,0.011863791568731255
5.392,0.011846290053481664
5.396,0.011859704676433961
5.4,0.011864031974160508
5.404,0.011857805473542865
5.408,0.011855353338164488
5.412,0.011855834149022993
5.416,0.01186239721724159
5.42,0.0118586949736311
5.424,0.01183458230907706
5.428,0.011826648929911724
5.432,0.01183352452518835
5.436,0.011839751025805992
5.44,0.011843453269416482
5.444,0.01184179447195464
5.448,0.011846290053481664
5.452,0.011843837918103287
5.456,0.011835880498395025
5.46,0.011828451970631119
5.464,0.01181991757789265
5.468,0.011828451970631119
5.472,0.011870234434235228
5.476,0.011881894097553981
5.48,0.011868431393515833
5.484,0.011855689905765443
5.488,0.011851218364781342
5.492,0.011849727851119976
5.496,0.011857589108656537
5.5,0.01185549758142204
5.5040000000000004,0.011853622419073869
5.508,0.01185088179718039
5.5120000000000005,0.01185011249980678
5.516,0.011846794904883095
5.5200000000000005,0.011838212431058776
5.524,0.011846025607509487
5.5280000000000005,0.011862132771269412
5.532,0.011863959852531733
5.5360000000000005,0.01184403024244669
5.54,0.011827899038143838
5.5440000000000005,0.011846770864340168
5.548,0.01186102690629485
5.5520000000000005,0.011862469338870366
5.556,0.01186468106881949
5.5600000000000005,0.011861387514438729
5.564,0.011866508150081813
5.5680000000000005,0.011866123501395008
5.572,0.011867758258313927
5.5760000000000005,0.011863551163302002
5.58,0.01185133856749597
5.5840000000000005,0.011851410689124745
5.588,0.011856579405853676
5.5920000000000005,0.011866195623023783
5.596,0.011869128569260666
5.6000000000000005,0.011863479041673227
5.604,0.0118610749873807
5.6080000000000005,0.01186143559552458
5.612,0.011875331029335384
5.6160000000000005,0.011895020233991175
5.62,0.011892111328297218
5.6240000000000006,0.011877013867340152
5.628,0.011872085556040473
5.632,0.011876292651052394
5.636,0.011873768394045242
5.64,0.011872878893957007
5.644,0.011875114664449057
5.648,0.011858021838429192
5.652,0.01184412640461839
5.656,0.011855978392280545
5.66,0.011862108730726488
5.664,0.01186239721724159
5.668,0.011856146676081022
5.672,0.011855810108480068
5.676,0.01186859967731631
5.68,0.011873888596759868
5.684,0.011878937110774174
5.688,0.0118859088682225
5.692,0.011888048476542849
5.696,0.011889707274004692
5.7,0.011886630084510257
5.704,0.011874273245446673
5.708,0.01187494638064858
5.712,0.011881942178639832
5.716,0.011871123934323463
5.72,0.011875162745534908
5.724,0.011882471070584186
5.728,0.011871147974866388
5.732,0.01186321459570105
5.736,0.011867037042026168
5.74,0.01188174985429643
5.744,0.011899419653346498
5.748,0.011898890761402141
5.752,0.011890861220065104
5.756,0.01188179793538228
5.76,0.011875306988792458
5.764,0.011873600110244764
5.768,0.011876484975395797
5.772,0.01187997085411996
5.776,0.011878408218829817
5.78,0.011869561299033321
5.784,0.011846434296739216
5.788,0.011849415324061948
5.792,0.011874681934676402
5.796,0.011889827476719317
5.8,0.011890284247034897
5.804,0.011887591706227269
5.808,0.011867734217771
5.812,0.011868407352972909
5.816,0.011872037474954623
5.82,0.011866195623023783
5.824,0.011864849352619966
5.828,0.011874369407618374
5.832,0.011880595908236017
5.836,0.011870402718035704
5.84,0.011864608947190715
5.844,0.011874802137391028
5.848,0.01188408178696018
5.852,0.011878480340458594
5.856,0.01187403284001742
5.86,0.011869994028805975
5.864,0.011871364339752716
5.868,0.011877037907883078
5.872,0.011866363906824261
5.876,0.011852612716271008
5.88,0.011878456299915668
5.884,0.01189833782891486
5.888,0.01189499619344825
5.892,0.011891654557981638
5.896,0.011875331029335384
5.9,0.011874417488704225
5.904,0.011891606476895787
5.908,0.01189102950386558
5.912,0.011890909301150955
5.916,0.011882879759813917
5.92,0.011876292651052394
5.924,0.011881365205609624
5.928,0.011881220962352073
5.932,0.011881581570495953
5.936,0.01188494724650549
5.94,0.011880307421720913
5.944,0.01187215767766925
5.948,0.01186626774465256
5.952,0.01186941705577577
5.956,0.011879778529776558
5.96,0.011899684099318675
5.964,0.011896246301680362
5.968,0.011883144205786095
5.972,0.011878456299915668
5.976,0.011879129435117576
5.98,0.01186987382609135
5.984,0.01186057013597927
5.988,0.01187280677232823
5.992,0.011896126098965737
5.996,0.011924445858531698
6.0,0.011957958375369514
6.0040000000000004,0.01197589262039176
6.008,0.011972575025468073
6.0120000000000005,0.011961997186580958
6.016,0.01194620254987906
6.0200000000000005,0.011911319722094502
6.024,0.01189687135579642
6.0280000000000005,0.011903314221300391
6.032,0.011879538124347305
6.0360000000000005,0.011881605611038877
6.04,0.011888913936088158
6.0440000000000005,0.011893601841958585
6.048,0.011886389679081006
6.0520000000000005,0.01187768700254206
6.056,0.011873888596759868
6.0600000000000005,0.011873672231873541
6.064,0.01187083544780836
6.0680000000000005,0.011866676433882289
6.072,0.011868359271887058
6.0760000000000005,0.01186864775840216
6.08,0.01186371944710248
6.0840000000000005,0.011876388813224096
6.088,0.01188367309773045
6.0920000000000005,0.011875427191507085
6.096,0.011873479907530139
6.1000000000000005,0.011873335664272587
6.104,0.01188763978731312
6.1080000000000005,0.011888913936088158
6.112,0.011876388813224096
6.1160000000000005,0.011879778529776558
6.12,0.011883384611215348
6.1240000000000006,0.011884201989674806
6.128,0.01188376925990215
6.132000000000001,0.011879850651405333
6.136,0.011873023137214559
6.140000000000001,0.011870090190977676
6.144,0.011853021405500737
6.148,0.011841746390868789
6.152,0.011854608081333805
6.156,0.011884706841076237
6.16,0.011884153908588956
6.164,0.011864705109362416
6.168,0.011875859921279739
6.172,0.011881148840723298
6.176,0.011879850651405333
6.18,0.011881533489410102
6.184,0.011876244569966544
6.188,0.01185742082485606
6.192,0.011855665865222517
6.196,0.011869080488174815
6.2,0.011872638488527754
6.204,0.011869248771975292
6.208,0.011869849785548423
6.212,0.011871893231697071
6.216,0.011871580704639043
6.22,0.01186585905542283
6.224,0.011852179986498353
6.228,0.011849006634832219
6.232,0.011862325095612814
6.236,0.011883504813929973
6.24,0.011891510314724086
6.244,0.01189139011200946
6.248,0.011884586638361611
6.252,0.011876701340282124
6.256,0.011863575203844928
6.26,0.01186468106881949
6.264,0.011871099893780537
6.268,0.011869825745005499
6.272,0.011867205325826646
6.276,0.011877614880913283
6.28,0.011879586205433156
6.284,0.011882230665154935
6.288,0.011886509881795631
6.292,0.011885187651934742
6.296,0.011877326394398181
6.3,0.011872277880383876
6.304,0.011878263975572265
6.308,0.011877566799827434
6.312,0.011871508583010268
6.316,0.011873335664272587
6.32,0.01188357693555875
6.324,0.011884827043790862
6.328,0.011879345800003903
6.332,0.011883793300445077
6.336,0.011884875124876713
6.34,0.011883024003071467
6.344,0.011878288016115192
6.348,0.011877903367428387
6.352,0.011884418354561133
6.356,0.011881942178639832
6.36,0.01188321632741487
6.364,0.011889370706403737
6.368,0.011872590407441904
6.372,0.011869633420662096
6.376,0.011874345367075448
6.38,0.011873287583186736
6.384,0.011873936677845719
6.388,0.011872951015585782
6.392,0.011862517419956217
6.396,0.011873047177757484
6.4,0.011872398083098501
6.404,0.011878336097201042
6.408,0.011899491774975273
6.412,0.01188184601646813
6.416,0.011880740151493568
6.42,0.011888312922515026
6.424,0.011888457165772578
6.428,0.011887110895368763
6.432,0.01188357693555875
6.436,0.011880235300092138
6.44,0.011880307421720913
6.444,0.01188499532759134
6.448,0.011886750287224884
6.452,0.011886149273651753
6.456,0.011879249637832202
6.46,0.011872013434411698
6.464,0.011865498447278949
6.468,0.011871123934323463
6.472,0.011876605178110422
6.476,0.01188540401682107
6.48,0.011883312489586571
6.484,0.011873936677845719
6.488,0.011871628785724894
6.492,0.011862156811812338
6.496,0.011871989393868772
6.5,0.011894611544761445
6.5040000000000004,0.011890236165949046
6.508,0.011888264841429175
6.5120000000000005,0.011888048476542849
6.516,0.011884466435646984
6.5200000000000005,0.011880259340635062
6.524,0.01187215767766925
6.5280000000000005,0.011871532623553192
6.532,0.011874705975219326
6.5360000000000005,0.01187499446173443
6.54,0.011872398083098501
6.5440000000000005,0.011865161879677996
6.548,0.011854968689477684
6.5520000000000005,0.011861147109009476
6.556,0.011874345367075448
6.5600000000000005,0.011873840515674017
6.564,0.01187266252907068
6.5680000000000005,0.011878985191860024
6.572,0.011881509448867176
6.5760000000000005,0.011878119732314715
6.58,0.011872542326356053
6.5840000000000005,0.011871724947896595
6.588,0.011876701340282124
6.5920000000000005,0.01187590800236559
6.596,0.01189153435526701
6.6000000000000005,0.011897857018056356
6.604,0.011892736382413274
6.6080000000000005,0.011878889029688323
6.612,0.011869393015232843
6.6160000000000005,0.011868118866457805
6.62,0.01188138924615255
6.6240000000000006,0.011897736815341729
6.628,0.011902881491527736
6.632000000000001,0.011900285112891807
6.636,0.011879177516203427
6.640000000000001,0.011862180852355263
6.644,0.011868936244917264
6.648000000000001,0.01188174985429643
6.652,0.011885764624964948
6.656000000000001,0.011882999962528543
6.66,0.011883865422073852
6.664,0.011882663394927589
6.668,0.011881413286695475
6.672,0.011884586638361611
6.676,0.011882206624612009
6.68,0.011873816475131093
6.684,0.011871724947896595
6.688,0.011867109163654944
6.692,0.011867445731255897
6.696,0.011874922340105655
6.7,0.011900669761578612
6.704,0.011941803130523737
6.708,0.011976325350164414
6.712,0.011997192541423543
6.716,0.01199502889256027
6.72,0.011984162567158051
6.724,0.011957020794195429
6.728,0.011906703937852852
6.732,0.011889010098259859
6.736,0.011878263975572265
6.74,0.011864272379589761
6.744,0.01186576289325113
6.748,0.011866844717682765
6.752,0.011863070352443498
6.756,0.011870739285636658
6.76,0.011875932042908516
6.764,0.011880956516379895
6.768,0.011879634286519006
6.772,0.011863382879501526
6.776,0.011859344068290081
6.78,0.011861315392809954
6.784,0.011860257608921242
6.788,0.011862998230814721
6.792,0.011880812273122343
6.796,0.011887471503512641
6.8,0.011881894097553981
6.804,0.011874754056305177
6.808,0.01187083544780836
6.812,0.011873479907530139
6.816,0.011871652826267818
6.82,0.011867758258313927
6.824,0.01186468106881949
6.828,0.011865161879677996
6.832,0.01186230105506989
6.836,0.011855665865222517
6.84,0.011861267311724103
6.844,0.011869056447631891
6.848,0.011870234434235228
6.852,0.011857180419426808
6.856,0.01185448787861918
6.86,0.011842275282813145
6.864,0.01183915001223286
6.868,0.011855930311194694
6.872,0.011872398083098501
6.876,0.011876028205080217
6.88,0.011875811840193888
6.884,0.011849271080804396
6.888,0.011840063552864022
6.892,0.011846049648052411
6.896,0.011852901202786112
6.9,0.011853886865046048
6.904,0.011846818945426019
6.908,0.011841025174581032
6.912,0.011850352905236033
6.916,0.011845592877736831
6.92,0.011840592444808376
6.924,0.011847972891486432
6.928,0.011852781000071484
6.932,0.011854463838076253
6.936,0.011858983460146202
6.94,0.011859800838605663
6.944,0.011856194757166873
6.948,0.011855810108480068
6.952,0.011850617351208211
6.956,0.011848525823973713
6.96,0.011843164782901379
6.964,0.011841866593583416
6.968,0.011864753190448265
6.972,0.01187357606970184
6.976,0.011853694540702646
6.98,0.011844511053305194
6.984,0.011854295554275777
6.988,0.011866460068995962
6.992,0.011866003298680382
6.996,0.011862156811812338
7.0,0.011864873393162893
7.0040000000000004,0.011860137406206615
7.008,0.011862180852355263
7.0120000000000005,0.011857108297798033
7.016,0.011846073688595337
7.0200000000000005,0.01184011163394987
7.024,0.01183818839051585
7.0280000000000005,0.01184641025619629
7.032,0.01186280590647132
7.0360000000000005,0.011868767961116787
7.04,0.011861267311724103
7.0440000000000005,0.011855569703050815
7.048,0.011857949716800417
7.0520000000000005,0.011864993595877518
7.056,0.011873455866987213
7.0600000000000005,0.011867878461028552
7.064,0.011856026473366395
7.0680000000000005,0.01185778143299994
7.072,0.01185737274377021
7.0760000000000005,0.011858310324944296
7.08,0.011857228500512658
7.0840000000000005,0.011855088892192311
7.088,0.011837154647170063
7.0920000000000005,0.011835712214594549
7.096,0.011848862391574667
7.1000000000000005,0.011855689905765443
7.104,0.011856891932911706
7.1080000000000005,0.011848045013115208
7.112,0.011845160147964176
7.1160000000000005,0.01184859794560249
7.12,0.011849319161890247
7.1240000000000006,0.011855689905765443
7.128,0.011856891932911706
7.132000000000001,0.011845520756108055
7.136,0.011835688174051623
7.140000000000001,0.011824918010821105
7.144,0.0118267210515405
7.148000000000001,0.011839847187977693
7.152,0.011855305257078638
7.156000000000001,0.011856170716623947
7.16,0.011847107431941123
7.164000000000001,0.011856026473366395
7.168,0.011847107431941123
7.172,0.011836024741652577
7.176,0.01183946253929089
7.18,0.011860786500865597
7.184,0.01186225297398404
7.188,0.011855064851649385
7.192,0.011852228067584203
7.196,0.011845063985792475
7.2,0.011837346971513465
7.204,0.011839991431235245
7.208,0.011841169417838584
7.212,0.011839029809518235
7.216,0.011839270214947488
7.22,0.011825567105480087
7.224,0.011808786806518253
7.228,0.01180905125249043
7.232,0.011805974062995998
7.236,0.01182047051037993
7.24,0.011836024741652577
7.244,0.01182946167343398
7.248,0.011835015038849716
7.252,0.011843188823444305
7.256,0.011846842985968945
7.26,0.011845737120994383
7.264,0.011843188823444305
7.268,0.011842106999012668
7.272,0.011857541027570686
7.276,0.01186559460945065
7.28,0.01186143559552458
7.284,0.011856339000424423
7.288,0.011847492080627927
7.292,0.01184823733745861
7.296,0.011854584040790879
7.3,0.011852011702697876
7.304,0.011853093527129514
7.308,0.011849439364604874
7.312,0.011843837918103287
7.316,0.011841602147611237
7.32,0.011843645593759885
7.324,0.011849367242976097
7.328,0.01184595348588071
7.332,0.011825374781136684
7.336,0.011811383185154182
7.34,0.011824100632361646
7.344,0.011839702944720141
7.348,0.011854848486763058
7.352,0.011854848486763058
7.356,0.011847059350855272
7.36,0.011842179120641444
7.364,0.011841626188154163
7.368,0.011849439364604874
7.372,0.011856098594995172
7.376,0.011843453269416482
7.38,0.011823259213359262
7.384,0.011813787239446708
7.388,0.011831024308724122
7.392,0.0118449918641637
7.396,0.011855978392280545
7.4,0.011874681934676402
7.404,0.01190098228863664
7.408,0.011930239629376685
7.412,0.011955458158905287
7.416,0.011960482632376666
7.42,0.011950193280004654
7.424,0.011930095386119133
7.428,0.011922690898898152
7.432,0.011908434856943472
7.436,0.011887014733197062
7.44,0.011863911771445882
7.444,0.011837875863457822
7.448,0.01181631149645386
7.452,0.01181895595617564
7.456,0.011819653131920472
7.46,0.011828091362487239
7.464,0.011839678904177217
7.468,0.011825975794709816
7.472,0.011810902374295676
7.476,0.011820398388751156
7.48,0.011824797808106479
7.484,0.011827658632714585
7.488,0.01183229845749916
7.492,0.011840303958293273
7.496,0.011840640525894227
7.5,0.011836289187624754
7.5040000000000004,0.011828764497689147
7.508,0.011823283253902186
7.5120000000000005,0.011826168119053218
7.516,0.011826047916338593
7.5200000000000005,0.011828331767916492
7.524,0.011819797375178024
7.5280000000000005,0.01181895595617564
7.532,0.01182489397027818
7.5360000000000005,0.011817826050658153
7.54,0.011814460374648615
7.5440000000000005,0.011813498752931605
7.548,0.011816287455910936
7.5520000000000005,0.01182946167343398
7.556,0.011828884700403773
7.5600000000000005,0.01182530265950791
7.564,0.011824725686477702
7.5680000000000005,0.01182023010495068
7.572,0.011814772901706645
7.5760000000000005,0.01180945994172016
7.58,0.01180611830625355
7.5840000000000005,0.011807729022629542
7.588,0.011807368414485663
7.5920000000000005,0.01180585386028137
7.596,0.011806863563084233
7.6000000000000005,0.011802872832958639
7.604,0.011795564507909358
7.6080000000000005,0.01178981881815022
7.612,0.01178662142594116
7.6160000000000005,0.011793833588818739
7.62,0.011801117873325094
7.6240000000000006,0.011794650967278199
7.628,0.011779048654919702
7.632000000000001,0.011792896007644655
7.636,0.011801358278754347
7.640000000000001,0.011803738292503948
7.644,0.011796237643111265
7.648000000000001,0.011791068926382334
7.652,0.011796958859399024
7.656000000000001,0.011801574643640674
7.66,0.011801911211241628
7.664000000000001,0.011802488184271834
7.668,0.01179739158917168
7.672000000000001,0.011789073561319537
7.676,0.01179210266972812
7.68,0.011813859361075483
7.684,0.011815470077451476
7.688,0.011807704982086616
7.692,0.011786837790827488
7.696,0.011785828088024627
7.7,0.011796718453969771
7.704,0.011803257481645443
7.708,0.011813594915103306
7.712,0.011820807077980885
7.716,0.01181662402351189
7.72,0.011827802875972137
7.724,0.011838068187801224
7.728,0.011828620254431595
7.732,0.011820758996895034
7.736,0.011814989266592971
7.74,0.011819244442690743
7.744,0.011817705847943526
7.748,0.011815638361251954
7.752,0.011816119172110458
7.756,0.0118153979558227
7.76,0.011805805779195521
7.764,0.011803714251961023
7.768,0.011813739158360858
7.772,0.011811070658096154
7.776,0.011800492819209037
7.78,0.011795179859222554
7.784,0.011792823886015878
7.788,0.011797223305371201
7.792,0.01181859534803176
7.796,0.011822009105127148
7.8,0.011812945820444324
7.804,0.011811839955469762
7.808,0.011805998103538922
7.812,0.011811551468954658
7.816,0.011817898172286928
7.82,0.011817225037085021
7.824,0.011814508455734465
7.828,0.011792150750813971
7.832,0.011796069359310789
7.836,0.011811912077098537
7.84,0.011815109469307597
7.844,0.011816383618082637
7.848,0.011814268050305212
7.852,0.011816479780254338
7.856,0.011813739158360858
7.86,0.011809916712035741
7.864,0.011812753496100921
7.868,0.011807320333399813
7.872,0.011800973630067543
7.876,0.011807488617200289
7.88,0.011809844590406965
7.884,0.011813715117817931
7.888,0.011822009105127148
7.892,0.011824797808106479
7.896,0.011825014172992806
7.9,0.011827249943484856
7.904,0.011828740457146221
7.908,0.011819268483233667
7.912,0.011815109469307597
7.916,0.011809387820091385
7.92,0.01180950802280601
7.924,0.0118131141042448
7.928,0.011813835320532559
7.932,0.011811863996012686
7.936,0.01180484415747851
7.94,0.011777726425058813
7.944,0.01177748601962956
7.948,0.01179570875116691
7.952,0.011794122075333842
7.956,0.011797151183742426
7.96,0.011791261250725736
7.964,0.011796309764740042
7.968,0.011805036481821912
7.972,0.011804916279107286
7.976,0.011800757265181216
7.98,0.011799915846178831
7.984,0.011804531630420481
7.988,0.011801334238211421
7.992,0.0118015025220119
7.996,0.011806046184624773
8.0,0.01180224777884258
8.004,0.011797295426999978
8.008000000000001,0.011812633293386296
8.012,0.011825975794709816
8.016,0.011820061821150201
8.02,0.0118131141042448
8.024000000000001,0.011811311063525405
8.028,0.011801887170698702
8.032,0.011805445171051641
8.036,0.011810109036379142
8.040000000000001,0.011811070658096154
8.044,0.011821311929382315
8.048,0.011826216200139069
8.052,0.0117993148326057
8.056000000000001,0.01178880911534736
8.06,0.011804820116935585
8.064,0.011816071091024607
8.068,0.011810133076922068
8.072000000000001,0.011809267617376759
8.076,0.011808690644346552
8.08,0.011809291657919684
8.084,0.011808690644346552
8.088000000000001,0.01180438738716293
8.092,0.011795348143023032
8.096,0.011787126277342592
8.1,0.011793112372530981
8.104000000000001,0.011795997237682014
8.108,0.01181215248252779
8.112,0.011850376945778958
8.116,0.011878215894486415
8.120000000000001,0.011900044707462554
8.124,0.01191833956062868
8.128,0.01191468539810404
8.132,0.011905838478307543
8.136000000000001,0.011890548693007076
8.14,0.011864440663390237
8.144,0.011835399687536519
8.148,0.01181708079382747
8.152000000000001,0.011811671671669285
8.156,0.011801478481468973
8.16,0.011800949589524618
8.164,0.011808690644346552
8.168000000000001,0.01180530092779409
8.172,0.011794675007821123
8.176,0.011795324102480105
8.18,0.01180986863094989
8.184000000000001,0.011806647198197904
8.188,0.01178255857418679
8.192,0.011786501223226534
8.196,0.011802416062643059
8.2,0.011804964360193137
8.204,0.011797487751343379
8.208,0.011795059656507928
8.212,0.011805012441278987
8.216,0.011809964793121592
8.22,0.0118039786979332
8.224,0.011800588981380738
8.228,0.01180027645432271
8.232,0.011785731925852926
8.236,0.011788472547746405
8.24,0.011796598251255145
8.244,0.011793040250902206
8.248,0.011791525696697914
8.252,0.011787631128744022
8.256,0.011784433736534962
8.26,0.011797920481116034
8.264,0.011805445171051641
8.268,0.011799146548805223
8.272,0.011790708318238455
8.276,0.011787871534173273
8.28,0.011790972764210633
8.284,0.011788087899059602
8.288,0.01179068427769553
8.292,0.011788664872089807
8.296,0.01177529833022336
8.3,0.011753854165934025
8.304,0.011764504126449917
8.308,0.011775490654566763
8.312,0.01175890267994833
8.316,0.01176621100499761
8.32,0.011790564074980903
8.324,0.011799290792062773
8.328,0.011791189129096961
8.332,0.011788592750461032
8.336,0.011784722223050065
8.34,0.011786020412368028
8.344,0.011781789276813183
8.348,0.011778279357546094
8.352,0.011777966830488066
8.356,0.011779529465778208
8.36,0.011792246912985672
8.364,0.011787751331458648
8.368,0.011777077330399831
8.372,0.011772389424529404
8.376,0.011776957127685206
8.38,0.011786188696168506
8.384,0.011786765669198711
8.388,0.011782294128214613
8.392,0.011774456911220978
8.396,0.011774577113935604
8.4,0.01179347298067486
8.404,0.011802800711329864
8.408,0.011793040250902206
8.412,0.011779793911750385
8.416,0.011782342209300464
8.42,0.011785852128567552
8.424,0.011798281089259913
8.428,0.011798689778489642
8.432,0.011787366682771843
8.436,0.011787823453087423
8.44,0.011792439237329075
8.444,0.011792439237329075
8.448,0.011795348143023032
8.452,0.011791718021041316
8.456,0.011782654736358492
8.46,0.011775226208594586
8.464,0.011775130046422885
8.468,0.011786308898883132
8.472,0.011794098034790918
8.476,0.011792391156243224
8.48,0.011785178993365645
8.484,0.011781620993012706
8.488,0.011784674141964215
8.492,0.01178616465562558
8.496,0.011785924250196329
8.5,0.01177109123521144
8.504,0.011763903112876785
8.508000000000001,0.011772149019100153
8.512,0.011781500790298079
8.516,0.01178739072331477
8.52,0.011789698615435594
8.524000000000001,0.01178570788531
8.528,0.011793376818503159
8.532,0.011789097601862463
8.536,0.011771980735299675
8.540000000000001,0.011774529032849753
8.544,0.011785178993365645
8.548,0.011790612156066754
8.552,0.011798569575775016
8.556000000000001,0.011796646332340996
8.56,0.011796357845825892
8.564,0.011786308898883132
8.568,0.01175940753134976
8.572000000000001,0.01175017596286646
8.576,0.011773735694933219
8.58,0.011791309331811587
8.584,0.011786597385398235
8.588000000000001,0.011786813750284562
8.592,0.011789674574892668
8.596,0.011789386088377566
8.6,0.011782294128214613
8.604000000000001,0.011778928452205076
8.608,0.011782534533643866
8.612,0.011779529465778208
8.616,0.01178570788531
8.620000000000001,0.011798160886545287
8.624,0.011799170589348148
8.628,0.011793232575245607
8.632,0.01179479521053575
8.636000000000001,0.01179799260274481
8.64,0.011792727723844177
8.644,0.011787823453087423
8.648,0.01178647718268361
8.652000000000001,0.011784145250019858
8.656,0.011773447208418115
8.66,0.01175529659850954
8.664,0.011758205504203497
8.668000000000001,0.011764960896765497
8.672,0.011769865167522252
8.676,0.011760176828723368
8.68,0.011745920786768688
8.684000000000001,0.01176729282942925
8.688,0.011785563642052448
8.692,0.011778567844061198
8.696,0.011781452709212228
8.700000000000001,0.011776235911397447
8.704,0.011778976533290927
8.708,0.011789890939778997
8.712,0.01179520389976548
8.716,0.011789458210006341
8.72,0.011789602453263893
8.724,0.011788881236976136
8.728,0.011794530764563571
8.732,0.011799122508262297
8.736,0.011797319467542903
8.74,0.011795925116053237
8.744,0.011793545102303637
8.748,0.011784145250019858
8.752,0.011778111073745618
8.756,0.011776885006056429
8.76,0.011786332939426058
8.764,0.011786188696168506
8.768,0.011779529465778208
8.772,0.011756017814797298
8.776,0.011755344679595391
8.78,0.011759503693521462
8.784,0.01176565807251033
8.788,0.011781981601156585
8.792,0.011801935251784553
8.796,0.011804483549334631
8.8,0.011792030548099344
8.804,0.01178287110124482
8.808,0.011779000573833852
8.812,0.011766547572598563
8.816,0.011771884573127974
8.82,0.011775466614023839
8.824,0.011798930183918895
8.828,0.011834438065819509
8.832,0.01186896028546019
8.836,0.011885139570848892
8.84,0.011882495111127113
8.844,0.01186626774465256
8.848,0.011834414025276584
8.852,0.011822441834899803
8.856,0.01181708079382747
8.86,0.011806454873854502
8.864,0.011800396657037337
8.868,0.011795949156596163
8.872,0.011785539601509524
8.876,0.011789001439690762
8.88,0.01178666950702701
8.884,0.0117765724789984
8.888,0.011783880804047681
8.892,0.011784938587936392
8.896,0.011779048654919702
8.9,0.011774192465248799
8.904,0.011761715423470586
8.908,0.011747243016629577
8.912,0.011750055760151833
8.916,0.01175108950349762
8.92,0.011753325273989668
8.924,0.011760393193609697
8.928,0.011757388125744039
8.932,0.011776812884427654
8.936,0.011789674574892668
8.94,0.011785539601509524
8.944,0.011779529465778208
8.948,0.011775827222167717
8.952,0.011777005208771054
8.956,0.011781260384868826
8.96,0.01177556277619554
8.964,0.011768999707976943
8.968,0.011765417667081076
8.972,0.011762580883015895
8.976,0.011764456045364066
8.98,0.011765033018394272
8.984,0.0117674370726868
8.988,0.01176438392373529
8.992,0.011757460247372814
8.996,0.011752868503674088
9.0,0.011749935557437207
9.004,0.011751834760328303
9.008000000000001,0.011760561477410173
9.012,0.011763350180389504
9.016,0.011740030853751998
9.02,0.011731111812326726
9.024000000000001,0.01175296466584579
9.028,0.01175834974746105
9.032,0.01176109036935453
9.036,0.011757820855516693
9.040000000000001,0.011756041855340224
9.044,0.011766739896941965
9.048,0.011763830991248008
9.052,0.011760032585465817
9.056000000000001,0.01175981622057949
9.06,0.01175981622057949
9.064,0.011750921219697142
9.068,0.011749935557437207
9.072000000000001,0.011755056193080288
9.076,0.0117675332348585
9.08,0.011766956261828294
9.084,0.011767052423999995
9.088000000000001,0.011765826356310806
9.092,0.011762364518129568
9.096,0.011764191599391887
9.1,0.01175712367977186
9.104000000000001,0.01176469645079332
9.108,0.011768230410603334
9.112,0.011772629829958657
9.116,0.011768278491689184
9.120000000000001,0.011756258220226551
9.124,0.011758686315062003
9.128,0.01176402331559141
9.132,0.011739429840178867
9.136000000000001,0.01175209920630048
9.14,0.011784217371648633
9.144,0.011795492386280583
9.148,0.011785130912279795
9.152000000000001,0.011775418532937988
9.156,0.011775226208594586
9.16,0.011775851262710642
9.164,0.011773952059819548
9.168000000000001,0.011772124978557227
9.172,0.011767100505085845
9.176,0.011765465748166927
9.18,0.011770995073039739
9.184000000000001,0.011763782910162158
9.188,0.011750752935896665
9.192,0.011757291963572338
9.196,0.011761450977498408
9.200000000000001,0.011762220274872016
9.204,0.011762653004644671
9.208,0.011760681680124799
9.212,0.01176565807251033
9.216000000000001,0.011763229977674877
9.22,0.011752147287386331
9.224,0.011753565679418921
9.228,0.011773471248961042
9.232,0.011781813317356107
9.236,0.011780779574010322
9.24,0.011774721357193155
9.244,0.011769528599921298
9.248,0.011771163356840217
9.252,0.011770394059466607
9.256,0.011764864734593795
9.26,0.011759936423294115
9.264,0.011738083569775052
9.268,0.011738660542805259
9.272,0.011764600288621618
9.276,0.011774961762622408
9.28,0.011772197100186002
9.284,0.011772605789415733
9.288,0.01176109036935453
9.292,0.011760657639581874
9.296,0.011767172626714622
9.3,0.011771235478468992
9.304,0.011763855031790935
9.308,0.011756306301312401
9.312,0.011761931788356913
9.316,0.011771523964984095
9.32,0.011772100938014302
9.324,0.011761450977498408
9.328,0.011745319773195557
9.332,0.011739574083436418
9.336,0.01176200390998569
9.34,0.011786789709741638
9.344,0.011785034750108093
9.348,0.011783255749931623
9.352,0.01177332700570349
9.356,0.011755993774254373
9.36,0.011757340044658188
9.364,0.011765850396853732
9.368,0.011767917883545306
9.372,0.011763830991248008
9.376,0.011740151056466624
9.38,0.011721255189727367
9.384,0.011743035921617656
9.388,0.011762076031614464
9.392,0.011766956261828294
9.396,0.011764119477763112
9.4,0.011756041855340224
9.404,0.011761811585642287
9.408,0.011760609558496024
9.412,0.011755056193080288
9.416,0.011753156990189192
9.42,0.011745680381339435
9.424,0.011738564380633558
9.428,0.011752820422588238
9.432,0.011766812018570742
9.436,0.011767701518658979
9.44,0.011758974801577105
9.444,0.011752219409015106
9.448,0.01176342230201828
9.452,0.011773735694933219
9.456,0.011774168424705874
9.46,0.011779120776548479
9.464,0.011783135547216998
9.468,0.011775394492395062
9.472,0.011771163356840217
9.476,0.011769023748519868
9.48,0.011771475883898245
9.484,0.011775538735652614
9.488,0.011761162490983305
9.492,0.011747267057172503
9.496,0.01175986430166534
9.5,0.011763614626361682
9.504,0.011758421869089824
9.508000000000001,0.011748877773548496
9.512,0.01175036828720986
9.516,0.011775009843708259
9.52,0.011788376385574706
9.524000000000001,0.011781789276813183
9.528,0.011770658505438786
9.532,0.011761402896412558
9.536,0.011744141786592218
9.540000000000001,0.011752339611729733
9.544,0.011763951193962636
9.548,0.011794098034790918
9.552,0.011827201862399005
9.556000000000001,0.011847540161713778
9.56,0.011863575203844928
9.564,0.011861171149552402
9.568,0.011855762027394218
9.572000000000001,0.011841217498924434
9.576,0.011807512657743215
9.58,0.011790155385751174
9.584,0.011805565373766268
9.588000000000001,0.011798473413603315
9.592,0.011783808682418904
9.596,0.011769624762093
9.6,0.011759527734064386
9.604000000000001,0.01175342143616137
9.608,0.011746281394912567
9.612,0.011762148153243241
9.616,0.011760922085554052
9.620000000000001,0.011757412166286963
9.624,0.011738540340090631
9.628,0.011733660109876804
9.632,0.011744622597450724
9.636000000000001,0.011750392327752787
9.64,0.011751570314356124
9.644,0.011745343813738481
9.648,0.011741425205241664
9.652000000000001,0.01173697770480049
9.656,0.011743396529761535
9.66,0.011752027084671705
9.664,0.011752219409015106
9.668000000000001,0.011742386826958674
9.672,0.011742579151302076
9.676,0.01174291571890303
9.68,0.011743300367589833
9.684000000000001,0.01175813338257472
9.688,0.011759623896236087
9.692,0.011742290664786973
9.696,0.011742170462072347
9.700000000000001,0.011744718759622425
9.704,0.011744117746049294
9.708,0.011738372056290155
9.712,0.011732217677301288
9.716000000000001,0.01172418813596425
9.72,0.01173149646101353
9.724,0.011740463583524654
9.728,0.011739381759093016
9.732,0.011723755406191595
9.736,0.011702407404073962
9.74,0.011692286335502426
9.744,0.011704859539452338
9.748,0.011728924122920526
9.752,0.011739526002350568
9.756,0.011729044325635153
9.76,0.011723346716961866
9.764,0.01172459682519398
9.768,0.01172784229848889
9.772,0.01172505359550956
9.776,0.011724717027908605
9.78,0.011735583353310824
9.784,0.011737771042717024
9.788,0.011734140920735308
9.792,0.011730005947352164
9.796,0.011730799285268698
9.8,0.011726447946999225
9.804,0.011725390163110513
9.808,0.011727433609259161
9.812,0.011725510365825139
9.816,0.011728611595862498
9.82,0.01173281869087442
9.824,0.01172149559515662
9.828,0.011718658811091439
9.832,0.011739021150949137
9.836,0.011753565679418921
9.84,0.011756570747284579
9.844,0.011758061260945946
9.848,0.01174616119219794
9.852,0.011741978137728945
9.856,0.011743540773019086
9.86,0.01175570528773927
9.864,0.011762893410073924
9.868,0.0117469785706574
9.872,0.011718418405662187
9.876,0.01172774613631719
9.88,0.011742146421529421
9.884,0.011747050692286175
9.888,0.011745319773195557
9.892,0.011739453880721793
9.896,0.011728996244549303
9.9,0.011727048960572356
9.904,0.011741401164698738
9.908,0.011752123246843405
9.912,0.011760705720667725
9.916,0.011754166692992053
9.92,0.01174524765156678
9.924,0.011755873571539746
9.928,0.011761907747813988
9.932,0.011753565679418921
9.936,0.011750512530467412
9.94,0.011746666043599372
9.944,0.011751161625126395
9.948,0.011753733963219399
9.952,0.011744959165051676
9.956,0.011741954097186019
9.96,0.011745680381339435
9.964,0.01174839696268999
9.968,0.011749767273636729
9.972,0.01174519957048093
9.976,0.011740535705153429
9.98,0.011737458515658996
9.984,0.011708946431749632
9.988,0.011714932526938024
9.992,0.011744622597450724
9.996,0.011753181030732118
10.0,0.011757724693344991
10.004,0.011758253585289348
10.008000000000001,0.011751714557613676
10.012,0.011737290231858518
10.016,0.011728106744461068
10.02,0.011747267057172503
10.024000000000001,0.011752075165757556
10.028,0.011744261989306845
10.032,0.011745151489395079
10.036,0.011755176395794913
10.040000000000001,0.011758734396147852
10.044,0.011753156990189192
10.048,0.011746401597627193
10.052,0.011741521367413365
10.056000000000001,0.011737218110229743
10.06,0.011736905583171715
10.064,0.011743156124332282
10.068,0.01174702665174325
10.072000000000001,0.01173789124543165
10.076,0.011746113111112089
10.08,0.011749502827664552
10.084,0.011747916151831484
10.088000000000001,0.011746281394912567
10.092,0.01175387820647695
10.096,0.011730799285268698
10.1,0.011718730932720215
10.104000000000001,0.011724452581936428
10.108,0.011726399865913374
10.112,0.011731857069157409
10.116,0.011740319340267102
10.120000000000001,0.01174931050332115
10.124,0.011748589287033392
10.128,0.011743035921617656
10.132,0.011744141786592218
10.136000000000001,0.011742699354016702
10.14,0.011729284731064405
10.144,0.011720918622126413
10.148,0.011714355553907816
10.152000000000001,0.011716783648743269
10.156,0.011743973502791742
10.16,0.011745944827311613
10.164,0.011736448812856135
10.168000000000001,0.011748180597803663
10.172,0.011743180164875208
10.176,0.011742699354016702
10.18,0.011750728895353741
10.184000000000001,0.011750560611553263
10.188,0.01175387820647695
10.192,0.01175397436864865
10.196,0.011758013179860095
10.200000000000001,0.011755368720138316
10.204,0.01175063273318204
10.208,0.011728900082377602
10.212,0.011725486325282215
10.216000000000001,0.011736665177742462
10.22,0.011737506596744846
10.224,0.011736617096656611
10.228,0.01173601608308348
10.232000000000001,0.011730919487983323
10.236,0.011733563947705103
10.24,0.01174164157012799
10.244,0.011752531936073136
10.248,0.011746617962513521
10.252,0.011733035055760746
10.256,0.011734501528879188
10.26,0.011735679515482525
10.264,0.011740703988953905
10.268,0.01174337248921861
10.272,0.011756883274342609
10.276,0.01178159695246978
10.28,0.011816071091024607
10.284,0.011848814310488816
10.288,0.011865786933794054
10.292,0.011865786933794054
10.296,0.011845088026335401
10.3,0.011818475145317133
10.304,0.011808786806518253
10.308,0.011815205631479298
10.312,0.01180022837323686
10.316,0.011776043587054044
10.32,0.01176036915306677
10.324,0.011755561044481718
10.328,0.011752315571186807
10.332,0.011747339178801278
10.336,0.011742266624244048
10.34,0.011730919487983323
10.344,0.01171226402667332
10.348,0.011715629702682856
10.352,0.011722144689815603
10.356,0.011723995811620848
10.36,0.011731857069157409
10.364,0.01173474193430844
10.368,0.011728371190433245
10.372,0.011723250554790164
10.376,0.011721086905926891
10.38,0.011736496893941984
10.384,0.011745944827311613
10.388,0.011736857502085864
10.392,0.01174118479981241
10.396,0.011740728029496831
10.4,0.011739069232034988
10.404,0.01173474193430844
10.408,0.011730270393324341
10.412,0.011725967136140719
10.416,0.011726207541569972
10.42,0.011726640271342627
10.424,0.011718562648919737
10.428,0.01170647025582833
10.432,0.011692118051701948
10.436,0.011718779013806066
10.44,0.01172825098771862
10.444,0.011702479525702737
10.448,0.011715990310826735
10.452,0.011727722095774263
10.456,0.01170500378270989
10.46,0.011711182202241682
10.464,0.011728924122920526
10.468,0.01173652093448491
10.472,0.011728323109347395
10.476,0.011719019419235319
10.48,0.011715221013453127
10.484,0.01171541333779653
10.488,0.011715341216167753
10.492,0.011712792918617675
10.496,0.011713850702506386
10.5,0.011704042160992878
10.504,0.011693704727535016
10.508000000000001,0.011687165699859345
10.512,0.011708008850575548
10.516,0.01171779335154613
10.52,0.011716014351369661
10.524000000000001,0.011713057364589852
10.528,0.011717865473174905
10.532,0.011721543676242471
10.536,0.011719139621949945
10.540000000000001,0.0117219523654722
10.544,0.011717240419058849
10.548,0.011722433176330706
10.552,0.011729597258122434
10.556000000000001,0.01172774613631719
10.56,0.011725366122567587
10.564,0.011714427675536593
10.568,0.011690916024555685
10.572000000000001,0.011702479525702737
10.576,0.01172200044655805
10.58,0.011723923689992071
10.584,0.011721134987012742
10.588000000000001,0.011722962068275061
10.592,0.011723442879133567
10.596,0.011740271259181251
10.6,0.011751762638699526
10.604000000000001,0.011743733097362489
10.608,0.011737362353487294
10.612,0.01172921260943563
10.616,0.011731304136670128
10.620000000000001,0.011735439110053272
10.624,0.011739141353663763
10.628,0.011740415502438803
10.632,0.011727241284915759
10.636000000000001,0.011723298635876015
10.64,0.011737410434573145
10.644,0.011734429407250412
10.648,0.011728443312062022
10.652000000000001,0.011726808555143103
10.656,0.011722144689815603
10.66,0.011720774378868863
10.664,0.011723851568363296
10.668000000000001,0.011731304136670128
10.672,0.011729092406721004
10.676,0.011726616230799701
10.68,0.011728924122920526
10.684000000000001,0.0117287077580342
10.688,0.011721615797871246
10.692,0.011719355986836271
10.696,0.011723394798047716
10.700000000000001,0.011716014351369661
10.704,0.011702551647331513
10.708,0.011713850702506386
10.712,0.011718514567833887
10.716000000000001,0.011708730066863305
10.72,0.011692863308532631
10.724,0.011703657512306075
10.728,0.011744502394736097
10.732000000000001,0.01175712367977186
10.736,0.011747507462601755
10.74,0.011734140920735308
10.744,0.011725919055054868
10.748000000000001,0.01171637495951354
10.752,0.011714740202594621
10.756,0.011738828826605735
10.76,0.011747795949116858
10.764,0.011740054894294924
10.768,0.01173140029884183
10.772,0.011731159893412576
10.776,0.011731929190786184
10.78,0.011731015650155024
10.784,0.011725486325282215
10.788,0.011716543243314016
10.792,0.01171048502649685
10.796,0.011716975973086671
10.8,0.011724428541393503
10.804,0.011726856636228954
10.808,0.011718514567833887
10.812,0.011699666782180481
10.816,0.011663413643449184
10.82,0.011682309510188442
10.824,0.01172702492002943
10.828,0.011744550475821947
10.832,0.011735775677654227
10.836,0.011727962501203516
10.84,0.01172784229848889
10.844,0.011722096608729752
10.848,0.011718827094891917
10.852,0.011721351351899069
10.856,0.01172363520347697
10.86,0.011718827094891917
10.864,0.011711927459072366
10.868,0.011707720364060445
10.872,0.011707912688403847
10.876,0.0117082492560048
10.88,0.011709234918264736
10.884,0.011709186837178885
10.888,0.011723779446734521
10.892,0.011716711527114492
10.896,0.01171098987789828
10.9,0.011714379594450743
10.904,0.011714860405309247
10.908,0.011727193203829908
10.912,0.011736617096656611
10.916,0.011733900515306057
10.92,0.011727313406544534
10.924,0.011713538175448358
10.928,0.011703633471763149
10.932,0.011717504865031026
10.936,0.011731808988071558
10.94,0.011734405366707487
10.944,0.011727241284915759
10.948,0.011708273296547726
10.952,0.011690290970439629
10.956,0.011706806823429285
10.96,0.011725726730711466
10.964,0.011732938893589045
10.968,0.011727241284915759
10.972,0.011718514567833887
10.976,0.011721711960042947
10.98,0.011723154392618463
10.984,0.011722312973616079
10.988,0.011719067500321168
10.992,0.011709138756093035
10.996,0.011692911389618482
11.0,0.011692550781474603
11.004,0.011714307472821966
11.008000000000001,0.011735679515482525
11.012,0.011764720491336244
11.016,0.011783568276989653
11.02,0.011810253279636694
11.024000000000001,0.011832538862928413
11.028,0.011822417794356877
11.032,0.011800973630067543
11.036,0.011768230410603334
11.040000000000001,0.011743228245961058
11.044,0.011733852434220206
11.048,0.011720870541040563
11.052,0.011714523837708294
11.056000000000001,0.011715196972910201
11.06,0.011698176268519114
11.064,0.011684665483395118
11.068,0.011696950200829927
11.072000000000001,0.01170271993113199
11.076,0.011701902552672531
11.08,0.011699378295665377
11.084,0.01169495483576713
11.088000000000001,0.01170271993113199
11.092,0.011703705593391926
11.096,0.01169231037604535
11.1,0.011695579889883187
11.104000000000001,0.011713562215991284
11.108,0.011720173365295732
11.112,0.0117173846623164
11.116,0.011720509932896684
11.120000000000001,0.011716254756798912
11.124,0.011702046795930083
11.128,0.011696036660198767
11.132,0.01169500291685298
11.136000000000001,0.011697911822546937
11.14,0.011713466053819583
11.144,0.011726952798400655
11.148,0.011718875175977767
11.152000000000001,0.011705700958454723
11.156,0.011705821161169349
11.16,0.011720509932896684
11.164,0.01171560566213993
11.168000000000001,0.01170692702614391
11.172,0.011698320511776666
11.176,0.01168810328103343
11.18,0.011702191039187635
11.184000000000001,0.01170231124190226
11.188,0.011690771781298135
11.192,0.011689137024379216
11.196,0.011692094011159023
11.200000000000001,0.011708513701976979
11.204,0.011714259391736115
11.208,0.011713562215991284
11.212,0.011708225215461875
11.216000000000001,0.011699859106523883
11.22,0.011694618268166175
11.224,0.011695123119567606
11.228,0.011696517471057271
11.232000000000001,0.011702960336561243
11.236,0.011708008850575548
11.24,0.011697262727887955
11.244,0.01169281522744678
11.248000000000001,0.011698897484806873
11.252,0.011689497632523095
11.256,0.011687934997232953
11.26,0.011686564686286214
11.264,0.011685218415882399
11.268,0.01169637322779972
11.272,0.011699642741637557
11.276,0.011710196539981746
11.28,0.011714115148478565
11.284,0.01169130067324249
11.288,0.011679713131552513
11.292,0.011690483294783031
11.296,0.011692069970616097
11.3,0.011696541511600198
11.304,0.011703705593391926
11.308,0.011701109214755997
11.312,0.011703753674477776
11.316,0.011711783215814814
11.32,0.011713754540334685
11.324,0.011705556715197171
11.328,0.011692983511247259
11.332,0.011680193942411017
11.336,0.011701734268872053
11.34,0.011708946431749632
11.344,0.011709018553378409
11.348,0.011709715729123242
11.352,0.011698993646978574
11.356,0.01169668575485775
11.36,0.011707576120802893
11.364,0.011708321377633576
11.368,0.011702936296018316
11.372,0.011698681119920545
11.376,0.011688752375692411
11.38,0.011677212915088286
11.384,0.011684401037422939
11.388,0.011699354255122453
11.392,0.011707311674830715
11.396,0.01169870516046347
11.4,0.01168774267288955
11.404,0.011682525875074769
11.408,0.011703128620361719
11.412,0.011713946864678087
11.416,0.01170733571537364
11.42,0.011691276632699565
11.424,0.011686492564657437
11.428,0.011698873444263947
11.432,0.011704571052937235
11.436,0.011702359322988111
11.44,0.011697551214403058
11.444,0.01168906490275044
11.448,0.011691420875957115
11.452,0.01169185360572977
11.456,0.011694714430337877
11.46,0.011695627970969036
11.464,0.011690242889353778
11.468,0.011688896618949963
11.472,0.011690651578583507
11.476,0.011681059401956328
11.48,0.01169408937622182
11.484,0.011701662147243278
11.488,0.011702094877015934
11.492,0.011704667215108936
11.496,0.011706951066686837
11.5,0.011700916890412595
11.504,0.011690916024555685
11.508000000000001,0.01169271906527508
11.512,0.011696541511600198
11.516,0.011696204943999243
11.52,0.011695988579112917
11.524000000000001,0.011698753241549321
11.528,0.01169723868734503
11.532,0.011678895753093053
11.536,0.011667764981718657
11.540000000000001,0.011677429279974613
11.544,0.011682285469645516
11.548,0.011677910090833118
11.552,0.011674616536452357
11.556000000000001,0.01166973630623853
11.56,0.011688343686462682
11.564,0.011700868809326744
11.568,0.011684857807738518
11.572000000000001,0.011679689091009587
11.576,0.011687382064745672
11.58,0.011688463889177308
11.584,0.011693824930249641
11.588000000000001,0.01169678191702945
11.592,0.011689906321752824
11.596,0.011686420443028662
11.6,0.01168810328103343
11.604000000000001,0.011686829132258391
11.608,0.01168170849661531
11.612,0.011688175402662206
11.616,0.01169719060625918
11.620000000000001,0.011697719498203535
11.624,0.011695267362825158
11.628,0.011691036227270312
11.632,0.01168262203724647
11.636000000000001,0.01166581769774171
11.64,0.011666803360001646
11.644,0.011681420010100207
11.648,0.011695844335855365
11.652000000000001,0.011701830431043754
11.656,0.011693776849163793
11.66,0.011691661281386368
11.664,0.011694594227623251
11.668000000000001,0.011677789888118491
11.672,0.011674664617538208
11.676,0.011683824064392733
11.68,0.01169089198401276
11.684000000000001,0.011697839700918162
11.688,0.011695700092597813
11.692,0.011690050565010376
11.696,0.011688415808091457
11.700000000000001,0.011681107483042179
11.704,0.011675121387853787
11.708,0.01166221161630292
11.712,0.011659422913323591
11.716000000000001,0.011676852306944407
11.72,0.01166973630623853
11.724,0.011657355426632017
11.728,0.011664255062451568
11.732000000000001,0.01169637322779972
11.736,0.011745992908397463
11.74,0.011787799412544498
11.744,0.0118130179420731
11.748000000000001,0.011805805779195521
11.752,0.011782222006585838
11.756,0.011755344679595391
11.76,0.011731568582642305
11.764000000000001,0.011715389297253603
11.768,0.011702479525702737
11.772,0.011692190173330725
11.776,0.011685482861854576
11.78,0.011675193509482562
11.784,0.011676828266401481
11.788,0.011672404806503233
11.792,0.01167363087419242
11.796,0.011671298941528671
11.8,0.01166069706209863
11.804,0.011651729939587506
11.808,0.011662139494674146
11.812,0.011662091413588295
11.816,0.011665288805797355
11.82,0.0116831268886479
11.824,0.011678535144949174
11.828,0.01167668402314393
11.832,0.011674159766136777
11.836,0.011669616103523902
11.84,0.011672525009217859
11.844,0.011669543981895127
11.848,0.011679737172095438
11.852,0.011686204078142333
11.856,0.011682237388559665
11.86,0.011677453320517539
11.864,0.011670193076554109
11.868,0.011662644346075576
11.872,0.011661899089244893
11.876,0.011673919360707524
11.88,0.011674953104053311
11.884,0.011671419144243297
11.888,0.011670938333384792
11.892,0.01166490415711055
11.896,0.01166394253539354
11.9,0.011671948036187653
11.904,0.011678270698976997
11.908,0.011663990616479391
11.912,0.011655239858854595
11.916,0.011642498371104206
11.92,0.01165896614300801
11.924,0.011674111685050927
11.928,0.011672476928132008
11.932,0.01166632254914314
11.936,0.011665409008511981
11.94,0.011660312413411825
11.944,0.011654230156051734
11.948,0.011663053035305305
11.952,0.011671875914558877
11.956,0.011669856508953155
11.96,0.011659927764725022
11.964,0.011658028561833926
11.968,0.011654085912794182
11.972,0.011660673021555705
11.976,0.01167403956342215
11.98,0.011679568888294961
11.984,0.011679232320694007
11.988,0.011676443617714676
11.992,0.011666923562716272
11.996,0.01167363087419242
12.0,0.011680073739696392
12.004,0.011670962373927717
12.008000000000001,0.011671467225329147
12.012,0.011677597563775089
12.016,0.011682237388559665
12.02,0.011679160199065232
12.024000000000001,0.011663004954219455
12.028,0.011642306046760803
12.032,0.011636584397544591
12.036,0.011647210317517557
12.040000000000001,0.011676083009570798
12.044,0.011689233186550917
12.048,0.011685218415882399
12.052,0.011680770915441225
12.056000000000001,0.011673198144419767
12.06,0.011672981779533438
12.064,0.011669952671124856
12.068,0.011680674753269523
12.072000000000001,0.011687069537687644
12.076,0.011690290970439629
12.08,0.01168216526693089
12.084,0.011674472293194805
12.088000000000001,0.011671587428043773
12.092,0.011669087211579547
12.096,0.011662067373045369
12.1,0.011658437251063655
12.104000000000001,0.011661033629699584
12.108,0.011654638845281463
12.112,0.01165023942592614
12.116,0.011670024792753631
12.120000000000001,0.011668582360178115
12.124,0.011662644346075576
12.128,0.01166973630623853
12.132,0.011674207847222628
12.136000000000001,0.011661418278386387
12.14,0.011638050870663032
12.144,0.011653749345193228
12.148,0.01167531371219719
12.152000000000001,0.011681876780415787
12.156,0.011677958171918969
12.16,0.011671948036187653
12.164,0.011670649846869689
12.168000000000001,0.011669856508953155
12.172,0.011667909224976208
12.176,0.011671034495556492
12.18,0.01167403956342215
12.184000000000001,0.011669640144066828
12.188,0.011663702129964287
12.192,0.011658990183550936
12.196,0.011665048400368102
12.200000000000001,0.011674880982424534
12.204,0.011671058536099418
12.208,0.01165831704834903
12.212,0.011665553251769533
12.216000000000001,0.011671683590215474
12.22,0.011679641009923736
12.224,0.011676395536628826
12.228,0.011670649846869689
12.232000000000001,0.011682886483218647
12.236,0.011677886050290192
12.24,0.011670072873839482
12.244,0.011675962806856172
12.248000000000001,0.011670938333384792
12.252,0.011632040734931716
12.256,0.011634853478453971
12.26,0.011661947170330743
12.264000000000001,0.01166709184651675
12.268,0.011649758615067635
12.272,0.011645743844399115
12.276,0.011658845940293384
12.280000000000001,0.011670914292841866
12.284,0.011669712265695603
12.288,0.011671419144243297
12.292,0.011671010455013568
12.296,0.011654999453425342
12.3,0.011650672155698795
12.304,0.011652499236961114
12.308,0.011649518209638382
12.312,0.011644421614538226
12.316,0.011642257965674953
12.32,0.0116648560760247
12.324,0.011676828266401481
12.328,0.011668870846693219
12.332,0.011666755278915796
12.336,0.011662740508247277
12.34,0.011653508939763977
12.344,0.011667692860089882
12.348,0.011673342387677319
12.352,0.011669231454837097
12.356,0.011670553684697988
12.36,0.011668077508776685
12.364,0.011647066074260005
12.368,0.011643868682050945
12.372,0.011653749345193228
12.376,0.011658196845634402
12.38,0.011661778886530267
12.384,0.011652619439675741
12.388,0.011641416546672568
12.392,0.01165074427732757
12.396,0.011670072873839482
12.4,0.011685482861854576
12.404,0.011685098213167771
12.408,0.011674832901338684
12.412,0.011675602198712293
12.416,0.011683848104935658
12.42,0.011674472293194805
12.424,0.011668341954748864
12.428,0.01166165868381564
12.432,0.01165156165578703
12.436,0.011662259697388771
12.44,0.011691901686815621
12.444,0.011718514567833887
12.448,0.011750272125038161
12.452,0.011773567411132743
12.456,0.011779313100891881
12.46,0.01176565807251033
12.464,0.011747267057172503
12.468,0.011721591757328322
12.472,0.011696132822370468
12.476,0.011673029860619289
12.48,0.01166677931945872
12.484,0.011664062738108166
12.488,0.011658990183550936
12.492,0.011672380765960307
12.496,0.01166988054949608
12.5,0.011664567589509596
12.504,0.011659398872780665
12.508000000000001,0.01165891806192216
12.512,0.011665577292312457
12.516,0.011664880116567626
12.52,0.011643532114449991
12.524000000000001,0.011629877086068443
12.528,0.01164425333073775
12.532,0.011655287939940445
12.536,0.011660769183727404
12.540000000000001,0.01165663421034426
12.544,0.011646729506659051
12.548,0.011639012492380042
12.552,0.011646537182315649
12.556000000000001,0.011661971210873668
12.56,0.011666803360001646
12.564,0.01166317323801993
12.568,0.01165805260237685
12.572000000000001,0.011662548183903875
12.576,0.011662019291959518
12.58,0.011666827400544571
12.584,0.011664182940822793
12.588000000000001,0.011648075777062866
12.592,0.011645960209285443
12.596,0.011662187575759996
12.6,0.011669207414294173
12.604000000000001,0.01166622638697144
12.608,0.011657691994232972
12.612,0.011632689829590698
12.616,0.011622352396132834
12.620000000000001,0.011620837841928543
12.624,0.011641224222329166
12.628,0.0116557206697131
12.632,0.011653076209991321
12.636000000000001,0.011653629142478602
12.64,0.011646392939058097
12.644,0.011640046235725829
12.648,0.011647354560775109
12.652000000000001,0.011643700398250469
12.656,0.011647066074260005
12.66,0.01165567258862725
12.664,0.011651225088186076
12.668000000000001,0.011646705466116127
12.672,0.011640623208756034
12.676,0.011636368032658263
12.68,0.01163547853257003
12.684000000000001,0.011637233492203573
12.688,0.011637690262519153
12.692,0.011629708802267965
12.696,0.011630670423984977
12.700000000000001,0.011636055505600235
12.704,0.011631680126787837
12.708,0.011645383236255236
12.712,0.011670337319811661
12.716000000000001,0.011672597130846635
12.72,0.011657571791518346
12.724,0.011643123425220262
12.728,0.011645984249828368
12.732000000000001,0.011663149197477006
12.736,0.011673198144419767
12.74,0.011669063171036621
12.744,0.011652691561304516
12.748000000000001,0.011636728640802141
12.752,0.011643532114449991
12.756,0.011645767884942041
12.76,0.011652667520761592
12.764000000000001,0.01166490415711055
12.768,0.01166221161630292
12.772,0.011653629142478602
12.776,0.011655552385912623
12.780000000000001,0.011656946737402288
12.784,0.011655071575054118
12.788,0.01165485521016779
12.792,0.011652258831531863
12.796000000000001,0.011657115021202766
12.8,0.011660721102641556
12.804,0.0116602883728689
12.808,0.011650551952984168
12.812,0.011630742545613752
12.816,0.011629444356295787
12.82,0.01164475818213918
12.824,0.011663004954219455
12.828,0.01167069792795554
12.832,0.011663461724535034
12.836,0.01164329170902074
12.84,0.01165175398013043
12.844,0.01167221248215983
12.848,0.011675169468939638
12.852,0.011671539346957924
12.856,0.011655552385912623
12.86,0.01163836339772106
12.864,0.011643339790106589
12.868,0.011649013358236952
12.872,0.011653605101935676
12.876,0.011653172372163022
12.88,0.01165516773722582
12.884,0.011662187575759996
12.888,0.011656249561657455
12.892,0.01163927693835222
12.896,0.01164110401961454
12.9,0.011654109953337108
12.904,0.011654542683109762
12.908,0.011666971643802123
12.912,0.011671298941528671
12.916,0.011663293440734558
12.92,0.011657764115861747
12.924,0.011648436385206745
12.928,0.01164526303354061
12.932,0.011647066074260005
12.936,0.011662283737931697
12.94,0.011671875914558877
12.944,0.01167038540089751
12.948,0.01166033645395475
12.952,0.01165709098065984
12.956,0.011657523710432495
12.96,0.011650191344840289
12.964,0.011650215385383215
12.968,0.011648580628464297
12.972,0.011638796127493715
12.976,0.011635358329855402
12.98,0.01163237730253267
12.984,0.011640118357354604
12.988,0.011652451155875264
12.992,0.011641176141243315
12.996,0.011635646816370505
13.0,0.011641536749387194
13.004,0.011645912128199593
13.008000000000001,0.011646825668830752
13.012,0.011654013791165407
13.016,0.011654422480395136
13.02,0.011656922696859364
13.024000000000001,0.011657475629346645
13.028,0.011649061439322803
13.032,0.01164329170902074
13.036,0.011643363830649515
13.040000000000001,0.011643700398250469
13.044,0.011645960209285443
13.048,0.011648244060863342
13.052,0.01165023942592614
13.056000000000001,0.01164795557434824
13.06,0.01164562364168449
13.064,0.011649878817782261
13.068,0.011652763682933293
13.072000000000001,0.011650720236784646
13.076,0.01164841234466382
13.08,0.01164612849308592
13.084,0.011636872884059693
13.088000000000001,0.011655888953513577
13.092,0.011674279968851403
13.096,0.01166622638697144
13.1,0.011655311980483371
13.104000000000001,0.011641825235902297
13.108,0.011641464627758419
13.112,0.011647474763489735
13.116,0.011650479831355393
13.120000000000001,0.011653605101935676
13.124,0.011654085912794182
13.128,0.011634733275739346
13.132,0.011639156735637594
13.136000000000001,0.011649710533981785
13.14,0.011652042466645534
13.144,0.011646416979601023
13.148,0.011630862748328377
13.152000000000001,0.011618746314694044
13.156,0.011624035234137603
13.16,0.011653797426279078
13.164,0.011689209146007991
13.168000000000001,0.01172200044655805
13.172,0.011752940625302865
13.176,0.011769841126979326
13.18,0.01175520043633784
13.184000000000001,0.011735968001997629
13.188,0.01174789211128856
13.192,0.011738540340090631
13.196,0.011709547445322764
13.200000000000001,0.01169399321405012
13.204,0.011676155131199574
13.208,0.011663149197477006
13.212,0.011654230156051734
13.216000000000001,0.011633939937822812
13.22,0.011621583098759226
13.224,0.011632497505247296
13.228,0.011640575127670184
13.232000000000001,0.011640430884412632
13.236,0.011630454059098648
13.24,0.011628050004806122
13.244,0.011642450290018355
13.248000000000001,0.011655119656139969
13.252,0.011652835804562068
13.256,0.011646561222858575
13.26,0.011644181209108973
13.264000000000001,0.011639926033011202
13.268,0.011634132262166214
13.272,0.011638844208579566
13.276,0.011652186709903086
13.280000000000001,0.011653629142478602
13.284,0.011645190911911834
13.288,0.01164196947915985
13.292,0.011639661587039024
13.296000000000001,0.011640406843869707
13.3,0.011640214519526305
13.304,0.011638050870663032
13.308,0.011623987153051752
13.312000000000001,0.011621535017673375
13.316,0.011625309382912641
13.32,0.011634396708138392
13.324,0.011642810898162234
13.328,0.011642834938705158
13.332,0.011621799463645553
13.336,0.011624011193594679
13.34,0.011629708802267965
13.344,0.01163333892424968
13.348,0.011631680126787837
13.352,0.011625549788341894
13.356,0.011622737044819639
13.36,0.01162064551758514
13.364,0.011621030166271945
13.368,0.011620813801385618
13.372,0.011617736611891184
13.376,0.011620332990527112
13.38,0.01162100612572902
13.384,0.011613818003394366
13.388,0.011617424084833156
13.392,0.011622015828531881
13.396,0.011598672461351451
13.4,0.01159689346117498
13.404,0.011633675491850634
13.408,0.011631319518643957
13.412,0.011630285775298172
13.416,0.01163547853257003
13.42,0.011631319518643957
13.424,0.011631752248416612
13.428,0.011629588599553339
13.432,0.011629203950866534
13.436,0.011632136897103417
13.44,0.011629324153581162
13.444,0.011629155869780684
13.448,0.011633411045878455
13.452,0.01163785854631963
13.456,0.011640214519526305
13.46,0.011635502573112954
13.464,0.01163160800515906
13.468,0.011638772086950789
13.472,0.011636055505600235
13.476,0.011633867816194035
13.48,0.011639541384324398
13.484,0.01162968476172504
13.488,0.011601389042702005
13.492,0.011611630313988167
13.496,0.011640503006041409
13.5,0.011651297209814851
13.504,0.0116442052496519
13.508000000000001,0.011633603370221858
13.512,0.011630886788871303
13.516,0.011635959343428533
13.52,0.011640743411470662
13.524000000000001,0.011640983816899913
13.528,0.011634901559539822
13.532,0.01162973284281089
13.536,0.011626727774945233
13.540000000000001,0.01161922712555255
13.544,0.01162405927468053
13.548,0.011631079113214706
13.552,0.011622857247534266
13.556000000000001,0.011618529949807718
13.56,0.011630910829414228
13.564,0.011629708802267965
13.568,0.011630478099641574
13.572000000000001,0.011637353694918199
13.576,0.01161557296302791
13.58,0.011607230894632845
13.584,0.011626920099288635
13.588000000000001,0.011629492437381638
13.592,0.011625501707256044
13.596,0.011622352396132834
13.6,0.011619491571524728
13.604000000000001,0.01162090996355732
13.608,0.011621486936587525
13.612,0.011634012059451587
13.616,0.011634108221623288
13.620000000000001,0.011634901559539822
13.624,0.011629877086068443
13.628,0.011621631179845077
13.632,0.011619539652610578
13.636000000000001,0.011629708802267965
13.64,0.011636464194829964
13.644,0.01163018961312647
13.648,0.011634084181080364
13.652000000000001,0.011635286208226627
13.656,0.011635238127140776
13.66,0.011629420315752863
13.664,0.011626246964086727
13.668000000000001,0.01163187245113124
13.672,0.011638219154463508
13.676,0.011635358329855402
13.68,0.011627833639919795
13.684000000000001,0.01161602973334349
13.688,0.011604273907853036
13.692,0.01161456326022505
13.696,0.011634372667595465
13.700000000000001,0.011638339357178135
13.704,0.011635117924426149
13.708,0.011644589898338702
13.712,0.011632305180903893
13.716000000000001,0.011622015828531881
13.72,0.011627352829061289
13.724,0.011637834505776705
13.728,0.011636680559716292
13.732000000000001,0.011626679693859382
13.736,0.011622713004276714
13.74,0.011624948774768763
13.744,0.011627184545260813
13.748000000000001,0.011624972815311689
13.752,0.011628025964263197
13.756,0.011628386572407076
13.76,0.011626703734402307
13.764000000000001,0.011627737477748094
13.768,0.011629468396838713
13.772,0.011629203950866534
13.776,0.011628146166977823
13.780000000000001,0.011615957611714715
13.784,0.011609442624581969
13.788,0.011634012059451587
13.792,0.011648123858148717
13.796000000000001,0.011638555722064462
13.8,0.0116191790444667
13.804,0.011627280707432514
13.808,0.011645335155169386
13.812000000000001,0.011643508073907067
13.816,0.01164836426357797
13.82,0.011651032763842674
13.824,0.011628482734578777
13.828,0.011627040302003261
13.832,0.011632281140360969
13.836,0.011636608438087516
13.84,0.01163425246488084
13.844,0.011630886788871303
13.848,0.011630934869957154
13.852,0.01163886824912249
13.856,0.011650960642213899
13.86,0.01165567258862725
13.864,0.01164398888476557
13.868,0.011631800329502463
13.872,0.011626920099288635
13.876,0.011638964411294191
13.88,0.011635238127140776
13.884,0.011623145734049368
13.888,0.011628146166977823
13.892,0.011641464627758419
13.896,0.011667284170860152
13.9,0.011694185538393522
13.904,0.01172058205452546
13.908,0.011740295299724176
13.912,0.011745560178624808
13.916,0.01174382925953419
13.92,0.01172560652799684
13.924,0.011702191039187635
13.928,0.011681972942587488
13.932,0.011656297642743306
13.936,0.011627280707432514
13.94,0.011623217855678145
13.944,0.011634637113567645
13.948,0.011636728640802141
13.952,0.01163603146505731
13.956,0.011629468396838713
13.96,0.011618962679580373
13.964,0.011626295045172578
13.968,0.011641296343957943
13.972,0.011636872884059693
13.976,0.011635093883883224
13.98,0.011638651884236163
13.984,0.011654879250710716
13.988,0.01165485521016779
13.992,0.011640382803326781
13.996,0.011645551520055714
14.0,0.011657259264460316
14.004,0.011646825668830752
14.008000000000001,0.01164425333073775
14.012,0.011642378168389578
14.016,0.011644637979424553
14.02,0.011647643047290211
14.024000000000001,0.011634492870310093
14.028,0.011630886788871303
14.032,0.011637257532746498
14.036,0.011640382803326781
14.040000000000001,0.011644637979424553
14.044,0.011643532114449991
14.048,0.011620693598670991
14.052,0.011608745448837136
14.056000000000001,0.011624131396309304
14.06,0.011632401343075595
14.064,0.0116352621676837
14.068,0.011646416979601023
14.072000000000001,0.01165480712908194
14.076,0.011655095615597043
14.08,0.0116511529665573
14.084,0.011640575127670184
14.088000000000001,0.011634132262166214
14.092,0.011630958910500078
14.096,0.011634589032481794
14.1,0.011641849276445224
14.104000000000001,0.011645046668654284
14.108,0.011645407276798162
14.112,0.011644469695624077
14.116,0.011641128060157465
14.120000000000001,0.011640863614185287
14.124,0.011642450290018355
14.128,0.011641536749387194
14.132,0.01164759496620436
14.136000000000001,0.011646873749916603
14.14,0.01163699308677432
14.144,0.011647017993174155
14.148,0.011655768750798951
14.152000000000001,0.011641897357531074
14.156,0.011643892722593871
14.16,0.011647017993174155
14.164,0.011656946737402288
14.168000000000001,0.011665192643625654
14.172,0.0116671399276026
14.176,0.011674231887765552
14.18,0.011665048400368102
14.184000000000001,0.011643508073907067
14.188,0.01164749880403266
14.192,0.011656441886000858
14.196,0.011657667953690047
14.200000000000001,0.0116648560760247
14.204,0.01166677931945872
14.208,0.011656225521114531
14.212,0.011656393804915007
14.216000000000001,0.011669784387324378
14.22,0.011670144995468259
14.224,0.011668293873663013
14.228,0.011670505603612137
14.232000000000001,0.011677958171918969
14.236,0.011688367727005608
14.24,0.011684617402309267
14.244,0.011680097780239316
14.248000000000001,0.011675650279798144
14.252,0.011671563387500848
14.256,0.011669592062980978
14.26,0.011674111685050927
14.264000000000001,0.011672549049760785
14.268,0.011670938333384792
14.272,0.011667981346604983
14.276,0.011670265198182884
14.280000000000001,0.011670625806326763
14.284,0.011670409441440436
14.288,0.011660480697212303
14.292,0.01164398888476557
14.296000000000001,0.011640623208756034
14.3,0.011662740508247277
14.304,0.01167901595580768
14.308,0.01169646938997142
14.312000000000001,0.011693704727535016
14.316,0.011674376131023104
14.32,0.011665288805797355
14.324,0.01167221248215983
14.328000000000001,0.01168307880756205
14.332,0.011688992781121664
14.336,0.011683174969733751
14.34,0.011670313279268735
14.344,0.011671010455013568
14.348,0.011677862009747268
14.352,0.011678126455719445
14.356,0.011676058969027873
14.36,0.011675145428396714
14.364,0.011676539779886377
14.368,0.011680867077612926
14.372,0.0116694237791805
14.376,0.011653773385736154
14.38,0.011679184239608157
14.384,0.01169646938997142
14.388,0.011686131956513558
14.392,0.0116830307264762
14.396,0.01168993036229575
14.4,0.011694474024908624
14.404,0.011685098213167771
14.408,0.01166536092742613
14.412,0.011663966575936465
14.416,0.011674977144596236
14.42,0.011683487496791779
14.424,0.011691468957042966
14.428,0.011686468524114512
14.432,0.01168764651071785
14.436,0.01169257482201753
14.44,0.011690579456954732
14.444,0.011696156862913393
14.448,0.011693608565363315
14.452,0.011686516605200363
14.456,0.011684136591450761
14.46,0.011692238254416575
14.464,0.011703032458190018
14.468,0.01170231124190226
14.472,0.011696950200829927
14.476,0.011690411173154254
14.48,0.011686204078142333
14.484,0.011682982645390349
14.488,0.01169449806545155
14.492,0.011703801755563627
14.496,0.011697094444087478
14.5,0.01168728590257397
14.504,0.011690026524467451
14.508000000000001,0.011708850269577931
14.512,0.011701830431043754
14.516,0.011680242023496868
14.52,0.01168536265913995
14.524000000000001,0.011703873877192402
14.528,0.011711254323870457
14.532,0.011708056931661399
14.536,0.0117058692422552
14.540000000000001,0.011697671417117684
14.544,0.011695627970969036
14.548,0.011712336148302095
14.552,0.011716519202771091
14.556000000000001,0.011711158161698758
14.56,0.011709859972380793
14.564,0.01169774353874646
14.568,0.011694594227623251
14.572000000000001,0.011712384229387945
14.576,0.011713009283504003
14.58,0.011710268661610523
14.584,0.011702551647331513
14.588000000000001,0.011710268661610523
14.592,0.011728515433690797
14.596,0.011737698921088247
14.6,0.011743588854104937
14.604000000000001,0.01174058378623928
14.608,0.01173012615006679
14.612,0.011723154392618463
14.616,0.01172332267641894
14.620000000000001,0.01172337075750479
14.624,0.011726688352428478
14.628,0.011725798852340243
14.632,0.011714812324223398
14.636000000000001,0.011702984377104167
14.64,0.011691108348899087
14.644,0.011693824930249641
14.648,0.011711542810385561
14.652000000000001,0.011737097907515115
14.656,0.011742338745872823
14.66,0.011784962628479317
14.664,0.011817056753284544
14.668000000000001,0.011823812145846543
14.672,0.011812296725785341
14.676,0.011796093399853715
14.68,0.011783303831017474
14.684000000000001,0.011770394059466607
14.688,0.011750921219697142
14.692,0.01172971746083706
14.696,0.011718418405662187
14.700000000000001,0.011723755406191595
14.704,0.011728130785003992
14.708,0.011724765108994456
14.712,0.011719187703035795
14.716000000000001,0.011704018120449954
14.72,0.011702671850046139
14.724,0.011713129486218629
14.728,0.011694786551966653
14.732000000000001,0.011699931228152658
14.736,0.0117425070296733
14.74,0.011760104707094593
14.744,0.01174113671872656
14.748000000000001,0.011737218110229743
14.752,0.011748661408662167
14.756,0.011745031286680453
14.76,0.011742434908044524
14.764000000000001,0.011734261123449935
14.768,0.011715509499968229
14.772,0.011715196972910201
14.776,0.011720870541040563
14.780000000000001,0.011725750771254392
14.784,0.011729453014864883
14.788,0.011725414203653438
14.792,0.011715196972910201
14.796000000000001,0.01171541333779653
14.8,0.01172094266266934
14.804,0.011734044758563609
14.808,0.011743011881074732
14.812000000000001,0.011741232880898261
14.816,0.011741353083612887
14.82,0.011741280961984112
14.824,0.011733107177389523
14.828000000000001,0.011729645339208285
14.832,0.011733443744990477
14.836,0.011734092839649457
14.84,0.011733708190962654
14.844000000000001,0.011735439110053272
14.848,0.011731424339384754
14.852,0.01173012615006679
14.856,0.011718153959690008
14.86,0.011711783215814814
14.864,0.011717601027202727
14.868,0.01172286590610336
14.872,0.011733203339561224
14.876,0.011741689651213841
14.88,0.011733756272048505
14.884,0.011738684583348183
14.888,0.011738780745519884
14.892,0.011738660542805259
14.896,0.011734092839649457
14.9,0.011722553379045332
14.904,0.011713345851104956
14.908,0.011728275028261544
14.912,0.011737266191315593
14.916,0.011735006380280619
14.92,0.011730102109523865
14.924,0.0117288039202059
14.928,0.011734765974851366
14.932,0.01173839609683308
14.936,0.011741833894471393
14.94,0.011737771042717024
14.944,0.011731376258298903
14.948,0.011737674880545322
14.952,0.011751329908926873
14.956,0.011751570314356124
14.96,0.011751041422411769
14.964,0.011750200003409384
14.968,0.011744454313650246
14.972,0.011747603624773456
14.976,0.011748685449205093
14.98,0.011745872705682838
14.984,0.01173967024560812
14.988,0.011739574083436418
14.992,0.011737650840002398
14.996,0.011737698921088247
15.0,0.011731472420470604
15.004,0.011739285596921315
15.008000000000001,0.011750993341325918
15.012,0.011738227813032603
15.016,0.011724861271166157
15.02,0.011730967569069174
15.024000000000001,0.011727770176860114
15.028,0.011742747435102553
15.032,0.011755873571539746
15.036,0.011766980302371218
15.040000000000001,0.011759455612435611
15.044,0.011754431138964232
15.048,0.011748517165404615
15.052,0.011742266624244048
15.056000000000001,0.011738299934661378
15.06,0.011737170029143892
15.064,0.01174164157012799
15.068,0.011742939759445955
15.072000000000001,0.011745872705682838
15.076,0.01174606503002624
15.08,0.011741305002527036
15.084,0.011740848232211457
15.088000000000001,0.011746449678713043
15.092,0.011744189867678069
15.096,0.011744598556907798
15.1,0.011749695152007954
15.104000000000001,0.011744959165051676
15.108,0.011743348448675684
15.112,0.01174205025935772
15.116,0.011749839395265506
15.120000000000001,0.01175529659850954
15.124,0.011742218543158198
15.128,0.011725846933426093
15.132,0.01173697770480049
15.136000000000001,0.011742795516188403
15.14,0.011743276327046909
15.144,0.011755008111994437
15.148,0.01175351759833307
15.152000000000001,0.011736088204712255
15.156,0.011732482123273465
15.16,0.011753084868560417
15.164,0.011772942357016685
15.168000000000001,0.011764864734593795
15.172,0.011758542071804452
15.176,0.011759455612435611
15.18,0.011747194935543727
15.184000000000001,0.011732554244902242
15.188,0.011742747435102553
15.192,0.011753132949646267
15.196,0.011753733963219399
15.200000000000001,0.01175423881462083
15.204,0.011755537003938794
15.208,0.011757460247372814
15.212,0.011759263288092209
15.216000000000001,0.011758085301488872
15.22,0.011752868503674088
15.224,0.011757291963572338
15.228,0.011762893410073924
15.232000000000001,0.011757965098774244
15.236,0.01174885373300557
15.24,0.011744310070392694
15.244,0.011745560178624808
15.248000000000001,0.011747194935543727
15.252,0.011743300367589833
15.256,0.011729525136493658
15.26,0.011711206242784608
15.264000000000001,0.011710701391383176
15.268,0.011733179299018298
15.272,0.01174981535472258
15.276,0.011748637368119243
15.280000000000001,0.011759503693521462
15.284,0.011768591018747212
15.288,0.011763302099303654
15.292,0.011760176828723368
15.296000000000001,0.011762124112700315
15.3,0.011769961329693953
15.304,0.011767148586171694
15.308,0.0117629655317027
15.312000000000001,0.011772341343443554
15.316,0.01176671585639904
15.32,0.011761859666728137
15.324,0.011763614626361682
15.328000000000001,0.011758518031261525
15.332,0.011761210572069155
15.336,0.011764528166992841
15.34,0.01176178754509936
15.344000000000001,0.011767629397030202
15.348,0.011769480518835447
15.352,0.011752075165757556
15.356,0.011746906449028623
15.36,0.011759960463837042
15.364,0.011763662707447532
15.368,0.01176575423468203
15.372,0.011776139749225745
15.376,0.011783448074275026
15.38,0.011785347277166121
15.384,0.011778207235917318
15.388,0.011775370451852138
15.392,0.01177063446489586
15.396,0.011761523099127183
15.4,0.01175794105823132
15.404,0.011759215207006358
15.408,0.011771067194668515
15.412,0.011793761467189964
15.416,0.011816527861340189
15.42,0.011845352472307578
15.424,0.011866604312253514
15.428,0.011861916406383085
15.432,0.011853093527129514
15.436,0.011843597512674034
15.44,0.011811623590583435
15.444,0.011788953358604911
15.448,0.01178666950702701
15.452,0.011780322803694742
15.456,0.011775923384339419
15.46,0.011775274289680436
15.464,0.011758109342031796
15.468,0.011769576681007149
15.472,0.011787823453087423
15.476,0.01178474626359299
15.48,0.011775490654566763
15.484,0.011751233746755171
15.488,0.011738227813032603
15.492,0.011750752935896665
15.496,0.011763181896589026
15.5,0.011766259086083461
15.504,0.011765537869795702
15.508000000000001,0.011762580883015895
15.512,0.01175423881462083
15.516,0.011756690949999206
15.52,0.011756234179683626
15.524000000000001,0.011758061260945946
15.528,0.011759263288092209
15.532,0.011753325273989668
15.536,0.011757316004115262
15.540000000000001,0.011762027950528614
15.544,0.011762532801930044
15.548,0.011759840261122416
15.552,0.011751522233270273
15.556000000000001,0.011747651705859306
15.56,0.011745151489395079
15.564,0.011748733530290944
15.568,0.011755176395794913
15.572000000000001,0.01174931050332115
15.576,0.011744863002879977
15.58,0.011751570314356124
15.584,0.011753541638875997
15.588000000000001,0.011745680381339435
15.592,0.011740319340267102
15.596,0.011731111812326726
15.6,0.011735895880368852
15.604000000000001,0.011740824191668532
15.608,0.011738131650860902
15.612,0.01174108863764071
15.616,0.011738973069863287
15.620000000000001,0.011700147593038987
15.624,0.011681684456072384
15.628,0.011722264892530228
15.632,0.011753493557790146
15.636000000000001,0.01175063273318204
15.64,0.011736905583171715
15.644,0.011738780745519884
15.648,0.011744646637993648
15.652000000000001,0.011744911083965826
15.656,0.011745920786768688
15.66,0.011741689651213841
15.664,0.011737795083259948
15.668000000000001,0.011743228245961058
15.672,0.011745464016453109
15.676,0.011749358584407
15.68,0.011752195368472182
15.684000000000001,0.011744502394736097
15.688,0.011742146421529421
15.692,0.011754551341678857
15.696,0.011766355248255162
15.700000000000001,0.011753758003762323
15.704,0.011747122813914952
15.708,0.011748805651919719
15.712,0.011751305868383946
15.716000000000001,0.011739189434749614
15.72,0.011748733530290944
15.724,0.011780707452381545
15.728,0.011775370451852138
15.732000000000001,0.011738179731946753
15.736,0.011733972636934832
15.74,0.011755008111994437
15.744,0.011761258653155006
15.748000000000001,0.011762244315414942
15.752,0.011753277192903819
15.756,0.011746353516541342
15.76,0.011745824624596987
15.764000000000001,0.011746593921970595
15.768,0.011749046057348972
15.772,0.011751161625126395
15.776,0.011744574516364873
15.780000000000001,0.011739622164522269
15.784,0.011725318041481737
15.788,0.011744983205594603
15.792,0.011763782910162158
15.796000000000001,0.011756739031085057
15.8,0.0117516424359849
15.804,0.011751209706212245
15.808,0.011746185232740866
15.812000000000001,0.011742434908044524
15.816,0.011751209706212245
15.82,0.011745415935367258
15.824,0.011737458515658996
15.828000000000001,0.011735126582995244
15.832,0.011738780745519884
15.836,0.011740199137552474
15.84,0.011739934691580297
15.844000000000001,0.011722096608729752
15.848,0.011711013918441206
15.852,0.011711110080612907
15.856,0.011711735134728963
15.860000000000001,0.011736448812856135
15.864,0.011746113111112089
15.868,0.011742795516188403
15.872,0.011748565246490466
15.876,0.011746882408485699
15.88,0.011731616663728156
15.884,0.011715629702682856
15.888,0.011727433609259161
15.892,0.011743108043246431
15.896,0.0117425070296733
15.9,0.011736905583171715
15.904,0.011739550042893492
15.908,0.011736689218285386
15.912,0.011728515433690797
15.916,0.011731568582642305
15.92,0.011732145555672513
15.924,0.01173281869087442
15.928,0.011733179299018298
15.932,0.011730847366354548
15.936,0.011726616230799701
15.94,0.011720678216697162
15.944,0.011716134554084287
15.948,0.01171514889182435
15.952,0.011715822027026259
15.956,0.011733684150419728
15.96,0.011736713258828312
15.964,0.011732482123273465
15.968,0.011736689218285386
15.972,0.011739501961807642
15.976,0.01173510254245232
15.98,0.011729236649978556
15.984,0.011724885311709083
15.988,0.011719283865207496
15.992,0.011710172499438821
15.996,0.011707576120802893
16.0,0.011712143823958692
16.004,0.011721110946469816
16.008,0.011725991176683645
16.012,0.011715629702682856
16.016000000000002,0.011717096175801297
16.02,0.011720509932896684
16.024,0.011712961202418153
16.028,0.0117082492560048
16.032,0.011715004648566799
16.036,0.011722986108817987
16.04,0.011724572784651053
16.044,0.011723394798047716
16.048000000000002,0.011720053162581104
16.052,0.011722938027732136
16.056,0.011723394798047716
16.06,0.0117219523654722
16.064,0.011721086905926891
16.068,0.01171870689217729
16.072,0.011720630135611311
16.076,0.011723707325105744
16.080000000000002,0.011706133688227377
16.084,0.011698801322635172
16.088,0.01170916279663596
16.092,0.011716783648743269
16.096,0.011713345851104956
16.1,0.011720558013982535
16.104,0.011735006380280619
16.108,0.011737314272401444
16.112000000000002,0.01172560652799684
16.116,0.011723466919676491
16.12,0.011722673581759957
16.124,0.011721351351899069
16.128,0.011721784081671724
16.132,0.011718322243490486
16.136,0.011700748606612119
16.14,0.01169038713261133
16.144000000000002,0.011683559618420556
16.148,0.011670409441440436
16.152,0.011691517038128816
16.156,0.01172748169034501
16.16,0.011752075165757556
16.164,0.011780322803694742
16.168,0.011803570008703471
16.172,0.011810613887780574
16.176000000000002,0.011813594915103306
16.18,0.011821167686124763
16.184,0.011801262116582646
16.188,0.011770297897294908
16.192,0.011744574516364873
16.196,0.011725005514423709
16.2,0.011713345851104956
16.204,0.011706975107229761
16.208000000000002,0.011702070836473007
16.212,0.011706686620714658
16.216,0.011718466486748036
16.22,0.01171459595933707
16.224,0.011710605229211477
16.228,0.011709138756093035
16.232,0.01170317670144757
16.236,0.011698272430690815
16.240000000000002,0.011690627538040583
16.244,0.011697310808973805
16.248,0.011704907620538189
16.252,0.011703080539275868
16.256,0.011705292269224992
16.26,0.011709138756093035
16.264,0.011711879377986515
16.268,0.011701734268872053
16.272000000000002,0.01169550776825441
16.276,0.011702840133846615
16.28,0.011702671850046139
16.284,0.011708080972204323
16.288,0.011712071702329917
16.292,0.011708441580348202
16.296,0.011694185538393522
16.3,0.01168728590257397
16.304000000000002,0.011688872578407039
16.308,0.011700628403897491
16.312,0.011709859972380793
16.316,0.011698825363178096
16.32,0.011693416241019912
16.324,0.011691781484100995
16.328,0.011687382064745672
16.332,0.01169449806545155
16.336000000000002,0.0116945461465374
16.34,0.011686853172801315
16.344,0.011687141659316419
16.348,0.01169312775450481
16.352,0.0116922622949595
16.356,0.011690651578583507
16.36,0.011676563820429304
16.364,0.011656538048172559
16.368000000000002,0.01165937483223774
16.372,0.01166576961665586
16.376,0.011681756577701161
16.38,0.011676900388030258
16.384,0.011658845940293384
16.388,0.011674640576995281
16.392,0.011694834633052504
16.396,0.011688728335149487
16.4,0.011687550348546148
16.404,0.011691949767901472
16.408,0.011687574389089074
16.412,0.011682814361589872
16.416,0.011683775983306883
16.42,0.011686107915970632
16.424,0.011684425077965865
16.428,0.011676419577171752
16.432,0.011682477793988918
16.436,0.01169257482201753
16.44,0.011686300240314034
16.444,0.011680794955984149
16.448,0.01170820117491895
16.452,0.011712239986130394
16.456,0.011700652444440417
16.46,0.011695579889883187
16.464,0.011700267795753613
16.468,0.011682646077789394
16.472,0.011680217982953944
16.476,0.011677886050290192
16.48,0.011688848537864113
16.484,0.011700916890412595
16.488,0.011701181336384772
16.492,0.011699378295665377
16.496,0.011690940065098611
16.5,0.011690699659669358
16.504,0.011694065335678894
16.508,0.011694714430337877
16.512,0.011691949767901472
16.516000000000002,0.011685434780768725
16.52,0.011692430578759978
16.524,0.01169500291685298
16.528,0.01167358279310657
16.532,0.011671755711844251
16.536,0.01168404042927906
16.54,0.011690819862383984
16.544,0.01169591645748414
16.548000000000002,0.011687886916147102
16.552,0.01168495396991022
16.556,0.011694930795224205
16.56,0.011691012186727386
16.564,0.011685530942940427
16.568,0.011688728335149487
16.572,0.011689353389265543
16.576,0.011688776416235338
16.580000000000002,0.011685146294253622
16.584,0.011672717333561261
16.588,0.011648220020320418
16.592,0.011658004521291
16.596,0.011670313279268735
16.6,0.011684641442852192
16.604,0.011690867943469834
16.608,0.011685843469998455
16.612000000000002,0.011670986414470641
16.616,0.011668991049407846
16.62,0.01168819944320513
16.624,0.011688079240490505
16.628,0.011688896618949963
16.632,0.011691468957042966
16.636,0.011695195241196383
16.64,0.011684208713079536
16.644000000000002,0.011681323847928506
16.648,0.011690603497497657
16.652,0.0116899784433816
16.656,0.011685290537511174
16.66,0.011688439848634383
16.664,0.011689137024379216
16.668,0.011689137024379216
16.672,0.011685699226740903
16.676000000000002,0.011681035361413402
16.68,0.011684881848281444
16.684,0.011684665483395118
16.688,0.01167632341500005
