time,channel2
0.0,-0.0077857461912329414
0.004,-0.00778052939341816
0.008,-0.007781226569162992
0.012,-0.007779615852787
0.016,-0.007776995433608146
0.02,-0.0077811544475342165
0.024,-0.0077750481496311995
0.028,-0.007774519257686844
0.032,-0.007773605717055684
0.036000000000000004,-0.007777476244466651
0.04,-0.007780649596132786
0.044,-0.007778630190527064
0.048,-0.00777728392012325
0.052000000000000005,-0.007776105933519911
0.056,-0.007777019474151071
0.06,-0.007778918677042167
0.064,-0.0077794956500723735
0.068,-0.007781563136763946
0.07200000000000001,-0.007781178488077142
0.076,-0.0077835344612838175
0.08,-0.007785337502003212
0.084,-0.007786828015664579
0.088,-0.007781058285362515
0.092,-0.007779519690615299
0.096,-0.007780649596132786
0.1,-0.007782476677395106
0.10400000000000001,-0.007785024974945184
0.108,-0.00778153909622102
0.112,-0.007780505352875234
0.116,-0.00778514517765981
0.12,-0.007782957488253611
0.124,-0.00778057747450401
0.128,-0.007779928379845028
0.132,-0.007778894636499242
0.136,-0.007780938082647889
0.14,-0.007782909407167761
0.14400000000000002,-0.007782620920652658
0.148,-0.007786828015664579
0.152,-0.007784544164086678
0.156,-0.007781635258392722
0.16,-0.007780457271789384
0.164,-0.007777043514693997
0.168,-0.007774927946916573
0.17200000000000001,-0.0077731489467401035
0.176,-0.0077783897850978116
0.18,-0.007780505352875234
0.184,-0.007778606149984138
0.188,-0.007782548799023882
0.192,-0.007780817879933263
0.196,-0.007779399487900672
0.2,-0.007779135041928494
0.20400000000000001,-0.0077837748667130705
0.20800000000000002,-0.0077837748667130705
0.212,-0.007783510420740892
0.216,-0.007779615852787
0.22,-0.007775865528090659
0.224,-0.007778173420211484
0.228,-0.007777884933696381
0.232,-0.007776250176777463
0.23600000000000002,-0.007782789204453134
0.24,-0.007793222800082699
0.244,-0.007792309259451539
0.248,-0.007792044813479361
0.252,-0.007798487678983331
0.256,-0.0077960595841478795
0.26,-0.007788775299641525
0.264,-0.007793150678453923
0.268,-0.007793270881168549
0.272,-0.007791443799906229
0.276,-0.007788582975298123
0.28,-0.007789159948328329
0.28400000000000003,-0.007791347637734528
0.28800000000000003,-0.007790361975474593
0.292,-0.007788967623984927
0.296,-0.007791275516105752
0.3,-0.007792237137822763
0.304,-0.007792669867595418
0.308,-0.007788751259098599
0.312,-0.007786395285891924
0.316,-0.0077917082458784075
0.32,-0.007792717948681268
0.324,-0.007793847854198756
0.328,-0.007796083624690805
0.332,-0.0077933189622544
0.336,-0.007793246840625624
0.34,-0.007789352272671731
0.34400000000000003,-0.007785938515576344
0.34800000000000003,-0.007787140542722607
0.352,-0.007788751259098599
0.356,-0.0077917082458784075
0.36,-0.007787597313038187
0.364,-0.007791011070133575
0.368,-0.007791443799906229
0.372,-0.007791107232305276
0.376,-0.007788727218555674
0.38,-0.0077896407591868345
0.384,-0.007790554299817994
0.388,-0.007795410489488897
0.392,-0.0077918524891359585
0.396,-0.0077896407591868345
0.4,-0.007790938948504799
0.404,-0.007787308826523084
0.40800000000000003,-0.0077818756638219745
0.41200000000000003,-0.007786106799376821
0.41600000000000004,-0.0077898811646160875
0.42,-0.007785698110147092
0.424,-0.00778514517765981
0.428,-0.0077924054216232394
0.432,-0.007787909840096216
0.436,-0.007794448867771887
0.44,-0.007789135907785404
0.444,-0.007786659731864102
0.448,-0.0077923332999944635
0.452,-0.007792910273024671
0.456,-0.007788030042810842
0.46,-0.007788582975298123
0.464,-0.007786731853492878
0.468,-0.007783582542369668
0.47200000000000003,-0.007785024974945184
0.47600000000000003,-0.0077859144750334185
0.48,-0.007786106799376821
0.484,-0.007786178921005597
0.488,-0.007785024974945184
0.492,-0.0077841835559428
0.496,-0.007786082758833896
0.5,-0.00779149188099208
0.504,-0.007785794272318792
0.508,-0.0077907466241613965
0.512,-0.007795001800259168
0.516,-0.0077956028138323
0.52,-0.007794905638087467
0.524,-0.0077898811646160875
0.528,-0.007794569070486514
0.532,-0.00779829535463993
0.536,-0.007799281016899865
0.54,-0.007799737787215445
0.544,-0.0078010600170763346
0.548,-0.007802286084765523
0.552,-0.007794857557001616
0.556,-0.007793294921711475
0.56,-0.007793030475739296
0.5640000000000001,-0.007797381814008769
0.5680000000000001,-0.007792549664880791
0.5720000000000001,-0.0077931266379109975
0.5760000000000001,-0.007795170084059645
0.58,-0.00779473735428699
0.584,-0.007796131705776655
0.588,-0.007798535760069182
0.592,-0.007797502016723396
0.596,-0.007798247273554079
0.6,-0.007799930111558847
0.604,-0.007800459003503203
0.608,-0.007802622652366476
0.612,-0.007797694341066798
0.616,-0.007798054949210677
0.62,-0.007802863057795729
0.624,-0.007801925476621644
0.628,-0.007796444232834684
0.632,-0.00779610766523373
0.636,-0.0077971654491224415
0.64,-0.007794256543428485
0.644,-0.007793847854198756
0.648,-0.007796155746319581
0.652,-0.007794809475915766
0.656,-0.0077940882596280086
0.66,-0.007794208462342634
0.664,-0.007794665232658215
0.668,-0.007795554732746449
0.672,-0.007798631922240883
0.676,-0.007796011503062029
0.68,-0.007794496948857738
0.684,-0.007794376746143111
0.6880000000000001,-0.0077989204087559865
0.6920000000000001,-0.0077970933274936665
0.6960000000000001,-0.007795410489488897
0.7000000000000001,-0.007795795138175702
0.704,-0.007794208462342634
0.708,-0.007792237137822763
0.712,-0.0077966125166351605
0.716,-0.007793583408226577
0.72,-0.007798824246584285
0.724,-0.007799377179071566
0.728,-0.007790001367330713
0.732,-0.007790097529502414
0.736,-0.007792285218908614
0.74,-0.007792309259451539
0.744,-0.007795434530031823
0.748,-0.0077966125166351605
0.752,-0.007796540395006385
0.756,-0.007793439164969026
0.76,-0.007794160381256784
0.764,-0.007794929678630392
0.768,-0.007796708678806862
0.772,-0.00779976182775837
0.776,-0.007795386448945972
0.78,-0.007793631489312428
0.784,-0.007791515921535005
0.788,-0.007796203827405431
0.792,-0.0077956028138323
0.796,-0.007796997165321965
0.8,-0.007800266679159801
0.804,-0.007801661030649466
0.808,-0.007801276381962662
0.812,-0.00779976182775837
0.8160000000000001,-0.007798103030296527
0.8200000000000001,-0.007795410489488897
0.8240000000000001,-0.007797021205864891
0.8280000000000001,-0.007797838584324349
0.8320000000000001,-0.007798848287127211
0.836,-0.007792693908138343
0.84,-0.0077949537191733176
0.844,-0.007793631489312428
0.848,-0.007791828448593033
0.852,-0.0077909870295906495
0.856,-0.0077923332999944635
0.86,-0.007788102164439618
0.864,-0.0077826690017385085
0.868,-0.007786275083177298
0.872,-0.007792766029767119
0.876,-0.0077942325028855595
0.88,-0.0077933670433402505
0.884,-0.007784664366801305
0.888,-0.007788030042810842
0.892,-0.007791828448593033
0.896,-0.007794977759716243
0.9,-0.007791347637734528
0.904,-0.007791756326964257
0.908,-0.007792189056736913
0.912,-0.007792741989224194
0.916,-0.0077942325028855595
0.92,-0.007793030475739296
0.924,-0.007793246840625624
0.928,-0.007790914907961874
0.932,-0.007788895502356151
0.936,-0.007787092461636756
0.9400000000000001,-0.0077890878266995535
0.9440000000000001,-0.007795049881345019
0.9480000000000001,-0.00779473735428699
0.9520000000000001,-0.007793078556825147
0.9560000000000001,-0.0077920207729364355
0.96,-0.007789496515929283
0.964,-0.007790602380903845
0.968,-0.007790890867418948
0.972,-0.007791636124249632
0.976,-0.0077979587870389755
0.98,-0.007799569503414968
0.984,-0.0077984395978974805
0.988,-0.007793006435196371
0.992,-0.007798872327670136
0.996,-0.007798559800612107
1.0,-0.007795723016546926
1.004,-0.007792429462166165
1.008,-0.007792501583794941
1.012,-0.007795097962430869
1.016,-0.007798030908667751
1.02,-0.007801204260333886
1.024,-0.007803968922770291
1.028,-0.0078024062874801495
1.032,-0.007798175151925303
1.036,-0.007801492746848989
1.04,-0.007807502882580305
1.044,-0.007805387314802882
1.048,-0.007803728517341039
1.052,-0.007804666098515124
1.056,-0.007797381814008769
1.06,-0.007797381814008769
1.064,-0.007799569503414968
1.068,-0.007801324463048513
1.072,-0.007801564868477765
1.076,-0.007802502449651851
1.08,-0.007795410489488897
1.084,-0.0077997858683012955
1.088,-0.007807911571810035
1.092,-0.0078056517607750595
1.096,-0.007808777031355344
1.1,-0.007805627720232134
1.104,-0.007803968922770291
1.108,-0.007807695206923707
1.112,-0.007802382246937224
1.116,-0.007797622219438022
1.12,-0.007799857989930071
1.124,-0.007801228300876812
1.1280000000000001,-0.007800915773818783
1.1320000000000001,-0.007803247706482533
1.1360000000000001,-0.0078043776120000205
1.1400000000000001,-0.007801204260333886
1.1440000000000001,-0.007803896801141515
1.1480000000000001,-0.007803247706482533
1.1520000000000001,-0.007800242638616875
1.156,-0.007801204260333886
1.16,-0.007801733152278242
1.164,-0.007803584274083487
1.168,-0.0078047863012297505
1.172,-0.007804329530914171
1.176,-0.007806252774348191
1.18,-0.0078053392337170315
1.184,-0.007801709111735317
1.188,-0.00780524307154533
1.192,-0.007804209328199544
1.196,-0.007800362841331502
1.2,-0.007803992963313217
1.204,-0.007806901869007173
1.208,-0.007805219031002405
1.212,-0.007802526490194776
1.216,-0.007799281016899865
1.22,-0.0077989204087559865
1.224,-0.007799208895271089
1.228,-0.007802021638793345
1.232,-0.007798343435725779
1.236,-0.007799040611470612
1.24,-0.007802646692909402
1.244,-0.007799377179071566
1.248,-0.007795290286774272
1.252,-0.00779382381365583
1.256,-0.007798631922240883
1.26,-0.007800771530561231
1.264,-0.007800771530561231
1.268,-0.007805531558060434
1.272,-0.0078043776120000205
1.276,-0.00780204567933627
1.28,-0.007803728517341039
1.284,-0.007801564868477765
1.288,-0.007799281016899865
1.292,-0.0077986800033267335
1.296,-0.007801925476621644
1.3,-0.007802790936166953
1.304,-0.007802478409108925
1.308,-0.007799833949387146
1.312,-0.00779925697635694
1.316,-0.007802189922593822
1.32,-0.0078036804362551886
1.324,-0.007801901436078719
1.328,-0.0078025505307377
1.332,-0.007805146909373629
1.336,-0.007806084490547715
1.34,-0.007803127503767908
1.344,-0.007804329530914171
1.348,-0.007805315193174106
1.352,-0.007805988328376014
1.356,-0.007807334598779829
1.36,-0.007815388180659792
1.364,-0.007812455234422909
1.368,-0.007805363274259957
1.372,-0.007807959652895885
1.3760000000000001,-0.007803944882227366
1.3800000000000001,-0.007804690139058049
1.3840000000000001,-0.007807262477151053
1.3880000000000001,-0.007804906503944377
1.3920000000000001,-0.007806469139234519
1.3960000000000001,-0.0078096184503577285
1.4000000000000001,-0.00781118108564787
1.4040000000000001,-0.007806493179777444
1.408,-0.007805435395888733
1.412,-0.007806517220320369
1.416,-0.00780519499045948
1.42,-0.007806421058148668
1.424,-0.0078077913690954084
1.428,-0.007804209328199544
1.432,-0.007805771963489686
1.436,-0.007807406720408604
1.44,-0.007805411355345807
1.444,-0.007803848720055665
1.448,-0.007805555598603358
1.452,-0.0078053392337170315
1.456,-0.007801973557707494
1.46,-0.007813657261569172
1.464,-0.007816950815949934
1.468,-0.0078077913690954084
1.472,-0.007806252774348191
1.476,-0.007808079855610511
1.48,-0.007808368342125615
1.484,-0.007808440463754391
1.488,-0.007805411355345807
1.492,-0.007806012368918939
1.496,-0.007807190355522277
1.5,-0.007809137639499223
1.504,-0.007813032207453116
1.508,-0.00781351301831162
1.512,-0.007811782099221002
1.516,-0.0078104839099030375
1.52,-0.007812262910079507
1.524,-0.007812527356051684
1.528,-0.007810267545016711
1.532,-0.007808224098868063
1.536,-0.00781021946393086
1.54,-0.007810147342302084
1.544,-0.007812527356051684
1.548,-0.007813801504826724
1.552,-0.007813585139940397
1.556,-0.007814450599485706
1.56,-0.007813440896682846
1.564,-0.007817816275495243
1.568,-0.007817191221379187
1.572,-0.007812166747907806
1.576,-0.00781488332925836
1.58,-0.007810628153160589
1.584,-0.007809546328728953
1.588,-0.00781255139659461
1.592,-0.007813296653425294
1.596,-0.00781255139659461
1.6,-0.00781711909975041
1.604,-0.007817431626808438
1.608,-0.00781447464002863
1.612,-0.007812695639852162
1.616,-0.007808055815067586
1.62,-0.007804642057972199
1.624,-0.007806469139234519
1.6280000000000001,-0.007806348936519892
1.6320000000000001,-0.007804978625573152
1.6360000000000001,-0.0078085125853831665
1.6400000000000001,-0.0078043776120000205
1.6440000000000001,-0.007805796004032611
1.6480000000000001,-0.0078082721799539135
1.6520000000000001,-0.007811157045104945
1.6560000000000001,-0.007808416423211465
1.6600000000000001,-0.007809233801670924
1.6640000000000001,-0.007810099261216234
1.668,-0.007809161680042148
1.672,-0.007805387314802882
1.676,-0.0078045458958004976
1.68,-0.007803488111911786
1.684,-0.00780062728730368
1.688,-0.007800819611647082
1.692,-0.007800170516988099
1.696,-0.007802766895624028
1.7,-0.007800699408932456
1.704,-0.007804858422858526
1.708,-0.007801973557707494
1.712,-0.007803800638969814
1.716,-0.007803175584853757
1.72,-0.007804137206570768
1.724,-0.007803464071368861
1.728,-0.007801829314449943
1.732,-0.007805026706659003
1.736,-0.007805747922946761
1.74,-0.007808320261039764
1.744,-0.007813633221026248
1.748,-0.007813320693968218
1.752,-0.007807671166380782
1.756,-0.007804329530914171
1.76,-0.007800819611647082
1.764,-0.007803968922770291
1.768,-0.007811517653248824
1.772,-0.00780606045000479
1.776,-0.007805435395888733
1.78,-0.007809137639499223
1.784,-0.007802766895624028
1.788,-0.00779747797618047
1.792,-0.007800987895447559
1.796,-0.007800362841331502
1.8,-0.007800483044046128
1.804,-0.007806541260863295
1.808,-0.007799809908844221
1.812,-0.007798968489841836
1.816,-0.0077984395978974805
1.82,-0.0078011321387051104
1.824,-0.00780154082793484
1.828,-0.00780021859807395
1.832,-0.007799954152101773
1.836,-0.007804593976886348
1.84,-0.007807286517693978
1.844,-0.007808007733981735
1.848,-0.007808151977239287
1.852,-0.007813224531796517
1.856,-0.007809281882756774
1.86,-0.007806397017605743
1.864,-0.007805627720232134
1.868,-0.007805170949916554
1.872,-0.007809041477327522
1.8760000000000001,-0.007812743720938013
1.8800000000000001,-0.00780798369343881
1.8840000000000001,-0.007805868125661387
1.8880000000000001,-0.007808993396241672
1.8920000000000001,-0.007809185720585073
1.8960000000000001,-0.007810940680218618
1.9000000000000001,-0.007812166747907806
1.9040000000000001,-0.007811349369448347
1.9080000000000001,-0.007812118666821956
1.9120000000000001,-0.007808752990812419
1.9160000000000001,-0.00781204654519318
1.92,-0.007815508383374418
1.924,-0.007812190788450731
1.928,-0.007806300855434042
1.932,-0.0078075509636661555
1.936,-0.007815676667174894
1.94,-0.007811349369448347
1.944,-0.007814210194056453
1.948,-0.007812359072251208
1.952,-0.007810027139587458
1.956,-0.007810147342302084
1.96,-0.007805146909373629
1.964,-0.007799184854728164
1.968,-0.007800410922417352
1.972,-0.007804089125484918
1.976,-0.007804089125484918
1.98,-0.0078081038961534364
1.984,-0.0078081038961534364
1.988,-0.007801180219790961
1.992,-0.007808464504297316
1.996,-0.007806613382492071
2.0,-0.007803007301053281
2.004,-0.007807767328552483
2.008,-0.007806012368918939
2.012,-0.007805531558060434
2.016,-0.007807502882580305
2.02,-0.007810580072074739
2.024,-0.007809161680042148
2.028,-0.007803055382139132
2.032,-0.007803295787568384
2.036,-0.007802935179424505
2.04,-0.007801925476621644
2.044,-0.007806901869007173
2.048,-0.007799401219614492
2.052,-0.0078016850711923914
2.056,-0.007806469139234519
2.06,-0.007800651327846605
2.064,-0.007799569503414968
2.068,-0.007803968922770291
2.072,-0.007797766462695573
2.076,-0.007801420625220213
2.08,-0.0078110368423903185
2.084,-0.007805531558060434
2.088,-0.007806613382492071
2.092,-0.007804666098515124
2.096,-0.0078110368423903185
2.1,-0.007805627720232134
2.104,-0.007799208895271089
2.108,-0.007800939814361708
2.112,-0.0078043776120000205
2.116,-0.007804666098515124
2.12,-0.007802478409108925
2.124,-0.007801925476621644
2.128,-0.007799617584500818
2.132,-0.007798175151925303
2.136,-0.007805170949916554
2.14,-0.007808608747554867
2.144,-0.007807454801494454
2.148,-0.007806324895976967
2.152,-0.0078061325716335655
2.156,-0.0078024062874801495
2.16,-0.00779976182775837
2.164,-0.007799425260157417
2.168,-0.007804449733628796
2.172,-0.007806228733805266
2.176,-0.007799857989930071
2.18,-0.0077968529220644135
2.184,-0.00779880020604136
2.188,-0.007802814976709879
2.192,-0.007801661030649466
2.196,-0.0078013004225055875
2.2,-0.007806493179777444
2.204,-0.0078018533549928685
2.208,-0.007797838584324349
2.212,-0.00779829535463993
2.216,-0.007801204260333886
2.22,-0.0078025505307377
2.224,-0.007804642057972199
2.228,-0.007803752557883964
2.232,-0.007796925043693189
2.236,-0.007795434530031823
2.24,-0.007792910273024671
2.244,-0.007796083624690805
2.248,-0.0078016129495636155
2.2520000000000002,-0.007798415557354555
2.2560000000000002,-0.007795482611117673
2.2600000000000002,-0.0077947133137440654
2.2640000000000002,-0.007796925043693189
2.2680000000000002,-0.0078018533549928685
2.2720000000000002,-0.007804161247113694
2.2760000000000002,-0.007796901003150264
2.2800000000000002,-0.007793487246054877
2.2840000000000003,-0.007793246840625624
2.2880000000000003,-0.007789857124073162
2.2920000000000003,-0.007791828448593033
2.2960000000000003,-0.0077940882596280086
2.3000000000000003,-0.007798175151925303
2.3040000000000003,-0.007796636557178086
2.308,-0.007790145610588265
2.312,-0.00779062642144677
2.316,-0.007792766029767119
2.32,-0.007793246840625624
2.324,-0.007796203827405431
2.328,-0.0077968529220644135
2.332,-0.007794617151572364
2.336,-0.0077978866654101996
2.34,-0.0077985117195262564
2.344,-0.007796011503062029
2.348,-0.007797526057266321
2.352,-0.0078013004225055875
2.356,-0.007798752124955509
2.36,-0.007794809475915766
2.364,-0.007798776165498435
2.368,-0.007804329530914171
2.372,-0.007794593111029439
2.376,-0.007790482178189219
2.38,-0.007795530692203524
2.384,-0.007797333732922919
2.388,-0.0077962999895771325
2.392,-0.007796324030120058
2.396,-0.007797045246407816
2.4,-0.007799569503414968
2.404,-0.007799088692556463
2.408,-0.007795723016546926
2.412,-0.007792717948681268
2.416,-0.007791107232305276
2.42,-0.007797453935637545
2.424,-0.007794881597544542
2.428,-0.007786659731864102
2.432,-0.007791155313391126
2.436,-0.007793343002797325
2.44,-0.00778651548860655
2.444,-0.007787477110323561
2.448,-0.007789063786156628
2.452,-0.007788895502356151
2.456,-0.007788390650954721
2.46,-0.007795434530031823
2.464,-0.007793727651484129
2.468,-0.0077946411921152895
2.472,-0.007791900570221809
2.476,-0.007790938948504799
2.48,-0.0077907466241613965
2.484,-0.0077925737054237165
2.488,-0.007795915340890329
2.492,-0.00779651635446346
2.496,-0.007796997165321965
2.5,-0.007795698976004001
2.504,-0.007797381814008769
2.508,-0.007800507084589054
2.512,-0.007798896368213061
2.516,-0.007795674935461076
2.52,-0.007790386016017518
2.524,-0.007790818745790172
2.528,-0.00779930505744279
2.532,-0.007799882030472997
2.536,-0.007796828881521488
2.54,-0.00779656443554931
2.544,-0.0077911312728482
2.548,-0.007794352705600186
2.552,-0.007791419759363304
2.556,-0.007792934313567595
2.56,-0.007796804840978563
2.564,-0.0077976462599809475
2.568,-0.0077951941246025705
2.572,-0.007796997165321965
2.576,-0.007794352705600186
2.58,-0.0077940882596280086
2.584,-0.007791443799906229
2.588,-0.007792910273024671
2.592,-0.007793198759539773
2.596,-0.007794184421799709
2.6,-0.00779199673239351
2.604,-0.007793799773112905
2.608,-0.0077976462599809475
2.612,-0.007798006868124826
2.616,-0.007788558934755198
2.62,-0.007790674502532621
2.624,-0.007789809042987312
2.628,-0.007790722583618471
2.632,-0.007791515921535005
2.636,-0.0077867078129499525
2.64,-0.007784472042457903
2.644,-0.007786635691321177
2.648,-0.007787140542722607
2.652,-0.007784712447887155
2.656,-0.007786779934578728
2.66,-0.007783606582912593
2.664,-0.007784760528973006
2.668,-0.007790145610588265
2.672,-0.007791732286421332
2.676,-0.007789568637558059
2.68,-0.007788198326611318
2.684,-0.007785818312861717
2.688,-0.007785842353404643
2.692,-0.007786395285891924
2.696,-0.00778336617748334
2.7,-0.007785217299288586
2.704,-0.007783630623455519
2.708,-0.007782019907079526
2.712,-0.007785313461460287
2.716,-0.007788102164439618
2.72,-0.007784015272142323
2.724,-0.0077879819617249916
2.728,-0.007786106799376821
2.732,-0.0077829815287965365
2.736,-0.0077841835559428
2.74,-0.007788222367154244
2.744,-0.007789111867242479
2.748,-0.007789135907785404
2.7520000000000002,-0.007785674069604166
2.7560000000000002,-0.007786082758833896
2.7600000000000002,-0.007789905205159013
2.7640000000000002,-0.007786419326434849
2.7680000000000002,-0.007782909407167761
2.7720000000000002,-0.007783053650425312
2.7760000000000002,-0.007785529826346615
2.7800000000000002,-0.007783654663998444
2.7840000000000003,-0.007783510420740892
2.7880000000000003,-0.007786419326434849
2.7920000000000003,-0.007786635691321177
2.7960000000000003,-0.007782933447710686
2.8000000000000003,-0.007781202528620067
2.8040000000000003,-0.007782933447710686
2.8080000000000003,-0.007787909840096216
2.8120000000000003,-0.007792357340537389
2.816,-0.00778879934018445
2.82,-0.007790794705247247
2.824,-0.007791059151219425
2.828,-0.007786996299465055
2.832,-0.007786900137293355
2.836,-0.0077889195428990764
2.84,-0.007792886232481745
2.844,-0.00778966479972976
2.848,-0.007783582542369668
2.852,-0.007790001367330713
2.856,-0.007791756326964257
2.86,-0.007790001367330713
2.864,-0.007789448434843432
2.868,-0.007789183988871255
2.872,-0.007787933880639141
2.876,-0.0077844960830008286
2.88,-0.007782308393594629
2.884,-0.007785024974945184
2.888,-0.007788174286068393
2.892,-0.0077841835559428
2.896,-0.007788751259098599
2.9,-0.007795218165145496
2.904,-0.007786275083177298
2.908,-0.007782308393594629
2.912,-0.007785722150690016
2.916,-0.007780673636675711
2.92,-0.007782332434137554
2.924,-0.0077827411233672835
2.928,-0.007782140109794152
2.932,-0.0077818997043649
2.936,-0.007781202528620067
2.94,-0.0077828132449960594
2.944,-0.007783895069427697
2.948,-0.007782620920652658
2.952,-0.00778286132608191
2.956,-0.007781587177306871
2.96,-0.0077818997043649
2.964,-0.007781779501650273
2.968,-0.0077827411233672835
2.972,-0.007784952853316408
2.976,-0.007786635691321177
2.98,-0.007790361975474593
2.984,-0.007790674502532621
2.988,-0.007793871894741681
2.992,-0.007789833083530237
2.996,-0.0077924054216232394
3.0,-0.0077859144750334185
3.004,-0.007786034677748045
3.008,-0.007782957488253611
3.012,-0.007779303325728971
3.016,-0.007780890001562039
3.02,-0.007780337069074757
3.024,-0.007781971825993676
3.028,-0.007783173853139939
3.032,-0.007782140109794152
3.036,-0.007779928379845028
3.04,-0.007781491015135171
3.044,-0.007779928379845028
3.048,-0.007779567771701149
3.052,-0.007777933014782231
3.056,-0.007781659298935647
3.06,-0.007785073056031035
3.064,-0.007784207596485725
3.068,-0.007779928379845028
3.072,-0.007783005569339462
3.076,-0.007781659298935647
3.08,-0.007784664366801305
3.084,-0.007781827582736124
3.088,-0.007776610784921342
3.092,-0.007779014839213868
3.096,-0.007783173853139939
3.1,-0.007782019907079526
3.104,-0.007781611217849796
3.108,-0.007780745758304487
3.112,-0.007779135041928494
3.116,-0.007780457271789384
3.12,-0.007780890001562039
3.124,-0.007780769798847413
3.128,-0.007783943150513547
3.132,-0.007781370812420544
3.136,-0.007781298690791768
3.14,-0.007776755028178893
3.144,-0.0077779810958680815
3.148,-0.007780144744731356
3.152,-0.007783967191056472
3.156,-0.00778555386688954
3.16,-0.007788582975298123
3.164,-0.0077854336641749134
3.168,-0.007783606582912593
3.172,-0.007782140109794152
3.176,-0.007776947352522295
3.18,-0.007774278852257592
3.184,-0.007784952853316408
3.188,-0.007782572839566807
3.192,-0.00778327001531164
3.196,-0.00778879934018445
3.2,-0.007788991664527852
3.204,-0.007783462339655042
3.208,-0.007778173420211484
3.212,-0.007775937649719435
3.216,-0.007780409190703533
3.22,-0.007777740690438829
3.224,-0.0077752885550604525
3.228,-0.0077787023121558396
3.232,-0.007782116069251227
3.236,-0.007784375880286202
3.24,-0.007784448001914978
3.244,-0.007780216866360132
3.248,-0.00777641846057794
3.2520000000000002,-0.007777884933696381
3.2560000000000002,-0.007777500285009576
3.2600000000000002,-0.007777019474151071
3.2640000000000002,-0.007775913609176509
3.2680000000000002,-0.007777620487724203
3.2720000000000002,-0.007773317230540581
3.2760000000000002,-0.007773100865654253
3.2800000000000002,-0.007771177622220233
3.2840000000000003,-0.007770432365389549
3.2880000000000003,-0.00777326914945473
3.2920000000000003,-0.007775625122661406
3.2960000000000003,-0.007772740257510374
3.3000000000000003,-0.007773172987283029
3.3040000000000003,-0.007774038446828339
3.3080000000000003,-0.00776682628395076
3.3120000000000003,-0.007767691743496069
3.3160000000000003,-0.007771369946563634
3.3200000000000003,-0.007771153581677307
3.3240000000000003,-0.007771970960136766
3.3280000000000003,-0.007773557635969834
3.332,-0.007774038446828339
3.336,-0.0077750481496311995
3.34,-0.007772644095338673
3.344,-0.007771129541134382
3.348,-0.007775024109088274
3.352,-0.007777644528267128
3.356,-0.007774687541487321
3.36,-0.007774086527914189
3.364,-0.007774038446828339
3.368,-0.007776346338949164
3.372,-0.007774855825287798
3.376,-0.007775649163204331
3.38,-0.007772235406108944
3.384,-0.0077744952171439185
3.388,-0.007775360676689228
3.392,-0.007779014839213868
3.396,-0.0077832219342257895
3.4,-0.007782212231422928
3.404,-0.007779159082471419
3.408,-0.007776202095691612
3.412,-0.007774951987459498
3.416,-0.007777332001209099
3.42,-0.007783342136940415
3.424,-0.007773317230540581
3.428,-0.007768557203041379
3.432,-0.0077752885550604525
3.436,-0.007779736055501626
3.44,-0.007777524325552502
3.444,-0.007777332001209099
3.448,-0.007779159082471419
3.452,-0.007777692609352979
3.456,-0.007776755028178893
3.46,-0.007783630623455519
3.464,-0.007777091595779847
3.468,-0.007776899271436445
3.472,-0.007776442501120865
3.476,-0.0077784619067265874
3.48,-0.007778894636499242
3.484,-0.007776682906550118
3.488,-0.007775408757775079
3.492,-0.007777139676865698
3.496,-0.0077802889879889075
3.5,-0.0077832219342257895
3.504,-0.007783029609882387
3.508,-0.0077809140421049635
3.512,-0.00777728392012325
3.516,-0.007771273784391934
3.52,-0.0077678359867536205
3.524,-0.0077758414875477334
3.528,-0.007777933014782231
3.532,-0.007772571973709897
3.536,-0.007771129541134382
3.54,-0.007764878999973813
3.544,-0.007767259013723414
3.548,-0.00777002367615982
3.552,-0.007768220635440425
3.556,-0.007766032946034226
3.56,-0.007762931715996867
3.564,-0.0077678359867536205
3.568,-0.007763773134999251
3.572,-0.007760359377903864
3.576,-0.0077613450401638
3.58,-0.007766225270377628
3.584,-0.007766201229834703
3.588,-0.007767619621867294
3.592,-0.007765023243231365
3.596,-0.007775697244290182
3.6,-0.007778365744554886
3.604,-0.0077683889192409015
3.608,-0.00776184989156523
3.612,-0.0077707689329905025
3.616,-0.007768004270554098
3.62,-0.007767763865124845
3.624,-0.007766225270377628
3.628,-0.007764854959430888
3.632,-0.007764470310744084
3.636,-0.007763628891741699
3.64,-0.0077651434459459915
3.644,-0.007763508689027073
3.648,-0.007764229905314831
3.652,-0.007765311729746468
3.656,-0.007764566472915785
3.66,-0.007763845256628027
3.664,-0.0077599026075882835
3.668,-0.0077624509051383616
3.672,-0.007763701013370475
3.676,-0.007765744459519123
3.68,-0.0077678359867536205
3.684,-0.007767066689380013
3.688,-0.007765552135175721
3.692,-0.007769398622043763
3.696,-0.007773918244113712
3.7,-0.007768749527384781
3.704,-0.007767042648837087
3.708,-0.007768028311097023
3.712,-0.0077635567701129235
3.716,-0.0077614171617925755
3.72,-0.007764878999973813
3.724,-0.007776658866007193
3.728,-0.007770504487018325
3.732,-0.0077675234596955925
3.736,-0.007772980662939627
3.74,-0.007770696811361727
3.744,-0.007771995000679691
3.748,-0.007773052784568403
3.7520000000000002,-0.007770672770818802
3.7560000000000002,-0.007769086094985734
3.7600000000000002,-0.007766321432549329
3.7640000000000002,-0.007767259013723414
3.7680000000000002,-0.007766706081236133
3.7720000000000002,-0.007765720418976198
3.7760000000000002,-0.007762787472739316
3.7800000000000002,-0.007766105067663002
3.7840000000000003,-0.0077672830542663395
3.7880000000000003,-0.00776870144629893
3.7920000000000003,-0.007767499419152667
3.7960000000000003,-0.007765600216261571
3.8000000000000003,-0.007766537797435656
3.8040000000000003,-0.007765383851375244
3.8080000000000003,-0.007766994567751237
3.8120000000000003,-0.007764253945857756
3.8160000000000003,-0.0077669705272083115
3.8200000000000003,-0.007763436567398298
3.8240000000000003,-0.007756801377550925
3.8280000000000003,-0.007760792107676519
3.8320000000000003,-0.007764157783686055
3.8360000000000003,-0.007762018175365707
3.84,-0.007758820783156647
3.844,-0.007761104634734547
3.848,-0.007767715784038994
3.852,-0.007771225703306083
3.856,-0.00776413374314313
3.86,-0.007761825851022305
3.864,-0.007765528094632795
3.868,-0.0077660089054913005
3.872,-0.0077678359867536205
3.876,-0.0077675234596955925
3.88,-0.007771826716879215
3.884,-0.007767259013723414
3.888,-0.007764253945857756
3.892,-0.0077641097026002045
3.896,-0.0077689418517281825
3.9,-0.007769807311273492
3.904,-0.007765071324317216
3.908,-0.0077656963784332724
3.912,-0.0077686293246701545
3.916,-0.007762186459166184
3.92,-0.007759662202159031
3.924,-0.007765480013546945
3.928,-0.007766153148748852
3.932,-0.0077667301217790585
3.936,-0.007766441635263956
3.94,-0.007767355175895115
3.944,-0.007766081027120076
3.948,-0.00776322020251197
3.952,-0.007762835553825166
3.956,-0.007764398189115308
3.96,-0.007772884500767926
3.964,-0.00777829362292611
3.968,-0.0077635567701129235
3.972,-0.00776002281030291
3.976,-0.007759638161616106
3.98,-0.007767667702953144
3.984,-0.0077924054216232394
3.988,-0.0078050988282877785
3.992,-0.007768340838155051
3.996,-0.007737617024296565
4.0,-0.007747113038752044
4.0040000000000004,-0.007765431932461094
4.008,-0.007769086094985734
4.0120000000000005,-0.007766225270377628
4.016,-0.007770312162674923
4.0200000000000005,-0.007777884933696381
4.024,-0.007769302459872062
4.0280000000000005,-0.007763749094456326
4.032,-0.007763148080883194
4.0360000000000005,-0.007760816148219444
4.04,-0.007765480013546945
4.0440000000000005,-0.007769278419329137
4.048,-0.007770817014076353
4.0520000000000005,-0.007769230338243286
4.056,-0.007769062054442809
4.0600000000000005,-0.007769398622043763
4.064,-0.007770672770818802
4.0680000000000005,-0.007772932581853777
4.072,-0.007778269582383185
4.0760000000000005,-0.007772788338596225
4.08,-0.007771995000679691
4.0840000000000005,-0.007769711149101791
4.088,-0.007770312162674923
4.0920000000000005,-0.00776778790566777
4.096,-0.007765552135175721
4.1,-0.007767763865124845
4.104,-0.007766153148748852
4.108,-0.007764638594544561
4.112,-0.007763580810655849
4.116,-0.00776418182422898
4.12,-0.007769999635616895
4.124,-0.007770432365389549
4.128,-0.007768557203041379
4.132,-0.007766537797435656
4.136,-0.0077656963784332724
4.14,-0.007766922446122461
4.144,-0.007767379216438041
4.148,-0.007766658000150283
4.152,-0.007766922446122461
4.156,-0.007767162851551713
4.16,-0.00776915821661451
4.164,-0.007774783703659022
4.168,-0.007777644528267128
4.172,-0.007770672770818802
4.176,-0.007773437433255207
4.18,-0.007773341271083506
4.184,-0.0077707689329905025
4.188,-0.0077621383780803336
4.192,-0.007761585445593053
4.196,-0.007760263215732163
4.2,-0.007764157783686055
4.204,-0.007767908108382396
4.208,-0.007765119405403066
4.212,-0.0077643501080294575
4.216,-0.007765528094632795
4.22,-0.007768364878697976
4.224,-0.007769206297700361
4.228,-0.007770167919417371
4.232,-0.007767956189468247
4.236,-0.007770792973533428
4.24,-0.0077712497438490085
4.244,-0.0077680763921828735
4.248,-0.007762547067310063
4.252,-0.007764806878345037
4.256,-0.007771634392535812
4.26,-0.007771201662763158
4.264,-0.007768677405756005
4.268,-0.007770696811361727
4.272,-0.007767066689380013
4.276,-0.007766922446122461
4.28,-0.007766585878521507
4.284,-0.007768028311097023
4.288,-0.00777372591977031
4.292,-0.007772091162851392
4.296,-0.007772259446651869
4.3,-0.007770889135705129
4.304,-0.007766585878521507
4.308,-0.007763652932284625
4.312,-0.007765600216261571
4.316,-0.0077675234596955925
4.32,-0.007769999635616895
4.324,-0.007772451770995272
4.328,-0.00777011983833152
4.332,-0.007769230338243286
4.336,-0.007770648730275877
4.34,-0.007779471609529448
4.344,-0.0077784619067265874
4.348,-0.007780409190703533
4.352,-0.007780505352875234
4.356,-0.007780144744731356
4.36,-0.00778153909622102
4.364,-0.007784015272142323
4.368,-0.007788030042810842
4.372,-0.007780721717761562
4.376,-0.007775745325376032
4.38,-0.007774879865830723
4.384,-0.00777728392012325
4.388,-0.007782140109794152
4.392,-0.007779423528443598
4.396,-0.007780505352875234
4.4,-0.007783053650425312
4.404,-0.007785794272318792
4.408,-0.007783702745084295
4.412,-0.007784784569515931
4.416,-0.007784712447887155
4.42,-0.007786948218379205
4.424,-0.007784952853316408
4.428,-0.007784135474856949
4.432,-0.007785024974945184
4.436,-0.007789905205159013
4.44,-0.007789688840272685
4.444,-0.007790073488959489
4.448,-0.007789520556472208
4.452,-0.007797502016723396
4.456,-0.007799401219614492
4.46,-0.007794256543428485
4.464,-0.007792597745966642
4.468,-0.007796155746319581
4.472,-0.007794929678630392
4.476,-0.007794520989400663
4.48,-0.007793751692027054
4.484,-0.007796876962607339
4.488,-0.007797742422152648
4.492,-0.007804834382315601
4.496,-0.007802670733452327
4.5,-0.007801829314449943
4.5040000000000004,-0.0078056517607750595
4.508,-0.007805796004032611
4.5120000000000005,-0.00780793561235296
4.516,-0.007806925909550099
4.5200000000000005,-0.007808921274612896
4.524,-0.007810940680218618
4.5280000000000005,-0.007809666531443579
4.532,-0.007807575004209081
4.5360000000000005,-0.007803704476798114
4.54,-0.007806036409461864
4.5440000000000005,-0.007811493612705899
4.548,-0.007812863923652639
4.5520000000000005,-0.007810556031531813
4.556,-0.0078110368423903185
4.5600000000000005,-0.007819378910785385
4.564,-0.007819715478386339
4.5680000000000005,-0.00781757587006599
4.572,-0.007817551829523066
4.5760000000000005,-0.007817383545722588
4.58,-0.007816878694321157
4.5840000000000005,-0.007818152843096197
4.588,-0.00782173488399206
4.5920000000000005,-0.007823441762539754
4.596,-0.007825509249231328
4.6000000000000005,-0.007825052478915748
4.604,-0.007824860154572346
4.6080000000000005,-0.007825917938461057
4.612,-0.007821085789333078
4.616,-0.007821662762363285
4.62,-0.007825413087059627
4.624,-0.00782493227620112
4.628,-0.007823129235481726
4.632,-0.007829548060442773
4.636,-0.007834428290656602
4.64,-0.007827817141352153
4.644,-0.00783190403364945
4.648,-0.007836111128661371
4.652,-0.007837673763951513
4.656,-0.007834957182600957
4.66,-0.007834596574457078
4.664,-0.007832841614823534
4.668,-0.00783373111491177
4.672,-0.007840270142587442
4.676,-0.007841351967019078
4.68,-0.00783935660195628
4.684,-0.007831423222790944
4.688,-0.007832913736452311
4.692,-0.007841111561589825
4.696,-0.007843371372624799
4.7,-0.007837601642322736
4.704,-0.007837745885580288
4.708,-0.007838130534267093
4.712,-0.007837168912550083
4.716,-0.00784378006185453
4.72,-0.007843082886109697
4.724,-0.00784063075073132
4.728,-0.007842313588736088
4.732,-0.007841856818420508
4.736,-0.007848684332611284
4.74,-0.007853059711423681
4.744,-0.00785661771177662
4.748,-0.007858396711953089
4.752,-0.007856473468519068
4.756,-0.007853732846625588
4.76,-0.00785931025258425
4.764,-0.007864310685512705
4.768,-0.007864358766598556
4.772,-0.007863228861081067
4.776,-0.007865007861257536
4.78,-0.007864575131484882
4.784,-0.007862243198821131
4.788,-0.007863349063795693
4.792,-0.007863829874654199
4.796,-0.007869359199527009
4.8,-0.007871498807847358
4.804,-0.00786971980767089
4.808,-0.007869046672468981
4.812,-0.007864551090941956
4.816,-0.007866233928946725
4.82,-0.007870849713188376
4.824,-0.007873470132367229
4.828,-0.00787041698341572
4.832,-0.007872845078251173
4.836,-0.007876931970548468
4.84,-0.007880225524929228
4.844,-0.007879672592441947
4.848,-0.007879720673527798
4.852,-0.007877701267922076
4.856,-0.007877773389550851
4.86,-0.007882317052163726
4.864,-0.007879816835699499
4.868,-0.007881307349360865
4.872,-0.007879937038414126
4.876,-0.007877821470636702
4.88,-0.007878422484209833
4.884,-0.007878374403123983
4.888,-0.007880033200585826
4.892,-0.007878422484209833
4.896,-0.007878398443666909
4.9,-0.007881403511532567
4.904,-0.007886043336317141
4.908,-0.007883831606368017
4.912,-0.007882461295421278
4.916,-0.00788585101197374
4.92,-0.007886956876948303
4.924,-0.007888399309523819
4.928,-0.007887149201291705
4.932,-0.007885947174145442
4.936,-0.007886403944461022
4.94,-0.007889481133955455
4.944,-0.007890971647616821
4.948,-0.007890899525988045
4.952,-0.00789955412144114
4.956,-0.007892774688336216
4.96,-0.007893592066795675
4.964,-0.0078936161073386
4.968,-0.007890010025899811
4.972,-0.007897654918550044
4.976,-0.007893880553310778
4.98,-0.007891716904447505
4.984,-0.007893447823538123
4.988,-0.007894818134484864
4.992,-0.007897101986062763
4.996,-0.007895371066972145
5.0,-0.00789859249972413
5.0040000000000004,-0.00789909735112556
5.008,-0.007898496337552428
5.0120000000000005,-0.007897029864433988
5.016,-0.007896885621176436
5.0200000000000005,-0.007899409878183588
5.024,-0.007903905459710613
5.0280000000000005,-0.007911309946931594
5.032,-0.007910853176616014
5.0360000000000005,-0.00790544405445783
5.04,-0.007912007122676427
5.0440000000000005,-0.007920325150528568
5.048,-0.007911237825302819
5.0520000000000005,-0.007911285906388668
5.056,-0.007909963676527779
5.0600000000000005,-0.007911766717247174
5.064,-0.007912271568648604
5.0680000000000005,-0.007914290974254326
5.072,-0.007915805528458619
5.0760000000000005,-0.007917969177321892
5.08,-0.007919724136955436
5.0840000000000005,-0.007920204947813942
5.088,-0.007922248393962588
5.0920000000000005,-0.007925421745628724
5.096,-0.00792462840771219
5.1000000000000005,-0.007924820732055592
5.104,-0.00792188778581871
5.1080000000000005,-0.007922584961563542
5.112,-0.007924195677939535
5.1160000000000005,-0.007921406974960205
5.12,-0.007919652015326661
5.124,-0.007927681556663698
5.128,-0.007936023625058766
5.132,-0.007931071273216161
5.136,-0.00792609488083063
5.14,-0.007924388002282937
5.144,-0.007931552084074667
5.148,-0.007935350489856859
5.152,-0.007928955705438738
5.156,-0.007926960340375941
5.16,-0.007928114286436354
5.164,-0.00793174440841807
5.168,-0.007931528043531741
5.172,-0.007929869246069898
5.176,-0.007932994516650183
5.18,-0.00793179248950392
5.184,-0.007933186840993584
5.188,-0.007936215949402168
5.192,-0.007932850273392631
5.196,-0.007932105016561948
5.2,-0.00793559089528611
5.204,-0.007937442017091356
5.208,-0.007930350056928404
5.212,-0.007931167435387862
5.216,-0.007938043030664487
5.22,-0.007941072139073071
5.224,-0.007940399003871163
5.228,-0.00794285113924954
5.232,-0.00794458205834016
5.236,-0.007940302841699462
5.24,-0.007936023625058766
5.244,-0.007934869678998353
5.248,-0.00793604766560169
5.252,-0.007934364827596923
5.256,-0.007940326882242388
5.26,-0.007940615368757491
5.264,-0.007938067071207413
5.268,-0.00793874020640932
5.272,-0.007942658814906137
5.276,-0.007943019423050018
5.28,-0.007943139625764643
5.284,-0.0079392931388966
5.288,-0.007937562219805983
5.292,-0.007942875179792466
5.296,-0.007946601463945881
5.3,-0.007939725868669256
5.304,-0.007939533544325854
5.308,-0.007943788720423626
5.312,-0.007930710665072283
5.316,-0.00792563811051505
5.32,-0.007926840137661316
5.324,-0.007924339921197086
5.328,-0.007918618271980874
5.332,-0.007924772650969742
5.336,-0.007928306610779756
5.34,-0.007931359759731265
5.344,-0.007928210448608055
5.348,-0.00792686417820424
5.352,-0.007926070840287706
5.356,-0.007923979313053208
5.36,-0.007920301109985642
5.364,-0.007915613204115216
5.368,-0.007917055636690732
5.372,-0.007916935433976105
5.376,-0.007918642312523799
5.38,-0.007919676055869585
5.384,-0.007915781487915692
5.388,-0.007921118488445102
5.392,-0.007922128191247962
5.396,-0.00792056555595782
5.4,-0.007919339488268631
5.404,-0.007921575258760681
5.408,-0.007922512839934767
5.412,-0.00791609401497372
5.416,-0.00791147823073207
5.42,-0.007914723704026981
5.424,-0.007918401907094547
5.428,-0.007918666353066725
5.432,-0.007915829569001543
5.436,-0.00791681523126148
5.44,-0.007917945136778966
5.444,-0.007917151798862434
5.448,-0.007920902123558773
5.452,-0.007915613204115216
5.456,-0.007917848974607266
5.46,-0.00792097424518755
5.464,-0.007917488366463386
5.468,-0.007916767150175629
5.472,-0.00791869039360965
5.476,-0.007919219285554006
5.48,-0.007919820299127137
5.484,-0.007921815664189934
5.488,-0.007927465191777372
5.492,-0.007921719502018233
5.496,-0.007920709799215372
5.5,-0.007920613637043671
5.5040000000000004,-0.007918257663836996
5.508,-0.007920854042472924
5.5120000000000005,-0.007919579893697884
5.516,-0.007921647380389456
5.5200000000000005,-0.007920253028899793
5.524,-0.007922176272333813
5.5280000000000005,-0.007925662151057977
5.532,-0.007928835502724111
5.5360000000000005,-0.007923931231967357
5.54,-0.007921863745275785
5.5440000000000005,-0.007923859110338582
5.548,-0.007925830434858453
5.5520000000000005,-0.007926407407888659
5.556,-0.00792010878564224
5.5600000000000005,-0.00792097424518755
5.564,-0.007923113853507899
5.5680000000000005,-0.007924940934770218
5.572,-0.007926335286259883
5.5760000000000005,-0.007922536880477692
5.58,-0.007917560488092163
5.5840000000000005,-0.007918570190895024
5.588,-0.007917921096236041
5.5920000000000005,-0.007921599299303606
5.596,-0.007925517907800425
5.6000000000000005,-0.007918209582751145
5.604,-0.00792097424518755
5.6080000000000005,-0.007922007988533337
5.612,-0.007925469826714574
5.6160000000000005,-0.007928426813494382
5.62,-0.00792006070455639
5.6240000000000006,-0.007921214650616803
5.628,-0.007921190610073877
5.632,-0.007926335286259883
5.636,-0.007925950637573079
5.64,-0.007923835069795656
5.644,-0.007916214217688348
5.648,-0.00791736816374876
5.652,-0.007922200312876737
5.656,-0.007921863745275785
5.66,-0.007917223920491209
5.664,-0.007912343690277381
5.668,-0.007914723704026981
5.672,-0.00791832978546577
5.676,-0.007920998285730474
5.68,-0.007920373231614418
5.684,-0.00792609488083063
5.688,-0.007922633042649393
5.692,-0.0079232100156796
5.696,-0.007922512839934767
5.7,-0.007922272434505514
5.704,-0.007929412475754318
5.708,-0.007928811462181187
5.712,-0.007925109218570694
5.716,-0.007918377866551621
5.72,-0.007921334853331428
5.724,-0.007922657083192319
5.728,-0.007922488799391841
5.732,-0.007917175839405358
5.736,-0.00791832978546577
5.74,-0.007921310812788504
5.744,-0.007919844339670062
5.748,-0.007918498069266247
5.752,-0.007921503137131905
5.756,-0.00792417163739661
5.76,-0.007923330218394226
5.764,-0.007920204947813942
5.768,-0.007920805961387074
5.772,-0.007920781920844147
5.776,-0.007923065772422048
5.78,-0.007921719502018233
5.784,-0.00792289748862157
5.788,-0.007926383367345734
5.792,-0.007929652881183571
5.796,-0.007920950204644624
5.8,-0.007920325150528568
5.804,-0.007919892420755912
5.808,-0.007920854042472924
5.812,-0.007921382934417279
5.816,-0.007925205380742395
5.82,-0.007928619137837784
5.824,-0.007919724136955436
5.828,-0.007915925731173244
5.832,-0.007916598866375153
5.836,-0.007922368596677215
5.84,-0.00791823362329407
5.844,-0.007915877650087394
5.848,-0.007913401474166092
5.852,-0.007915709366286917
5.856,-0.007916166136602497
5.86,-0.007916238258231272
5.864,-0.00792006070455639
5.868,-0.007920373231614418
5.872,-0.00792001262347054
5.876,-0.00791787301515019
5.88,-0.007916646947461003
5.884,-0.007921094447902175
5.888,-0.007917584528635087
5.892,-0.007914555420226505
5.896,-0.007920613637043671
5.9,-0.007921046366816325
5.904,-0.007919820299127137
5.908,-0.007918041298950667
5.912,-0.007914964109456234
5.916,-0.007915300677057188
5.92,-0.007915685325743991
5.924,-0.00792046939378612
5.928,-0.00792294556970742
5.932,-0.007915517041943515
5.936,-0.007914435217511877
5.94,-0.007913930366110447
5.944,-0.007917656650263864
5.948,-0.00791609401497372
5.952,-0.007913593798509495
5.956,-0.007910708933358462
5.96,-0.007911189744216968
5.964,-0.007913521676880718
5.968,-0.00791513239325671
5.972,-0.00791585360954447
5.976,-0.00791412269045385
5.98,-0.007915036231085009
5.984,-0.00791193500104765
5.988,-0.00791280046059296
5.992,-0.007917921096236041
5.996,-0.007920084745099315
6.0,-0.007914050568825074
6.0040000000000004,-0.007915204514885487
6.008,-0.007917921096236041
6.0120000000000005,-0.007925397705085798
6.016,-0.00792284940753572
6.0200000000000005,-0.007924267799568311
6.024,-0.007924315880654162
6.0280000000000005,-0.007920253028899793
6.032,-0.007922416677763066
6.0360000000000005,-0.007924099515767833
6.04,-0.00792198394799041
6.0440000000000005,-0.00792198394799041
6.048,-0.007924267799568311
6.0520000000000005,-0.007928835502724111
6.056,-0.00793143188136004
6.0600000000000005,-0.007930109651499151
6.064,-0.0079299654082416
6.0680000000000005,-0.007923426380565927
6.072,-0.007922512839934767
6.0760000000000005,-0.007928715300009485
6.08,-0.007925854475401378
6.0840000000000005,-0.007922488799391841
6.088,-0.007921406974960205
6.0920000000000005,-0.007919724136955436
6.096,-0.007919363528811557
6.1000000000000005,-0.007917897055693115
6.104,-0.007915565123029366
6.1080000000000005,-0.007923450421108851
6.112,-0.007923738907623955
6.1160000000000005,-0.007920421312700269
6.12,-0.007921623339846532
6.1240000000000006,-0.007925493867257499
6.128,-0.00792691225929009
6.132000000000001,-0.007927465191777372
6.136,-0.007927801759378326
6.140000000000001,-0.00792421971848246
6.144,-0.007932032894933171
6.148,-0.007932874313935556
6.152,-0.007925469826714574
6.156,-0.007921286772245578
6.16,-0.007927296907976895
6.164,-0.007923955272510282
6.168,-0.007924291840111236
6.172,-0.007925397705085798
6.176,-0.007928306610779756
6.18,-0.00793051834072888
6.184,-0.007927248826891045
6.188,-0.007928763381095336
6.192,-0.007925950637573079
6.196,-0.007929869246069898
6.2,-0.007933403205879912
6.204,-0.007930398138014254
6.208,-0.007926575691689136
6.212,-0.007928859543267037
6.216,-0.007934316746511072
6.22,-0.007934196543796446
6.224,-0.007926984380918867
6.228,-0.007928066205350503
6.232,-0.007925301542914097
6.236,-0.007922200312876737
6.24,-0.007925469826714574
6.244,-0.007918089380036518
6.248,-0.007913112987650989
6.252,-0.007918570190895024
6.256,-0.007920902123558773
6.26,-0.00791960393424081
6.264,-0.007914603501312355
6.268,-0.007917127758319507
6.272,-0.007918522109809173
6.276,-0.007919868380212988
6.28,-0.007916478663660525
6.284,-0.007921238691159727
6.288,-0.00792371486708103
6.292,-0.007917055636690732
6.296,-0.007911766717247174
6.3,-0.007915060271627935
6.304,-0.00791777685297849
6.308,-0.007918498069266247
6.312,-0.007917536447549237
6.316,-0.007925181340199471
6.32,-0.007924940934770218
6.324,-0.007924532245540489
6.328,-0.007914411176968953
6.332,-0.00791467562294113
6.336,-0.00791777685297849
6.34,-0.007916935433976105
6.344,-0.007920902123558773
6.348,-0.007917704731349715
6.352,-0.007919652015326661
6.356,-0.007918858677410127
6.36,-0.007918762515238426
6.364,-0.007918089380036518
6.368,-0.0079187384746955
6.372,-0.007917127758319507
6.376,-0.007916166136602497
6.38,-0.007911285906388668
6.384,-0.007915565123029366
6.388,-0.007922368596677215
6.392,-0.007920204947813942
6.396,-0.007919267366639856
6.4,-0.00791558916357229
6.404,-0.007913810163395821
6.408,-0.007915493001400589
6.412,-0.00792417163739661
6.416,-0.007923979313053208
6.42,-0.007920998285730474
6.424,-0.007922729204821094
6.428,-0.00791950777206911
6.432,-0.007917752812435565
6.436,-0.007917247961034135
6.44,-0.007915757447372768
6.444,-0.007922104150705036
6.448,-0.007923089812964973
6.452,-0.007916069974430796
6.456,-0.007922512839934767
6.46,-0.00792727286743397
6.464,-0.007924700529340965
6.468,-0.007920301109985642
6.472,-0.007918618271980874
6.476,-0.007918522109809173
6.48,-0.007917560488092163
6.484,-0.007919724136955436
6.488,-0.007916334420402973
6.492,-0.007915036231085009
6.496,-0.00791152631181792
6.5,-0.007912776420050035
6.5040000000000004,-0.007922488799391841
6.508,-0.007915036231085009
6.5120000000000005,-0.007909891554899004
6.516,-0.007910372365757508
6.5200000000000005,-0.00791280046059296
6.524,-0.007918041298950667
6.5280000000000005,-0.007914531379683579
6.532,-0.007911406109103295
6.5360000000000005,-0.007906838405947495
6.54,-0.007904266067854491
6.5440000000000005,-0.007908617406123964
6.548,-0.007908304879065936
6.5520000000000005,-0.00791147823073207
6.556,-0.00791513239325671
6.5600000000000005,-0.007917344123205834
6.564,-0.007911718636161323
6.5680000000000005,-0.007907463460063551
6.572,-0.007907920230379131
6.5760000000000005,-0.007905660419344157
6.58,-0.007903857378624762
6.5840000000000005,-0.007906381635631916
6.588,-0.007904578594912521
6.5920000000000005,-0.007906549919432392
6.596,-0.007905780622058784
6.6000000000000005,-0.007904458392197894
6.604,-0.007907271135720149
6.6080000000000005,-0.007907006689747972
6.612,-0.007902895756907752
6.6160000000000005,-0.007903953540796463
6.62,-0.007902631310935574
6.6240000000000006,-0.007900395540443524
6.628,-0.007897101986062763
6.632000000000001,-0.007898929067325084
6.636,-0.007899698364698692
6.640000000000001,-0.007902270702791694
6.644,-0.007903616973195509
6.648000000000001,-0.00790371313536721
6.652,-0.007898784824067532
6.656000000000001,-0.007898568459181205
6.66,-0.00790320828396578
6.664,-0.007902463027135096
6.668,-0.007900972513473731
6.672,-0.007892005390962608
6.676,-0.007894505607426834
6.68,-0.007899866648499168
6.684,-0.007901309081074684
6.688,-0.007901910094647815
6.692,-0.007906838405947495
6.696,-0.007898400175380727
6.7,-0.00789717410769154
6.704,-0.007898352094294877
6.708,-0.007898063607779773
6.712,-0.007899674324155767
6.716,-0.00789549126968677
6.72,-0.007896380769775006
6.724,-0.00789676541846181
6.728,-0.007897582796921269
6.732,-0.007898784824067532
6.736,-0.007904073743511089
6.74,-0.00790448243274082
6.744,-0.00790366505428136
6.748,-0.007904266067854491
6.752,-0.007903857378624762
6.756,-0.007903905459710613
6.76,-0.007904867081427623
6.764,-0.007909915595441928
6.768,-0.007903833338081838
6.772,-0.00790416990568279
6.776,-0.007906261432917288
6.78,-0.007902102418991218
6.784,-0.007906886487033346
6.788,-0.007906982649205047
6.792,-0.007904145865139866
6.796,-0.00790416990568279
6.8,-0.007897895323979297
6.804,-0.00790133312161761
6.808,-0.007906886487033346
6.812,-0.007904746878712997
6.816,-0.007904290108397417
6.82,-0.00790174181084734
6.824,-0.007897318350949091
6.828,-0.007898279972666102
6.832,-0.007897150067148613
6.836,-0.007896164404888679
6.84,-0.007896885621176436
6.844,-0.007898520378095355
6.848,-0.00789671733737596
6.852,-0.007893904593853703
6.856,-0.007897847242893446
6.86,-0.007902847675821901
6.864,-0.00790421798676864
6.868,-0.007903400608309182
6.872,-0.007903376567766258
6.876,-0.007898905026782158
6.88,-0.007897654918550044
6.884,-0.007898544418638279
6.888,-0.007897991486150998
6.892,-0.007900708067501552
6.896,-0.007901693729761489
6.9,-0.007900347459357674
6.904,-0.00790138120270346
6.908,-0.007898929067325084
6.912,-0.007900275337728899
6.916,-0.007902679392021425
6.92,-0.007904794959798848
6.924,-0.007901934135190742
6.928,-0.007902943837993602
6.932,-0.007907199014091374
6.936,-0.007908425081780562
6.94,-0.00789909735112556
6.944,-0.007905131527399802
6.948,-0.007901669689218562
6.952,-0.00790087635130203
6.956,-0.00789690966171936
6.96,-0.007893039134308394
6.964,-0.007894914296656565
6.968,-0.00789493833719949
6.972,-0.007894241161454657
6.976,-0.00789544318860092
6.98,-0.007897342391492016
6.984,-0.007897702999635894
6.988,-0.007896020161631127
6.992,-0.007894601769598535
6.996,-0.007897126026605689
7.0,-0.007904193946225716
7.0040000000000004,-0.007898424215923653
7.008,-0.007897053904976912
7.0120000000000005,-0.00789275064779329
7.016,-0.007888255066266267
7.0200000000000005,-0.007886235660660544
7.024,-0.007888567593324295
7.0280000000000005,-0.007892438120735262
7.032,-0.0078981838104944
7.0360000000000005,-0.007898856945696307
7.04,-0.00789772704017882
7.0440000000000005,-0.007897053904976912
7.048,-0.007893904593853703
7.0520000000000005,-0.007895803796744798
7.056,-0.00789270256670744
7.0600000000000005,-0.00789229387747771
7.064,-0.007886139498488843
7.0680000000000005,-0.007891692863904579
7.072,-0.00788763001215021
7.0760000000000005,-0.007885586566001562
7.08,-0.007884384538855298
7.0840000000000005,-0.007882317052163726
7.088,-0.007887413647263882
7.0920000000000005,-0.007887077079662928
7.096,-0.007891091850331447
7.1000000000000005,-0.007889312850154978
7.104,-0.007888158904094566
7.1080000000000005,-0.007890514877301242
7.112,-0.007891091850331447
7.1160000000000005,-0.007886139498488843
7.12,-0.007886476066089797
7.1240000000000006,-0.007891885188247981
7.128,-0.00789183710716213
7.132000000000001,-0.007894721972313163
7.136,-0.007890202350243214
7.140000000000001,-0.00788315847116611
7.144,-0.00788726940400633
7.148000000000001,-0.007889312850154978
7.152,-0.007888206985180416
7.156000000000001,-0.007885105755143057
7.16,-0.007884144133426047
7.164000000000001,-0.007883230592794886
7.168,-0.007884144133426047
7.172,-0.007880105322214602
7.176,-0.007882918065736858
7.18,-0.007883230592794886
7.184,-0.007882533417050053
7.188,-0.00788164391696182
7.192,-0.007884673025370402
7.196,-0.007890082147528586
7.2,-0.007890514877301242
7.204,-0.007895058539914115
7.208,-0.007889168606897427
7.212,-0.007881259268275015
7.216,-0.007880706335787734
7.22,-0.007880297646558005
7.224,-0.007882942106279784
7.228,-0.007883999890168495
7.232,-0.007882918065736858
7.236,-0.007880778457416509
7.24,-0.007883470998224139
7.244,-0.00787849460583861
7.248,-0.007883302714423663
7.252,-0.007886740512061974
7.256,-0.007878590768010311
7.26,-0.007876571362404588
7.264,-0.007878350362581058
7.268,-0.007877148335434795
7.272,-0.007878398443666909
7.276,-0.007880538051987258
7.28,-0.007878975416697114
7.284,-0.00788082653850236
7.288,-0.00787986491678535
7.292,-0.007874095186483287
7.296,-0.007873854781054034
7.3,-0.00787361437562478
7.304,-0.007870753551016674
7.308,-0.007874359632455464
7.312,-0.007879023497782965
7.316,-0.007881163106103314
7.32,-0.00787945622755562
7.324,-0.007879215822126367
7.328,-0.007874479835170091
7.332,-0.007875273173086624
7.336,-0.007876619443490438
7.34,-0.007878254200409357
7.344,-0.007878254200409357
7.348,-0.007875104889286147
7.352,-0.007877292578692347
7.356,-0.007881042903388688
7.36,-0.007878398443666909
7.364,-0.007880586133073108
7.368,-0.0078821006872774
7.372,-0.007878614808553236
7.376,-0.007878350362581058
7.38,-0.007877821470636702
7.384,-0.007876403078604112
7.388,-0.007877340659778197
7.392,-0.007874696200056418
7.396,-0.007869527483327487
7.4,-0.00786976788875674
7.404,-0.007877004092177243
7.408,-0.007884408579398225
7.412,-0.007880153403300453
7.416,-0.007881475633161342
7.42,-0.007881908362933997
7.424,-0.007876739646205066
7.428,-0.007879311984298068
7.432,-0.007878831173439562
7.436,-0.007875056808200297
7.44,-0.00787726853814942
7.444,-0.00787575398394513
7.448,-0.007873301848566753
7.452,-0.007875681862316354
7.456,-0.007876619443490438
7.46,-0.007876114592089008
7.464,-0.00787758106520745
7.468,-0.007877076213806018
7.472,-0.00787539337580125
7.476,-0.007878566727467385
7.48,-0.007873205686395051
7.484,-0.007871402645675657
7.488,-0.007875609740687578
7.492,-0.007875705902859279
7.496,-0.007875417416344175
7.5,-0.007875249132543699
7.5040000000000004,-0.007872724875536547
7.508,-0.007868253334552447
7.5120000000000005,-0.007871210321332254
7.516,-0.00787402306485451
7.5200000000000005,-0.00787387882159696
7.524,-0.007872532551193145
7.5280000000000005,-0.007871498807847358
7.532,-0.00787041698341572
7.5360000000000005,-0.00787488852439982
7.54,-0.007869815969842589
7.5440000000000005,-0.0078684937399817
7.548,-0.007869070713011907
7.5520000000000005,-0.007866378172204277
7.556,-0.007868349496724148
7.5600000000000005,-0.007873422051281378
7.564,-0.007868637983239252
7.5680000000000005,-0.007865272307229715
7.572,-0.00786707534794911
7.5760000000000005,-0.007872364267392667
7.58,-0.00786950344278456
7.5840000000000005,-0.007869118794097758
7.588,-0.007871090118617629
7.5920000000000005,-0.007871378605132732
7.596,-0.007870080415814768
7.6000000000000005,-0.007872460429564368
7.604,-0.007870657388844973
7.6080000000000005,-0.007870152537443543
7.612,-0.007871258402418105
7.6160000000000005,-0.00786803696966612
7.62,-0.007867411915550062
7.6240000000000006,-0.007871162240246404
7.628,-0.007871715172733685
7.632000000000001,-0.00787113819970348
7.636,-0.007872460429564368
7.640000000000001,-0.007873782659425258
7.644,-0.00786666665871938
7.648000000000001,-0.007859911266157382
7.652,-0.007853300116852934
7.656000000000001,-0.007845535021488074
7.66,-0.007841063480503974
7.664000000000001,-0.007843491575339426
7.668,-0.007847818873065973
7.672000000000001,-0.007844861886286166
7.676,-0.007840895196703498
7.68,-0.00784053458855962
7.684,-0.007837577601779812
7.688,-0.007836784263863278
7.692,-0.007837144872007156
7.696,-0.007844381075427662
7.7,-0.007849645954328294
7.704,-0.007850174846272649
7.708,-0.007849141102926864
7.712,-0.007848564129896657
7.716,-0.007850847981474557
7.72,-0.007851809603191567
7.724,-0.007850150805729724
7.728,-0.00785113646798966
7.732,-0.007855127198115253
7.736,-0.007858781360639893
7.74,-0.007859502576927652
7.744,-0.00785834863086724
7.748,-0.007858228428152612
7.752,-0.007864358766598556
7.756,-0.0078617383474197
7.76,-0.007860151671586635
7.764,-0.007861353698732898
7.768,-0.007861305617647047
7.772,-0.007859742982356904
7.776,-0.00785438194128457
7.78,-0.00785128071124721
7.784,-0.007857098522635126
7.788,-0.007863156739452292
7.792,-0.007857435090236078
7.796,-0.00785291546816613
7.8,-0.007855872454945937
7.804,-0.007854670427799674
7.808,-0.007852025968077894
7.812,-0.007852867387080279
7.816,-0.007856785995577096
7.82,-0.007855680130602534
7.824,-0.007855848414403012
7.828,-0.007862002793391878
7.832,-0.007862748050222561
7.836,-0.007864070280083452
7.84,-0.00786291633402304
7.844,-0.007862627847507936
7.848,-0.007867291712835437
7.852,-0.007854093454769468
7.856,-0.007860343995930035
7.86,-0.007860343995930035
7.864,-0.007851448995047689
7.868,-0.007855680130602534
7.872,-0.007860175712129559
7.876,-0.007858733279554043
7.88,-0.007857435090236078
7.884,-0.00785702640100635
7.888,-0.0078546944683426
7.892,-0.00785830054978139
7.896,-0.007861906631220179
7.9,-0.007860199752672483
7.904,-0.007859983387786157
7.908,-0.007862267239364057
7.912,-0.007863805834111273
7.916,-0.007860896928417316
7.92,-0.00786072864461684
7.924,-0.007860392077015886
7.928,-0.00786123349601827
7.932,-0.007862363401535758
7.936,-0.007864358766598556
7.94,-0.007857915901094584
7.944,-0.007864719374742434
7.948,-0.007861113293303645
7.952,-0.007862026833934804
7.956,-0.007860800766245615
7.96,-0.007858180347066762
7.964,-0.007857459130779005
7.968,-0.007855632049516684
7.972,-0.007861137333846569
7.976,-0.00786250764479331
7.98,-0.007859117928240848
7.984,-0.007861161374389495
7.988,-0.007859117928240848
7.992,-0.007852939508709056
7.996,-0.007855896495488863
8.0,-0.007860920968960242
8.004,-0.007860031468872007
8.008000000000001,-0.007862074915020655
8.012,-0.00785443002237042
8.016,-0.007859742982356904
8.02,-0.00786031995538711
8.024000000000001,-0.0078592621714984
8.028,-0.007862363401535758
8.032,-0.00785885348226867
8.036,-0.007860704604073915
8.040000000000001,-0.007861065212217794
8.044,-0.00786291633402304
8.048,-0.007856906198291724
8.052,-0.007852939508709056
8.056000000000001,-0.007858516914667716
8.06,-0.007860368036472961
8.064,-0.007860920968960242
8.068,-0.007858132265980911
8.072000000000001,-0.007854213657484094
8.076,-0.007852771224908578
8.08,-0.00785565609005961
8.084,-0.007856834076662947
8.088000000000001,-0.007851208589618436
8.092,-0.007857411049693154
8.096,-0.007860488239187587
8.1,-0.007858204387609688
8.104000000000001,-0.00786031995538711
8.108,-0.00786118541493242
8.112,-0.00785798802272336
8.116,-0.007854670427799674
8.120000000000001,-0.007856064779289339
8.124,-0.007855583968430833
8.128,-0.007864647253113657
8.132,-0.007868277375095373
8.136000000000001,-0.007863252901623992
8.14,-0.007853227995224157
8.144,-0.007859406414755951
8.148,-0.007858156306523837
8.152000000000001,-0.007856954279377574
8.156,-0.007855103157572329
8.16,-0.00785342031956756
8.164,-0.00785291546816613
8.168000000000001,-0.007857338928064377
8.172,-0.00786291633402304
8.176,-0.007861257536561196
8.18,-0.007858613076839417
8.184000000000001,-0.007859742982356904
8.188,-0.007861618144705075
8.192,-0.007860440158101736
8.196,-0.007864118361169303
8.2,-0.007864310685512705
8.204,-0.00787022465907232
8.208,-0.007874263470283763
8.212,-0.007872845078251173
8.216,-0.007869094753554831
8.22,-0.007871979618705864
8.224,-0.007874167308112062
8.228,-0.0078730614431375
8.232,-0.007868613942696326
8.236,-0.007869527483327487
8.24,-0.007869166875183608
8.244,-0.007867796564236867
8.248,-0.007867652320979315
8.252,-0.007868613942696326
8.256,-0.007865079982886313
8.26,-0.007862026833934804
8.264,-0.007866642618176455
8.268,-0.007865104023429237
8.272,-0.00786844565889585
8.276,-0.007865440591030191
8.28,-0.007864671293656584
8.284,-0.007868253334552447
8.288,-0.007878807132896638
8.292,-0.007875994389374382
8.296,-0.007874263470283763
8.3,-0.007872580632278995
8.304,-0.007876956011091393
8.308,-0.007877821470636702
8.312,-0.007874527916255942
8.316,-0.007874744281142269
8.32,-0.00787945622755562
8.324,-0.007879311984298068
8.328,-0.007877364700321122
8.332,-0.007881163106103314
8.336,-0.007881475633161342
8.34,-0.007881403511532567
8.344,-0.007882244930534951
8.348,-0.007880297646558005
8.352,-0.007879672592441947
8.356,-0.007884745146999179
8.36,-0.007887990620294088
8.364,-0.007889336890697903
8.368,-0.007885129795685982
8.372,-0.007886836674233675
8.376,-0.007892173674763085
8.38,-0.007887798295950687
8.384,-0.007887437687806807
8.388,-0.007886788593147825
8.392,-0.007890731242187568
8.396,-0.007890538917844166
8.4,-0.007887870417579462
8.404,-0.007885466363286936
8.408,-0.007885875052516665
8.412,-0.00788575484980204
8.416,-0.007885466363286936
8.42,-0.007887942539208237
8.424,-0.007888279106809191
8.428,-0.00788940901232668
8.432,-0.007888471431152594
8.436,-0.007893399742452272
8.44,-0.007891957309876758
8.444,-0.00789493833719949
8.448,-0.007899818567413319
8.452,-0.007895515310229697
8.456,-0.007891813066619206
8.46,-0.007891909228790907
8.464,-0.007883831606368017
8.468,-0.00788575484980204
8.472,-0.0078867645526049
8.476,-0.007891981350419682
8.48,-0.007894433485798059
8.484,-0.007892101553134308
8.488,-0.007891452458475326
8.492,-0.007893279539737647
8.496,-0.007893375701909348
8.5,-0.007892197715306009
8.504,-0.00789092356653097
8.508000000000001,-0.007893736310053226
8.512,-0.007891716904447505
8.516,-0.007893760350596152
8.52,-0.00789727026986324
8.524000000000001,-0.007900635945872777
8.528,-0.007891885188247981
8.532,-0.007886620309347349
8.536,-0.007890202350243214
8.540000000000001,-0.007901405243246385
8.544,-0.007894553688512685
8.548,-0.007891091850331447
8.552,-0.007894746012856087
8.556000000000001,-0.007895226823714593
8.56,-0.007897534715835418
8.564,-0.007896260567060378
8.568,-0.007895923999459426
8.572000000000001,-0.007898616540267056
8.576,-0.00789950604035529
8.58,-0.007894890256113639
8.584,-0.007900131094471347
8.588000000000001,-0.00790736729789185
8.592,-0.007904097784054015
8.596,-0.007899385837640664
8.6,-0.00789950604035529
8.604000000000001,-0.007899770486327468
8.608,-0.007898712702438755
8.612,-0.007902198581162919
8.616,-0.007903184243422855
8.620000000000001,-0.007902150500077068
8.624,-0.007903857378624762
8.628,-0.007902414946049246
8.632,-0.007903184243422855
8.636000000000001,-0.007899722405241618
8.64,-0.007899818567413319
8.644,-0.007903232324508706
8.648,-0.007903015959622377
8.652000000000001,-0.007902583229849724
8.656,-0.007904602635455445
8.66,-0.007903544851566734
8.664,-0.007903376567766258
8.668000000000001,-0.007904554554369595
8.672,-0.00790082827021618
8.676,-0.007900347459357674
8.68,-0.007905468095000754
8.684000000000001,-0.007908713568295665
8.688,-0.007904338189483268
8.692,-0.007905347892286129
8.696,-0.007908929933181992
8.700000000000001,-0.007908737608838591
8.704,-0.007911406109103295
8.708,-0.007910348325214584
8.712,-0.007908016392550832
8.716,-0.007907223054634299
8.72,-0.00790691052757627
8.724,-0.007905660419344157
8.728,-0.007905251730114428
8.732,-0.007908905892639068
8.736,-0.007910396406300434
8.74,-0.007909627108926825
8.744,-0.007908425081780562
8.748,-0.00791539683922889
8.752,-0.007915372798685963
8.756,-0.00791193500104765
8.76,-0.007911189744216968
8.764,-0.007910949338787715
8.768,-0.007908545284495189
8.772,-0.0079095069062122
8.776,-0.007907896189836207
8.78,-0.007904097784054015
8.784,-0.00790397758133939
8.788,-0.007905155567942726
8.792,-0.007904746878712997
8.796,-0.007907703865492804
8.8,-0.007906021027488035
8.804,-0.007900972513473731
8.808,-0.007900227256643048
8.812,-0.007900251297185973
8.816,-0.007903015959622377
8.82,-0.007901429283789311
8.824,-0.007901862013561965
8.828,-0.0079095069062122
8.832,-0.007911718636161323
8.836,-0.007907968311464982
8.84,-0.007907848108750356
8.844,-0.007906958608662121
8.848,-0.00790914629806832
8.852,-0.00791046852792921
8.856,-0.007907439419520627
8.86,-0.007907319216806
8.864,-0.007910204081957032
8.868,-0.007909434784583424
8.872,-0.007904626675998372
8.876,-0.007906477797803615
8.88,-0.007908040433093759
8.884,-0.007907223054634299
8.888,-0.00790590082477341
8.892,-0.007908521243952263
8.896,-0.007907343257348926
8.9,-0.007909026095353693
8.904,-0.007915036231085009
8.908,-0.007912560055163708
8.912,-0.00791010791978533
8.916,-0.007906285473460214
8.92,-0.007904266067854491
8.924,-0.007906934568119197
8.928,-0.007906117189659737
8.932,-0.007908713568295665
8.936,-0.007909026095353693
8.94,-0.00791147823073207
8.944,-0.007911766717247174
8.948,-0.007911718636161323
8.952,-0.007910877217158939
8.956,-0.007912680257878333
8.96,-0.00791280046059296
8.964,-0.007909482865669273
8.968,-0.00790864144666689
8.972,-0.007912031163219351
8.976,-0.00791544492031474
8.98,-0.007914339055340176
8.984,-0.00791147823073207
8.988,-0.007905996986945111
8.992,-0.007908497203409338
8.996,-0.007909795392727303
9.0,-0.007908040433093759
9.004,-0.00791046852792921
9.008000000000001,-0.007907800027664506
9.012,-0.007910492568472136
9.016,-0.007913906325567523
9.02,-0.007910781054987237
9.024000000000001,-0.007912992784936363
9.028,-0.007912824501135885
9.032,-0.007914315014797252
9.036,-0.007912776420050035
9.040000000000001,-0.007908737608838591
9.044,-0.00791686331234733
9.048,-0.007919219285554006
9.052,-0.007915781487915692
9.056000000000001,-0.007915757447372768
9.06,-0.007914315014797252
9.064,-0.007913762082309971
9.068,-0.007911309946931594
9.072000000000001,-0.007909963676527779
9.076,-0.007916214217688348
9.08,-0.007909675190012675
9.084,-0.007910588730643837
9.088000000000001,-0.007911165703674042
9.092,-0.007911333987474518
9.096,-0.007908401041237637
9.1,-0.007908112554722534
9.104000000000001,-0.007907415378977701
9.108,-0.007908304879065936
9.112,-0.007907174973548448
9.116,-0.007907343257348926
9.120000000000001,-0.007908881852096141
9.124,-0.007909362662954647
9.128,-0.007908352960151787
9.132,-0.007913112987650989
9.136000000000001,-0.007915997852802021
9.14,-0.007914843906741608
9.144,-0.007911670555075473
9.148,-0.007910035798156556
9.152000000000001,-0.007908881852096141
9.156,-0.0079095069062122
9.16,-0.007914988149999158
9.164,-0.007907223054634299
9.168000000000001,-0.007902030297362443
9.172,-0.007903184243422855
9.176,-0.007907391338434776
9.18,-0.007910901257701865
9.184000000000001,-0.007913882285024596
9.188,-0.007910156000871181
9.192,-0.00790813659526546
9.196,-0.00790828083852301
9.200000000000001,-0.007906069108573886
9.204,-0.007906021027488035
9.208,-0.007908473162866412
9.212,-0.007908881852096141
9.216000000000001,-0.007905468095000754
9.22,-0.007906381635631916
9.224,-0.007908473162866412
9.228,-0.007904458392197894
9.232,-0.007909651149469751
9.236,-0.007913906325567523
9.24,-0.007908016392550832
9.244,-0.007904314148940342
9.248,-0.007906501838346541
9.252,-0.007906261432917288
9.256,-0.007901573527046863
9.26,-0.007903280405594557
9.264,-0.007904458392197894
9.268,-0.00790178989193319
9.272,-0.007904626675998372
9.276,-0.007906525878889466
9.28,-0.007906165270745587
9.284,-0.007907463460063551
9.288,-0.007906117189659737
9.292,-0.007907848108750356
9.296,-0.007914339055340176
9.3,-0.007915156433799636
9.304,-0.00791152631181792
9.308,-0.007915565123029366
9.312,-0.007916334420402973
9.316,-0.007906958608662121
9.32,-0.007903184243422855
9.324,-0.007911117622588192
9.328,-0.00791878655578135
9.332,-0.007914026528282148
9.336,-0.007915757447372768
9.34,-0.007914555420226505
9.344,-0.007911045500959417
9.348,-0.007910757014444313
9.352,-0.007911959041590576
9.356,-0.007913088947108063
9.36,-0.007911141663131118
9.364,-0.00790818467635131
9.368,-0.007910396406300434
9.372,-0.007908449122323488
9.376,-0.007910781054987237
9.38,-0.007914002487739224
9.384,-0.00791736816374876
9.388,-0.007917464325920462
9.392,-0.0079118869199618
9.396,-0.00791224752810568
9.4,-0.007906958608662121
9.404,-0.007909530946755124
9.408,-0.007905780622058784
9.412,-0.00790813659526546
9.416,-0.007914194812082626
9.42,-0.00791280046059296
9.424,-0.007910612771186761
9.428,-0.007910684892815536
9.432,-0.007911766717247174
9.436,-0.007913569757966568
9.44,-0.00791929140718278
9.444,-0.007919676055869585
9.448,-0.007919940501841763
9.452,-0.007917536447549237
9.456,-0.00791193500104765
9.46,-0.00791143014964622
9.464,-0.007912343690277381
9.468,-0.00791051660901506
9.472,-0.007911959041590576
9.476,-0.007914771785112832
9.48,-0.00790782406820743
9.484,-0.007910805095530164
9.488,-0.007914411176968953
9.492,-0.007912007122676427
9.496,-0.007911574392903771
9.5,-0.007909386703497574
9.504,-0.00790448243274082
9.508000000000001,-0.007907751946578655
9.512,-0.007907006689747972
9.516,-0.007908953973724918
9.52,-0.007905876784230484
9.524000000000001,-0.007907391338434776
9.528,-0.007909002054810769
9.532,-0.007908761649381516
9.536,-0.00790859336558104
9.540000000000001,-0.007906381635631916
9.544,-0.007905996986945111
9.548,-0.007907391338434776
9.552,-0.007910348325214584
9.556000000000001,-0.0079117907577901
9.56,-0.007913641879595345
9.564,-0.007915156433799636
9.568,-0.007913305311994391
9.572000000000001,-0.007914194812082626
9.576,-0.00791056469010091
9.58,-0.007910324284671658
9.584,-0.00791316106873684
9.588000000000001,-0.007908905892639068
9.592,-0.00791828170437992
9.596,-0.007914459258054804
9.6,-0.007912487933534931
9.604000000000001,-0.007912199447019829
9.608,-0.007911165703674042
9.612,-0.00791092529824479
9.616,-0.007908953973724918
9.620000000000001,-0.00791412269045385
9.624,-0.007916430582574675
9.628,-0.007909819433270227
9.632,-0.007908881852096141
9.636000000000001,-0.007913906325567523
9.64,-0.007915204514885487
9.644,-0.007911406109103295
9.648,-0.007905780622058784
9.652000000000001,-0.007905299811200278
9.656,-0.00790539597337198
9.66,-0.007910035798156556
9.664,-0.007909242460240022
9.668000000000001,-0.007908809730467366
9.672,-0.007912271568648604
9.676,-0.007916502704203451
9.68,-0.007916262298774198
9.684000000000001,-0.00790868952775274
9.688,-0.00791046852792921
9.692,-0.007908545284495189
9.696,-0.007906189311288513
9.700000000000001,-0.007909434784583424
9.704,-0.00790763174386403
9.708,-0.00790828083852301
9.712,-0.0079096030683839
9.716000000000001,-0.007910636811729687
9.72,-0.007908881852096141
9.724,-0.007909002054810769
9.728,-0.007908497203409338
9.732,-0.007907271135720149
9.736,-0.007906598000518242
9.74,-0.007912992784936363
9.744,-0.007910997419873566
9.748,-0.0079117907577901
9.752,-0.007912151365933979
9.756,-0.007918930799038902
9.76,-0.007914651582398206
9.764,-0.007906189311288513
9.768,-0.007908857811553217
9.772,-0.007914651582398206
9.776,-0.007910684892815536
9.78,-0.007907535581692328
9.784,-0.00791046852792921
9.788,-0.007912055203762277
9.792,-0.007911598433446698
9.796,-0.007906958608662121
9.8,-0.007904458392197894
9.804,-0.00790498728414225
9.808,-0.007906958608662121
9.812,-0.007907295176263075
9.816,-0.007905347892286129
9.82,-0.007905227689571503
9.824,-0.007905828703144635
9.828,-0.007905660419344157
9.832,-0.007909627108926825
9.836,-0.00790859336558104
9.84,-0.007905612338258306
9.844,-0.007902463027135096
9.848,-0.007905179608485653
9.852,-0.007910228122499956
9.856,-0.007913040866022214
9.86,-0.007918257663836996
9.864,-0.007913906325567523
9.868,-0.007911309946931594
9.872,-0.007913930366110447
9.876,-0.00791280046059296
9.88,-0.0079119830821335
9.884,-0.007908761649381516
9.888,-0.007906694162689944
9.892,-0.007908016392550832
9.896,-0.007909458825126349
9.9,-0.007908473162866412
9.904,-0.007912175406476903
9.908,-0.00791051660901506
9.912,-0.007907199014091374
9.916,-0.007909939635984855
9.92,-0.007909939635984855
9.924,-0.00790681436540457
9.928,-0.007907439419520627
9.932,-0.007910156000871181
9.936,-0.007913329352537316
9.94,-0.007916622906918077
9.944,-0.007916045933887872
9.948,-0.007914723704026981
9.952,-0.007911285906388668
9.956,-0.007908785689924442
9.96,-0.0079117907577901
9.964,-0.007911406109103295
9.968,-0.007912199447019829
9.972,-0.007914555420226505
9.976,-0.007912103284848128
9.98,-0.00791051660901506
9.984,-0.007899530080898215
9.988,-0.007898568459181205
9.992,-0.007902270702791694
9.996,-0.007905756581515858
10.0,-0.007907511541149402
10.004,-0.007909795392727303
10.008000000000001,-0.00791046852792921
10.012,-0.007912608136249558
10.016,-0.007912511974077857
10.02,-0.007908905892639068
10.024000000000001,-0.00790914629806832
10.028,-0.00791609401497372
10.032,-0.007910757014444313
10.036,-0.0079118869199618
10.040000000000001,-0.007914531379683579
10.044,-0.007914988149999158
10.048,-0.007917223920491209
10.052,-0.007910035798156556
10.056000000000001,-0.00791056469010091
10.06,-0.00790763174386403
10.064,-0.007910035798156556
10.068,-0.00791183883887595
10.072000000000001,-0.007912439852449082
10.076,-0.007912199447019829
10.08,-0.007908256797980085
10.084,-0.007905756581515858
10.088000000000001,-0.007906622041061167
10.092,-0.007910949338787715
10.096,-0.007919339488268631
10.1,-0.007914050568825074
10.104000000000001,-0.007910444487386285
10.108,-0.007909843473813153
10.112,-0.007912536014620782
10.116,-0.007907992352007908
10.120000000000001,-0.007908401041237637
10.124,-0.007914771785112832
10.128,-0.007914940068913308
10.132,-0.007913810163395821
10.136000000000001,-0.0079095069062122
10.14,-0.00791143014964622
10.144,-0.007908160635808384
10.148,-0.00790183797301904
10.152000000000001,-0.007905251730114428
10.156,-0.007905972946402185
10.16,-0.00790645375726069
10.164,-0.007905420013914904
10.168000000000001,-0.007905468095000754
10.172,-0.00790832891960886
10.176,-0.007907968311464982
10.18,-0.00790635759508899
10.184000000000001,-0.007907800027664506
10.188,-0.007903496770480883
10.192,-0.00790174181084734
10.196,-0.007904097784054015
10.200000000000001,-0.007905588297715382
10.204,-0.00790448243274082
10.208,-0.007903112121794079
10.212,-0.00789813572940855
10.216000000000001,-0.007900804229673253
10.22,-0.007900227256643048
10.224,-0.007898520378095355
10.228,-0.007899650283612841
10.232000000000001,-0.007898039567236849
10.236,-0.00790234282442047
10.24,-0.007905420013914904
10.244,-0.007906646081604093
10.248,-0.007905468095000754
10.252,-0.00790818467635131
10.256,-0.007910540649557986
10.26,-0.007910252163042883
10.264,-0.007909795392727303
10.268,-0.007903520811023808
10.272,-0.007901525445961012
10.276,-0.007899337756554813
10.28,-0.007901573527046863
10.284,-0.007902318783877545
10.288,-0.007900852310759104
10.292,-0.007901910094647815
10.296,-0.007903496770480883
10.3,-0.007903232324508706
10.304,-0.007901092716188357
10.308,-0.00790092443238788
10.312,-0.007899025229496785
10.316,-0.007903352527223332
10.32,-0.00790736729789185
10.324,-0.007909314581868797
10.328,-0.007909410744040498
10.332,-0.007912007122676427
10.336,-0.007908881852096141
10.34,-0.007905972946402185
10.344,-0.007905972946402185
10.348,-0.007902174540619995
10.352,-0.007900852310759104
10.356,-0.007903352527223332
10.36,-0.007905660419344157
10.364,-0.007899842607956243
10.368,-0.007899578161984066
10.372,-0.007899674324155767
10.376,-0.007905588297715382
10.38,-0.007904867081427623
10.384,-0.007904794959798848
10.388,-0.007907199014091374
10.392,-0.007907583662778179
10.396,-0.007907247095177225
10.4,-0.007906309514003139
10.404,-0.007903376567766258
10.408,-0.00791046852792921
10.412,-0.0079119830821335
10.416,-0.007910829136073088
10.42,-0.007908425081780562
10.424,-0.007901020594559582
10.428,-0.007899073310582636
10.432,-0.007904626675998372
10.436,-0.007904001621882314
10.44,-0.007898015526693924
10.444,-0.007902895756907752
10.448,-0.007903352527223332
10.452,-0.007902631310935574
10.456,-0.007903953540796463
10.46,-0.0079027515136502
10.464,-0.007904891121970549
10.468,-0.007905732540972934
10.472,-0.007905876784230484
10.476,-0.007910444487386285
10.48,-0.00791056469010091
10.484,-0.00790777598712158
10.488,-0.00790590082477341
10.492,-0.007904578594912521
10.496,-0.007903232324508706
10.5,-0.007903616973195509
10.504,-0.007905131527399802
10.508000000000001,-0.00790635759508899
10.512,-0.007906886487033346
10.516,-0.007910444487386285
10.52,-0.007909482865669273
10.524000000000001,-0.007901669689218562
10.528,-0.007900563824244
10.532,-0.00790828083852301
10.536,-0.007907271135720149
10.540000000000001,-0.007904506473283744
10.544,-0.00790467475708422
10.548,-0.007904242027311567
10.552,-0.00790763174386403
10.556000000000001,-0.007910276203585807
10.56,-0.007909843473813153
10.564,-0.007909915595441928
10.568,-0.00790909821698247
10.572000000000001,-0.00790005897284257
10.576,-0.00790229474333462
10.58,-0.007898977148410934
10.584,-0.007896140364345753
10.588000000000001,-0.007897967445608074
10.592,-0.00790138120270346
10.596,-0.007901309081074684
10.6,-0.00790133312161761
10.604000000000001,-0.007900227256643048
10.608,-0.007902991919079453
10.612,-0.007904650716541296
10.616,-0.007903592932652585
10.620000000000001,-0.007902030297362443
10.624,-0.007901549486503937
10.628,-0.00789909735112556
10.632,-0.00790183797301904
10.636000000000001,-0.007903689094824286
10.64,-0.007904458392197894
10.644,-0.007901140797274208
10.648,-0.007894096918197105
10.652000000000001,-0.007893375701909348
10.656,-0.007897462594206641
10.66,-0.00789676541846181
10.664,-0.007898856945696307
10.668000000000001,-0.007902174540619995
10.672,-0.007905227689571503
10.676,-0.007908929933181992
10.68,-0.007904746878712997
10.684000000000001,-0.007901309081074684
10.688,-0.007903184243422855
10.692,-0.007902174540619995
10.696,-0.007901982216276592
10.700000000000001,-0.007900780189130329
10.704,-0.0079027515136502
10.708,-0.00790787214929328
10.712,-0.007904001621882314
10.716000000000001,-0.007907992352007908
10.72,-0.007907343257348926
10.724,-0.007897246229320315
10.728,-0.007895635512944322
10.732000000000001,-0.00790229474333462
10.736,-0.00790082827021618
10.74,-0.007898568459181205
10.744,-0.007900491702615225
10.748000000000001,-0.00790234282442047
10.752,-0.007900780189130329
10.756,-0.007900299378271823
10.76,-0.007904097784054015
10.764,-0.007903328486680407
10.768,-0.007900083013385496
10.772,-0.00790092443238788
10.776,-0.00790229474333462
10.78,-0.007902174540619995
10.784,-0.007905516176086605
10.788,-0.00790467475708422
10.792,-0.007905780622058784
10.796,-0.007900251297185973
10.8,-0.007900227256643048
10.804,-0.007903136162337005
10.808,-0.007900708067501552
10.812,-0.00790325636505163
10.816,-0.007902463027135096
10.82,-0.007897534715835418
10.824,-0.007897101986062763
10.828,-0.007895250864257517
10.832,-0.007892173674763085
10.836,-0.00789255832344989
10.84,-0.007898063607779773
10.844,-0.007898544418638279
10.848,-0.007894553688512685
10.852,-0.007896140364345753
10.856,-0.007899193513297261
10.86,-0.007899530080898215
10.864,-0.00790316020287993
10.868,-0.007903448689395033
10.872,-0.00790371313536721
10.876,-0.007901260999988833
10.88,-0.007900587864786927
10.884,-0.007892534282906963
10.888,-0.007888086782465789
10.892,-0.007893159337023021
10.896,-0.007892101553134308
10.9,-0.0078890484041828
10.904,-0.007893543985709824
10.908,-0.007891596701732877
10.912,-0.007890154269157363
10.916,-0.007893447823538123
10.92,-0.007896164404888679
10.924,-0.007895779756201874
10.928,-0.007893375701909348
10.932,-0.007890635080015867
10.936,-0.007892582363992814
10.94,-0.0078890484041828
10.944,-0.007888735877124771
10.948,-0.007887437687806807
10.952,-0.007894241161454657
10.956,-0.007896380769775006
10.96,-0.007892534282906963
10.964,-0.007887894458122387
10.968,-0.007887605971607285
10.972,-0.007889841742099333
10.976,-0.007888062741922865
10.98,-0.00789457772905561
10.984,-0.007896092283259902
10.988,-0.00789621248597453
10.992,-0.007894866215570714
10.996,-0.007894649850684386
11.0,-0.007895347026429219
11.004,-0.00789640481031793
11.008000000000001,-0.007897895323979297
11.012,-0.007899289675468962
11.016,-0.007893640147881525
11.02,-0.007897486634749568
11.024000000000001,-0.007900972513473731
11.028,-0.007893808431682003
11.032,-0.007896885621176436
11.036,-0.00790128504053176
11.040000000000001,-0.00789275064779329
11.044,-0.007884240295597747
11.048,-0.007883663322567541
11.052,-0.007883086349537334
11.056000000000001,-0.007881018862845762
11.06,-0.00788772617432191
11.064,-0.007888255066266267
11.068,-0.007883663322567541
11.072000000000001,-0.007880754416873584
11.076,-0.007883903727996794
11.08,-0.007887870417579462
11.084,-0.007890779323273419
11.088000000000001,-0.007891933269333832
11.092,-0.007894265201997583
11.096,-0.00789356802625275
11.1,-0.007887846377036536
11.104000000000001,-0.007889360931240829
11.108,-0.007893808431682003
11.112,-0.007896621175204259
11.116,-0.007894096918197105
11.120000000000001,-0.007893471864081049
11.124,-0.007899818567413319
11.128,-0.007893760350596152
11.132,-0.00788763001215021
11.136000000000001,-0.0078913322557607
11.14,-0.007891043769245596
11.144,-0.007891692863904579
11.148,-0.007890274471871989
11.152000000000001,-0.00789032255295784
11.156,-0.007889745579927632
11.16,-0.007888158904094566
11.164,-0.007888832039296472
11.168000000000001,-0.007891933269333832
11.172,-0.007890803363816345
11.176,-0.007888110823008715
11.18,-0.007887004958034153
11.184000000000001,-0.00789032255295784
11.188,-0.007892678526164515
11.192,-0.00789325549919472
11.196,-0.007893904593853703
11.200000000000001,-0.007894000756025404
11.204,-0.007892414080192338
11.208,-0.007895010458828266
11.212,-0.00789448156688391
11.216000000000001,-0.007894842175027788
11.22,-0.007896813499547661
11.224,-0.007895298945343368
11.228,-0.007890755282730495
11.232000000000001,-0.00788950517449838
11.236,-0.00788772617432191
11.24,-0.007890034066442736
11.244,-0.00789087548544512
11.248000000000001,-0.007885201917314759
11.252,-0.007883470998224139
11.256,-0.007881619876418893
11.26,-0.007882629579221754
11.264,-0.007885586566001562
11.268,-0.007889288809612052
11.272,-0.007887654052693135
11.276,-0.007885875052516665
11.28,-0.007893471864081049
11.284,-0.007892077512591383
11.288,-0.007886956876948303
11.292,-0.007890082147528586
11.296,-0.007896092283259902
11.3,-0.007892077512591383
11.304,-0.007889601336670082
11.308,-0.007893592066795675
11.312,-0.007894337323626358
11.316,-0.00788726940400633
11.32,-0.007885466363286936
11.324,-0.00788767809323606
11.328,-0.007892005390962608
11.332,-0.007893183377565945
11.336,-0.007894000756025404
11.34,-0.007891452458475326
11.344,-0.00788503363351428
11.348,-0.007886067376860068
11.352,-0.007890034066442736
11.356,-0.0078981838104944
11.36,-0.007896837540090585
11.364,-0.007887317485092181
11.368,-0.00788726940400633
11.372,-0.007886956876948303
11.376,-0.007887293444549255
11.38,-0.007886884755319526
11.384,-0.007891909228790907
11.388,-0.00789955412144114
11.392,-0.007892149634220158
11.396,-0.007889312850154978
11.4,-0.007890442755672465
11.404,-0.007889336890697903
11.408,-0.007888279106809191
11.412,-0.007884961511885506
11.416,-0.007888832039296472
11.42,-0.007893760350596152
11.424,-0.007893447823538123
11.428,-0.007888110823008715
11.432,-0.007889264769069128
11.436,-0.007893928634396629
11.44,-0.007890779323273419
11.444,-0.007890130228614437
11.448,-0.007891596701732877
11.452,-0.007892582363992814
11.456,-0.007896813499547661
11.46,-0.00789457772905561
11.464,-0.007895154702085816
11.468,-0.007896573094118408
11.472,-0.007897702999635894
11.476,-0.007894457526340984
11.48,-0.007892077512591383
11.484,-0.007899121391668486
11.488,-0.007895731675116023
11.492,-0.007891764985533355
11.496,-0.00789306317485132
11.5,-0.007890659120558793
11.504,-0.007890611039472943
11.508000000000001,-0.007891091850331447
11.512,-0.00789224579639186
11.516,-0.007893087215394244
11.52,-0.007892414080192338
11.524000000000001,-0.00789087548544512
11.528,-0.007887389606720956
11.532,-0.00789041871512954
11.536,-0.007891572661189953
11.540000000000001,-0.007892870850507917
11.544,-0.007891043769245596
11.548,-0.007895226823714593
11.552,-0.007897053904976912
11.556000000000001,-0.007888014660837014
11.56,-0.007890683161101718
11.564,-0.007890154269157363
11.568,-0.00788479322808503
11.572000000000001,-0.007890250431329062
11.576,-0.007894409445255135
11.58,-0.007894890256113639
11.584,-0.007898905026782158
11.588000000000001,-0.007897246229320315
11.592,-0.007898328053751952
11.596,-0.00789950604035529
11.6,-0.007892221755848935
11.604000000000001,-0.00788991386372811
11.608,-0.007886187579574693
11.612,-0.007887654052693135
11.616,-0.007884961511885506
11.620000000000001,-0.007890635080015867
11.624,-0.00789325549919472
11.628,-0.007889384971783753
11.632,-0.007887846377036536
11.636000000000001,-0.007886115457945918
11.64,-0.007891957309876758
11.644,-0.0078913322557607
11.648,-0.007884961511885506
11.652000000000001,-0.007883999890168495
11.656,-0.007888543552781369
11.66,-0.007892534282906963
11.664,-0.007888880120382323
11.668000000000001,-0.007885971214688366
11.672,-0.007885682728173263
11.676,-0.007891524580104102
11.68,-0.007889889823185184
11.684000000000001,-0.007887389606720956
11.688,-0.007886476066089797
11.692,-0.007883350795509513
11.696,-0.007880489970901407
11.700000000000001,-0.007880682295244808
11.704,-0.007884408579398225
11.708,-0.007885899093059591
11.712,-0.007888759917667697
11.716000000000001,-0.007891813066619206
11.72,-0.007888447390609668
11.724,-0.007888399309523819
11.728,-0.007888158904094566
11.732000000000001,-0.007888783958210622
11.736,-0.00788671647151905
11.74,-0.007882461295421278
11.744,-0.007888255066266267
11.748000000000001,-0.007890514877301242
11.752,-0.00789037063404369
11.756,-0.007892967012679619
11.76,-0.007890178309700287
11.764000000000001,-0.0078913322557607
11.768,-0.007891091850331447
11.772,-0.007889841742099333
11.776,-0.007894697931770236
11.78,-0.007887149201291705
11.784,-0.007881499673704268
11.788,-0.007882293011620802
11.792,-0.007885682728173263
11.796,-0.007882220889992025
11.8,-0.007887461728349733
11.804,-0.007888928201468174
11.808,-0.00788549040382986
11.812,-0.007892942972136692
11.816,-0.007888423350066743
11.82,-0.00788621162011762
11.824,-0.007888928201468174
11.828,-0.007889889823185184
11.832,-0.007890514877301242
11.836,-0.007890947607073895
11.84,-0.007895250864257517
11.844,-0.007891861147705057
11.848,-0.007889264769069128
11.852,-0.00788529807948646
11.856,-0.007883903727996794
11.86,-0.007883182511709035
11.864,-0.007884144133426047
11.868,-0.007885538484915711
11.872,-0.007888880120382323
11.876,-0.007890995688159746
11.88,-0.007886163539031769
11.884,-0.007888110823008715
11.888,-0.007892317918020636
11.892,-0.007889889823185184
11.896,-0.00788726940400633
11.9,-0.007889625377213006
11.904,-0.007891620742275804
11.908,-0.0078913322557607
11.912,-0.007891572661189953
11.916,-0.007891716904447505
11.92,-0.007889433052869604
11.924,-0.007891356296303626
11.928,-0.007890250431329062
11.932,-0.007888206985180416
11.936,-0.007889192647440351
11.94,-0.007891067809788523
11.944,-0.007891163971960224
11.948,-0.007886187579574693
11.952,-0.00788493747134258
11.956,-0.007888519512238444
11.96,-0.007887197282377556
11.964,-0.007891356296303626
11.968,-0.007891861147705057
11.972,-0.007885706768716189
11.976,-0.007885466363286936
11.98,-0.007893399742452272
11.984,-0.007893183377565945
11.988,-0.007892149634220158
11.992,-0.007895322985886294
11.996,-0.007891524580104102
12.0,-0.00789092356653097
12.004,-0.007890514877301242
12.008000000000001,-0.007886668390433199
12.012,-0.007891692863904579
12.016,-0.007891572661189953
12.02,-0.007892053472048457
12.024000000000001,-0.007892173674763085
12.028,-0.007893928634396629
12.032,-0.007890154269157363
12.036,-0.007882437254878352
12.040000000000001,-0.007880153403300453
12.044,-0.007878422484209833
12.048,-0.007883014227908559
12.052,-0.007884721106456253
12.056000000000001,-0.007884889390256729
12.06,-0.007879336024840995
12.064,-0.007878061876065955
12.068,-0.007879792795156574
12.072000000000001,-0.007883374836052438
12.076,-0.007886427985003946
12.08,-0.00788726940400633
12.084,-0.007889553255584231
12.088000000000001,-0.007885274038943534
12.092,-0.007884600903741627
12.096,-0.007884841309170878
12.1,-0.007882317052163726
12.104000000000001,-0.007880970781759911
12.108,-0.00788306230899441
12.112,-0.007884961511885506
12.116,-0.007884288376683597
12.120000000000001,-0.007882869984651007
12.124,-0.007885706768716189
12.128,-0.0078890484041828
12.132,-0.00788397584962557
12.136000000000001,-0.007886884755319526
12.14,-0.007889553255584231
12.144,-0.007885466363286936
12.148,-0.007882052606191549
12.152000000000001,-0.007880706335787734
12.156,-0.007882413214335427
12.16,-0.007884096052340197
12.164,-0.007884456660484075
12.168000000000001,-0.007884721106456253
12.172,-0.00788311039008026
12.176,-0.007883038268451483
12.18,-0.00788549040382986
12.184000000000001,-0.007887317485092181
12.188,-0.007887437687806807
12.192,-0.007882966146822708
12.196,-0.007884288376683597
12.200000000000001,-0.007885322120029384
12.204,-0.007884817268627954
12.208,-0.007888519512238444
12.212,-0.00788772617432191
12.216000000000001,-0.007892197715306009
12.22,-0.00789037063404369
12.224,-0.007878855213982489
12.228,-0.0078799129978712
12.232000000000001,-0.007887798295950687
12.236,-0.007882581498135904
12.24,-0.007882341092706652
12.244,-0.007880538051987258
12.248000000000001,-0.007883999890168495
12.252,-0.007887125160748779
12.256,-0.007887509809435584
12.26,-0.007886524147175647
12.264000000000001,-0.007886019295774217
12.268,-0.007883278673880736
12.272,-0.007882509376507129
12.276,-0.007886427985003946
12.280000000000001,-0.007891163971960224
12.284,-0.007889577296127156
12.288,-0.00788996194481396
12.292,-0.007890803363816345
12.296,-0.007887798295950687
12.3,-0.007891067809788523
12.304,-0.007893688228967376
12.308,-0.007890034066442736
12.312,-0.007887077079662928
12.316,-0.007889433052869604
12.32,-0.0078935199451669
12.324,-0.007888086782465789
12.328,-0.007882749781936382
12.332,-0.007883927768539719
12.336,-0.007885875052516665
12.34,-0.007886187579574693
12.344,-0.007882797863022232
12.348,-0.007885682728173263
12.352,-0.007885610606544488
12.356,-0.007885153836228908
12.36,-0.007885274038943534
12.364,-0.007888567593324295
12.368,-0.007890851444902194
12.372,-0.007888543552781369
12.376,-0.007888856079839399
12.38,-0.007886091417402992
12.384,-0.007886548187718573
12.388,-0.007888231025723341
12.392,-0.007884144133426047
12.396,-0.007884600903741627
12.4,-0.007883999890168495
12.404,-0.007888110823008715
12.408,-0.007889673458298857
12.412,-0.007884120092883121
12.416,-0.007884240295597747
12.42,-0.007886043336317141
12.424,-0.007883903727996794
12.428,-0.007886476066089797
12.432,-0.007888086782465789
12.436,-0.007883374836052438
12.44,-0.007885562525458637
12.444,-0.007881571795333043
12.448,-0.007880345727643855
12.452,-0.00788351907930999
12.456,-0.00788498555242843
12.46,-0.007887389606720956
12.464,-0.007889024363639875
12.468,-0.007884865349713804
12.472,-0.00788524999840061
12.476,-0.00788863971495307
12.48,-0.007888447390609668
12.484,-0.007886355863375171
12.488,-0.007883230592794886
12.492,-0.007880634214158957
12.496,-0.007879384105926845
12.5,-0.007891163971960224
12.504,-0.007895851877830649
12.508000000000001,-0.007891356296303626
12.512,-0.00788118714664624
12.516,-0.007881980484562772
12.52,-0.007883855646910944
12.524000000000001,-0.007887846377036536
12.528,-0.007887101120205854
12.532,-0.007885562525458637
12.536,-0.007885875052516665
12.540000000000001,-0.007884192214511898
12.544,-0.007887317485092181
12.548,-0.0078889522420111
12.552,-0.007889985985356885
12.556000000000001,-0.00789032255295784
12.56,-0.00789092356653097
12.564,-0.00788868779603892
12.568,-0.007884192214511898
12.572000000000001,-0.007883254633337812
12.576,-0.007887004958034153
12.58,-0.00788306230899441
12.584,-0.007883302714423663
12.588000000000001,-0.007884745146999179
12.592,-0.00788183624130522
12.596,-0.007882004525105698
12.6,-0.007873902862139884
12.604000000000001,-0.0078730614431375
12.608,-0.007878614808553236
12.612,-0.0078799129978712
12.616,-0.0078776291462933
12.620000000000001,-0.00788137947098964
12.624,-0.007885225957857683
12.628,-0.007882725741393455
12.632,-0.007882629579221754
12.636000000000001,-0.007880850579045286
12.64,-0.007882677660307605
12.644,-0.007883302714423663
12.648,-0.007883951809082645
12.652000000000001,-0.00787681176783384
12.656,-0.007877653186836225
12.66,-0.007879480268098545
12.664,-0.007875633781230504
12.668000000000001,-0.007882124727820324
12.672,-0.00788493747134258
12.676,-0.007882389173792503
12.68,-0.007885394241658161
12.684000000000001,-0.007884432619941149
12.688,-0.007882437254878352
12.692,-0.007881547754790118
12.696,-0.007882220889992025
12.700000000000001,-0.00788544232274401
12.704,-0.007887702133778986
12.708,-0.007886788593147825
12.712,-0.007887365566178032
12.716000000000001,-0.0078845768631987
12.72,-0.007887894458122387
12.724,-0.007889360931240829
12.728,-0.007887004958034153
12.732000000000001,-0.007879071578868815
12.736,-0.007879552389727321
12.74,-0.007880898660131136
12.744,-0.007887004958034153
12.748000000000001,-0.007880009160042901
12.752,-0.007879095619411742
12.756,-0.007880297646558005
12.76,-0.007881499673704268
12.764000000000001,-0.007884288376683597
12.768,-0.007876018429917307
12.772,-0.007881908362933997
12.776,-0.007878783092353714
12.780000000000001,-0.007878398443666909
12.784,-0.007878061876065955
12.788,-0.007877701267922076
12.792,-0.007880153403300453
12.796000000000001,-0.007884240295597747
12.8,-0.007883879687453868
12.804,-0.007880105322214602
12.808,-0.00787630691643241
12.812,-0.007878302281495208
12.816,-0.007879384105926845
12.82,-0.007876883889462618
12.824,-0.00788133138990379
12.828,-0.007884384538855298
12.832,-0.007883639282024615
12.836,-0.007873470132367229
12.84,-0.007879095619411742
12.844,-0.007879095619411742
12.848,-0.007879624511356096
12.852,-0.007880706335787734
12.856,-0.007881355430446716
12.86,-0.007879792795156574
12.864,-0.007879191781583443
12.868,-0.0078799129978712
12.872,-0.00787580206503098
12.876,-0.007874095186483287
12.88,-0.007876330956975337
12.884,-0.007876907930005542
12.888,-0.007879095619411742
12.892,-0.007882389173792503
12.896,-0.007874720240599343
12.9,-0.007871378605132732
12.904,-0.007875369335258325
12.908,-0.007876907930005542
12.912,-0.007880658254701883
12.916,-0.007880177443843377
12.92,-0.00787255659173607
12.924,-0.007871017996988852
12.928,-0.007870368902329871
12.932,-0.00787529721362955
12.936,-0.00787351821345308
12.94,-0.007871114159160553
12.944,-0.007872003659248788
12.948,-0.007870657388844973
12.952,-0.007875465497430026
12.956,-0.007879023497782965
12.96,-0.0078775329841216
12.964,-0.007877869551722552
12.968,-0.007870585267216198
12.972,-0.007867243631749586
12.976,-0.007871282442961031
12.98,-0.007875177010914924
12.984,-0.007874984686571522
12.988,-0.007875441456887101
12.992,-0.007876018429917307
12.996,-0.00787484044331397
13.0,-0.007873974983768661
13.004,-0.0078776291462933
13.008000000000001,-0.007879985119499977
13.012,-0.00787895137615419
13.016,-0.007873133564766276
13.02,-0.007871306483503955
13.024000000000001,-0.007874455794627165
13.028,-0.00787722045706357
13.032,-0.00787717237597772
13.036,-0.007875970348831456
13.040000000000001,-0.00787484044331397
13.044,-0.007875537619058803
13.048,-0.007874575997341792
13.052,-0.007880225524929228
13.056000000000001,-0.007872436389021444
13.06,-0.007870705469930824
13.064,-0.007871522848390284
13.068,-0.00786808505075197
13.072000000000001,-0.007864527050399032
13.076,-0.007862267239364057
13.08,-0.00786625796948965
13.084,-0.00787041698341572
13.088000000000001,-0.007869527483327487
13.092,-0.0078663060505755
13.096,-0.007865825239716996
13.1,-0.007865873320802847
13.104000000000001,-0.0078662098884038
13.108,-0.007868565861610477
13.112,-0.007867700402065166
13.116,-0.007868613942696326
13.120000000000001,-0.007868758185953877
13.124,-0.007871042037531778
13.128,-0.007867291712835437
13.132,-0.007867195550663736
13.136000000000001,-0.007868878388668505
13.14,-0.007869599604956262
13.144,-0.007874551956798866
13.148,-0.007864358766598556
13.152000000000001,-0.007860993090589017
13.156,-0.007859430455298876
13.16,-0.007862748050222561
13.164,-0.007869166875183608
13.168000000000001,-0.007868565861610477
13.172,-0.00786702726686326
13.176,-0.007870537186130348
13.18,-0.007869599604956262
13.184000000000001,-0.007865200185600938
13.188,-0.00786479149637121
13.192,-0.00786575311808822
13.196,-0.007866690699262305
13.200000000000001,-0.007868926469754355
13.204,-0.007870537186130348
13.208,-0.007871883456534163
13.212,-0.00786584928025992
13.216000000000001,-0.007863757753025424
13.22,-0.007864815536914135
13.224,-0.007869070713011907
13.228,-0.007863829874654199
13.232000000000001,-0.007863565428682022
13.236,-0.007863589469224946
13.24,-0.007874744281142269
13.244,-0.007883495038767065
13.248000000000001,-0.007877100254348944
13.252,-0.007871883456534163
13.256,-0.007871402645675657
13.26,-0.007871330524046882
13.264000000000001,-0.007870657388844973
13.268,-0.007876691565119215
13.272,-0.007880850579045286
13.276,-0.0078799129978712
13.280000000000001,-0.007876859848919691
13.284,-0.007880586133073108
13.288,-0.007884216255054822
13.292,-0.0078821006872774
13.296000000000001,-0.007884047971254346
13.3,-0.007890082147528586
13.304,-0.007891067809788523
13.308,-0.007888110823008715
13.312000000000001,-0.007884264336140673
13.316,-0.007882990187365635
13.32,-0.007886187579574693
13.324,-0.007894000756025404
13.328,-0.007900852310759104
13.332,-0.007892774688336216
13.336,-0.007889697498841781
13.34,-0.007892630445078664
13.344,-0.007893183377565945
13.348,-0.00789452964796976
13.352,-0.007891981350419682
13.356,-0.007890683161101718
13.36,-0.007892846809964991
13.364,-0.007893447823538123
13.368,-0.007894770053399013
13.372,-0.007896164404888679
13.376,-0.007895563391315547
13.38,-0.007895803796744798
13.384,-0.007894962377742416
13.388,-0.007898231891580251
13.392,-0.007892462161278188
13.396,-0.007887654052693135
13.4,-0.007900587864786927
13.404,-0.007904891121970549
13.408,-0.007904338189483268
13.412,-0.007909122257525394
13.416,-0.007903472729937957
13.42,-0.00790366505428136
13.424,-0.00790325636505163
13.428,-0.007902823635278977
13.432,-0.007907679824949878
13.436,-0.007910396406300434
13.44,-0.007908833771010293
13.444,-0.007907679824949878
13.448,-0.007907247095177225
13.452,-0.007911117622588192
13.456,-0.007911141663131118
13.46,-0.00791183883887595
13.464,-0.007914819866198682
13.468,-0.007920733839758297
13.472,-0.00792316193459375
13.476,-0.007929244191953842
13.48,-0.007928835502724111
13.484,-0.007923979313053208
13.488,-0.00792294556970742
13.492,-0.007921623339846532
13.496,-0.00792727286743397
13.5,-0.007926167002459407
13.504,-0.00792655165114621
13.508000000000001,-0.007930638543443506
13.512,-0.007930157732585002
13.516,-0.007928426813494382
13.52,-0.007925565988886276
13.524000000000001,-0.007926936299833017
13.528,-0.00793188865167562
13.532,-0.007932513705791677
13.536,-0.007937201611662104
13.540000000000001,-0.007935831300715363
13.544,-0.007935230287142232
13.548,-0.00793955758486878
13.552,-0.007937129490033328
13.556000000000001,-0.007936600598088973
13.56,-0.00794559176114302
13.564,-0.007943043463592942
13.568,-0.007939990314641434
13.572000000000001,-0.00794097597690137
13.576,-0.007945567720600096
13.58,-0.00794869299118038
13.584,-0.007947418842405341
13.588000000000001,-0.00794777945054922
13.592,-0.007947346720776564
13.596,-0.007948861274980856
13.6,-0.007950832599500728
13.604000000000001,-0.007952611599677197
13.608,-0.007955232018856052
13.612,-0.007958285167807558
13.616,-0.007958717897580214
13.620000000000001,-0.007956410005459389
13.624,-0.007956530208174014
13.628,-0.007961266195130292
13.632,-0.007962612465534107
13.636000000000001,-0.007967685020091337
13.64,-0.007970642006871144
13.644,-0.007966314709144598
13.648,-0.007965112681998334
13.652000000000001,-0.007967540776833785
13.656,-0.00796742057411916
13.66,-0.007969872709497536
13.664,-0.00797350283147925
13.668000000000001,-0.007967853303891815
13.672,-0.007973695155822653
13.676,-0.00797528183165572
13.68,-0.007978310940064303
13.684000000000001,-0.007977541642690695
13.688,-0.007978238818435528
13.692,-0.007980739034899756
13.696,-0.007980787115985606
13.700000000000001,-0.007986532805744743
13.704,-0.00798614815705794
13.708,-0.007986917454431548
13.712,-0.007990571616956188
13.716000000000001,-0.007994225779480828
13.72,-0.007987830995062707
13.724,-0.00799249486039021
13.728,-0.007994273860566678
13.732000000000001,-0.00799446618491008
13.736,-0.007996894279745531
13.74,-0.007999514698924386
13.744,-0.007999322374580984
13.748000000000001,-0.007996461549972878
13.752,-0.00799989934761119
13.756,-0.008003793915565082
13.76,-0.008007327875375097
13.764000000000001,-0.008005188267054748
13.768,-0.008006943226688292
13.772,-0.008007399997003872
13.776,-0.008011895578530897
13.780000000000001,-0.008015958430285266
13.784,-0.00801131860550069
13.788,-0.00800893859175109
13.792,-0.008018915417065073
13.796000000000001,-0.008024781309538837
13.8,-0.008027473850346469
13.804,-0.008027545971975244
13.808,-0.008033724391507036
13.812000000000001,-0.008029349012694639
13.816,-0.00802040593072644
13.82,-0.008027618093604019
13.824,-0.008033411864449008
13.828,-0.008030743364184304
13.832,-0.008030599120926752
13.836,-0.008032113675131044
13.84,-0.008037066026973648
13.844,-0.008037306432402901
13.848,-0.008035719756569833
13.852,-0.008035166824082552
13.856,-0.00803858058117794
13.86,-0.008041032716556316
13.864,-0.008045672541340892
13.868,-0.008042114540987954
13.872,-0.00804136928415727
13.876,-0.00805177883924391
13.88,-0.008054038650278884
13.884,-0.00805004792015329
13.888,-0.00805420693407936
13.892,-0.008050889339155674
13.896,-0.00805050469046887
13.9,-0.008058606353434684
13.904,-0.008063847191792392
13.908,-0.008067140746173153
13.912,-0.008060697880669182
13.916,-0.008060289191439453
13.92,-0.008051995204130236
13.924,-0.008054952190910044
13.928,-0.008057692812803524
13.932,-0.008064592448623075
13.936,-0.008062524961931501
13.94,-0.00806269324573198
13.944,-0.008067958124632612
13.948,-0.008070698746526092
13.952,-0.008072357543987935
13.956,-0.008076396355199378
13.96,-0.008078752328406054
13.964,-0.008080627490754225
13.968,-0.008079954355552317
13.972,-0.008082069923329742
13.976,-0.008080531328582524
13.98,-0.008080507288039598
13.984,-0.008081565071928311
13.988,-0.008084954788480772
13.992,-0.008090099464666779
13.996,-0.008089258045664394
14.0,-0.008088993599692217
14.004,-0.008085339437167577
14.008000000000001,-0.008086902072457719
14.012,-0.008088128140146908
14.016,-0.00808750308603085
14.02,-0.008090532194439434
14.024000000000001,-0.008092263113530052
14.028,-0.008094667167822579
14.032,-0.008098754060119874
14.036,-0.008093657465019718
14.040000000000001,-0.008092190991901277
14.044,-0.00809060431606821
14.048,-0.008085002869566623
14.052,-0.008090411991724807
14.056000000000001,-0.008093513221762166
14.06,-0.008092046748643725
14.064,-0.00809481141108013
14.068,-0.008099162749349603
14.072000000000001,-0.008097552032973611
14.076,-0.00809115724855549
14.08,-0.008096350005827348
14.084,-0.00809613364094102
14.088000000000001,-0.008092455437873455
14.092,-0.008093441100133391
14.096,-0.008106086425712079
14.1,-0.008106519155484734
14.104000000000001,-0.00810522096616677
14.108,-0.008105196925623843
14.112,-0.008107937547517324
14.116,-0.008109115534120663
14.120000000000001,-0.008113202426417956
14.124,-0.00811445253465007
14.128,-0.008111447466784412
14.132,-0.008109043412491886
14.136000000000001,-0.008111976358728769
14.14,-0.008115943048311437
14.144,-0.008116880629485523
14.148,-0.008116399818627017
14.152000000000001,-0.008112216764158022
14.156,-0.008113226466960883
14.16,-0.008117673967402055
14.164,-0.008115582440167558
14.168000000000001,-0.008115846886139736
14.172,-0.008113971723791566
14.176,-0.0081125773723019
14.18,-0.00811577476451096
14.184000000000001,-0.008121592575898874
14.188,-0.00812426107616358
14.192,-0.008122121467843229
14.196,-0.008121424292098396
14.200000000000001,-0.008119308724320973
14.204,-0.008120390548752611
14.208,-0.008123107130103165
14.212,-0.00812298692738854
14.216000000000001,-0.00812368410313337
14.22,-0.008125919873625423
14.224,-0.008126809373713658
14.228,-0.0081217127786135
14.232000000000001,-0.008117217197086475
14.236,-0.008120558832553087
14.24,-0.008122842684130988
14.244,-0.008121640656984725
14.248000000000001,-0.008121472373184247
14.252,-0.008118924075634169
14.256,-0.008121039643411593
14.26,-0.008123828346390926
14.264000000000001,-0.008120510751467237
14.268,-0.008119452967578525
14.272,-0.00812084731906819
14.276,-0.008117890332288383
14.280000000000001,-0.008109043412491886
14.284,-0.008111375345155637
14.288,-0.00811125514244101
14.292,-0.008111784034385366
14.296000000000001,-0.008114212129220817
14.3,-0.008112913939902853
14.304,-0.008115510318538782
14.308,-0.00811344283184721
14.312000000000001,-0.00810837027728998
14.316,-0.008107240371772491
14.32,-0.008108226034032428
14.324,-0.008108298155661203
14.328000000000001,-0.008108586642176306
14.332,-0.008107336533944192
14.336,-0.008105124803995068
14.34,-0.008103874695762955
14.344,-0.008113346669675508
14.348,-0.008109644426065018
14.352,-0.00810380257413418
14.356,-0.008106038344626228
14.36,-0.008104115101192208
14.364,-0.008103369844361524
14.368,-0.00810445166879316
14.372,-0.0081080096691461
14.376,-0.008106158547340855
14.38,-0.008104403587707311
14.384,-0.008103850655220029
14.388,-0.00810349004707615
14.392,-0.00810303327676057
14.396,-0.008101855290157233
14.4,-0.00810252842535914
14.404,-0.008104571871507787
14.408,-0.008110317561266926
14.412,-0.008108899169234334
14.416,-0.008110942615382982
14.42,-0.008101350438755803
14.424,-0.008097720316774087
14.428,-0.008102360141558664
14.432,-0.008106086425712079
14.436,-0.008103610249790777
14.44,-0.008101230236041175
14.444,-0.00810038881703879
14.448,-0.008103249641646897
14.452,-0.00810252842535914
14.456,-0.008097119303200956
14.46,-0.008100244573781239
14.464,-0.008106374912227182
14.468,-0.008102263979386962
14.472,-0.008101085992783624
14.476,-0.008103778533591253
14.48,-0.008109812709865495
14.484,-0.008109812709865495
14.488,-0.0081080096691461
14.492,-0.008107697142088071
14.496,-0.008110654128867878
14.5,-0.008110221399095225
14.504,-0.008106471074398883
14.508000000000001,-0.008105389249967246
14.512,-0.008108201993489501
14.516,-0.008105485412138947
14.52,-0.008110005034208896
14.524000000000001,-0.008114260210306668
14.528,-0.008107504817744669
14.532,-0.008103922776848805
14.536,-0.008110822412668356
14.540000000000001,-0.0081125773723019
14.544,-0.008114668899536397
14.548,-0.008112962020988703
14.552,-0.008111399385698562
14.556000000000001,-0.008111134939726384
14.56,-0.00811079837212543
14.564,-0.008108827047605559
14.568,-0.008107793304259772
14.572000000000001,-0.008105533493224798
14.576,-0.008105413290510172
14.58,-0.008103922776848805
14.584,-0.00810714420960079
14.588000000000001,-0.008107120169057866
14.592,-0.008108177952946577
14.596,-0.008104547830964861
14.6,-0.008105894101368676
14.604000000000001,-0.00810435550662146
14.608,-0.008100412857581717
14.612,-0.008102215898301112
14.616,-0.008103562168704927
14.620000000000001,-0.008107288452858342
14.624,-0.00810577389865405
14.628,-0.008105341168881395
14.632,-0.008103754493048329
14.636000000000001,-0.00809892234392035
14.64,-0.008103730452505403
14.644,-0.008103153479475197
14.648,-0.008099475276407631
14.652000000000001,-0.008099956087266137
14.656,-0.008100484979210492
14.66,-0.008101037911697773
14.664,-0.008094546965107953
14.668000000000001,-0.008091085126926715
14.672,-0.00809526818139571
14.676,-0.00809334493796169
14.68,-0.008089931180866303
14.684000000000001,-0.008083103666675527
14.688,-0.00808425761273594
14.692,-0.008086445302142139
14.696,-0.008083247909933079
14.700000000000001,-0.008076228071398902
14.704,-0.00807389613873515
14.708,-0.008075410692939444
14.712,-0.008067164786716078
14.716000000000001,-0.008067212867801928
14.72,-0.008071636327700176
14.724,-0.00807247774670256
14.728,-0.008063558705277288
14.732000000000001,-0.008060866164469658
14.736,-0.008058798677778086
14.74,-0.008056659069457737
14.744,-0.00805740432628842
14.748000000000001,-0.008054591582766165
14.752,-0.008050793176983973
14.756,-0.008049374784951383
14.76,-0.008036897743173172
14.764000000000001,-0.008034493688880645
14.768,-0.008042210703159655
14.772,-0.0080372102702312
14.776,-0.008037811283804331
14.780000000000001,-0.008038436337920387
14.784,-0.00803355610770656
14.788,-0.00803456581050942
14.792,-0.008026944958402112
14.796000000000001,-0.008025238079854417
14.8,-0.008026392025914831
14.804,-0.008022305133617536
14.808,-0.008018819254893372
14.812000000000001,-0.008015237213997509
14.816,-0.008009563645867145
14.82,-0.008005356550855224
14.824,-0.008004587253481616
14.828000000000001,-0.00799953873946731
14.832,-0.007992374657675582
14.836,-0.007990643738584964
14.84,-0.007985162494798003
14.844000000000001,-0.007982686318876702
14.848,-0.007975906885771777
14.852,-0.007970810290671622
14.856,-0.00796893512832345
14.86,-0.007963069235849687
14.864,-0.007955833032429183
14.868,-0.007950496031899774
14.872,-0.007944245490739205
14.876,-0.007938571922608844
14.88,-0.007938499800980067
14.884,-0.00793220117873365
14.888,-0.007932585827420452
14.892,-0.007927753678292475
14.896,-0.00792198394799041
14.9,-0.007921815664189934
14.904,-0.00792001262347054
14.908,-0.007909723271098526
14.912,-0.0079049392030564
14.916,-0.007908545284495189
14.92,-0.007906309514003139
14.924,-0.00790777598712158
14.928,-0.007903809297538911
14.932,-0.00790366505428136
14.936,-0.007905083446313951
14.94,-0.007903376567766258
14.944,-0.007903785256995987
14.948,-0.007908761649381516
14.952,-0.007911454190189146
14.956,-0.007914531379683579
14.96,-0.007918401907094547
14.964,-0.007917897055693115
14.968,-0.007911237825302819
14.972,-0.007912439852449082
14.976,-0.007909434784583424
14.98,-0.007908112554722534
14.984,-0.007912367730820305
14.988,-0.007913329352537316
14.992,-0.007909362662954647
14.996,-0.00791193500104765
15.0,-0.007910348325214584
15.004,-0.007909410744040498
15.008000000000001,-0.007911550352360847
15.012,-0.007911189744216968
15.016,-0.00790813659526546
15.02,-0.007902991919079453
15.024000000000001,-0.007907727906035729
15.028,-0.007910805095530164
15.032,-0.007912007122676427
15.036,-0.007905347892286129
15.040000000000001,-0.007904097784054015
15.044,-0.007901934135190742
15.048,-0.007906093149116812
15.052,-0.007900659986415702
15.056000000000001,-0.007901621608132714
15.06,-0.007906141230202663
15.064,-0.007905203649028577
15.068,-0.007908304879065936
15.072000000000001,-0.007909122257525394
15.076,-0.007911261865845743
15.08,-0.007910276203585807
15.084,-0.007905299811200278
15.088000000000001,-0.00790092443238788
15.092,-0.007899121391668486
15.096,-0.007899770486327468
15.1,-0.007902150500077068
15.104000000000001,-0.007903857378624762
15.108,-0.007907102851919673
15.112,-0.007905972946402185
15.116,-0.007895010458828266
15.120000000000001,-0.00788900032309695
15.124,-0.007888663755495996
15.128,-0.007892510242364039
15.132,-0.007895010458828266
15.136000000000001,-0.00789457772905561
15.14,-0.007888206985180416
15.144,-0.007892534282906963
15.148,-0.007897895323979297
15.152000000000001,-0.00789909735112556
15.156,-0.007893303580280571
15.16,-0.00789183710716213
15.164,-0.007893207418108871
15.168000000000001,-0.007894409445255135
15.172,-0.00790010705392842
15.176,-0.007905612338258306
15.18,-0.00790905013589662
15.184000000000001,-0.00789722218877739
15.188,-0.007888206985180416
15.192,-0.0079003714999006
15.196,-0.007902871716364826
15.200000000000001,-0.007897198148234464
15.204,-0.007898784824067532
15.208,-0.007903304446137481
15.212,-0.007902583229849724
15.216000000000001,-0.007899025229496785
15.22,-0.007897654918550044
15.224,-0.007900299378271823
15.228,-0.007904145865139866
15.232000000000001,-0.00789717410769154
15.236,-0.0078980876483227
15.24,-0.007902054337905367
15.244,-0.007901886054104891
15.248000000000001,-0.0078936161073386
15.252,-0.007885274038943534
15.256,-0.007888158904094566
15.26,-0.007884360498312374
15.264000000000001,-0.007879095619411742
15.268,-0.007877052173263094
15.272,-0.007879624511356096
15.276,-0.007872748916079472
15.280000000000001,-0.007867003226320333
15.284,-0.007869647686042112
15.288,-0.007873301848566753
15.292,-0.00786854182106755
15.296000000000001,-0.007861281577104121
15.3,-0.007853059711423681
15.304,-0.007848467967724955
15.308,-0.007845270575515895
15.312000000000001,-0.007840799034531797
15.316,-0.007840847115617647
15.32,-0.0078410875210469
15.324,-0.007830750087589036
15.328000000000001,-0.00783012503347298
15.332,-0.007824812073486495
15.336,-0.007825941979003982
15.34,-0.007823081154395875
15.344000000000001,-0.007821614681277435
15.348,-0.00781935487024246
15.352,-0.007820677100103349
15.356,-0.007819378910785385
15.36,-0.007821927208335463
15.364,-0.007825821776289356
15.368,-0.007830942411932438
15.372,-0.007834452331199527
15.376,-0.007830750087589036
15.38,-0.007829331695556446
15.384,-0.007832192520164552
15.388,-0.007830653925417336
15.392,-0.007839909534443561
15.396,-0.007848227562295702
15.4,-0.007846977454063589
15.404,-0.007854069414226542
15.408,-0.007859670860728129
15.412,-0.007861281577104121
15.416,-0.007864046239540526
15.42,-0.007864286644969779
15.424,-0.007872796997165322
15.428,-0.007872244064678041
15.432,-0.007873253767480902
15.436,-0.007878109957151805
15.44,-0.00787681176783384
15.444,-0.007877701267922076
15.448,-0.007881980484562772
15.452,-0.00788717324183463
15.456,-0.007895202783171667
15.46,-0.007897390472577866
15.464,-0.007897486634749568
15.468,-0.007901068675645431
15.472,-0.00790594890585926
15.476,-0.007904698797627147
15.48,-0.007903857378624762
15.484,-0.007906549919432392
15.488,-0.00790763174386403
15.492,-0.007916238258231272
15.496,-0.00792727286743397
15.5,-0.007927705597206625
15.504,-0.007926022759201855
15.508000000000001,-0.007928715300009485
15.512,-0.007929989448784525
15.516,-0.007934196543796446
15.52,-0.007940855774186743
15.524000000000001,-0.007945784085486423
15.528,-0.007949269964210585
15.532,-0.007948765112809154
15.536,-0.007945880247658124
15.540000000000001,-0.007948188139778949
15.544,-0.00795244331587672
15.548,-0.007952154829361617
15.552,-0.007950736437329027
15.556000000000001,-0.007958597694865588
15.56,-0.007962973073677986
15.564,-0.007969007249952227
15.568,-0.007969776547325835
15.572000000000001,-0.007964992479283707
15.576,-0.007968670682351273
15.58,-0.007978142656263827
15.584,-0.007988672414065092
15.588000000000001,-0.007996966401374308
15.592,-0.007999779144896564
15.596,-0.007999178131323432
15.6,-0.00799761549603329
15.604000000000001,-0.00799751933386159
15.608,-0.00799263910364776
15.612,-0.008000163793583369
15.616,-0.008003457347964128
15.620000000000001,-0.008004250685880662
15.624,-0.008008313537635032
15.628,-0.008008626064693061
15.632,-0.0080077125240619
15.636000000000001,-0.008002543807332969
15.64,-0.00800994829455395
15.644,-0.008009587686410071
15.648,-0.008005019983254272
15.652000000000001,-0.008010693551384633
15.656,-0.008011222443328988
15.66,-0.008006847064516591
15.664,-0.00801213598396015
15.668000000000001,-0.008023314836420397
15.672,-0.008023386958049172
15.676,-0.00802314655261992
15.68,-0.008020718457784468
15.684000000000001,-0.008019227944123101
15.688,-0.008026536269172383
15.692,-0.00802624778265728
15.696,-0.008031031850699408
15.700000000000001,-0.008024036052708154
15.704,-0.008018049957519764
15.708,-0.008018410565663643
15.712,-0.00801223214613185
15.716000000000001,-0.008003986239908485
15.72,-0.008002567847875895
15.724,-0.007998553077207374
15.728,-0.007992975671248714
15.732000000000001,-0.007993889211879874
15.736,-0.008002111077560315
15.74,-0.007999370455666835
15.744,-0.007994971036311511
15.748000000000001,-0.007995283563369539
15.752,-0.007993336279392593
15.756,-0.007995427806627091
15.76,-0.007991990008988778
15.764000000000001,-0.00799213425224633
15.768,-0.007997663577119141
15.772,-0.007994898914682736
15.776,-0.007999610861096088
15.780000000000001,-0.008002471685704194
15.784,-0.00800319290199195
15.788,-0.00800898667283694
15.792,-0.008019396227923579
15.796000000000001,-0.008011799416359195
15.8,-0.008008265456549181
15.804,-0.008017881673719286
15.808,-0.008024997674425164
15.812000000000001,-0.008020237646925962
15.816,-0.008017737430461736
15.82,-0.008020021282039635
15.824,-0.00802812294500545
15.828000000000001,-0.008036176526885413
15.832,-0.008041104838185093
15.836,-0.008044999406138984
15.84,-0.008050264285039618
15.844000000000001,-0.008052524096074593
15.848,-0.008048317001062672
15.852,-0.008051177825670778
15.856,-0.008053509758334527
15.860000000000001,-0.008050985501327376
15.864,-0.008053149150190649
15.868,-0.008055625326111952
15.872,-0.0080624287997598
15.876,-0.008060120907638975
15.88,-0.008063823151249466
15.884,-0.008069977530238333
15.888,-0.008071131476298746
15.892,-0.008078608085148502
15.896,-0.008081757396271712
15.9,-0.008083488315362332
15.904,-0.0080828873017892
15.908,-0.008082069923329742
15.912,-0.008086709748114316
15.916,-0.00808872915372004
15.92,-0.008082454572016545
15.924,-0.008083993166763762
15.928,-0.00808800793743228
15.932,-0.008094955654337682
15.936,-0.008099595479122259
15.94,-0.008105389249967246
15.944,-0.008105028641823367
15.948,-0.008104211263363909
15.952,-0.00810764906100222
15.956,-0.00810815391240365
15.96,-0.008110173318009374
15.964,-0.008106567236570585
15.968,-0.008106471074398883
15.972,-0.008108851088148484
15.976,-0.008111062818097607
15.98,-0.008116015169940212
15.984,-0.008111110899183458
15.988,-0.008110509885610327
15.992,-0.008109908872037195
15.996,-0.008112745656102377
16.0,-0.008118587508033216
16.004,-0.008115967088854361
16.008,-0.00811394768324864
16.012,-0.008108562601633382
16.016000000000002,-0.008114789102251024
16.02,-0.008119404886492675
16.024,-0.008111183020812235
16.028,-0.008112745656102377
16.032,-0.008113058183160405
16.036,-0.008110293520724
16.04,-0.00811156766949904
16.044,-0.008115654561796333
16.048000000000002,-0.008115606480710483
16.052,-0.008116904670028447
16.056,-0.008116087291568989
16.06,-0.008115173750937829
16.064,-0.00812034246766676
16.068,-0.008118635589119067
16.072,-0.008114933345508576
16.076,-0.008114741021165174
16.080000000000002,-0.008115558399624632
16.084,-0.008113755358905237
16.088,-0.008118467305318589
16.092,-0.008118707710747842
16.096,-0.008110317561266926
16.1,-0.008113106264246255
